Data from WStandard_LampEnergy5.5LIBS07252019.E.O._I.C._HRD10591_16-08-44-920.txt Node
Date: Thu Jul 25 16:08:44 EDT 2019
User: cochatt
Spectrometer: HR+D1059
Trigger mode: 1
Integration Time (sec): 1.000000E-1
Scans to average: 1
Electric dark correction enabled: true
Nonlinearity correction enabled: false
Boxcar width: 0
XAxis mode: Wavelengths
Number of Pixels in Spectrum: 2048
>>>>>Begin Spectral Data<<<<<
223.165	-6.31
223.4	-6.31
223.635	-6.31
223.869	-12.31
224.104	-18.31
224.338	-3.31
224.573	-3.31
224.808	-34.31
225.042	-25.31
225.277	-10.31
225.511	-6.31
225.746	9.69
225.98	6.69
226.215	9.69
226.449	9.69
226.683	26.69
226.918	25.69
227.152	31.69
227.387	37.69
227.621	38.69
227.856	35.69
228.09	53.69
228.324	37.69
228.559	56.69
228.793	144.69
229.027	385.69
229.262	367.69
229.496	383.69
229.73	388.69
229.964	435.69
230.199	461.69
230.433	463.69
230.667	494.69
230.901	513.69
231.136	463.69
231.37	452.69
231.604	441.69
231.838	448.69
232.072	474.69
232.306	440.69
232.541	450.69
232.775	558.69
233.009	567.69
233.243	562.69
233.477	524.69
233.711	537.69
233.945	534.69
234.179	485.69
234.413	554.69
234.647	614.69
234.881	571.69
235.115	528.69
235.349	552.69
235.583	541.69
235.817	563.69
236.051	530.69
236.285	537.69
236.519	567.69
236.753	651.69
236.987	669.69
237.221	664.69
237.455	713.69
237.689	701.69
237.922	666.69
238.156	642.69
238.39	647.69
238.624	690.69
238.858	743.69
239.091	743.69
239.325	753.69
239.559	881.69
239.793	954.69
240.027	980.69
240.26	1001.69
240.494	751.69
240.728	693.69
240.961	704.69
241.195	711.69
241.429	805.69
241.662	829.69
241.896	745.69
242.13	733.69
242.363	821.69
242.597	883.69
242.83	849.69
243.064	883.69
243.298	957.69
243.531	905.69
243.765	915.69
243.998	911.69
244.232	795.69
244.465	746.69
244.699	774.69
244.932	881.69
245.166	1039.69
245.399	961.69
245.633	886.69
245.866	870.69
246.099	925.69
246.333	943.69
246.566	934.69
246.8	1021.69
247.033	1171.69
247.266	1061.69
247.5	1011.69
247.733	1043.69
247.966	1070.69
248.2	1234.69
248.433	1152.69
248.666	1169.69
248.899	1293.69
249.133	1503.69
249.366	1743.69
249.599	1385.69
249.832	1188.69
250.066	1225.69
250.299	1284.69
250.532	1198.69
250.765	1054.69
250.998	1124.69
251.231	1195.69
251.465	1237.69
251.698	1152.69
251.931	1178.69
252.164	1175.69
252.397	1224.69
252.63	1201.69
252.863	1075.69
253.096	1076.69
253.329	1156.69
253.562	1174.69
253.795	1273.69
254.028	1241.69
254.261	1184.69
254.494	1146.69
254.727	1102.69
254.96	1131.69
255.193	1241.69
255.426	1375.69
255.659	1593.69
255.892	1605.69
256.124	1338.69
256.357	1298.69
256.59	1382.69
256.823	1416.69
257.056	1411.69
257.289	1687.69
257.521	1879.69
257.754	1647.69
257.987	1580.69
258.22	1745.69
258.452	1705.69
258.685	1411.69
258.918	1373.69
259.151	1327.69
259.383	1306.69
259.616	1149.69
259.849	1173.69
260.081	1383.69
260.314	1527.69
260.547	1654.69
260.779	1689.69
261.012	1563.69
261.244	1402.69
261.477	1339.69
261.71	1408.69
261.942	1399.69
262.175	1356.69
262.407	1433.69
262.64	1351.69
262.872	1252.69
263.105	1204.69
263.337	1243.69
263.57	1257.69
263.802	1277.69
264.035	1213.69
264.267	1144.69
264.499	1107.69
264.732	1191.69
264.964	1259.69
265.197	1320.69
265.429	1342.69
265.661	1537.69
265.894	1700.69
266.126	1782.69
266.358	1574.69
266.591	1595.69
266.823	1763.69
267.055	1557.69
267.287	1541.69
267.52	1533.69
267.752	1514.69
267.984	1517.69
268.216	1595.69
268.448	1626.69
268.681	1632.69
268.913	1488.69
269.145	1373.69
269.377	1339.69
269.609	1463.69
269.841	1671.69
270.073	1986.69
270.306	2207.69
270.538	2388.69
270.77	2002.69
271.002	1673.69
271.234	1600.69
271.466	1617.69
271.698	1807.69
271.93	2134.69
272.162	2169.69
272.394	1913.69
272.626	1870.69
272.858	1650.69
273.09	1452.69
273.322	1406.69
273.553	1327.69
273.785	1370.69
274.017	1411.69
274.249	1530.69
274.481	1533.69
274.713	1429.69
274.945	1354.69
275.176	1407.69
275.408	1374.69
275.64	1365.69
275.872	1331.69
276.104	1421.69
276.335	1630.69
276.567	1876.69
276.799	1861.69
277.031	1683.69
277.262	1547.69
277.494	1650.69
277.726	1813.69
277.957	1832.69
278.189	1648.69
278.421	1464.69
278.652	1486.69
278.884	1455.69
279.115	1478.69
279.347	1487.69
279.579	1444.69
279.81	1401.69
280.042	1583.69
280.273	1744.69
280.505	1745.69
280.736	1768.69
280.968	1727.69
281.199	1453.69
281.431	1428.69
281.662	1424.69
281.894	1435.69
282.125	1453.69
282.356	1517.69
282.588	1564.69
282.819	1530.69
283.051	1653.69
283.282	1781.69
283.513	1682.69
283.745	1517.69
283.976	1384.69
284.207	1403.69
284.439	1419.69
284.67	1470.69
284.901	1497.69
285.132	1494.69
285.364	1488.69
285.595	1501.69
285.826	1486.69
286.057	1464.69
286.288	1445.69
286.52	1503.69
286.751	1660.69
286.982	1713.69
287.213	1579.69
287.444	1421.69
287.675	1425.69
287.906	1482.69
288.138	1620.69
288.369	1568.69
288.6	1472.69
288.831	1438.69
289.062	1451.69
289.293	1495.69
289.524	1499.69
289.755	1506.69
289.986	1560.69
290.217	1433.69
290.448	1437.69
290.679	1499.69
290.91	1514.69
291.141	1518.69
291.371	1611.69
291.602	1583.69
291.833	1575.69
292.064	1617.69
292.295	1593.69
292.526	1617.69
292.757	1729.69
292.987	1613.69
293.218	1509.69
293.449	1628.69
293.68	1841.69
293.91	1960.69
294.141	1869.69
294.372	1747.69
294.603	1798.69
294.833	1911.69
295.064	1799.69
295.295	1624.69
295.525	1575.69
295.756	1446.69
295.987	1419.69
296.217	1416.69
296.448	1466.69
296.679	1462.69
296.909	1454.69
297.14	1456.69
297.37	1481.69
297.601	1544.69
297.831	1699.69
298.062	1729.69
298.292	1540.69
298.523	1492.69
298.753	1466.69
298.984	1575.69
299.214	1521.69
299.445	1546.69
299.675	1585.69
299.905	1611.69
300.136	1565.69
300.366	1496.69
300.597	1451.69
300.827	1443.69
301.057	1486.69
301.288	1570.69
301.518	1574.69
301.748	1606.69
301.979	1683.69
302.209	1702.69
302.439	1789.69
302.669	1925.69
302.9	1821.69
303.13	1604.69
303.36	1579.69
303.59	1651.69
303.82	1589.69
304.051	1584.69
304.281	1597.69
304.511	1598.69
304.741	1725.69
304.971	1834.69
305.201	2050.69
305.431	1875.69
305.661	1563.69
305.891	1420.69
306.121	1427.69
306.352	1456.69
306.582	1535.69
306.812	1671.69
307.042	1781.69
307.272	1761.69
307.502	1817.69
307.731	1936.69
307.961	2121.69
308.191	1919.69
308.421	1659.69
308.651	1566.69
308.881	1561.69
309.111	1562.69
309.341	1548.69
309.571	1527.69
309.8	1538.69
310.03	1499.69
310.26	1522.69
310.49	1539.69
310.72	1586.69
310.949	1678.69
311.179	1695.69
311.409	1609.69
311.639	1585.69
311.868	1543.69
312.098	1569.69
312.328	1509.69
312.557	1587.69
312.787	1583.69
313.017	1628.69
313.246	1619.69
313.476	1628.69
313.706	1672.69
313.935	1657.69
314.165	1661.69
314.394	1675.69
314.624	1815.69
314.853	1906.69
315.083	1984.69
315.312	2045.69
315.542	1898.69
315.771	1681.69
316.001	1652.69
316.23	1764.69
316.46	1765.69
316.689	1757.69
316.919	1634.69
317.148	1558.69
317.377	1536.69
317.607	1697.69
317.836	1894.69
318.065	1989.69
318.295	1928.69
318.524	1833.69
318.753	1754.69
318.983	1774.69
319.212	1685.69
319.441	1703.69
319.67	1688.69
319.9	1704.69
320.129	1798.69
320.358	1818.69
320.587	1928.69
320.816	1874.69
321.046	1864.69
321.275	1737.69
321.504	1754.69
321.733	1932.69
321.962	1877.69
322.191	1705.69
322.42	1732.69
322.649	1709.69
322.878	1683.69
323.108	1677.69
323.337	1787.69
323.566	1755.69
323.795	1779.69
324.024	1730.69
324.253	1697.69
324.482	1742.69
324.71	1681.69
324.939	1609.69
325.168	1627.69
325.397	1637.69
325.626	1737.69
325.855	1803.69
326.084	1678.69
326.313	1694.69
326.542	1720.69
326.77	1765.69
326.999	1777.69
327.228	1727.69
327.457	1665.69
327.686	1569.69
327.914	1670.69
328.143	1734.69
328.372	1694.69
328.6	1698.69
328.829	1680.69
329.058	1649.69
329.287	1659.69
329.515	1661.69
329.744	1745.69
329.972	1819.69
330.201	1897.69
330.43	1887.69
330.658	1748.69
330.887	1822.69
331.115	1780.69
331.344	1831.69
331.572	1799.69
331.801	1766.69
332.03	1773.69
332.258	1809.69
332.486	1809.69
332.715	1864.69
332.943	1863.69
333.172	1786.69
333.4	1817.69
333.629	1853.69
333.857	1943.69
334.085	2177.69
334.314	2423.69
334.542	2719.69
334.771	2497.69
334.999	2131.69
335.227	2055.69
335.455	1899.69
335.684	1897.69
335.912	1982.69
336.14	2058.69
336.369	1981.69
336.597	1870.69
336.825	1841.69
337.053	1869.69
337.281	1961.69
337.51	2057.69
337.738	2136.69
337.966	2053.69
338.194	1896.69
338.422	1809.69
338.65	1785.69
338.878	1746.69
339.106	1722.69
339.334	1698.69
339.562	1673.69
339.79	1735.69
340.018	1808.69
340.246	1905.69
340.474	1921.69
340.702	1887.69
340.93	1854.69
341.158	1818.69
341.386	1753.69
341.614	1779.69
341.842	1761.69
342.07	1782.69
342.298	1783.69
342.526	1778.69
342.754	1771.69
342.981	1754.69
343.209	1753.69
343.437	1722.69
343.665	1771.69
343.893	1803.69
344.12	1896.69
344.348	1951.69
344.576	1825.69
344.804	1743.69
345.031	1722.69
345.259	1792.69
345.487	1713.69
345.714	1674.69
345.942	1643.69
346.17	1648.69
346.397	1707.69
346.625	1678.69
346.853	1612.69
347.08	1591.69
347.308	1576.69
347.535	1643.69
347.763	1706.69
347.99	1675.69
348.218	1585.69
348.445	1585.69
348.673	1629.69
348.9	1691.69
349.128	1709.69
349.355	1756.69
349.583	1761.69
349.81	1664.69
350.037	1526.69
350.265	1529.69
350.492	1581.69
350.72	1572.69
350.947	1628.69
351.174	1693.69
351.402	1623.69
351.629	1566.69
351.856	1562.69
352.083	1518.69
352.311	1534.69
352.538	1571.69
352.765	1600.69
352.992	1677.69
353.22	1637.69
353.447	1592.69
353.674	1585.69
353.901	1610.69
354.128	1586.69
354.355	1583.69
354.583	1655.69
354.81	1716.69
355.037	1659.69
355.264	1669.69
355.491	1657.69
355.718	1664.69
355.945	1615.69
356.172	1602.69
356.399	1593.69
356.626	1552.69
356.853	1621.69
357.08	1777.69
357.307	1979.69
357.534	1917.69
357.761	1703.69
357.988	1601.69
358.215	1525.69
358.441	1561.69
358.668	1551.69
358.895	1595.69
359.122	1669.69
359.349	1793.69
359.576	1853.69
359.802	1619.69
360.029	1562.69
360.256	1588.69
360.483	1588.69
360.709	1602.69
360.936	1705.69
361.163	1723.69
361.39	1872.69
361.616	2027.69
361.843	2013.69
362.07	1864.69
362.296	1645.69
362.523	1566.69
362.749	1629.69
362.976	1642.69
363.203	1689.69
363.429	1625.69
363.656	1568.69
363.882	1637.69
364.109	1750.69
364.335	1903.69
364.562	1795.69
364.788	1740.69
365.015	1663.69
365.241	1584.69
365.468	1601.69
365.694	1709.69
365.92	1784.69
366.147	1707.69
366.373	1560.69
366.599	1546.69
366.826	1530.69
367.052	1562.69
367.278	1621.69
367.505	1646.69
367.731	1671.69
367.957	1633.69
368.184	1691.69
368.41	1746.69
368.636	1802.69
368.862	1818.69
369.089	1871.69
369.315	1784.69
369.541	1690.69
369.767	1647.69
369.993	1609.69
370.219	1629.69
370.445	1647.69
370.672	1728.69
370.898	1848.69
371.124	1813.69
371.35	1723.69
371.576	1774.69
371.802	1813.69
372.028	1778.69
372.254	1697.69
372.48	1673.69
372.706	1637.69
372.932	1649.69
373.158	1661.69
373.384	1681.69
373.61	1734.69
373.835	1828.69
374.061	1760.69
374.287	1672.69
374.513	1713.69
374.739	1745.69
374.965	1735.69
375.191	1760.69
375.416	1709.69
375.642	1761.69
375.868	1822.69
376.094	1893.69
376.319	1814.69
376.545	1698.69
376.771	1760.69
376.997	1857.69
377.222	1812.69
377.448	1735.69
377.674	1760.69
377.899	1740.69
378.125	1841.69
378.35	1897.69
378.576	1697.69
378.802	1649.69
379.027	1631.69
379.253	1653.69
379.478	1685.69
379.704	1686.69
379.929	1642.69
380.155	1719.69
380.38	1721.69
380.606	1722.69
380.831	1698.69
381.057	1745.69
381.282	1823.69
381.507	1809.69
381.733	1835.69
381.958	1976.69
382.184	1832.69
382.409	1735.69
382.634	1786.69
382.86	1729.69
383.085	1764.69
383.31	1810.69
383.535	1933.69
383.761	2045.69
383.986	2023.69
384.211	1924.69
384.436	1913.69
384.662	1963.69
384.887	2069.69
385.112	1981.69
385.337	1999.69
385.562	1909.69
385.787	1925.69
386.013	2002.69
386.238	2015.69
386.463	2014.69
386.688	2083.69
386.913	2226.69
387.138	2214.69
387.363	2037.69
387.588	2010.69
387.813	1991.69
388.038	2026.69
388.263	2081.69
388.488	2004.69
388.713	1887.69
388.938	1858.69
389.163	1844.69
389.387	1882.69
389.612	1931.69
389.837	1965.69
390.062	1991.69
390.287	1935.69
390.512	1927.69
390.736	1930.69
390.961	1870.69
391.186	1898.69
391.411	1913.69
391.636	1957.69
391.86	1957.69
392.085	1962.69
392.31	1886.69
392.534	1929.69
392.759	1981.69
392.984	1945.69
393.208	1945.69
393.433	1984.69
393.658	2055.69
393.882	2095.69
394.107	2011.69
394.331	1948.69
394.556	1895.69
394.78	1950.69
395.005	1973.69
395.229	2053.69
395.454	2235.69
395.678	2257.69
395.903	2162.69
396.127	2055.69
396.352	2065.69
396.576	2143.69
396.801	2126.69
397.025	2144.69
397.249	2145.69
397.474	2106.69
397.698	2067.69
397.922	2178.69
398.147	2290.69
398.371	2331.69
398.595	2322.69
398.82	2229.69
399.044	2263.69
399.268	2391.69
399.492	2532.69
399.717	2577.69
399.941	2669.69
400.165	2597.69
400.389	2516.69
400.613	2452.69
400.837	2724.69
401.062	3114.69
401.286	2694.69
401.51	2364.69
401.734	2521.69
401.958	2461.69
402.182	2311.69
402.406	2178.69
402.63	2187.69
402.854	2215.69
403.078	2282.69
403.302	2261.69
403.526	2305.69
403.75	2313.69
403.974	2363.69
404.198	2314.69
404.422	2387.69
404.645	2442.69
404.869	2477.69
405.093	2305.69
405.317	2248.69
405.541	2324.69
405.765	2374.69
405.988	2334.69
406.212	2366.69
406.436	2382.69
406.66	2466.69
406.883	2456.69
407.107	2774.69
407.331	2960.69
407.555	3229.69
407.778	3036.69
408.002	2525.69
408.226	2434.69
408.449	2480.69
408.673	2398.69
408.896	2408.69
409.12	2374.69
409.344	2344.69
409.567	2294.69
409.791	2349.69
410.014	2367.69
410.238	2494.69
410.461	2659.69
410.685	2397.69
410.908	2264.69
411.132	2312.69
411.355	2245.69
411.578	2271.69
411.802	2279.69
412.025	2307.69
412.249	2237.69
412.472	2202.69
412.695	2165.69
412.919	2154.69
413.142	2177.69
413.365	2201.69
413.589	2280.69
413.812	2323.69
414.035	2434.69
414.258	2249.69
414.482	2201.69
414.705	2257.69
414.928	2211.69
415.151	2187.69
415.374	2229.69
415.597	2281.69
415.821	2257.69
416.044	2301.69
416.267	2392.69
416.49	2164.69
416.713	2122.69
416.936	2191.69
417.159	2273.69
417.382	2320.69
417.605	2177.69
417.828	2271.69
418.051	2234.69
418.274	2241.69
418.497	2132.69
418.72	2101.69
418.943	2141.69
419.166	2270.69
419.389	2342.69
419.611	2221.69
419.834	2175.69
420.057	2246.69
420.28	2180.69
420.503	2163.69
420.726	2209.69
420.948	2163.69
421.171	2083.69
421.394	2112.69
421.617	2178.69
421.839	2170.69
422.062	2121.69
422.285	2108.69
422.507	2098.69
422.73	2049.69
422.953	2035.69
423.175	2039.69
423.398	2100.69
423.621	2130.69
423.843	2149.69
424.066	2161.69
424.288	2243.69
424.511	2274.69
424.733	2218.69
424.956	2003.69
425.178	2022.69
425.401	2057.69
425.623	2103.69
425.846	2042.69
426.068	2210.69
426.291	2217.69
426.513	2181.69
426.735	2150.69
426.958	2295.69
427.18	2441.69
427.402	2234.69
427.625	2255.69
427.847	2320.69
428.069	2141.69
428.292	2133.69
428.514	2013.69
428.736	2044.69
428.958	2012.69
429.181	2045.69
429.403	2330.69
429.625	2881.69
429.847	2551.69
430.069	2153.69
430.292	2286.69
430.514	2401.69
430.736	2227.69
430.958	2374.69
431.18	2235.69
431.402	2074.69
431.624	2057.69
431.846	2066.69
432.068	1957.69
432.29	2022.69
432.512	2040.69
432.734	2095.69
432.956	2165.69
433.178	2219.69
433.4	2246.69
433.622	2244.69
433.844	2108.69
434.066	2088.69
434.287	2050.69
434.509	2126.69
434.731	2226.69
434.953	2353.69
435.175	2303.69
435.397	2214.69
435.618	2154.69
435.84	2181.69
436.062	2141.69
436.284	2148.69
436.505	2150.69
436.727	2217.69
436.949	2126.69
437.17	2089.69
437.392	2064.69
437.614	2081.69
437.835	2008.69
438.057	2119.69
438.278	2239.69
438.5	2067.69
438.721	2035.69
438.943	2126.69
439.165	2054.69
439.386	2000.69
439.608	2008.69
439.829	2011.69
440.05	2034.69
440.272	2023.69
440.493	1985.69
440.715	2087.69
440.936	2189.69
441.158	2392.69
441.379	2336.69
441.6	2291.69
441.822	2223.69
442.043	2197.69
442.264	2188.69
442.486	2099.69
442.707	2064.69
442.928	2014.69
443.149	2123.69
443.371	2229.69
443.592	2325.69
443.813	2251.69
444.034	2258.69
444.255	2291.69
444.476	2318.69
444.698	2324.69
444.919	2329.69
445.14	2394.69
445.361	2399.69
445.582	2462.69
445.803	2344.69
446.024	2251.69
446.245	2333.69
446.466	2297.69
446.687	2141.69
446.908	2177.69
447.129	2118.69
447.35	2154.69
447.571	2109.69
447.792	2041.69
448.013	2039.69
448.234	2034.69
448.455	2171.69
448.675	2126.69
448.896	1945.69
449.117	1961.69
449.338	2024.69
449.559	2085.69
449.779	2208.69
450	2422.69
450.221	2609.69
450.442	2540.69
450.662	2221.69
450.883	2011.69
451.104	1921.69
451.324	1963.69
451.545	1995.69
451.766	1988.69
451.986	1922.69
452.207	1926.69
452.428	1820.69
452.648	1826.69
452.869	1870.69
453.089	1975.69
453.31	2035.69
453.53	2062.69
453.751	2007.69
453.971	1891.69
454.192	1934.69
454.412	2067.69
454.633	1961.69
454.853	1892.69
455.073	1807.69
455.294	1790.69
455.514	1822.69
455.734	1827.69
455.955	1878.69
456.175	1855.69
456.395	1816.69
456.616	1906.69
456.836	1912.69
457.056	1887.69
457.276	1911.69
457.497	1856.69
457.717	1757.69
457.937	1815.69
458.157	1865.69
458.377	1834.69
458.598	1809.69
458.818	1881.69
459.038	1943.69
459.258	2093.69
459.478	2114.69
459.698	2001.69
459.918	2033.69
460.138	2155.69
460.358	2192.69
460.578	2212.69
460.798	2283.69
461.018	2417.69
461.238	2289.69
461.458	2185.69
461.678	2237.69
461.898	2207.69
462.118	2129.69
462.338	2168.69
462.558	2188.69
462.777	2206.69
462.997	2295.69
463.217	2512.69
463.437	2429.69
463.657	2227.69
463.876	2231.69
464.096	2192.69
464.316	2165.69
464.536	2269.69
464.755	2315.69
464.975	2321.69
465.195	2226.69
465.414	2351.69
465.634	2290.69
465.854	2182.69
466.073	2312.69
466.293	2279.69
466.512	2043.69
466.732	1996.69
466.951	2052.69
467.171	2078.69
467.391	2016.69
467.61	1973.69
467.829	1994.69
468.049	2123.69
468.268	2393.69
468.488	2246.69
468.707	2096.69
468.927	2073.69
469.146	2032.69
469.365	1940.69
469.585	2034.69
469.804	1954.69
470.023	2021.69
470.243	2051.69
470.462	2013.69
470.681	1937.69
470.901	2024.69
471.12	2048.69
471.339	2007.69
471.558	1938.69
471.777	1955.69
471.997	1957.69
472.216	1972.69
472.435	1886.69
472.654	1966.69
472.873	2013.69
473.092	2144.69
473.311	2069.69
473.53	1918.69
473.749	1918.69
473.968	1986.69
474.187	2070.69
474.406	2170.69
474.625	2057.69
474.844	2033.69
475.063	1995.69
475.282	2082.69
475.501	2002.69
475.72	2022.69
475.939	2136.69
476.158	2079.69
476.377	2026.69
476.596	2043.69
476.814	2148.69
477.033	2096.69
477.252	2228.69
477.471	2252.69
477.69	2127.69
477.908	2146.69
478.127	2280.69
478.346	2455.69
478.564	2374.69
478.783	2369.69
479.002	2480.69
479.22	2407.69
479.439	2522.69
479.658	2829.69
479.876	2787.69
480.095	2466.69
480.313	2347.69
480.532	2210.69
480.751	2253.69
480.969	2287.69
481.188	2271.69
481.406	2285.69
481.624	2163.69
481.843	2221.69
482.061	2256.69
482.28	2276.69
482.498	2318.69
482.717	2290.69
482.935	2233.69
483.153	2213.69
483.372	2248.69
483.59	2247.69
483.808	2254.69
484.027	2282.69
484.245	2431.69
484.463	2757.69
484.681	3222.69
484.9	2518.69
485.118	2320.69
485.336	2245.69
485.554	2383.69
485.772	2492.69
485.99	2497.69
486.209	2450.69
486.427	2453.69
486.645	2434.69
486.863	2402.69
487.081	2396.69
487.299	2500.69
487.517	2452.69
487.735	2337.69
487.953	2329.69
488.171	2361.69
488.389	2323.69
488.607	2335.69
488.825	2589.69
489.043	2605.69
489.261	2292.69
489.479	2502.69
489.696	2501.69
489.914	2543.69
490.132	2435.69
490.35	2338.69
490.568	2413.69
490.786	2375.69
491.003	2278.69
491.221	2313.69
491.439	2453.69
491.657	2375.69
491.874	2433.69
492.092	2477.69
492.31	2455.69
492.527	2366.69
492.745	2405.69
492.963	2439.69
493.18	2538.69
493.398	2681.69
493.615	2747.69
493.833	2483.69
494.05	2433.69
494.268	2448.69
494.485	2550.69
494.703	2464.69
494.92	2431.69
495.138	2391.69
495.355	2477.69
495.573	2548.69
495.79	2695.69
496.008	2705.69
496.225	2530.69
496.442	2556.69
496.66	2597.69
496.877	2571.69
497.094	2680.69
497.312	2693.69
497.529	2647.69
497.746	2705.69
497.963	3171.69
498.181	3598.69
498.398	3330.69
498.615	3233.69
498.832	3197.69
499.049	3097.69
499.267	3149.69
499.484	3331.69
499.701	3594.69
499.918	3702.69
500.135	3895.69
500.352	4262.69
500.569	4143.69
500.786	4319.69
501.003	4055.69
501.22	3770.69
501.437	3634.69
501.654	3586.69
501.871	3568.69
502.088	3146.69
502.305	3125.69
502.522	2991.69
502.739	2764.69
502.956	2721.69
503.172	2761.69
503.389	2643.69
503.606	2611.69
503.823	2587.69
504.04	2607.69
504.256	2598.69
504.473	2625.69
504.69	2682.69
504.907	2561.69
505.123	2490.69
505.34	2528.69
505.557	3245.69
505.773	2802.69
505.99	2394.69
506.207	2282.69
506.423	2213.69
506.64	2213.69
506.856	2193.69
507.073	2441.69
507.289	2733.69
507.506	2590.69
507.722	2201.69
507.939	2099.69
508.155	2118.69
508.372	2188.69
508.588	2113.69
508.805	2049.69
509.021	2027.69
509.238	2006.69
509.454	1987.69
509.67	2037.69
509.887	1983.69
510.103	1986.69
510.319	2057.69
510.536	2162.69
510.752	2144.69
510.968	2163.69
511.184	2301.69
511.401	2289.69
511.617	2048.69
511.833	1917.69
512.049	1957.69
512.265	1986.69
512.481	1946.69
512.698	2013.69
512.914	2127.69
513.13	2093.69
513.346	1985.69
513.562	1949.69
513.778	1958.69
513.994	2030.69
514.21	2122.69
514.426	2191.69
514.642	2389.69
514.858	2232.69
515.074	2072.69
515.29	1969.69
515.506	2073.69
515.721	2105.69
515.937	2081.69
516.153	2354.69
516.369	2264.69
516.585	2167.69
516.801	2068.69
517.016	2011.69
517.232	2113.69
517.448	2152.69
517.664	2150.69
517.879	2176.69
518.095	2263.69
518.311	2159.69
518.527	2068.69
518.742	2016.69
518.958	1966.69
519.173	1965.69
519.389	2005.69
519.605	2003.69
519.82	2030.69
520.036	2065.69
520.251	1988.69
520.467	1986.69
520.682	2174.69
520.898	2257.69
521.113	1966.69
521.329	1928.69
521.544	2069.69
521.76	2040.69
521.975	1945.69
522.19	1902.69
522.406	1904.69
522.621	2195.69
522.836	2305.69
523.052	1869.69
523.267	1875.69
523.482	1912.69
523.698	1801.69
523.913	1774.69
524.128	1821.69
524.343	1944.69
524.559	1935.69
524.774	1787.69
524.989	1775.69
525.204	1799.69
525.419	1762.69
525.634	1744.69
525.849	1809.69
526.064	1813.69
526.28	1795.69
526.495	1784.69
526.71	1727.69
526.925	1749.69
527.14	1734.69
527.355	1734.69
527.57	1726.69
527.785	1763.69
527.999	1720.69
528.214	1647.69
528.429	1664.69
528.644	1681.69
528.859	1695.69
529.074	1670.69
529.289	1684.69
529.503	1726.69
529.718	1717.69
529.933	1696.69
530.148	1641.69
530.363	1659.69
530.577	1677.69
530.792	1737.69
531.007	1717.69
531.221	1726.69
531.436	1721.69
531.651	1807.69
531.865	1877.69
532.08	1788.69
532.295	1671.69
532.509	1615.69
532.724	1640.69
532.938	1720.69
533.153	1813.69
533.367	1765.69
533.582	1706.69
533.796	1649.69
534.011	1678.69
534.225	1719.69
534.44	1667.69
534.654	1657.69
534.868	1659.69
535.083	1733.69
535.297	1766.69
535.511	1720.69
535.726	1677.69
535.94	1685.69
536.154	1653.69
536.369	1628.69
536.583	1640.69
536.797	1593.69
537.011	1668.69
537.225	1607.69
537.44	1579.69
537.654	1652.69
537.868	1609.69
538.082	1522.69
538.296	1535.69
538.51	1551.69
538.724	1538.69
538.938	1540.69
539.153	1566.69
539.367	1614.69
539.581	1606.69
539.795	1688.69
540.009	1638.69
540.222	1630.69
540.436	1670.69
540.65	1783.69
540.864	1766.69
541.078	1690.69
541.292	1596.69
541.506	1610.69
541.72	1602.69
541.934	1561.69
542.147	1636.69
542.361	1599.69
542.575	1518.69
542.789	1514.69
543.002	1496.69
543.216	1544.69
543.43	1612.69
543.644	1671.69
543.857	1707.69
544.071	1661.69
544.285	1625.69
544.498	1593.69
544.712	1567.69
544.925	1595.69
545.139	1610.69
545.352	1551.69
545.566	1519.69
545.779	1489.69
545.993	1496.69
546.206	1511.69
546.42	1535.69
546.633	1488.69
546.847	1504.69
547.06	1475.69
547.274	1471.69
547.487	1455.69
547.7	1467.69
547.914	1522.69
548.127	1537.69
548.34	1509.69
548.554	1530.69
548.767	1522.69
548.98	1475.69
549.193	1512.69
549.407	1580.69
549.62	1610.69
549.833	1515.69
550.046	1490.69
550.259	1502.69
550.473	1452.69
550.686	1476.69
550.899	1443.69
551.112	1447.69
551.325	1450.69
551.538	1546.69
551.751	1760.69
551.964	1451.69
552.177	1401.69
552.39	1405.69
552.603	1466.69
552.816	1461.69
553.029	1574.69
553.242	1557.69
553.455	1508.69
553.667	1487.69
553.88	1494.69
554.093	1477.69
554.306	1420.69
554.519	1401.69
554.732	1387.69
554.944	1350.69
555.157	1417.69
555.37	1425.69
555.583	1381.69
555.795	1363.69
556.008	1326.69
556.221	1304.69
556.433	1299.69
556.646	1258.69
556.859	1278.69
557.071	1293.69
557.284	1272.69
557.496	1287.69
557.709	1226.69
557.921	1250.69
558.134	1237.69
558.346	1224.69
558.559	1219.69
558.771	1215.69
558.984	1185.69
559.196	1192.69
559.409	1184.69
559.621	1184.69
559.833	1233.69
560.046	1268.69
560.258	1237.69
560.47	1185.69
560.683	1211.69
560.895	1235.69
561.107	1222.69
561.32	1258.69
561.532	1257.69
561.744	1208.69
561.956	1232.69
562.168	1234.69
562.381	1165.69
562.593	1189.69
562.805	1195.69
563.017	1157.69
563.229	1185.69
563.441	1211.69
563.653	1176.69
563.865	1190.69
564.077	1184.69
564.289	1148.69
564.501	1214.69
564.713	1241.69
564.925	1297.69
565.137	1367.69
565.349	1281.69
565.561	1242.69
565.773	1288.69
565.985	1303.69
566.197	1410.69
566.408	1467.69
566.62	1461.69
566.832	1460.69
567.044	1451.69
567.255	1430.69
567.467	1461.69
567.679	1518.69
567.891	1535.69
568.102	1507.69
568.314	1409.69
568.526	1403.69
568.737	1317.69
568.949	1261.69
569.161	1227.69
569.372	1183.69
569.584	1182.69
569.795	1172.69
570.007	1169.69
570.218	1127.69
570.43	1090.69
570.641	1086.69
570.853	1114.69
571.064	1108.69
571.276	1067.69
571.487	1096.69
571.698	1053.69
571.91	994.69
572.121	1000.69
572.333	999.69
572.544	1007.69
572.755	967.69
572.966	942.69
573.178	974.69
573.389	969.69
573.6	1021.69
573.811	1095.69
574.023	988.69
574.234	962.69
574.445	925.69
574.656	916.69
574.867	919.69
575.078	945.69
575.289	943.69
575.501	918.69
575.712	918.69
575.923	918.69
576.134	915.69
576.345	915.69
576.556	901.69
576.767	886.69
576.978	852.69
577.188	866.69
577.399	831.69
577.61	839.69
577.821	851.69
578.032	839.69
578.243	846.69
578.454	845.69
578.665	828.69
578.875	822.69
579.086	814.69
579.297	863.69
579.508	852.69
579.718	844.69
579.929	849.69
580.14	795.69
580.35	813.69
580.561	813.69
580.772	865.69
580.982	792.69
581.193	781.69
581.403	773.69
581.614	793.69
581.825	785.69
582.035	768.69
582.246	787.69
582.456	789.69
582.667	828.69
582.877	767.69
583.087	751.69
583.298	774.69
583.508	769.69
583.719	767.69
583.929	802.69
584.139	763.69
584.35	735.69
584.56	726.69
584.77	758.69
584.981	770.69
585.191	765.69
585.401	816.69
585.611	733.69
585.821	775.69
586.032	741.69
586.242	744.69
586.452	725.69
586.662	742.69
586.872	751.69
587.082	747.69
587.292	767.69
587.502	756.69
587.713	746.69
587.923	766.69
588.133	736.69
588.343	739.69
588.553	742.69
588.762	733.69
588.972	742.69
589.182	747.69
589.392	713.69
589.602	744.69
589.812	738.69
590.022	707.69
590.232	717.69
590.441	736.69
590.651	744.69
590.861	714.69
591.071	703.69
591.281	727.69
591.49	716.69
591.7	730.69
591.91	711.69
592.119	710.69
592.329	735.69
592.539	745.69
592.748	761.69
592.958	739.69
593.167	765.69
593.377	763.69
593.587	783.69
593.796	795.69
594.006	757.69
594.215	772.69
594.424	782.69
594.634	754.69
594.843	738.69
595.053	742.69
595.262	744.69
595.472	752.69
595.681	750.69
595.89	703.69
596.1	690.69
596.309	696.69
596.518	700.69
596.727	682.69
596.937	653.69
597.146	643.69
597.355	641.69
597.564	640.69
597.774	645.69
597.983	621.69
598.192	623.69
598.401	614.69
598.61	623.69
598.819	617.69
599.028	621.69
599.237	606.69
599.446	598.69
599.655	614.69
599.864	627.69
600.073	601.69
600.282	586.69
600.491	590.69
600.7	574.69
600.909	608.69
601.118	595.69
601.327	601.69
601.536	622.69
601.745	597.69
601.953	593.69
602.162	585.69
602.371	595.69
602.58	599.69
602.789	589.69
602.997	591.69
603.206	563.69
603.415	580.69
603.623	561.69
603.832	565.69
604.041	569.69
604.249	537.69
604.458	566.69
604.666	582.69
604.875	570.69
605.084	603.69
605.292	590.69
605.501	576.69
605.709	569.69
605.918	546.69
606.126	546.69
606.334	542.69
606.543	544.69
606.751	538.69
606.96	547.69
607.168	523.69
607.376	534.69
607.585	519.69
607.793	547.69
608.001	545.69
608.21	540.69
608.418	545.69
608.626	547.69
608.834	533.69
609.043	548.69
609.251	533.69
609.459	514.69
609.667	562.69
609.875	546.69
610.083	561.69
610.291	557.69
610.499	576.69
610.707	551.69
610.916	522.69
611.124	520.69
611.332	539.69
611.54	513.69
611.748	520.69
611.955	528.69
612.163	517.69
612.371	505.69
612.579	530.69
612.787	519.69
612.995	528.69
613.203	534.69
613.411	485.69
613.618	523.69
613.826	501.69
614.034	513.69
614.242	509.69
614.449	511.69
614.657	493.69
614.865	518.69
615.072	506.69
615.28	512.69
615.488	495.69
615.695	561.69
615.903	532.69
616.111	535.69
616.318	520.69
616.526	520.69
616.733	517.69
616.941	511.69
617.148	495.69
617.356	501.69
617.563	493.69
617.771	496.69
617.978	482.69
618.185	469.69
618.393	494.69
618.6	505.69
618.807	499.69
619.015	509.69
619.222	472.69
619.429	488.69
619.637	465.69
619.844	483.69
620.051	484.69
620.258	449.69
620.466	455.69
620.673	464.69
620.88	455.69
621.087	445.69
621.294	447.69
621.501	447.69
621.708	459.69
621.915	451.69
622.122	462.69
622.329	450.69
622.536	460.69
622.743	444.69
622.95	442.69
623.157	425.69
623.364	446.69
623.571	447.69
623.778	459.69
623.985	467.69
624.192	446.69
624.399	444.69
624.606	423.69
624.812	438.69
625.019	432.69
625.226	436.69
625.433	437.69
625.639	443.69
625.846	420.69
626.053	419.69
626.259	422.69
626.466	391.69
626.673	391.69
626.879	411.69
627.086	416.69
627.293	410.69
627.499	399.69
627.706	397.69
627.912	424.69
628.119	410.69
628.325	410.69
628.532	382.69
628.738	397.69
628.945	385.69
629.151	413.69
629.357	435.69
629.564	409.69
629.77	391.69
629.976	394.69
630.183	400.69
630.389	401.69
630.595	400.69
630.802	394.69
631.008	383.69
631.214	397.69
631.42	374.69
631.627	384.69
631.833	339.69
632.039	365.69
632.245	354.69
632.451	366.69
632.657	369.69
632.863	350.69
633.069	365.69
633.275	365.69
633.481	353.69
633.688	346.69
633.893	360.69
634.099	336.69
634.305	354.69
634.511	355.69
634.717	354.69
634.923	351.69
635.129	339.69
635.335	360.69
635.541	339.69
635.747	333.69
635.952	354.69
636.158	355.69
636.364	364.69
636.57	347.69
636.775	331.69
636.981	331.69
637.187	337.69
637.392	359.69
637.598	345.69
637.804	354.69
638.009	337.69
638.215	350.69
638.421	333.69
638.626	341.69
638.832	342.69
639.037	339.69
639.243	331.69
639.448	312.69
639.654	336.69
639.859	332.69
640.065	317.69
640.27	322.69
640.475	338.69
640.681	328.69
640.886	309.69
641.091	329.69
641.297	323.69
641.502	326.69
641.707	344.69
641.913	317.69
642.118	318.69
642.323	313.69
642.528	329.69
642.733	302.69
642.939	318.69
643.144	312.69
643.349	323.69
643.554	315.69
643.759	298.69
643.964	294.69
644.169	303.69
644.374	294.69
644.579	313.69
644.784	319.69
644.989	306.69
645.194	304.69
645.399	302.69
645.604	317.69
645.809	313.69
646.014	306.69
646.219	309.69
646.423	301.69
646.628	326.69
646.833	344.69
647.038	309.69
647.243	309.69
647.447	325.69
647.652	320.69
647.857	299.69
648.062	303.69
648.266	307.69
648.471	314.69
648.676	309.69
648.88	303.69
649.085	298.69
649.289	310.69
649.494	310.69
649.698	311.69
649.903	303.69
650.107	289.69
650.312	301.69
650.516	292.69
650.721	280.69
650.925	282.69
651.13	282.69
651.334	277.69
651.539	278.69
651.743	260.69
651.947	246.69
652.152	264.69
652.356	261.69
652.56	263.69
652.764	261.69
652.969	246.69
653.173	254.69
653.377	270.69
653.581	252.69
653.785	256.69
653.99	238.69
654.194	255.69
654.398	235.69
654.602	243.69
654.806	262.69
655.01	230.69
655.214	238.69
655.418	248.69
655.622	233.69
655.826	245.69
656.03	267.69
656.234	268.69
656.438	269.69
656.642	286.69
656.846	261.69
657.049	224.69
657.253	216.69
657.457	216.69
657.661	210.69
657.865	187.69
658.068	171.69
658.272	173.69
658.476	158.69
658.68	149.69
658.883	136.69
659.087	150.69
659.291	154.69
659.494	131.69
659.698	132.69
659.901	123.69
660.105	118.69
660.309	123.69
660.512	126.69
660.716	120.69
660.919	103.69
661.123	111.69
661.326	100.69
661.53	93.69
661.733	86.69
661.936	104.69
662.14	86.69
662.343	93.69
662.546	97.69
662.75	91.69
662.953	106.69
663.156	98.69
663.36	85.69
663.563	100.69
663.766	78.69
663.969	87.69
664.173	86.69
664.376	87.69
664.579	75.69
664.782	85.69
664.985	70.69
665.188	79.69
665.391	80.69
665.594	71.69
665.797	75.69
666	74.69
666.203	95.69
666.406	82.69
666.609	81.69
666.812	78.69
667.015	88.69
667.218	91.69
667.421	76.69
667.624	81.69
667.827	74.69
668.03	79.69
668.232	85.69
668.435	81.69
668.638	67.69
668.841	71.69
669.043	77.69
669.246	76.69
669.449	90.69
669.651	84.69
669.854	70.69
670.057	76.69
670.259	78.69
670.462	82.69
670.665	87.69
670.867	85.69
671.07	91.69
671.272	75.69
671.475	87.69
671.677	92.69
671.88	86.69
672.082	86.69
672.284	80.69
672.487	97.69
672.689	81.69
672.892	94.69
