Data from WStandard_LampEnergy5.5LIBS07252019.E.O._I.C._HRD10591_16-08-09-920.txt Node
Date: Thu Jul 25 16:08:09 EDT 2019
User: cochatt
Spectrometer: HR+D1059
Trigger mode: 1
Integration Time (sec): 1.000000E-1
Scans to average: 1
Electric dark correction enabled: true
Nonlinearity correction enabled: false
Boxcar width: 0
XAxis mode: Wavelengths
Number of Pixels in Spectrum: 2048
>>>>>Begin Spectral Data<<<<<
223.165	-20.31
223.4	-20.31
223.635	-20.31
223.869	-11.31
224.104	-26.31
224.338	-15.31
224.573	-15.31
224.808	-14.31
225.042	-5.31
225.277	-11.31
225.511	-7.31
225.746	-2.31
225.98	23.69
226.215	21.69
226.449	13.69
226.683	28.69
226.918	12.69
227.152	28.69
227.387	25.69
227.621	41.69
227.856	28.69
228.09	48.69
228.324	64.69
228.559	51.69
228.793	150.69
229.027	377.69
229.262	363.69
229.496	375.69
229.73	396.69
229.964	451.69
230.199	458.69
230.433	501.69
230.667	497.69
230.901	549.69
231.136	466.69
231.37	474.69
231.604	459.69
231.838	470.69
232.072	486.69
232.306	443.69
232.541	461.69
232.775	567.69
233.009	631.69
233.243	589.69
233.477	541.69
233.711	549.69
233.945	584.69
234.179	531.69
234.413	596.69
234.647	661.69
234.881	611.69
235.115	547.69
235.349	550.69
235.583	545.69
235.817	564.69
236.051	551.69
236.285	571.69
236.519	620.69
236.753	697.69
236.987	697.69
237.221	676.69
237.455	729.69
237.689	727.69
237.922	678.69
238.156	666.69
238.39	662.69
238.624	689.69
238.858	742.69
239.091	778.69
239.325	791.69
239.559	928.69
239.793	963.69
240.027	1066.69
240.26	1060.69
240.494	757.69
240.728	735.69
240.961	728.69
241.195	745.69
241.429	816.69
241.662	812.69
241.896	758.69
242.13	797.69
242.363	853.69
242.597	914.69
242.83	899.69
243.064	908.69
243.298	979.69
243.531	940.69
243.765	949.69
243.998	949.69
244.232	836.69
244.465	784.69
244.699	804.69
244.932	911.69
245.166	1064.69
245.399	1004.69
245.633	914.69
245.866	897.69
246.099	936.69
246.333	959.69
246.566	984.69
246.8	1090.69
247.033	1202.69
247.266	1098.69
247.5	1101.69
247.733	1040.69
247.966	1087.69
248.2	1238.69
248.433	1200.69
248.666	1242.69
248.899	1341.69
249.133	1516.69
249.366	1755.69
249.599	1442.69
249.832	1252.69
250.066	1276.69
250.299	1308.69
250.532	1189.69
250.765	1083.69
250.998	1155.69
251.231	1170.69
251.465	1269.69
251.698	1171.69
251.931	1217.69
252.164	1217.69
252.397	1293.69
252.63	1258.69
252.863	1104.69
253.096	1112.69
253.329	1153.69
253.562	1221.69
253.795	1284.69
254.028	1264.69
254.261	1205.69
254.494	1163.69
254.727	1114.69
254.96	1163.69
255.193	1265.69
255.426	1409.69
255.659	1664.69
255.892	1706.69
256.124	1374.69
256.357	1334.69
256.59	1459.69
256.823	1459.69
257.056	1423.69
257.289	1740.69
257.521	1960.69
257.754	1734.69
257.987	1587.69
258.22	1799.69
258.452	1780.69
258.685	1413.69
258.918	1361.69
259.151	1417.69
259.383	1345.69
259.616	1170.69
259.849	1237.69
260.081	1412.69
260.314	1570.69
260.547	1763.69
260.779	1784.69
261.012	1647.69
261.244	1445.69
261.477	1358.69
261.71	1460.69
261.942	1445.69
262.175	1391.69
262.407	1501.69
262.64	1391.69
262.872	1319.69
263.105	1258.69
263.337	1268.69
263.57	1316.69
263.802	1320.69
264.035	1263.69
264.267	1191.69
264.499	1144.69
264.732	1208.69
264.964	1307.69
265.197	1337.69
265.429	1391.69
265.661	1587.69
265.894	1769.69
266.126	1816.69
266.358	1609.69
266.591	1685.69
266.823	1824.69
267.055	1661.69
267.287	1616.69
267.52	1585.69
267.752	1570.69
267.984	1556.69
268.216	1637.69
268.448	1724.69
268.681	1652.69
268.913	1539.69
269.145	1422.69
269.377	1413.69
269.609	1512.69
269.841	1747.69
270.073	1984.69
270.306	2269.69
270.538	2465.69
270.77	2031.69
271.002	1760.69
271.234	1670.69
271.466	1632.69
271.698	1800.69
271.93	2215.69
272.162	2254.69
272.394	2033.69
272.626	1901.69
272.858	1723.69
273.09	1486.69
273.322	1463.69
273.553	1397.69
273.785	1431.69
274.017	1467.69
274.249	1611.69
274.481	1661.69
274.713	1451.69
274.945	1427.69
275.176	1432.69
275.408	1393.69
275.64	1414.69
275.872	1353.69
276.104	1455.69
276.335	1693.69
276.567	1865.69
276.799	1962.69
277.031	1719.69
277.262	1613.69
277.494	1678.69
277.726	1832.69
277.957	1858.69
278.189	1686.69
278.421	1528.69
278.652	1511.69
278.884	1467.69
279.115	1506.69
279.347	1543.69
279.579	1471.69
279.81	1456.69
280.042	1621.69
280.273	1756.69
280.505	1757.69
280.736	1822.69
280.968	1753.69
281.199	1503.69
281.431	1447.69
281.662	1431.69
281.894	1444.69
282.125	1507.69
282.356	1583.69
282.588	1579.69
282.819	1543.69
283.051	1666.69
283.282	1803.69
283.513	1761.69
283.745	1490.69
283.976	1415.69
284.207	1410.69
284.439	1465.69
284.67	1521.69
284.901	1546.69
285.132	1579.69
285.364	1539.69
285.595	1563.69
285.826	1506.69
286.057	1478.69
286.288	1487.69
286.52	1537.69
286.751	1704.69
286.982	1768.69
287.213	1603.69
287.444	1493.69
287.675	1484.69
287.906	1541.69
288.138	1672.69
288.369	1575.69
288.6	1540.69
288.831	1452.69
289.062	1474.69
289.293	1550.69
289.524	1504.69
289.755	1611.69
289.986	1593.69
290.217	1455.69
290.448	1463.69
290.679	1536.69
290.91	1532.69
291.141	1618.69
291.371	1673.69
291.602	1668.69
291.833	1632.69
292.064	1669.69
292.295	1613.69
292.526	1683.69
292.757	1759.69
292.987	1666.69
293.218	1565.69
293.449	1695.69
293.68	1880.69
293.91	2069.69
294.141	1905.69
294.372	1784.69
294.603	1866.69
294.833	1964.69
295.064	1853.69
295.295	1658.69
295.525	1618.69
295.756	1528.69
295.987	1396.69
296.217	1463.69
296.448	1477.69
296.679	1500.69
296.909	1524.69
297.14	1525.69
297.37	1513.69
297.601	1601.69
297.831	1734.69
298.062	1751.69
298.292	1605.69
298.523	1523.69
298.753	1527.69
298.984	1582.69
299.214	1544.69
299.445	1580.69
299.675	1623.69
299.905	1625.69
300.136	1556.69
300.366	1538.69
300.597	1497.69
300.827	1505.69
301.057	1560.69
301.288	1609.69
301.518	1628.69
301.748	1663.69
301.979	1709.69
302.209	1754.69
302.439	1858.69
302.669	1964.69
302.9	1828.69
303.13	1659.69
303.36	1693.69
303.59	1702.69
303.82	1658.69
304.051	1637.69
304.281	1675.69
304.511	1657.69
304.741	1745.69
304.971	1910.69
305.201	2102.69
305.431	1967.69
305.661	1619.69
305.891	1469.69
306.121	1428.69
306.352	1496.69
306.582	1606.69
306.812	1664.69
307.042	1849.69
307.272	1833.69
307.502	1863.69
307.731	1982.69
307.961	2144.69
308.191	2035.69
308.421	1745.69
308.651	1603.69
308.881	1543.69
309.111	1586.69
309.341	1520.69
309.571	1599.69
309.8	1578.69
310.03	1577.69
310.26	1526.69
310.49	1554.69
310.72	1598.69
310.949	1678.69
311.179	1740.69
311.409	1703.69
311.639	1597.69
311.868	1573.69
312.098	1633.69
312.328	1611.69
312.557	1607.69
312.787	1629.69
313.017	1665.69
313.246	1659.69
313.476	1618.69
313.706	1715.69
313.935	1670.69
314.165	1668.69
314.394	1732.69
314.624	1847.69
314.853	1929.69
315.083	2019.69
315.312	2051.69
315.542	1915.69
315.771	1732.69
316.001	1693.69
316.23	1819.69
316.46	1786.69
316.689	1776.69
316.919	1683.69
317.148	1627.69
317.377	1652.69
317.607	1754.69
317.836	1967.69
318.065	2062.69
318.295	1954.69
318.524	1868.69
318.753	1809.69
318.983	1768.69
319.212	1759.69
319.441	1732.69
319.67	1676.69
319.9	1762.69
320.129	1888.69
320.358	1943.69
320.587	1979.69
320.816	1960.69
321.046	1891.69
321.275	1783.69
321.504	1827.69
321.733	1956.69
321.962	1925.69
322.191	1732.69
322.42	1753.69
322.649	1709.69
322.878	1756.69
323.108	1739.69
323.337	1815.69
323.566	1779.69
323.795	1803.69
324.024	1784.69
324.253	1755.69
324.482	1770.69
324.71	1731.69
324.939	1632.69
325.168	1665.69
325.397	1728.69
325.626	1804.69
325.855	1804.69
326.084	1738.69
326.313	1740.69
326.542	1750.69
326.77	1840.69
326.999	1811.69
327.228	1777.69
327.457	1635.69
327.686	1621.69
327.914	1676.69
328.143	1771.69
328.372	1790.69
328.6	1753.69
328.829	1755.69
329.058	1698.69
329.287	1705.69
329.515	1761.69
329.744	1756.69
329.972	1846.69
330.201	1921.69
330.43	1913.69
330.658	1843.69
330.887	1823.69
331.115	1812.69
331.344	1818.69
331.572	1806.69
331.801	1835.69
332.03	1829.69
332.258	1863.69
332.486	1869.69
332.715	1874.69
332.943	1887.69
333.172	1829.69
333.4	1848.69
333.629	1900.69
333.857	2031.69
334.085	2210.69
334.314	2459.69
334.542	2731.69
334.771	2551.69
334.999	2203.69
335.227	2105.69
335.455	1983.69
335.684	1987.69
335.912	1978.69
336.14	2072.69
336.369	2005.69
336.597	1868.69
336.825	1841.69
337.053	1911.69
337.281	2007.69
337.51	2132.69
337.738	2175.69
337.966	2113.69
338.194	1882.69
338.422	1830.69
338.65	1825.69
338.878	1816.69
339.106	1801.69
339.334	1745.69
339.562	1706.69
339.79	1747.69
340.018	1848.69
340.246	1952.69
340.474	1912.69
340.702	1905.69
340.93	1894.69
341.158	1882.69
341.386	1834.69
341.614	1841.69
341.842	1760.69
342.07	1821.69
342.298	1827.69
342.526	1846.69
342.754	1759.69
342.981	1762.69
343.209	1823.69
343.437	1792.69
343.665	1827.69
343.893	1868.69
344.12	1944.69
344.348	1956.69
344.576	1854.69
344.804	1817.69
345.031	1772.69
345.259	1823.69
345.487	1763.69
345.714	1697.69
345.942	1664.69
346.17	1719.69
346.397	1696.69
346.625	1734.69
346.853	1644.69
347.08	1612.69
347.308	1645.69
347.535	1659.69
347.763	1733.69
347.99	1713.69
348.218	1666.69
348.445	1665.69
348.673	1687.69
348.9	1721.69
349.128	1771.69
349.355	1832.69
349.583	1789.69
349.81	1743.69
350.037	1580.69
350.265	1556.69
350.492	1577.69
350.72	1593.69
350.947	1687.69
351.174	1749.69
351.402	1684.69
351.629	1585.69
351.856	1583.69
352.083	1575.69
352.311	1546.69
352.538	1617.69
352.765	1659.69
352.992	1728.69
353.22	1672.69
353.447	1620.69
353.674	1654.69
353.901	1687.69
354.128	1625.69
354.355	1614.69
354.583	1712.69
354.81	1704.69
355.037	1737.69
355.264	1724.69
355.491	1695.69
355.718	1689.69
355.945	1697.69
356.172	1642.69
356.399	1631.69
356.626	1609.69
356.853	1663.69
357.08	1761.69
357.307	1971.69
357.534	1969.69
357.761	1721.69
357.988	1618.69
358.215	1534.69
358.441	1574.69
358.668	1588.69
358.895	1595.69
359.122	1686.69
359.349	1909.69
359.576	1843.69
359.802	1685.69
360.029	1656.69
360.256	1554.69
360.483	1623.69
360.709	1669.69
360.936	1734.69
361.163	1751.69
361.39	1957.69
361.616	2103.69
361.843	2032.69
362.07	1944.69
362.296	1670.69
362.523	1624.69
362.749	1679.69
362.976	1707.69
363.203	1679.69
363.429	1644.69
363.656	1583.69
363.882	1649.69
364.109	1817.69
364.335	1959.69
364.562	1855.69
364.788	1756.69
365.015	1692.69
365.241	1629.69
365.468	1688.69
365.694	1703.69
365.92	1812.69
366.147	1775.69
366.373	1644.69
366.599	1613.69
366.826	1602.69
367.052	1601.69
367.278	1648.69
367.505	1628.69
367.731	1666.69
367.957	1701.69
368.184	1773.69
368.41	1821.69
368.636	1849.69
368.862	1814.69
369.089	1885.69
369.315	1814.69
369.541	1764.69
369.767	1679.69
369.993	1649.69
370.219	1686.69
370.445	1648.69
370.672	1804.69
370.898	1873.69
371.124	1828.69
371.35	1714.69
371.576	1801.69
371.802	1844.69
372.028	1746.69
372.254	1732.69
372.48	1651.69
372.706	1642.69
372.932	1661.69
373.158	1671.69
373.384	1675.69
373.61	1715.69
373.835	1847.69
374.061	1762.69
374.287	1736.69
374.513	1734.69
374.739	1720.69
374.965	1739.69
375.191	1807.69
375.416	1779.69
375.642	1824.69
375.868	1858.69
376.094	1941.69
376.319	1866.69
376.545	1739.69
376.771	1804.69
376.997	1867.69
377.222	1849.69
377.448	1770.69
377.674	1825.69
377.899	1788.69
378.125	1910.69
378.35	1960.69
378.576	1735.69
378.802	1669.69
379.027	1669.69
379.253	1708.69
379.478	1705.69
379.704	1712.69
379.929	1702.69
380.155	1697.69
380.38	1736.69
380.606	1732.69
380.831	1775.69
381.057	1855.69
381.282	1862.69
381.507	1789.69
381.733	1893.69
381.958	2003.69
382.184	1829.69
382.409	1767.69
382.634	1809.69
382.86	1820.69
383.085	1829.69
383.31	1839.69
383.535	2000.69
383.761	2099.69
383.986	2035.69
384.211	1939.69
384.436	1933.69
384.662	2039.69
384.887	2163.69
385.112	1979.69
385.337	2011.69
385.562	2016.69
385.787	1982.69
386.013	2058.69
386.238	2058.69
386.463	1994.69
386.688	2142.69
386.913	2271.69
387.138	2228.69
387.363	2023.69
387.588	2033.69
387.813	2012.69
388.038	2018.69
388.263	2131.69
388.488	2069.69
388.713	1895.69
388.938	1877.69
389.163	1840.69
389.387	1963.69
389.612	1948.69
389.837	2023.69
390.062	2038.69
390.287	1978.69
390.512	1983.69
390.736	1935.69
390.961	1931.69
391.186	1897.69
391.411	1895.69
391.636	1940.69
391.86	1963.69
392.085	1971.69
392.31	1938.69
392.534	1971.69
392.759	2036.69
392.984	2004.69
393.208	2004.69
393.433	2028.69
393.658	2111.69
393.882	2160.69
394.107	1996.69
394.331	1991.69
394.556	1981.69
394.78	2010.69
395.005	2079.69
395.229	2141.69
395.454	2255.69
395.678	2292.69
395.903	2171.69
396.127	2106.69
396.352	2115.69
396.576	2205.69
396.801	2212.69
397.025	2160.69
397.249	2177.69
397.474	2091.69
397.698	2139.69
397.922	2176.69
398.147	2283.69
398.371	2389.69
398.595	2360.69
398.82	2262.69
399.044	2324.69
399.268	2397.69
399.492	2576.69
399.717	2622.69
399.941	2687.69
400.165	2633.69
400.389	2538.69
400.613	2523.69
400.837	2759.69
401.062	3211.69
401.286	2736.69
401.51	2433.69
401.734	2589.69
401.958	2533.69
402.182	2346.69
402.406	2259.69
402.63	2247.69
402.854	2259.69
403.078	2297.69
403.302	2320.69
403.526	2373.69
403.75	2339.69
403.974	2387.69
404.198	2331.69
404.422	2446.69
404.645	2561.69
404.869	2484.69
405.093	2301.69
405.317	2284.69
405.541	2348.69
405.765	2376.69
405.988	2374.69
406.212	2395.69
406.436	2456.69
406.66	2499.69
406.883	2535.69
407.107	2820.69
407.331	3068.69
407.555	3341.69
407.778	3045.69
408.002	2544.69
408.226	2464.69
408.449	2459.69
408.673	2372.69
408.896	2411.69
409.12	2475.69
409.344	2444.69
409.567	2336.69
409.791	2400.69
410.014	2433.69
410.238	2502.69
410.461	2666.69
410.685	2405.69
410.908	2280.69
411.132	2359.69
411.355	2331.69
411.578	2293.69
411.802	2274.69
412.025	2359.69
412.249	2339.69
412.472	2267.69
412.695	2244.69
412.919	2218.69
413.142	2231.69
413.365	2232.69
413.589	2279.69
413.812	2375.69
414.035	2480.69
414.258	2283.69
414.482	2215.69
414.705	2298.69
414.928	2250.69
415.151	2203.69
415.374	2248.69
415.597	2299.69
415.821	2326.69
416.044	2406.69
416.267	2378.69
416.49	2183.69
416.713	2154.69
416.936	2193.69
417.159	2362.69
417.382	2313.69
417.605	2188.69
417.828	2289.69
418.051	2303.69
418.274	2250.69
418.497	2119.69
418.72	2167.69
418.943	2149.69
419.166	2278.69
419.389	2491.69
419.611	2265.69
419.834	2245.69
420.057	2282.69
420.28	2192.69
420.503	2165.69
420.726	2255.69
420.948	2224.69
421.171	2122.69
421.394	2206.69
421.617	2271.69
421.839	2206.69
422.062	2158.69
422.285	2132.69
422.507	2126.69
422.73	2105.69
422.953	2084.69
423.175	2099.69
423.398	2154.69
423.621	2180.69
423.843	2154.69
424.066	2247.69
424.288	2278.69
424.511	2313.69
424.733	2232.69
424.956	2056.69
425.178	2085.69
425.401	2090.69
425.623	2121.69
425.846	2103.69
426.068	2167.69
426.291	2212.69
426.513	2209.69
426.735	2194.69
426.958	2355.69
427.18	2522.69
427.402	2278.69
427.625	2344.69
427.847	2355.69
428.069	2208.69
428.292	2117.69
428.514	2051.69
428.736	2052.69
428.958	2105.69
429.181	2120.69
429.403	2348.69
429.625	2980.69
429.847	2601.69
430.069	2111.69
430.292	2337.69
430.514	2420.69
430.736	2248.69
430.958	2408.69
431.18	2304.69
431.402	2078.69
431.624	2088.69
431.846	2104.69
432.068	2049.69
432.29	2092.69
432.512	2138.69
432.734	2124.69
432.956	2183.69
433.178	2292.69
433.4	2227.69
433.622	2276.69
433.844	2169.69
434.066	2062.69
434.287	2077.69
434.509	2184.69
434.731	2209.69
434.953	2396.69
435.175	2375.69
435.397	2231.69
435.618	2207.69
435.84	2243.69
436.062	2192.69
436.284	2177.69
436.505	2240.69
436.727	2249.69
436.949	2188.69
437.17	2145.69
437.392	2130.69
437.614	2140.69
437.835	2087.69
438.057	2202.69
438.278	2315.69
438.5	2104.69
438.721	2064.69
438.943	2095.69
439.165	2074.69
439.386	1996.69
439.608	2052.69
439.829	2095.69
440.05	2101.69
440.272	2049.69
440.493	2061.69
440.715	2096.69
440.936	2181.69
441.158	2451.69
441.379	2396.69
441.6	2337.69
441.822	2303.69
442.043	2261.69
442.264	2190.69
442.486	2079.69
442.707	2114.69
442.928	2082.69
443.149	2156.69
443.371	2292.69
443.592	2351.69
443.813	2351.69
444.034	2255.69
444.255	2287.69
444.476	2350.69
444.698	2378.69
444.919	2374.69
445.14	2406.69
445.361	2456.69
445.582	2432.69
445.803	2399.69
446.024	2314.69
446.245	2379.69
446.466	2252.69
446.687	2211.69
446.908	2190.69
447.129	2108.69
447.35	2151.69
447.571	2158.69
447.792	2038.69
448.013	2020.69
448.234	2068.69
448.455	2209.69
448.675	2185.69
448.896	1996.69
449.117	2016.69
449.338	2058.69
449.559	2132.69
449.779	2271.69
450	2492.69
450.221	2653.69
450.442	2649.69
450.662	2249.69
450.883	1995.69
451.104	1979.69
451.324	2064.69
451.545	2071.69
451.766	2069.69
451.986	1953.69
452.207	1942.69
452.428	1872.69
452.648	1852.69
452.869	1955.69
453.089	2052.69
453.31	2061.69
453.53	2107.69
453.751	2037.69
453.971	1911.69
454.192	1938.69
454.412	2062.69
454.633	2014.69
454.853	1975.69
455.073	1855.69
455.294	1809.69
455.514	1851.69
455.734	1845.69
455.955	1891.69
456.175	1888.69
456.395	1898.69
456.616	1944.69
456.836	1969.69
457.056	1957.69
457.276	1952.69
457.497	1882.69
457.717	1794.69
457.937	1836.69
458.157	1907.69
458.377	1905.69
458.598	1835.69
458.818	1874.69
459.038	2015.69
459.258	2144.69
459.478	2177.69
459.698	2027.69
459.918	2084.69
460.138	2196.69
460.358	2230.69
460.578	2186.69
460.798	2315.69
461.018	2491.69
461.238	2328.69
461.458	2234.69
461.678	2248.69
461.898	2189.69
462.118	2157.69
462.338	2273.69
462.558	2261.69
462.777	2225.69
462.997	2371.69
463.217	2519.69
463.437	2426.69
463.657	2288.69
463.876	2214.69
464.096	2183.69
464.316	2252.69
464.536	2335.69
464.755	2350.69
464.975	2380.69
465.195	2264.69
465.414	2364.69
465.634	2386.69
465.854	2242.69
466.073	2378.69
466.293	2335.69
466.512	2074.69
466.732	2033.69
466.951	2160.69
467.171	2135.69
467.391	2017.69
467.61	2006.69
467.829	2010.69
468.049	2204.69
468.268	2461.69
468.488	2272.69
468.707	2171.69
468.927	2078.69
469.146	2069.69
469.365	1985.69
469.585	2023.69
469.804	2028.69
470.023	2015.69
470.243	2097.69
470.462	2055.69
470.681	1989.69
470.901	2072.69
471.12	2043.69
471.339	2004.69
471.558	2010.69
471.777	1971.69
471.997	2022.69
472.216	1994.69
472.435	1916.69
472.654	1998.69
472.873	2090.69
473.092	2186.69
473.311	2119.69
473.53	1957.69
473.749	1949.69
473.968	2018.69
474.187	2124.69
474.406	2231.69
474.625	2161.69
474.844	2081.69
475.063	2075.69
475.282	2134.69
475.501	2037.69
475.72	2065.69
475.939	2224.69
476.158	2129.69
476.377	2089.69
476.596	2077.69
476.814	2172.69
477.033	2126.69
477.252	2249.69
477.471	2305.69
477.69	2180.69
477.908	2163.69
478.127	2271.69
478.346	2473.69
478.564	2502.69
478.783	2468.69
479.002	2511.69
479.22	2498.69
479.439	2595.69
479.658	2871.69
479.876	2849.69
480.095	2503.69
480.313	2385.69
480.532	2258.69
480.751	2307.69
480.969	2353.69
481.188	2326.69
481.406	2307.69
481.624	2269.69
481.843	2271.69
482.061	2278.69
482.28	2335.69
482.498	2388.69
482.717	2400.69
482.935	2276.69
483.153	2301.69
483.372	2281.69
483.59	2275.69
483.808	2277.69
484.027	2323.69
484.245	2489.69
484.463	2825.69
484.681	3298.69
484.9	2520.69
485.118	2357.69
485.336	2291.69
485.554	2434.69
485.772	2522.69
485.99	2477.69
486.209	2509.69
486.427	2416.69
486.645	2448.69
486.863	2411.69
487.081	2513.69
487.299	2587.69
487.517	2516.69
487.735	2391.69
487.953	2364.69
488.171	2342.69
488.389	2364.69
488.607	2363.69
488.825	2625.69
489.043	2640.69
489.261	2403.69
489.479	2517.69
489.696	2518.69
489.914	2599.69
490.132	2463.69
490.35	2432.69
490.568	2516.69
490.786	2426.69
491.003	2373.69
491.221	2408.69
491.439	2539.69
491.657	2427.69
491.874	2443.69
492.092	2509.69
492.31	2476.69
492.527	2517.69
492.745	2465.69
492.963	2404.69
493.18	2472.69
493.398	2729.69
493.615	2774.69
493.833	2556.69
494.05	2460.69
494.268	2516.69
494.485	2594.69
494.703	2487.69
494.92	2460.69
495.138	2433.69
495.355	2509.69
495.573	2623.69
495.79	2730.69
496.008	2774.69
496.225	2659.69
496.442	2635.69
496.66	2665.69
496.877	2596.69
497.094	2754.69
497.312	2749.69
497.529	2709.69
497.746	2768.69
497.963	3260.69
498.181	3658.69
498.398	3404.69
498.615	3322.69
498.832	3203.69
499.049	3222.69
499.267	3211.69
499.484	3341.69
499.701	3699.69
499.918	3724.69
500.135	3910.69
500.352	4325.69
500.569	4175.69
500.786	4431.69
501.003	4136.69
501.22	3792.69
501.437	3718.69
501.654	3673.69
501.871	3599.69
502.088	3181.69
502.305	3162.69
502.522	3043.69
502.739	2851.69
502.956	2766.69
503.172	2759.69
503.389	2705.69
503.606	2591.69
503.823	2648.69
504.04	2691.69
504.256	2663.69
504.473	2659.69
504.69	2761.69
504.907	2592.69
505.123	2481.69
505.34	2604.69
505.557	3319.69
505.773	2856.69
505.99	2397.69
506.207	2289.69
506.423	2277.69
506.64	2221.69
506.856	2257.69
507.073	2585.69
507.289	2749.69
507.506	2640.69
507.722	2282.69
507.939	2140.69
508.155	2217.69
508.372	2164.69
508.588	2133.69
508.805	2104.69
509.021	2081.69
509.238	2043.69
509.454	2010.69
509.67	2065.69
509.887	2047.69
510.103	2038.69
510.319	2079.69
510.536	2159.69
510.752	2238.69
510.968	2194.69
511.184	2371.69
511.401	2338.69
511.617	2032.69
511.833	1987.69
512.049	1947.69
512.265	2006.69
512.481	2017.69
512.698	2026.69
512.914	2200.69
513.13	2119.69
513.346	2047.69
513.562	1961.69
513.778	2010.69
513.994	2123.69
514.21	2209.69
514.426	2219.69
514.642	2409.69
514.858	2270.69
515.074	2083.69
515.29	2020.69
515.506	2076.69
515.721	2169.69
515.937	2120.69
516.153	2413.69
516.369	2362.69
516.585	2219.69
516.801	2104.69
517.016	2090.69
517.232	2167.69
517.448	2196.69
517.664	2229.69
517.879	2229.69
518.095	2311.69
518.311	2246.69
518.527	2140.69
518.742	2082.69
518.958	2009.69
519.173	2020.69
519.389	2061.69
519.605	2055.69
519.82	2053.69
520.036	2127.69
520.251	2066.69
520.467	2042.69
520.682	2231.69
520.898	2298.69
521.113	2015.69
521.329	1974.69
521.544	2115.69
521.76	2063.69
521.975	1939.69
522.19	1920.69
522.406	1916.69
522.621	2276.69
522.836	2351.69
523.052	1928.69
523.267	1901.69
523.482	1935.69
523.698	1836.69
523.913	1813.69
524.128	1842.69
524.343	1944.69
524.559	1996.69
524.774	1847.69
524.989	1848.69
525.204	1810.69
525.419	1784.69
525.634	1829.69
525.849	1793.69
526.064	1829.69
526.28	1864.69
526.495	1778.69
526.71	1744.69
526.925	1802.69
527.14	1753.69
527.355	1736.69
527.57	1725.69
527.785	1811.69
527.999	1753.69
528.214	1637.69
528.429	1683.69
528.644	1693.69
528.859	1723.69
529.074	1756.69
529.289	1745.69
529.503	1779.69
529.718	1773.69
529.933	1719.69
530.148	1695.69
530.363	1696.69
530.577	1724.69
530.792	1757.69
531.007	1760.69
531.221	1731.69
531.436	1776.69
531.651	1812.69
531.865	1915.69
532.08	1778.69
532.295	1713.69
532.509	1633.69
532.724	1657.69
532.938	1733.69
533.153	1861.69
533.367	1809.69
533.582	1763.69
533.796	1711.69
534.011	1740.69
534.225	1716.69
534.44	1687.69
534.654	1700.69
534.868	1708.69
535.083	1764.69
535.297	1724.69
535.511	1716.69
535.726	1692.69
535.94	1703.69
536.154	1677.69
536.369	1683.69
536.583	1654.69
536.797	1667.69
537.011	1668.69
537.225	1637.69
537.44	1610.69
537.654	1653.69
537.868	1632.69
538.082	1571.69
538.296	1583.69
538.51	1553.69
538.724	1562.69
538.938	1546.69
539.153	1624.69
539.367	1659.69
539.581	1632.69
539.795	1743.69
540.009	1671.69
540.222	1620.69
540.436	1647.69
540.65	1781.69
540.864	1809.69
541.078	1713.69
541.292	1635.69
541.506	1638.69
541.72	1615.69
541.934	1615.69
542.147	1660.69
542.361	1651.69
542.575	1565.69
542.789	1539.69
543.002	1509.69
543.216	1563.69
543.43	1670.69
543.644	1658.69
543.857	1734.69
544.071	1688.69
544.285	1636.69
544.498	1575.69
544.712	1598.69
544.925	1615.69
545.139	1654.69
545.352	1585.69
545.566	1525.69
545.779	1513.69
545.993	1572.69
546.206	1569.69
546.42	1513.69
546.633	1536.69
546.847	1474.69
547.06	1482.69
547.274	1489.69
547.487	1471.69
547.7	1504.69
547.914	1528.69
548.127	1600.69
548.34	1588.69
548.554	1588.69
548.767	1544.69
548.98	1537.69
549.193	1533.69
549.407	1600.69
549.62	1609.69
549.833	1564.69
550.046	1495.69
550.259	1545.69
550.473	1501.69
550.686	1552.69
550.899	1471.69
551.112	1441.69
551.325	1437.69
551.538	1538.69
551.751	1775.69
551.964	1476.69
552.177	1431.69
552.39	1440.69
552.603	1491.69
552.816	1480.69
553.029	1558.69
553.242	1593.69
553.455	1537.69
553.667	1464.69
553.88	1480.69
554.093	1475.69
554.306	1471.69
554.519	1443.69
554.732	1371.69
554.944	1432.69
555.157	1452.69
555.37	1385.69
555.583	1384.69
555.795	1411.69
556.008	1336.69
556.221	1352.69
556.433	1336.69
556.646	1299.69
556.859	1328.69
557.071	1323.69
557.284	1309.69
557.496	1310.69
557.709	1271.69
557.921	1280.69
558.134	1247.69
558.346	1263.69
558.559	1255.69
558.771	1252.69
558.984	1226.69
559.196	1226.69
559.409	1207.69
559.621	1223.69
559.833	1244.69
560.046	1287.69
560.258	1293.69
560.47	1229.69
560.683	1239.69
560.895	1219.69
561.107	1235.69
561.32	1285.69
561.532	1293.69
561.744	1241.69
561.956	1268.69
562.168	1215.69
562.381	1182.69
562.593	1169.69
562.805	1202.69
563.017	1186.69
563.229	1213.69
563.441	1245.69
563.653	1236.69
563.865	1215.69
564.077	1210.69
564.289	1221.69
564.501	1242.69
564.713	1255.69
564.925	1281.69
565.137	1391.69
565.349	1314.69
565.561	1284.69
565.773	1299.69
565.985	1347.69
566.197	1378.69
566.408	1485.69
566.62	1465.69
566.832	1476.69
567.044	1463.69
567.255	1451.69
567.467	1473.69
567.679	1493.69
567.891	1569.69
568.102	1549.69
568.314	1489.69
568.526	1405.69
568.737	1337.69
568.949	1305.69
569.161	1266.69
569.372	1189.69
569.584	1220.69
569.795	1204.69
570.007	1178.69
570.218	1131.69
570.43	1120.69
570.641	1101.69
570.853	1116.69
571.064	1146.69
571.276	1110.69
571.487	1068.69
571.698	1051.69
571.91	1061.69
572.121	1023.69
572.333	1029.69
572.544	1025.69
572.755	980.69
572.966	970.69
573.178	991.69
573.389	996.69
573.6	1023.69
573.811	1060.69
574.023	1015.69
574.234	971.69
574.445	953.69
574.656	924.69
574.867	938.69
575.078	927.69
575.289	925.69
575.501	931.69
575.712	912.69
575.923	951.69
576.134	943.69
576.345	896.69
576.556	905.69
576.767	880.69
576.978	858.69
577.188	869.69
577.399	861.69
577.61	873.69
577.821	887.69
578.032	856.69
578.243	840.69
578.454	848.69
578.665	852.69
578.875	826.69
579.086	809.69
579.297	838.69
579.508	905.69
579.718	858.69
579.929	837.69
580.14	804.69
580.35	804.69
580.561	828.69
580.772	921.69
580.982	837.69
581.193	824.69
581.403	802.69
581.614	795.69
581.825	801.69
582.035	779.69
582.246	780.69
582.456	815.69
582.667	805.69
582.877	783.69
583.087	780.69
583.298	777.69
583.508	760.69
583.719	780.69
583.929	804.69
584.139	769.69
584.35	755.69
584.56	756.69
584.77	770.69
584.981	784.69
585.191	811.69
585.401	815.69
585.611	799.69
585.821	759.69
586.032	767.69
586.242	774.69
586.452	754.69
586.662	760.69
586.872	745.69
587.082	748.69
587.292	763.69
587.502	773.69
587.713	794.69
587.923	757.69
588.133	760.69
588.343	752.69
588.553	752.69
588.762	747.69
588.972	730.69
589.182	740.69
589.392	755.69
589.602	770.69
589.812	728.69
590.022	705.69
590.232	712.69
590.441	747.69
590.651	731.69
590.861	733.69
591.071	739.69
591.281	736.69
591.49	740.69
591.7	729.69
591.91	744.69
592.119	704.69
592.329	737.69
592.539	756.69
592.748	768.69
592.958	749.69
593.167	769.69
593.377	776.69
593.587	771.69
593.796	813.69
594.006	792.69
594.215	773.69
594.424	775.69
594.634	785.69
594.843	741.69
595.053	769.69
595.262	739.69
595.472	745.69
595.681	725.69
595.89	714.69
596.1	706.69
596.309	729.69
596.518	705.69
596.727	712.69
596.937	664.69
597.146	658.69
597.355	652.69
597.564	661.69
597.774	631.69
597.983	639.69
598.192	630.69
598.401	605.69
598.61	628.69
598.819	614.69
599.028	627.69
599.237	635.69
599.446	639.69
599.655	620.69
599.864	596.69
600.073	609.69
600.282	616.69
600.491	607.69
600.7	580.69
600.909	630.69
601.118	602.69
601.327	598.69
601.536	627.69
601.745	624.69
601.953	601.69
602.162	596.69
602.371	615.69
602.58	595.69
602.789	597.69
602.997	583.69
603.206	594.69
603.415	555.69
603.623	587.69
603.832	593.69
604.041	599.69
604.249	566.69
604.458	569.69
604.666	554.69
604.875	579.69
605.084	576.69
605.292	607.69
605.501	574.69
605.709	579.69
605.918	557.69
606.126	567.69
606.334	529.69
606.543	576.69
606.751	552.69
606.96	545.69
607.168	544.69
607.376	543.69
607.585	535.69
607.793	540.69
608.001	543.69
608.21	557.69
608.418	532.69
608.626	554.69
608.834	538.69
609.043	523.69
609.251	530.69
609.459	545.69
609.667	533.69
609.875	533.69
610.083	565.69
610.291	608.69
610.499	567.69
610.707	535.69
610.916	541.69
611.124	531.69
611.332	544.69
611.54	527.69
611.748	515.69
611.955	520.69
612.163	502.69
612.371	507.69
612.579	525.69
612.787	528.69
612.995	536.69
613.203	540.69
613.411	510.69
613.618	519.69
613.826	506.69
614.034	521.69
614.242	531.69
614.449	492.69
614.657	520.69
614.865	514.69
615.072	520.69
615.28	519.69
615.488	540.69
615.695	564.69
615.903	531.69
616.111	521.69
616.318	539.69
616.526	529.69
616.733	503.69
616.941	508.69
617.148	482.69
617.356	505.69
617.563	498.69
617.771	494.69
617.978	492.69
618.185	477.69
618.393	516.69
618.6	485.69
618.807	490.69
619.015	489.69
619.222	497.69
619.429	492.69
619.637	483.69
619.844	484.69
620.051	490.69
620.258	481.69
620.466	461.69
620.673	457.69
620.88	462.69
621.087	455.69
621.294	443.69
621.501	472.69
621.708	475.69
621.915	463.69
622.122	459.69
622.329	482.69
622.536	484.69
622.743	475.69
622.95	458.69
623.157	468.69
623.364	473.69
623.571	457.69
623.778	441.69
623.985	461.69
624.192	445.69
624.399	434.69
624.606	439.69
624.812	420.69
625.019	414.69
625.226	403.69
625.433	417.69
625.639	440.69
625.846	418.69
626.053	413.69
626.259	431.69
626.466	419.69
626.673	409.69
626.879	402.69
627.086	413.69
627.293	422.69
627.499	430.69
627.706	406.69
627.912	399.69
628.119	427.69
628.325	421.69
628.532	413.69
628.738	421.69
628.945	401.69
629.151	417.69
629.357	422.69
629.564	391.69
629.77	391.69
629.976	392.69
630.183	385.69
630.389	419.69
630.595	409.69
630.802	378.69
631.008	403.69
631.214	365.69
631.42	391.69
631.627	387.69
631.833	372.69
632.039	373.69
632.245	389.69
632.451	395.69
632.657	392.69
632.863	375.69
633.069	364.69
633.275	364.69
633.481	361.69
633.688	349.69
633.893	354.69
634.099	363.69
634.305	376.69
634.511	355.69
634.717	367.69
634.923	359.69
635.129	337.69
635.335	367.69
635.541	350.69
635.747	362.69
635.952	350.69
636.158	356.69
636.364	368.69
636.57	361.69
636.775	348.69
636.981	361.69
637.187	352.69
637.392	355.69
637.598	341.69
637.804	352.69
638.009	365.69
638.215	349.69
638.421	337.69
638.626	341.69
638.832	346.69
639.037	340.69
639.243	328.69
639.448	340.69
639.654	322.69
639.859	330.69
640.065	327.69
640.27	329.69
640.475	324.69
640.681	338.69
640.886	351.69
641.091	348.69
641.297	328.69
641.502	342.69
641.707	317.69
641.913	330.69
642.118	319.69
642.323	307.69
642.528	326.69
642.733	315.69
642.939	320.69
643.144	313.69
643.349	340.69
643.554	326.69
643.759	311.69
643.964	300.69
644.169	319.69
644.374	317.69
644.579	330.69
644.784	332.69
644.989	329.69
645.194	311.69
645.399	299.69
645.604	304.69
645.809	300.69
646.014	316.69
646.219	323.69
646.423	327.69
646.628	309.69
646.833	313.69
647.038	301.69
647.243	299.69
647.447	313.69
647.652	315.69
647.857	309.69
648.062	322.69
648.266	307.69
648.471	313.69
648.676	314.69
648.88	336.69
649.085	329.69
649.289	307.69
649.494	305.69
649.698	314.69
649.903	301.69
650.107	287.69
650.312	288.69
650.516	292.69
650.721	284.69
650.925	282.69
651.13	294.69
651.334	289.69
651.539	277.69
651.743	288.69
651.947	288.69
652.152	264.69
652.356	268.69
652.56	272.69
652.764	259.69
652.969	243.69
653.173	249.69
653.377	251.69
653.581	239.69
653.785	246.69
653.99	248.69
654.194	260.69
654.398	256.69
654.602	220.69
654.806	240.69
655.01	243.69
655.214	244.69
655.418	251.69
655.622	232.69
655.826	256.69
656.03	251.69
656.234	262.69
656.438	281.69
656.642	272.69
656.846	271.69
657.049	242.69
657.253	225.69
657.457	211.69
657.661	210.69
657.865	187.69
658.068	186.69
658.272	164.69
658.476	154.69
658.68	162.69
658.883	144.69
659.087	128.69
659.291	151.69
659.494	156.69
659.698	139.69
659.901	128.69
660.105	128.69
660.309	105.69
660.512	120.69
660.716	119.69
660.919	120.69
661.123	113.69
661.326	101.69
661.53	101.69
661.733	100.69
661.936	97.69
662.14	91.69
662.343	95.69
662.546	102.69
662.75	95.69
662.953	95.69
663.156	99.69
663.36	96.69
663.563	86.69
663.766	78.69
663.969	84.69
664.173	88.69
664.376	87.69
664.579	78.69
664.782	97.69
664.985	87.69
665.188	86.69
665.391	86.69
665.594	87.69
665.797	87.69
666	82.69
666.203	67.69
666.406	85.69
666.609	75.69
666.812	82.69
667.015	97.69
667.218	85.69
667.421	87.69
667.624	77.69
667.827	72.69
668.03	65.69
668.232	77.69
668.435	84.69
668.638	95.69
668.841	92.69
669.043	79.69
669.246	87.69
669.449	89.69
669.651	91.69
669.854	86.69
670.057	75.69
670.259	87.69
670.462	78.69
670.665	76.69
670.867	95.69
671.07	78.69
671.272	87.69
671.475	101.69
671.677	82.69
671.88	83.69
672.082	78.69
672.284	85.69
672.487	76.69
672.689	82.69
672.892	83.69
