Data from WStandard_LampEnergy5.5LIBS07252019.E.O._I.C._HRD10591_16-08-11-920.txt Node
Date: Thu Jul 25 16:08:11 EDT 2019
User: cochatt
Spectrometer: HR+D1059
Trigger mode: 1
Integration Time (sec): 1.000000E-1
Scans to average: 1
Electric dark correction enabled: true
Nonlinearity correction enabled: false
Boxcar width: 0
XAxis mode: Wavelengths
Number of Pixels in Spectrum: 2048
>>>>>Begin Spectral Data<<<<<
223.165	-16.25
223.4	-16.25
223.635	-16.25
223.869	-21.25
224.104	-21.25
224.338	-6.25
224.573	-10.25
224.808	-16.25
225.042	-4.25
225.277	-10.25
225.511	-5.25
225.746	-4.25
225.98	2.75
226.215	7.75
226.449	20.75
226.683	21.75
226.918	40.75
227.152	21.75
227.387	43.75
227.621	31.75
227.856	54.75
228.09	49.75
228.324	48.75
228.559	74.75
228.793	143.75
229.027	366.75
229.262	378.75
229.496	391.75
229.73	411.75
229.964	453.75
230.199	468.75
230.433	478.75
230.667	502.75
230.901	553.75
231.136	465.75
231.37	473.75
231.604	480.75
231.838	490.75
232.072	471.75
232.306	442.75
232.541	476.75
232.775	556.75
233.009	614.75
233.243	580.75
233.477	513.75
233.711	563.75
233.945	578.75
234.179	568.75
234.413	577.75
234.647	658.75
234.881	637.75
235.115	534.75
235.349	571.75
235.583	574.75
235.817	541.75
236.051	524.75
236.285	566.75
236.519	624.75
236.753	663.75
236.987	678.75
237.221	678.75
237.455	763.75
237.689	730.75
237.922	687.75
238.156	658.75
238.39	670.75
238.624	697.75
238.858	729.75
239.091	781.75
239.325	823.75
239.559	939.75
239.793	991.75
240.027	1060.75
240.26	1055.75
240.494	764.75
240.728	721.75
240.961	723.75
241.195	757.75
241.429	824.75
241.662	840.75
241.896	758.75
242.13	771.75
242.363	850.75
242.597	933.75
242.83	841.75
243.064	907.75
243.298	952.75
243.531	965.75
243.765	972.75
243.998	928.75
244.232	820.75
244.465	799.75
244.699	813.75
244.932	896.75
245.166	1060.75
245.399	1013.75
245.633	925.75
245.866	930.75
246.099	930.75
246.333	951.75
246.566	968.75
246.8	1064.75
247.033	1162.75
247.266	1108.75
247.5	1063.75
247.733	1053.75
247.966	1116.75
248.2	1286.75
248.433	1158.75
248.666	1218.75
248.899	1335.75
249.133	1541.75
249.366	1779.75
249.599	1431.75
249.832	1266.75
250.066	1262.75
250.299	1301.75
250.532	1219.75
250.765	1083.75
250.998	1160.75
251.231	1219.75
251.465	1267.75
251.698	1212.75
251.931	1177.75
252.164	1193.75
252.397	1256.75
252.63	1262.75
252.863	1135.75
253.096	1100.75
253.329	1164.75
253.562	1164.75
253.795	1276.75
254.028	1279.75
254.261	1179.75
254.494	1207.75
254.727	1139.75
254.96	1165.75
255.193	1248.75
255.426	1443.75
255.659	1621.75
255.892	1691.75
256.124	1388.75
256.357	1368.75
256.59	1452.75
256.823	1418.75
257.056	1417.75
257.289	1717.75
257.521	1936.75
257.754	1705.75
257.987	1606.75
258.22	1800.75
258.452	1779.75
258.685	1409.75
258.918	1389.75
259.151	1416.75
259.383	1368.75
259.616	1161.75
259.849	1238.75
260.081	1403.75
260.314	1545.75
260.547	1732.75
260.779	1755.75
261.012	1644.75
261.244	1449.75
261.477	1365.75
261.71	1483.75
261.942	1414.75
262.175	1359.75
262.407	1466.75
262.64	1419.75
262.872	1304.75
263.105	1278.75
263.337	1295.75
263.57	1313.75
263.802	1322.75
264.035	1223.75
264.267	1169.75
264.499	1153.75
264.732	1211.75
264.964	1313.75
265.197	1363.75
265.429	1433.75
265.661	1581.75
265.894	1766.75
266.126	1796.75
266.358	1647.75
266.591	1651.75
266.823	1831.75
267.055	1630.75
267.287	1622.75
267.52	1578.75
267.752	1600.75
267.984	1564.75
268.216	1608.75
268.448	1708.75
268.681	1705.75
268.913	1519.75
269.145	1437.75
269.377	1435.75
269.609	1513.75
269.841	1770.75
270.073	2064.75
270.306	2282.75
270.538	2398.75
270.77	2042.75
271.002	1776.75
271.234	1671.75
271.466	1653.75
271.698	1847.75
271.93	2277.75
272.162	2203.75
272.394	1989.75
272.626	1932.75
272.858	1700.75
273.09	1475.75
273.322	1457.75
273.553	1379.75
273.785	1419.75
274.017	1467.75
274.249	1558.75
274.481	1572.75
274.713	1496.75
274.945	1394.75
275.176	1418.75
275.408	1440.75
275.64	1381.75
275.872	1424.75
276.104	1456.75
276.335	1671.75
276.567	1903.75
276.799	1952.75
277.031	1701.75
277.262	1638.75
277.494	1685.75
277.726	1863.75
277.957	1845.75
278.189	1693.75
278.421	1543.75
278.652	1499.75
278.884	1498.75
279.115	1457.75
279.347	1521.75
279.579	1484.75
279.81	1461.75
280.042	1665.75
280.273	1771.75
280.505	1797.75
280.736	1838.75
280.968	1753.75
281.199	1528.75
281.431	1453.75
281.662	1437.75
281.894	1437.75
282.125	1519.75
282.356	1569.75
282.588	1549.75
282.819	1507.75
283.051	1653.75
283.282	1830.75
283.513	1799.75
283.745	1509.75
283.976	1418.75
284.207	1456.75
284.439	1457.75
284.67	1477.75
284.901	1525.75
285.132	1575.75
285.364	1561.75
285.595	1572.75
285.826	1541.75
286.057	1540.75
286.288	1508.75
286.52	1581.75
286.751	1649.75
286.982	1792.75
287.213	1641.75
287.444	1470.75
287.675	1441.75
287.906	1573.75
288.138	1655.75
288.369	1602.75
288.6	1593.75
288.831	1455.75
289.062	1473.75
289.293	1546.75
289.524	1536.75
289.755	1560.75
289.986	1567.75
290.217	1444.75
290.448	1501.75
290.679	1536.75
290.91	1582.75
291.141	1594.75
291.371	1653.75
291.602	1661.75
291.833	1612.75
292.064	1690.75
292.295	1606.75
292.526	1685.75
292.757	1742.75
292.987	1623.75
293.218	1566.75
293.449	1690.75
293.68	1878.75
293.91	2018.75
294.141	1915.75
294.372	1797.75
294.603	1847.75
294.833	1953.75
295.064	1835.75
295.295	1646.75
295.525	1641.75
295.756	1498.75
295.987	1427.75
296.217	1482.75
296.448	1569.75
296.679	1498.75
296.909	1495.75
297.14	1521.75
297.37	1531.75
297.601	1632.75
297.831	1754.75
298.062	1763.75
298.292	1575.75
298.523	1528.75
298.753	1535.75
298.984	1564.75
299.214	1566.75
299.445	1594.75
299.675	1635.75
299.905	1576.75
300.136	1572.75
300.366	1556.75
300.597	1489.75
300.827	1483.75
301.057	1593.75
301.288	1614.75
301.518	1621.75
301.748	1627.75
301.979	1756.75
302.209	1788.75
302.439	1868.75
302.669	1975.75
302.9	1865.75
303.13	1710.75
303.36	1677.75
303.59	1681.75
303.82	1689.75
304.051	1677.75
304.281	1687.75
304.511	1674.75
304.741	1725.75
304.971	1909.75
305.201	2091.75
305.431	1961.75
305.661	1612.75
305.891	1471.75
306.121	1447.75
306.352	1529.75
306.582	1605.75
306.812	1737.75
307.042	1837.75
307.272	1813.75
307.502	1887.75
307.731	2019.75
307.961	2201.75
308.191	2014.75
308.421	1698.75
308.651	1607.75
308.881	1597.75
309.111	1611.75
309.341	1553.75
309.571	1596.75
309.8	1585.75
310.03	1575.75
310.26	1599.75
310.49	1569.75
310.72	1605.75
310.949	1667.75
311.179	1671.75
311.409	1696.75
311.639	1647.75
311.868	1598.75
312.098	1600.75
312.328	1623.75
312.557	1624.75
312.787	1600.75
313.017	1687.75
313.246	1661.75
313.476	1644.75
313.706	1733.75
313.935	1731.75
314.165	1696.75
314.394	1771.75
314.624	1849.75
314.853	1941.75
315.083	2015.75
315.312	2073.75
315.542	1971.75
315.771	1751.75
316.001	1715.75
316.23	1860.75
316.46	1813.75
316.689	1745.75
316.919	1705.75
317.148	1635.75
317.377	1633.75
317.607	1776.75
317.836	1948.75
318.065	2039.75
318.295	1945.75
318.524	1902.75
318.753	1840.75
318.983	1820.75
319.212	1758.75
319.441	1749.75
319.67	1728.75
319.9	1735.75
320.129	1856.75
320.358	1920.75
320.587	1954.75
320.816	1960.75
321.046	1873.75
321.275	1780.75
321.504	1766.75
321.733	2018.75
321.962	1940.75
322.191	1772.75
322.42	1751.75
322.649	1714.75
322.878	1688.75
323.108	1764.75
323.337	1835.75
323.566	1771.75
323.795	1808.75
324.024	1793.75
324.253	1755.75
324.482	1773.75
324.71	1736.75
324.939	1638.75
325.168	1686.75
325.397	1775.75
325.626	1855.75
325.855	1827.75
326.084	1749.75
326.313	1740.75
326.542	1773.75
326.77	1827.75
326.999	1846.75
327.228	1799.75
327.457	1676.75
327.686	1686.75
327.914	1689.75
328.143	1735.75
328.372	1703.75
328.6	1741.75
328.829	1737.75
329.058	1717.75
329.287	1694.75
329.515	1780.75
329.744	1779.75
329.972	1907.75
330.201	1942.75
330.43	1890.75
330.658	1804.75
330.887	1873.75
331.115	1834.75
331.344	1858.75
331.572	1820.75
331.801	1843.75
332.03	1872.75
332.258	1825.75
332.486	1902.75
332.715	1907.75
332.943	1843.75
333.172	1838.75
333.4	1874.75
333.629	1918.75
333.857	2045.75
334.085	2175.75
334.314	2497.75
334.542	2700.75
334.771	2557.75
334.999	2222.75
335.227	2141.75
335.455	2002.75
335.684	1968.75
335.912	1993.75
336.14	2098.75
336.369	2006.75
336.597	1881.75
336.825	1857.75
337.053	1932.75
337.281	2030.75
337.51	2109.75
337.738	2179.75
337.966	2119.75
338.194	1890.75
338.422	1864.75
338.65	1859.75
338.878	1836.75
339.106	1781.75
339.334	1775.75
339.562	1705.75
339.79	1769.75
340.018	1859.75
340.246	1936.75
340.474	1945.75
340.702	1903.75
340.93	1933.75
341.158	1868.75
341.386	1857.75
341.614	1876.75
341.842	1828.75
342.07	1830.75
342.298	1847.75
342.526	1817.75
342.754	1781.75
342.981	1798.75
343.209	1807.75
343.437	1796.75
343.665	1822.75
343.893	1893.75
344.12	1944.75
344.348	2003.75
344.576	1872.75
344.804	1799.75
345.031	1822.75
345.259	1830.75
345.487	1795.75
345.714	1689.75
345.942	1638.75
346.17	1666.75
346.397	1705.75
346.625	1776.75
346.853	1676.75
347.08	1608.75
347.308	1648.75
347.535	1713.75
347.763	1747.75
347.99	1694.75
348.218	1656.75
348.445	1648.75
348.673	1708.75
348.9	1750.75
349.128	1761.75
349.355	1839.75
349.583	1851.75
349.81	1735.75
350.037	1604.75
350.265	1581.75
350.492	1587.75
350.72	1640.75
350.947	1703.75
351.174	1792.75
351.402	1661.75
351.629	1625.75
351.856	1553.75
352.083	1598.75
352.311	1596.75
352.538	1611.75
352.765	1674.75
352.992	1744.75
353.22	1691.75
353.447	1609.75
353.674	1628.75
353.901	1711.75
354.128	1631.75
354.355	1604.75
354.583	1710.75
354.81	1745.75
355.037	1734.75
355.264	1709.75
355.491	1679.75
355.718	1653.75
355.945	1625.75
356.172	1657.75
356.399	1606.75
356.626	1621.75
356.853	1709.75
357.08	1784.75
357.307	2002.75
357.534	2005.75
357.761	1751.75
357.988	1613.75
358.215	1559.75
358.441	1582.75
358.668	1567.75
358.895	1631.75
359.122	1717.75
359.349	1900.75
359.576	1847.75
359.802	1672.75
360.029	1642.75
360.256	1607.75
360.483	1626.75
360.709	1630.75
360.936	1717.75
361.163	1792.75
361.39	1949.75
361.616	2131.75
361.843	2052.75
362.07	1963.75
362.296	1671.75
362.523	1623.75
362.749	1671.75
362.976	1683.75
363.203	1734.75
363.429	1656.75
363.656	1604.75
363.882	1655.75
364.109	1803.75
364.335	1967.75
364.562	1851.75
364.788	1774.75
365.015	1693.75
365.241	1647.75
365.468	1674.75
365.694	1760.75
365.92	1841.75
366.147	1710.75
366.373	1630.75
366.599	1613.75
366.826	1603.75
367.052	1639.75
367.278	1643.75
367.505	1671.75
367.731	1703.75
367.957	1687.75
368.184	1758.75
368.41	1812.75
368.636	1901.75
368.862	1870.75
369.089	1899.75
369.315	1838.75
369.541	1776.75
369.767	1701.75
369.993	1699.75
370.219	1639.75
370.445	1639.75
370.672	1739.75
370.898	1863.75
371.124	1864.75
371.35	1749.75
371.576	1808.75
371.802	1904.75
372.028	1798.75
372.254	1738.75
372.48	1715.75
372.706	1656.75
372.932	1695.75
373.158	1686.75
373.384	1701.75
373.61	1763.75
373.835	1850.75
374.061	1776.75
374.287	1722.75
374.513	1768.75
374.739	1791.75
374.965	1753.75
375.191	1797.75
375.416	1789.75
375.642	1833.75
375.868	1863.75
376.094	1941.75
376.319	1834.75
376.545	1748.75
376.771	1729.75
376.997	1879.75
377.222	1830.75
377.448	1806.75
377.674	1870.75
377.899	1769.75
378.125	1897.75
378.35	1918.75
378.576	1786.75
378.802	1696.75
379.027	1731.75
379.253	1707.75
379.478	1734.75
379.704	1758.75
379.929	1740.75
380.155	1734.75
380.38	1744.75
380.606	1773.75
380.831	1749.75
381.057	1860.75
381.282	1872.75
381.507	1824.75
381.733	1923.75
381.958	1989.75
382.184	1890.75
382.409	1770.75
382.634	1834.75
382.86	1785.75
383.085	1777.75
383.31	1854.75
383.535	2040.75
383.761	2141.75
383.986	2069.75
384.211	2027.75
384.436	1943.75
384.662	2011.75
384.887	2104.75
385.112	2047.75
385.337	2057.75
385.562	2030.75
385.787	1964.75
386.013	2044.75
386.238	2075.75
386.463	2029.75
386.688	2122.75
386.913	2313.75
387.138	2255.75
387.363	2069.75
387.588	2053.75
387.813	1995.75
388.038	2065.75
388.263	2152.75
388.488	2104.75
388.713	1950.75
388.938	1909.75
389.163	1937.75
389.387	1967.75
389.612	1943.75
389.837	1996.75
390.062	2051.75
390.287	1998.75
390.512	2022.75
390.736	1960.75
390.961	1924.75
391.186	1924.75
391.411	1943.75
391.636	1956.75
391.86	1971.75
392.085	1991.75
392.31	1985.75
392.534	1999.75
392.759	2017.75
392.984	1972.75
393.208	2071.75
393.433	2009.75
393.658	2134.75
393.882	2160.75
394.107	2064.75
394.331	1962.75
394.556	1952.75
394.78	2019.75
395.005	2103.75
395.229	2133.75
395.454	2302.75
395.678	2275.75
395.903	2235.75
396.127	2127.75
396.352	2125.75
396.576	2183.75
396.801	2180.75
397.025	2187.75
397.249	2162.75
397.474	2150.75
397.698	2151.75
397.922	2181.75
398.147	2286.75
398.371	2383.75
398.595	2408.75
398.82	2328.75
399.044	2298.75
399.268	2398.75
399.492	2579.75
399.717	2711.75
399.941	2726.75
400.165	2671.75
400.389	2528.75
400.613	2567.75
400.837	2736.75
401.062	3163.75
401.286	2763.75
401.51	2468.75
401.734	2629.75
401.958	2557.75
402.182	2337.75
402.406	2286.75
402.63	2280.75
402.854	2273.75
403.078	2322.75
403.302	2367.75
403.526	2429.75
403.75	2372.75
403.974	2368.75
404.198	2322.75
404.422	2465.75
404.645	2547.75
404.869	2573.75
405.093	2309.75
405.317	2317.75
405.541	2453.75
405.765	2397.75
405.988	2367.75
406.212	2377.75
406.436	2435.75
406.66	2559.75
406.883	2540.75
407.107	2828.75
407.331	3091.75
407.555	3355.75
407.778	3124.75
408.002	2588.75
408.226	2482.75
408.449	2487.75
408.673	2390.75
408.896	2461.75
409.12	2497.75
409.344	2427.75
409.567	2351.75
409.791	2407.75
410.014	2443.75
410.238	2527.75
410.461	2651.75
410.685	2445.75
410.908	2327.75
411.132	2393.75
411.355	2364.75
411.578	2333.75
411.802	2316.75
412.025	2362.75
412.249	2347.75
412.472	2265.75
412.695	2222.75
412.919	2236.75
413.142	2246.75
413.365	2286.75
413.589	2339.75
413.812	2424.75
414.035	2518.75
414.258	2328.75
414.482	2256.75
414.705	2325.75
414.928	2214.75
415.151	2214.75
415.374	2281.75
415.597	2287.75
415.821	2298.75
416.044	2377.75
416.267	2415.75
416.49	2174.75
416.713	2175.75
416.936	2266.75
417.159	2360.75
417.382	2331.75
417.605	2227.75
417.828	2297.75
418.051	2361.75
418.274	2235.75
418.497	2176.75
418.72	2178.75
418.943	2192.75
419.166	2336.75
419.389	2423.75
419.611	2279.75
419.834	2196.75
420.057	2288.75
420.28	2199.75
420.503	2167.75
420.726	2191.75
420.948	2208.75
421.171	2194.75
421.394	2220.75
421.617	2248.75
421.839	2280.75
422.062	2239.75
422.285	2175.75
422.507	2159.75
422.73	2155.75
422.953	2073.75
423.175	2121.75
423.398	2137.75
423.621	2195.75
423.843	2185.75
424.066	2230.75
424.288	2346.75
424.511	2315.75
424.733	2249.75
424.956	2051.75
425.178	2079.75
425.401	2122.75
425.623	2166.75
425.846	2063.75
426.068	2177.75
426.291	2263.75
426.513	2216.75
426.735	2224.75
426.958	2376.75
427.18	2510.75
427.402	2262.75
427.625	2319.75
427.847	2394.75
428.069	2191.75
428.292	2130.75
428.514	2072.75
428.736	2078.75
428.958	2090.75
429.181	2103.75
429.403	2393.75
429.625	2907.75
429.847	2591.75
430.069	2157.75
430.292	2393.75
430.514	2458.75
430.736	2284.75
430.958	2405.75
431.18	2281.75
431.402	2159.75
431.624	2067.75
431.846	2106.75
432.068	2030.75
432.29	2122.75
432.512	2124.75
432.734	2171.75
432.956	2197.75
433.178	2320.75
433.4	2256.75
433.622	2282.75
433.844	2168.75
434.066	2075.75
434.287	2085.75
434.509	2178.75
434.731	2235.75
434.953	2436.75
435.175	2381.75
435.397	2207.75
435.618	2245.75
435.84	2206.75
436.062	2182.75
436.284	2224.75
436.505	2214.75
436.727	2243.75
436.949	2231.75
437.17	2123.75
437.392	2115.75
437.614	2123.75
437.835	2079.75
438.057	2232.75
438.278	2287.75
438.5	2118.75
438.721	2102.75
438.943	2136.75
439.165	2096.75
439.386	2054.75
439.608	2071.75
439.829	2082.75
440.05	2100.75
440.272	2057.75
440.493	2101.75
440.715	2094.75
440.936	2219.75
441.158	2485.75
441.379	2431.75
441.6	2342.75
441.822	2279.75
442.043	2245.75
442.264	2219.75
442.486	2101.75
442.707	2077.75
442.928	2119.75
443.149	2161.75
443.371	2300.75
443.592	2420.75
443.813	2275.75
444.034	2322.75
444.255	2337.75
444.476	2368.75
444.698	2394.75
444.919	2340.75
445.14	2431.75
445.361	2427.75
445.582	2520.75
445.803	2439.75
446.024	2313.75
446.245	2408.75
446.466	2315.75
446.687	2193.75
446.908	2187.75
447.129	2132.75
447.35	2151.75
447.571	2150.75
447.792	2059.75
448.013	2057.75
448.234	2102.75
448.455	2222.75
448.675	2209.75
448.896	2004.75
449.117	1965.75
449.338	2063.75
449.559	2187.75
449.779	2224.75
450	2485.75
450.221	2661.75
450.442	2608.75
450.662	2277.75
450.883	2061.75
451.104	2002.75
451.324	2014.75
451.545	2124.75
451.766	2065.75
451.986	1977.75
452.207	1961.75
452.428	1890.75
452.648	1814.75
452.869	1916.75
453.089	2071.75
453.31	2028.75
453.53	2119.75
453.751	2059.75
453.971	1920.75
454.192	1990.75
454.412	2052.75
454.633	2055.75
454.853	1976.75
455.073	1830.75
455.294	1807.75
455.514	1844.75
455.734	1827.75
455.955	1923.75
456.175	1855.75
456.395	1865.75
456.616	1961.75
456.836	1968.75
457.056	1946.75
457.276	1931.75
457.497	1879.75
457.717	1814.75
457.937	1864.75
458.157	1960.75
458.377	1896.75
458.598	1897.75
458.818	1891.75
459.038	1997.75
459.258	2128.75
459.478	2128.75
459.698	2052.75
459.918	2087.75
460.138	2213.75
460.358	2272.75
460.578	2222.75
460.798	2328.75
461.018	2495.75
461.238	2397.75
461.458	2259.75
461.678	2247.75
461.898	2243.75
462.118	2142.75
462.338	2264.75
462.558	2291.75
462.777	2299.75
462.997	2344.75
463.217	2510.75
463.437	2487.75
463.657	2309.75
463.876	2215.75
464.096	2250.75
464.316	2283.75
464.536	2350.75
464.755	2381.75
464.975	2411.75
465.195	2310.75
465.414	2399.75
465.634	2402.75
465.854	2254.75
466.073	2420.75
466.293	2353.75
466.512	2069.75
466.732	2081.75
466.951	2163.75
467.171	2137.75
467.391	2043.75
467.61	2045.75
467.829	1998.75
468.049	2233.75
468.268	2456.75
468.488	2311.75
468.707	2182.75
468.927	2077.75
469.146	2077.75
469.365	2061.75
469.585	2067.75
469.804	2022.75
470.023	2029.75
470.243	2103.75
470.462	2063.75
470.681	2000.75
470.901	2079.75
471.12	2045.75
471.339	2042.75
471.558	1978.75
471.777	1976.75
471.997	1964.75
472.216	2049.75
472.435	1949.75
472.654	2006.75
472.873	2119.75
473.092	2233.75
473.311	2078.75
473.53	1965.75
473.749	2003.75
473.968	1999.75
474.187	2095.75
474.406	2254.75
474.625	2112.75
474.844	2078.75
475.063	2040.75
475.282	2126.75
475.501	2094.75
475.72	2119.75
475.939	2225.75
476.158	2175.75
476.377	2054.75
476.596	2142.75
476.814	2172.75
477.033	2138.75
477.252	2267.75
477.471	2335.75
477.69	2160.75
477.908	2133.75
478.127	2340.75
478.346	2487.75
478.564	2468.75
478.783	2439.75
479.002	2549.75
479.22	2458.75
479.439	2567.75
479.658	2907.75
479.876	2890.75
480.095	2523.75
480.313	2379.75
480.532	2303.75
480.751	2364.75
480.969	2425.75
481.188	2337.75
481.406	2322.75
481.624	2261.75
481.843	2289.75
482.061	2331.75
482.28	2374.75
482.498	2404.75
482.717	2397.75
482.935	2318.75
483.153	2350.75
483.372	2316.75
483.59	2272.75
483.808	2313.75
484.027	2371.75
484.245	2504.75
484.463	2833.75
484.681	3340.75
484.9	2553.75
485.118	2377.75
485.336	2339.75
485.554	2429.75
485.772	2521.75
485.99	2529.75
486.209	2470.75
486.427	2455.75
486.645	2514.75
486.863	2421.75
487.081	2496.75
487.299	2531.75
487.517	2551.75
487.735	2375.75
487.953	2397.75
488.171	2406.75
488.389	2363.75
488.607	2351.75
488.825	2637.75
489.043	2712.75
489.261	2391.75
489.479	2505.75
489.696	2619.75
489.914	2560.75
490.132	2486.75
490.35	2442.75
490.568	2518.75
490.786	2437.75
491.003	2346.75
491.221	2413.75
491.439	2531.75
491.657	2498.75
491.874	2472.75
492.092	2511.75
492.31	2497.75
492.527	2489.75
492.745	2430.75
492.963	2483.75
493.18	2541.75
493.398	2711.75
493.615	2777.75
493.833	2597.75
494.05	2505.75
494.268	2487.75
494.485	2570.75
494.703	2534.75
494.92	2463.75
495.138	2474.75
495.355	2521.75
495.573	2607.75
495.79	2771.75
496.008	2835.75
496.225	2611.75
496.442	2658.75
496.66	2675.75
496.877	2651.75
497.094	2773.75
497.312	2723.75
497.529	2734.75
497.746	2788.75
497.963	3273.75
498.181	3687.75
498.398	3345.75
498.615	3302.75
498.832	3240.75
499.049	3222.75
499.267	3180.75
499.484	3403.75
499.701	3699.75
499.918	3705.75
500.135	3999.75
500.352	4275.75
500.569	4263.75
500.786	4533.75
501.003	4281.75
501.22	3811.75
501.437	3781.75
501.654	3749.75
501.871	3641.75
502.088	3201.75
502.305	3155.75
502.522	3087.75
502.739	2889.75
502.956	2823.75
503.172	2755.75
503.389	2722.75
503.606	2597.75
503.823	2641.75
504.04	2699.75
504.256	2681.75
504.473	2662.75
504.69	2752.75
504.907	2650.75
505.123	2470.75
505.34	2591.75
505.557	3329.75
505.773	2848.75
505.99	2475.75
506.207	2340.75
506.423	2282.75
506.64	2255.75
506.856	2273.75
507.073	2575.75
507.289	2766.75
507.506	2671.75
507.722	2308.75
507.939	2166.75
508.155	2237.75
508.372	2245.75
508.588	2152.75
508.805	2073.75
509.021	2058.75
509.238	2045.75
509.454	2072.75
509.67	2083.75
509.887	1994.75
510.103	2055.75
510.319	2079.75
510.536	2153.75
510.752	2260.75
510.968	2218.75
511.184	2394.75
511.401	2371.75
511.617	2025.75
511.833	1989.75
512.049	2023.75
512.265	2006.75
512.481	2004.75
512.698	2042.75
512.914	2220.75
513.13	2116.75
513.346	1993.75
513.562	1958.75
513.778	1975.75
513.994	2113.75
514.21	2206.75
514.426	2221.75
514.642	2436.75
514.858	2258.75
515.074	2083.75
515.29	2020.75
515.506	2104.75
515.721	2173.75
515.937	2163.75
516.153	2421.75
516.369	2305.75
516.585	2222.75
516.801	2093.75
517.016	2101.75
517.232	2134.75
517.448	2175.75
517.664	2211.75
517.879	2201.75
518.095	2365.75
518.311	2284.75
518.527	2150.75
518.742	2086.75
518.958	2014.75
519.173	2027.75
519.389	2039.75
519.605	2061.75
519.82	2073.75
520.036	2131.75
520.251	2014.75
520.467	2044.75
520.682	2239.75
520.898	2333.75
521.113	2041.75
521.329	2012.75
521.544	2165.75
521.76	2067.75
521.975	1967.75
522.19	1918.75
522.406	1911.75
522.621	2305.75
522.836	2363.75
523.052	1905.75
523.267	1935.75
523.482	1941.75
523.698	1824.75
523.913	1827.75
524.128	1854.75
524.343	1984.75
524.559	2001.75
524.774	1851.75
524.989	1843.75
525.204	1834.75
525.419	1792.75
525.634	1783.75
525.849	1835.75
526.064	1788.75
526.28	1863.75
526.495	1779.75
526.71	1744.75
526.925	1820.75
527.14	1791.75
527.355	1745.75
527.57	1707.75
527.785	1784.75
527.999	1769.75
528.214	1707.75
528.429	1699.75
528.644	1733.75
528.859	1707.75
529.074	1744.75
529.289	1768.75
529.503	1755.75
529.718	1775.75
529.933	1745.75
530.148	1694.75
530.363	1720.75
530.577	1734.75
530.792	1763.75
531.007	1779.75
531.221	1752.75
531.436	1786.75
531.651	1840.75
531.865	1916.75
532.08	1841.75
532.295	1697.75
532.509	1653.75
532.724	1701.75
532.938	1783.75
533.153	1891.75
533.367	1825.75
533.582	1791.75
533.796	1718.75
534.011	1700.75
534.225	1727.75
534.44	1691.75
534.654	1727.75
534.868	1643.75
535.083	1783.75
535.297	1795.75
535.511	1725.75
535.726	1740.75
535.94	1737.75
536.154	1709.75
536.369	1692.75
536.583	1708.75
536.797	1661.75
537.011	1694.75
537.225	1647.75
537.44	1616.75
537.654	1715.75
537.868	1691.75
538.082	1569.75
538.296	1570.75
538.51	1544.75
538.724	1604.75
538.938	1564.75
539.153	1660.75
539.367	1676.75
539.581	1617.75
539.795	1693.75
540.009	1707.75
540.222	1617.75
540.436	1669.75
540.65	1805.75
540.864	1815.75
541.078	1714.75
541.292	1593.75
541.506	1600.75
541.72	1639.75
541.934	1655.75
542.147	1675.75
542.361	1604.75
542.575	1580.75
542.789	1552.75
543.002	1519.75
543.216	1551.75
543.43	1645.75
543.644	1712.75
543.857	1785.75
544.071	1649.75
544.285	1674.75
544.498	1590.75
544.712	1589.75
544.925	1675.75
545.139	1688.75
545.352	1601.75
545.566	1522.75
545.779	1527.75
545.993	1555.75
546.206	1566.75
546.42	1525.75
546.633	1524.75
546.847	1503.75
547.06	1509.75
547.274	1551.75
547.487	1543.75
547.7	1483.75
547.914	1540.75
548.127	1578.75
548.34	1567.75
548.554	1558.75
548.767	1532.75
548.98	1566.75
549.193	1529.75
549.407	1618.75
549.62	1603.75
549.833	1541.75
550.046	1538.75
550.259	1542.75
550.473	1501.75
550.686	1509.75
550.899	1486.75
551.112	1451.75
551.325	1438.75
551.538	1537.75
551.751	1787.75
551.964	1445.75
552.177	1443.75
552.39	1504.75
552.603	1511.75
552.816	1501.75
553.029	1611.75
553.242	1623.75
553.455	1558.75
553.667	1509.75
553.88	1527.75
554.093	1496.75
554.306	1444.75
554.519	1409.75
554.732	1414.75
554.944	1456.75
555.157	1431.75
555.37	1419.75
555.583	1433.75
555.795	1391.75
556.008	1349.75
556.221	1318.75
556.433	1324.75
556.646	1301.75
556.859	1301.75
557.071	1333.75
557.284	1281.75
557.496	1341.75
557.709	1299.75
557.921	1248.75
558.134	1272.75
558.346	1311.75
558.559	1272.75
558.771	1275.75
558.984	1246.75
559.196	1195.75
559.409	1240.75
559.621	1253.75
559.833	1230.75
560.046	1309.75
560.258	1274.75
560.47	1227.75
560.683	1264.75
560.895	1283.75
561.107	1228.75
561.32	1232.75
561.532	1254.75
561.744	1277.75
561.956	1251.75
562.168	1225.75
562.381	1208.75
562.593	1207.75
562.805	1213.75
563.017	1193.75
563.229	1219.75
563.441	1254.75
563.653	1207.75
563.865	1198.75
564.077	1215.75
564.289	1232.75
564.501	1215.75
564.713	1283.75
564.925	1295.75
565.137	1391.75
565.349	1309.75
565.561	1293.75
565.773	1316.75
565.985	1339.75
566.197	1397.75
566.408	1481.75
566.62	1506.75
566.832	1469.75
567.044	1494.75
567.255	1476.75
567.467	1489.75
567.679	1547.75
567.891	1543.75
568.102	1545.75
568.314	1505.75
568.526	1400.75
568.737	1360.75
568.949	1305.75
569.161	1235.75
569.372	1227.75
569.584	1178.75
569.795	1171.75
570.007	1176.75
570.218	1143.75
570.43	1112.75
570.641	1117.75
570.853	1126.75
571.064	1129.75
571.276	1101.75
571.487	1076.75
571.698	1045.75
571.91	1041.75
572.121	1043.75
572.333	1036.75
572.544	999.75
572.755	997.75
572.966	1012.75
573.178	999.75
573.389	1012.75
573.6	1034.75
573.811	1103.75
574.023	1023.75
574.234	983.75
574.445	961.75
574.656	951.75
574.867	942.75
575.078	963.75
575.289	965.75
575.501	952.75
575.712	931.75
575.923	908.75
576.134	935.75
576.345	923.75
576.556	934.75
576.767	893.75
576.978	893.75
577.188	893.75
577.399	893.75
577.61	874.75
577.821	860.75
578.032	864.75
578.243	869.75
578.454	860.75
578.665	845.75
578.875	844.75
579.086	846.75
579.297	855.75
579.508	891.75
579.718	870.75
579.929	852.75
580.14	839.75
580.35	835.75
580.561	865.75
580.772	942.75
580.982	889.75
581.193	854.75
581.403	808.75
581.614	827.75
581.825	803.75
582.035	814.75
582.246	795.75
582.456	817.75
582.667	795.75
582.877	783.75
583.087	788.75
583.298	789.75
583.508	781.75
583.719	783.75
583.929	775.75
584.139	798.75
584.35	752.75
584.56	752.75
584.77	785.75
584.981	790.75
585.191	791.75
585.401	801.75
585.611	785.75
585.821	795.75
586.032	779.75
586.242	775.75
586.452	761.75
586.662	759.75
586.872	750.75
587.082	747.75
587.292	795.75
587.502	780.75
587.713	800.75
587.923	772.75
588.133	751.75
588.343	769.75
588.553	762.75
588.762	782.75
588.972	748.75
589.182	774.75
589.392	753.75
589.602	771.75
589.812	775.75
590.022	715.75
590.232	694.75
590.441	739.75
590.651	747.75
590.861	752.75
591.071	727.75
591.281	739.75
591.49	762.75
591.7	768.75
591.91	752.75
592.119	751.75
592.329	757.75
592.539	782.75
592.748	780.75
592.958	784.75
593.167	791.75
593.377	775.75
593.587	766.75
593.796	771.75
594.006	786.75
594.215	790.75
594.424	767.75
594.634	751.75
594.843	743.75
595.053	775.75
595.262	746.75
595.472	726.75
595.681	733.75
595.89	703.75
596.1	710.75
596.309	726.75
596.518	689.75
596.727	713.75
596.937	676.75
597.146	680.75
597.355	663.75
597.564	678.75
597.774	660.75
597.983	662.75
598.192	652.75
598.401	647.75
598.61	654.75
598.819	645.75
599.028	647.75
599.237	656.75
599.446	653.75
599.655	640.75
599.864	598.75
600.073	607.75
600.282	617.75
600.491	603.75
600.7	610.75
600.909	615.75
601.118	620.75
601.327	632.75
601.536	639.75
601.745	618.75
601.953	597.75
602.162	604.75
602.371	619.75
602.58	619.75
602.789	577.75
602.997	600.75
603.206	589.75
603.415	580.75
603.623	593.75
603.832	586.75
604.041	585.75
604.249	602.75
604.458	573.75
604.666	573.75
604.875	556.75
605.084	582.75
605.292	589.75
605.501	560.75
605.709	592.75
605.918	541.75
606.126	560.75
606.334	539.75
606.543	566.75
606.751	556.75
606.96	594.75
607.168	571.75
607.376	574.75
607.585	554.75
607.793	567.75
608.001	541.75
608.21	557.75
608.418	546.75
608.626	539.75
608.834	545.75
609.043	547.75
609.251	528.75
609.459	538.75
609.667	547.75
609.875	526.75
610.083	543.75
610.291	563.75
610.499	559.75
610.707	556.75
610.916	543.75
611.124	548.75
611.332	551.75
611.54	524.75
611.748	532.75
611.955	549.75
612.163	527.75
612.371	527.75
612.579	502.75
612.787	537.75
612.995	535.75
613.203	547.75
613.411	542.75
613.618	509.75
613.826	519.75
614.034	537.75
614.242	495.75
614.449	528.75
614.657	510.75
614.865	511.75
615.072	519.75
615.28	526.75
615.488	508.75
615.695	567.75
615.903	529.75
616.111	514.75
616.318	533.75
616.526	528.75
616.733	560.75
616.941	503.75
617.148	509.75
617.356	517.75
617.563	516.75
617.771	518.75
617.978	517.75
618.185	519.75
618.393	519.75
618.6	509.75
618.807	508.75
619.015	521.75
619.222	507.75
619.429	489.75
619.637	483.75
619.844	497.75
620.051	495.75
620.258	481.75
620.466	456.75
620.673	473.75
620.88	465.75
621.087	469.75
621.294	475.75
621.501	463.75
621.708	471.75
621.915	471.75
622.122	488.75
622.329	455.75
622.536	449.75
622.743	448.75
622.95	466.75
623.157	463.75
623.364	455.75
623.571	449.75
623.778	476.75
623.985	468.75
624.192	446.75
624.399	441.75
624.606	443.75
624.812	457.75
625.019	432.75
625.226	447.75
625.433	443.75
625.639	441.75
625.846	425.75
626.053	424.75
626.259	415.75
626.466	404.75
626.673	415.75
626.879	422.75
627.086	420.75
627.293	417.75
627.499	407.75
627.706	421.75
627.912	415.75
628.119	425.75
628.325	435.75
628.532	429.75
628.738	427.75
628.945	422.75
629.151	409.75
629.357	398.75
629.564	415.75
629.77	409.75
629.976	404.75
630.183	398.75
630.389	416.75
630.595	397.75
630.802	404.75
631.008	391.75
631.214	380.75
631.42	379.75
631.627	369.75
631.833	387.75
632.039	391.75
632.245	398.75
632.451	380.75
632.657	368.75
632.863	378.75
633.069	380.75
633.275	385.75
633.481	375.75
633.688	366.75
633.893	367.75
634.099	374.75
634.305	375.75
634.511	379.75
634.717	355.75
634.923	359.75
635.129	352.75
635.335	357.75
635.541	371.75
635.747	375.75
635.952	370.75
636.158	351.75
636.364	350.75
636.57	357.75
636.775	363.75
636.981	341.75
637.187	352.75
637.392	348.75
637.598	348.75
637.804	367.75
638.009	362.75
638.215	359.75
638.421	335.75
638.626	353.75
638.832	330.75
639.037	365.75
639.243	326.75
639.448	345.75
639.654	349.75
639.859	345.75
640.065	319.75
640.27	344.75
640.475	333.75
640.681	348.75
640.886	348.75
641.091	353.75
641.297	341.75
641.502	337.75
641.707	321.75
641.913	327.75
642.118	319.75
642.323	319.75
642.528	310.75
642.733	322.75
642.939	332.75
643.144	319.75
643.349	331.75
643.554	316.75
643.759	334.75
643.964	320.75
644.169	326.75
644.374	308.75
644.579	317.75
644.784	324.75
644.989	303.75
645.194	294.75
645.399	328.75
645.604	324.75
645.809	316.75
646.014	325.75
646.219	318.75
646.423	322.75
646.628	316.75
646.833	342.75
647.038	330.75
647.243	323.75
647.447	316.75
647.652	332.75
647.857	322.75
648.062	316.75
648.266	334.75
648.471	347.75
648.676	301.75
648.88	326.75
649.085	317.75
649.289	318.75
649.494	306.75
649.698	308.75
649.903	312.75
650.107	310.75
650.312	313.75
650.516	294.75
650.721	280.75
650.925	293.75
651.13	282.75
651.334	281.75
651.539	277.75
651.743	271.75
651.947	288.75
652.152	276.75
652.356	273.75
652.56	259.75
652.764	258.75
652.969	265.75
653.173	267.75
653.377	248.75
653.581	249.75
653.785	237.75
653.99	268.75
654.194	265.75
654.398	270.75
654.602	260.75
654.806	240.75
655.01	244.75
655.214	240.75
655.418	245.75
655.622	250.75
655.826	258.75
656.03	271.75
656.234	281.75
656.438	267.75
656.642	292.75
656.846	268.75
657.049	263.75
657.253	236.75
657.457	219.75
657.661	213.75
657.865	184.75
658.068	174.75
658.272	168.75
658.476	168.75
658.68	153.75
658.883	161.75
659.087	150.75
659.291	158.75
659.494	135.75
659.698	146.75
659.901	128.75
660.105	127.75
660.309	128.75
660.512	116.75
660.716	110.75
660.919	121.75
661.123	126.75
661.326	100.75
661.53	106.75
661.733	100.75
661.936	109.75
662.14	99.75
662.343	98.75
662.546	105.75
662.75	95.75
662.953	110.75
663.156	84.75
663.36	94.75
663.563	95.75
663.766	87.75
663.969	94.75
664.173	82.75
664.376	94.75
664.579	91.75
664.782	89.75
664.985	86.75
665.188	84.75
665.391	79.75
665.594	93.75
665.797	87.75
666	77.75
666.203	78.75
666.406	83.75
666.609	79.75
666.812	87.75
667.015	86.75
667.218	83.75
667.421	80.75
667.624	85.75
667.827	92.75
668.03	86.75
668.232	83.75
668.435	91.75
668.638	88.75
668.841	90.75
669.043	91.75
669.246	99.75
669.449	82.75
669.651	105.75
669.854	82.75
670.057	79.75
670.259	89.75
670.462	80.75
670.665	81.75
670.867	81.75
671.07	98.75
671.272	83.75
671.475	94.75
671.677	89.75
671.88	87.75
672.082	90.75
672.284	100.75
672.487	80.75
672.689	92.75
672.892	77.75
