Data from WStandard_LampEnergy5.5LIBS07252019.E.O._I.C._HRD10591_16-07-11-921.txt Node
Date: Thu Jul 25 16:07:11 EDT 2019
User: cochatt
Spectrometer: HR+D1059
Trigger mode: 1
Integration Time (sec): 1.000000E-1
Scans to average: 1
Electric dark correction enabled: true
Nonlinearity correction enabled: false
Boxcar width: 0
XAxis mode: Wavelengths
Number of Pixels in Spectrum: 2048
>>>>>Begin Spectral Data<<<<<
223.165	-2.62
223.4	-2.62
223.635	-2.62
223.869	-12.62
224.104	-18.62
224.338	-20.62
224.573	-15.62
224.808	-12.62
225.042	-3.62
225.277	-15.62
225.511	-6.62
225.746	8.38
225.98	6.38
226.215	-2.62
226.449	14.38
226.683	29.38
226.918	32.38
227.152	20.38
227.387	32.38
227.621	43.38
227.856	37.38
228.09	60.38
228.324	51.38
228.559	60.38
228.793	144.38
229.027	364.38
229.262	387.38
229.496	410.38
229.73	381.38
229.964	462.38
230.199	480.38
230.433	484.38
230.667	522.38
230.901	535.38
231.136	490.38
231.37	472.38
231.604	477.38
231.838	473.38
232.072	488.38
232.306	472.38
232.541	469.38
232.775	569.38
233.009	600.38
233.243	609.38
233.477	550.38
233.711	582.38
233.945	590.38
234.179	569.38
234.413	606.38
234.647	660.38
234.881	627.38
235.115	572.38
235.349	575.38
235.583	574.38
235.817	582.38
236.051	542.38
236.285	564.38
236.519	604.38
236.753	684.38
236.987	693.38
237.221	688.38
237.455	772.38
237.689	749.38
237.922	700.38
238.156	664.38
238.39	673.38
238.624	730.38
238.858	786.38
239.091	792.38
239.325	837.38
239.559	961.38
239.793	1008.38
240.027	1076.38
240.26	1041.38
240.494	799.38
240.728	771.38
240.961	745.38
241.195	758.38
241.429	858.38
241.662	849.38
241.896	790.38
242.13	798.38
242.363	876.38
242.597	937.38
242.83	902.38
243.064	907.38
243.298	968.38
243.531	958.38
243.765	962.38
243.998	974.38
244.232	848.38
244.465	819.38
244.699	810.38
244.932	904.38
245.166	1080.38
245.399	1045.38
245.633	930.38
245.866	910.38
246.099	955.38
246.333	982.38
246.566	974.38
246.8	1112.38
247.033	1189.38
247.266	1106.38
247.5	1125.38
247.733	1092.38
247.966	1154.38
248.2	1271.38
248.433	1196.38
248.666	1282.38
248.899	1369.38
249.133	1579.38
249.366	1822.38
249.599	1475.38
249.832	1276.38
250.066	1320.38
250.299	1354.38
250.532	1236.38
250.765	1126.38
250.998	1169.38
251.231	1252.38
251.465	1282.38
251.698	1203.38
251.931	1191.38
252.164	1238.38
252.397	1308.38
252.63	1323.38
252.863	1152.38
253.096	1124.38
253.329	1181.38
253.562	1221.38
253.795	1324.38
254.028	1278.38
254.261	1215.38
254.494	1210.38
254.727	1137.38
254.96	1157.38
255.193	1304.38
255.426	1453.38
255.659	1677.38
255.892	1760.38
256.124	1445.38
256.357	1377.38
256.59	1469.38
256.823	1437.38
257.056	1453.38
257.289	1763.38
257.521	2046.38
257.754	1730.38
257.987	1600.38
258.22	1849.38
258.452	1842.38
258.685	1456.38
258.918	1416.38
259.151	1436.38
259.383	1366.38
259.616	1218.38
259.849	1268.38
260.081	1445.38
260.314	1610.38
260.547	1739.38
260.779	1801.38
261.012	1650.38
261.244	1478.38
261.477	1404.38
261.71	1484.38
261.942	1452.38
262.175	1421.38
262.407	1498.38
262.64	1434.38
262.872	1322.38
263.105	1256.38
263.337	1323.38
263.57	1324.38
263.802	1334.38
264.035	1268.38
264.267	1186.38
264.499	1156.38
264.732	1258.38
264.964	1328.38
265.197	1366.38
265.429	1457.38
265.661	1612.38
265.894	1779.38
266.126	1830.38
266.358	1639.38
266.591	1680.38
266.823	1860.38
267.055	1693.38
267.287	1621.38
267.52	1666.38
267.752	1573.38
267.984	1606.38
268.216	1657.38
268.448	1712.38
268.681	1705.38
268.913	1580.38
269.145	1458.38
269.377	1434.38
269.609	1567.38
269.841	1778.38
270.073	2121.38
270.306	2358.38
270.538	2516.38
270.77	2139.38
271.002	1808.38
271.234	1672.38
271.466	1670.38
271.698	1873.38
271.93	2265.38
272.162	2290.38
272.394	2051.38
272.626	1986.38
272.858	1763.38
273.09	1482.38
273.322	1481.38
273.553	1462.38
273.785	1388.38
274.017	1515.38
274.249	1585.38
274.481	1602.38
274.713	1506.38
274.945	1443.38
275.176	1466.38
275.408	1439.38
275.64	1393.38
275.872	1379.38
276.104	1481.38
276.335	1684.38
276.567	1930.38
276.799	1992.38
277.031	1763.38
277.262	1650.38
277.494	1720.38
277.726	1894.38
277.957	1893.38
278.189	1728.38
278.421	1579.38
278.652	1537.38
278.884	1453.38
279.115	1533.38
279.347	1542.38
279.579	1500.38
279.81	1525.38
280.042	1701.38
280.273	1800.38
280.505	1813.38
280.736	1854.38
280.968	1764.38
281.199	1562.38
281.431	1481.38
281.662	1466.38
281.894	1476.38
282.125	1509.38
282.356	1616.38
282.588	1578.38
282.819	1568.38
283.051	1677.38
283.282	1872.38
283.513	1772.38
283.745	1556.38
283.976	1455.38
284.207	1455.38
284.439	1468.38
284.67	1517.38
284.901	1564.38
285.132	1638.38
285.364	1581.38
285.595	1555.38
285.826	1551.38
286.057	1536.38
286.288	1513.38
286.52	1575.38
286.751	1712.38
286.982	1793.38
287.213	1653.38
287.444	1488.38
287.675	1442.38
287.906	1542.38
288.138	1670.38
288.369	1643.38
288.6	1539.38
288.831	1546.38
289.062	1494.38
289.293	1528.38
289.524	1523.38
289.755	1597.38
289.986	1597.38
290.217	1451.38
290.448	1499.38
290.679	1581.38
290.91	1555.38
291.141	1613.38
291.371	1636.38
291.602	1617.38
291.833	1632.38
292.064	1648.38
292.295	1662.38
292.526	1683.38
292.757	1792.38
292.987	1724.38
293.218	1591.38
293.449	1702.38
293.68	1948.38
293.91	2141.38
294.141	1926.38
294.372	1800.38
294.603	1861.38
294.833	1944.38
295.064	1831.38
295.295	1700.38
295.525	1621.38
295.756	1491.38
295.987	1430.38
296.217	1463.38
296.448	1560.38
296.679	1542.38
296.909	1534.38
297.14	1486.38
297.37	1546.38
297.601	1599.38
297.831	1792.38
298.062	1768.38
298.292	1627.38
298.523	1560.38
298.753	1545.38
298.984	1584.38
299.214	1509.38
299.445	1617.38
299.675	1659.38
299.905	1656.38
300.136	1587.38
300.366	1561.38
300.597	1506.38
300.827	1523.38
301.057	1586.38
301.288	1675.38
301.518	1660.38
301.748	1698.38
301.979	1757.38
302.209	1763.38
302.439	1916.38
302.669	1980.38
302.9	1865.38
303.13	1703.38
303.36	1683.38
303.59	1741.38
303.82	1716.38
304.051	1660.38
304.281	1706.38
304.511	1700.38
304.741	1736.38
304.971	1900.38
305.201	2114.38
305.431	2023.38
305.661	1608.38
305.891	1492.38
306.121	1481.38
306.352	1518.38
306.582	1623.38
306.812	1701.38
307.042	1884.38
307.272	1844.38
307.502	1895.38
307.731	2050.38
307.961	2178.38
308.191	2065.38
308.421	1771.38
308.651	1627.38
308.881	1592.38
309.111	1600.38
309.341	1561.38
309.571	1602.38
309.8	1621.38
310.03	1556.38
310.26	1582.38
310.49	1545.38
310.72	1614.38
310.949	1674.38
311.179	1732.38
311.409	1674.38
311.639	1632.38
311.868	1582.38
312.098	1635.38
312.328	1641.38
312.557	1581.38
312.787	1634.38
313.017	1722.38
313.246	1667.38
313.476	1701.38
313.706	1725.38
313.935	1708.38
314.165	1690.38
314.394	1741.38
314.624	1859.38
314.853	1963.38
315.083	2004.38
315.312	2142.38
315.542	1938.38
315.771	1720.38
316.001	1688.38
316.23	1867.38
316.46	1825.38
316.689	1764.38
316.919	1701.38
317.148	1653.38
317.377	1647.38
317.607	1782.38
317.836	1998.38
318.065	2125.38
318.295	2003.38
318.524	1918.38
318.753	1873.38
318.983	1836.38
319.212	1763.38
319.441	1731.38
319.67	1709.38
319.9	1753.38
320.129	1843.38
320.358	1904.38
320.587	1970.38
320.816	1976.38
321.046	1917.38
321.275	1788.38
321.504	1846.38
321.733	1978.38
321.962	1956.38
322.191	1776.38
322.42	1781.38
322.649	1762.38
322.878	1724.38
323.108	1762.38
323.337	1846.38
323.566	1844.38
323.795	1817.38
324.024	1809.38
324.253	1770.38
324.482	1788.38
324.71	1762.38
324.939	1670.38
325.168	1675.38
325.397	1724.38
325.626	1790.38
325.855	1846.38
326.084	1748.38
326.313	1752.38
326.542	1790.38
326.77	1830.38
326.999	1859.38
327.228	1782.38
327.457	1660.38
327.686	1668.38
327.914	1694.38
328.143	1781.38
328.372	1806.38
328.6	1749.38
328.829	1738.38
329.058	1717.38
329.287	1656.38
329.515	1730.38
329.744	1779.38
329.972	1846.38
330.201	1983.38
330.43	1933.38
330.658	1863.38
330.887	1890.38
331.115	1860.38
331.344	1885.38
331.572	1835.38
331.801	1834.38
332.03	1844.38
332.258	1819.38
332.486	1856.38
332.715	1882.38
332.943	1873.38
333.172	1828.38
333.4	1881.38
333.629	1913.38
333.857	2025.38
334.085	2232.38
334.314	2542.38
334.542	2789.38
334.771	2520.38
334.999	2266.38
335.227	2146.38
335.455	1983.38
335.684	1991.38
335.912	2021.38
336.14	2102.38
336.369	1994.38
336.597	1876.38
336.825	1884.38
337.053	1949.38
337.281	2025.38
337.51	2078.38
337.738	2259.38
337.966	2122.38
338.194	1910.38
338.422	1868.38
338.65	1805.38
338.878	1825.38
339.106	1802.38
339.334	1772.38
339.562	1767.38
339.79	1744.38
340.018	1883.38
340.246	1954.38
340.474	1963.38
340.702	1880.38
340.93	1889.38
341.158	1917.38
341.386	1825.38
341.614	1840.38
341.842	1840.38
342.07	1819.38
342.298	1847.38
342.526	1836.38
342.754	1833.38
342.981	1818.38
343.209	1819.38
343.437	1820.38
343.665	1844.38
343.893	1854.38
344.12	1929.38
344.348	2002.38
344.576	1927.38
344.804	1814.38
345.031	1789.38
345.259	1870.38
345.487	1806.38
345.714	1692.38
345.942	1637.38
346.17	1666.38
346.397	1730.38
346.625	1728.38
346.853	1681.38
347.08	1630.38
347.308	1645.38
347.535	1651.38
347.763	1780.38
347.99	1707.38
348.218	1654.38
348.445	1678.38
348.673	1698.38
348.9	1741.38
349.128	1769.38
349.355	1881.38
349.583	1796.38
349.81	1732.38
350.037	1575.38
350.265	1577.38
350.492	1628.38
350.72	1604.38
350.947	1713.38
351.174	1757.38
351.402	1667.38
351.629	1598.38
351.856	1589.38
352.083	1570.38
352.311	1544.38
352.538	1604.38
352.765	1691.38
352.992	1769.38
353.22	1703.38
353.447	1644.38
353.674	1637.38
353.901	1698.38
354.128	1619.38
354.355	1612.38
354.583	1689.38
354.81	1749.38
355.037	1755.38
355.264	1705.38
355.491	1659.38
355.718	1714.38
355.945	1694.38
356.172	1648.38
356.399	1620.38
356.626	1618.38
356.853	1637.38
357.08	1814.38
357.307	2015.38
357.534	2011.38
357.761	1793.38
357.988	1607.38
358.215	1588.38
358.441	1574.38
358.668	1600.38
358.895	1611.38
359.122	1715.38
359.349	1890.38
359.576	1858.38
359.802	1691.38
360.029	1648.38
360.256	1598.38
360.483	1640.38
360.709	1646.38
360.936	1707.38
361.163	1778.38
361.39	1933.38
361.616	2089.38
361.843	2036.38
362.07	1951.38
362.296	1688.38
362.523	1613.38
362.749	1644.38
362.976	1694.38
363.203	1718.38
363.429	1662.38
363.656	1602.38
363.882	1639.38
364.109	1875.38
364.335	2053.38
364.562	1891.38
364.788	1809.38
365.015	1702.38
365.241	1656.38
365.468	1679.38
365.694	1740.38
365.92	1819.38
366.147	1769.38
366.373	1635.38
366.599	1624.38
366.826	1594.38
367.052	1621.38
367.278	1653.38
367.505	1654.38
367.731	1695.38
367.957	1692.38
368.184	1756.38
368.41	1847.38
368.636	1844.38
368.862	1872.38
369.089	1935.38
369.315	1820.38
369.541	1768.38
369.767	1688.38
369.993	1629.38
370.219	1664.38
370.445	1691.38
370.672	1737.38
370.898	1869.38
371.124	1884.38
371.35	1709.38
371.576	1806.38
371.802	1849.38
372.028	1804.38
372.254	1708.38
372.48	1661.38
372.706	1637.38
372.932	1690.38
373.158	1677.38
373.384	1699.38
373.61	1745.38
373.835	1860.38
374.061	1792.38
374.287	1730.38
374.513	1755.38
374.739	1760.38
374.965	1741.38
375.191	1799.38
375.416	1785.38
375.642	1773.38
375.868	1892.38
376.094	1964.38
376.319	1848.38
376.545	1745.38
376.771	1769.38
376.997	1873.38
377.222	1832.38
377.448	1792.38
377.674	1837.38
377.899	1829.38
378.125	1923.38
378.35	1912.38
378.576	1764.38
378.802	1688.38
379.027	1686.38
379.253	1712.38
379.478	1791.38
379.704	1700.38
379.929	1747.38
380.155	1760.38
380.38	1767.38
380.606	1761.38
380.831	1783.38
381.057	1834.38
381.282	1880.38
381.507	1784.38
381.733	1926.38
381.958	2061.38
382.184	1884.38
382.409	1800.38
382.634	1864.38
382.86	1775.38
383.085	1808.38
383.31	1890.38
383.535	1989.38
383.761	2116.38
383.986	1996.38
384.211	1988.38
384.436	1939.38
384.662	2010.38
384.887	2088.38
385.112	1997.38
385.337	2042.38
385.562	1982.38
385.787	1987.38
386.013	2046.38
386.238	2100.38
386.463	2022.38
386.688	2138.38
386.913	2262.38
387.138	2210.38
387.363	2062.38
387.588	2026.38
387.813	2012.38
388.038	2083.38
388.263	2129.38
388.488	2086.38
388.713	1905.38
388.938	1887.38
389.163	1910.38
389.387	1971.38
389.612	1921.38
389.837	1959.38
390.062	2034.38
390.287	2000.38
390.512	2014.38
390.736	1950.38
390.961	1905.38
391.186	1870.38
391.411	1895.38
391.636	1997.38
391.86	2011.38
392.085	1992.38
392.31	1920.38
392.534	1964.38
392.759	2001.38
392.984	1986.38
393.208	2018.38
393.433	2070.38
393.658	2146.38
393.882	2129.38
394.107	2091.38
394.331	2004.38
394.556	1969.38
394.78	2009.38
395.005	2049.38
395.229	2150.38
395.454	2318.38
395.678	2317.38
395.903	2180.38
396.127	2106.38
396.352	2154.38
396.576	2180.38
396.801	2237.38
397.025	2153.38
397.249	2205.38
397.474	2144.38
397.698	2137.38
397.922	2219.38
398.147	2305.38
398.371	2376.38
398.595	2380.38
398.82	2267.38
399.044	2291.38
399.268	2413.38
399.492	2561.38
399.717	2662.38
399.941	2681.38
400.165	2599.38
400.389	2518.38
400.613	2520.38
400.837	2724.38
401.062	3189.38
401.286	2713.38
401.51	2480.38
401.734	2644.38
401.958	2571.38
402.182	2344.38
402.406	2232.38
402.63	2249.38
402.854	2228.38
403.078	2274.38
403.302	2330.38
403.526	2401.38
403.75	2397.38
403.974	2390.38
404.198	2362.38
404.422	2434.38
404.645	2578.38
404.869	2510.38
405.093	2300.38
405.317	2274.38
405.541	2367.38
405.765	2418.38
405.988	2366.38
406.212	2398.38
406.436	2449.38
406.66	2508.38
406.883	2576.38
407.107	2838.38
407.331	3114.38
407.555	3252.38
407.778	3113.38
408.002	2552.38
408.226	2486.38
408.449	2477.38
408.673	2434.38
408.896	2418.38
409.12	2471.38
409.344	2416.38
409.567	2324.38
409.791	2370.38
410.014	2395.38
410.238	2530.38
410.461	2692.38
410.685	2436.38
410.908	2286.38
411.132	2356.38
411.355	2337.38
411.578	2312.38
411.802	2324.38
412.025	2374.38
412.249	2317.38
412.472	2245.38
412.695	2236.38
412.919	2276.38
413.142	2235.38
413.365	2268.38
413.589	2290.38
413.812	2376.38
414.035	2521.38
414.258	2282.38
414.482	2245.38
414.705	2264.38
414.928	2237.38
415.151	2230.38
415.374	2279.38
415.597	2279.38
415.821	2322.38
416.044	2413.38
416.267	2427.38
416.49	2197.38
416.713	2139.38
416.936	2200.38
417.159	2332.38
417.382	2381.38
417.605	2209.38
417.828	2281.38
418.051	2337.38
418.274	2304.38
418.497	2145.38
418.72	2164.38
418.943	2128.38
419.166	2304.38
419.389	2429.38
419.611	2297.38
419.834	2217.38
420.057	2294.38
420.28	2158.38
420.503	2168.38
420.726	2255.38
420.948	2204.38
421.171	2125.38
421.394	2172.38
421.617	2253.38
421.839	2230.38
422.062	2209.38
422.285	2140.38
422.507	2162.38
422.73	2120.38
422.953	2056.38
423.175	2035.38
423.398	2153.38
423.621	2153.38
423.843	2186.38
424.066	2190.38
424.288	2278.38
424.511	2340.38
424.733	2229.38
424.956	2098.38
425.178	2071.38
425.401	2082.38
425.623	2130.38
425.846	2101.38
426.068	2212.38
426.291	2280.38
426.513	2233.38
426.735	2171.38
426.958	2326.38
427.18	2503.38
427.402	2296.38
427.625	2408.38
427.847	2426.38
428.069	2206.38
428.292	2169.38
428.514	2116.38
428.736	2063.38
428.958	2117.38
429.181	2104.38
429.403	2377.38
429.625	2998.38
429.847	2631.38
430.069	2176.38
430.292	2385.38
430.514	2464.38
430.736	2292.38
430.958	2397.38
431.18	2251.38
431.402	2152.38
431.624	2073.38
431.846	2099.38
432.068	2019.38
432.29	2075.38
432.512	2112.38
432.734	2184.38
432.956	2190.38
433.178	2278.38
433.4	2262.38
433.622	2257.38
433.844	2145.38
434.066	2086.38
434.287	2087.38
434.509	2145.38
434.731	2266.38
434.953	2422.38
435.175	2372.38
435.397	2246.38
435.618	2237.38
435.84	2221.38
436.062	2223.38
436.284	2207.38
436.505	2228.38
436.727	2269.38
436.949	2159.38
437.17	2124.38
437.392	2154.38
437.614	2171.38
437.835	2110.38
438.057	2200.38
438.278	2319.38
438.5	2155.38
438.721	2132.38
438.943	2116.38
439.165	2098.38
439.386	2070.38
439.608	2102.38
439.829	2127.38
440.05	2130.38
440.272	2086.38
440.493	2055.38
440.715	2105.38
440.936	2189.38
441.158	2461.38
441.379	2436.38
441.6	2338.38
441.822	2258.38
442.043	2298.38
442.264	2220.38
442.486	2136.38
442.707	2062.38
442.928	2089.38
443.149	2164.38
443.371	2307.38
443.592	2380.38
443.813	2312.38
444.034	2284.38
444.255	2288.38
444.476	2342.38
444.698	2394.38
444.919	2345.38
445.14	2419.38
445.361	2453.38
445.582	2562.38
445.803	2392.38
446.024	2340.38
446.245	2407.38
446.466	2327.38
446.687	2257.38
446.908	2248.38
447.129	2125.38
447.35	2162.38
447.571	2145.38
447.792	2094.38
448.013	2076.38
448.234	2113.38
448.455	2225.38
448.675	2218.38
448.896	2039.38
449.117	1972.38
449.338	2079.38
449.559	2139.38
449.779	2283.38
450	2521.38
450.221	2652.38
450.442	2590.38
450.662	2293.38
450.883	2010.38
451.104	2002.38
451.324	1992.38
451.545	2060.38
451.766	2069.38
451.986	1962.38
452.207	1977.38
452.428	1901.38
452.648	1844.38
452.869	1920.38
453.089	2095.38
453.31	2085.38
453.53	2100.38
453.751	2038.38
453.971	1909.38
454.192	2008.38
454.412	2086.38
454.633	2015.38
454.853	2012.38
455.073	1842.38
455.294	1793.38
455.514	1821.38
455.734	1838.38
455.955	1889.38
456.175	1901.38
456.395	1870.38
456.616	1926.38
456.836	1934.38
457.056	1932.38
457.276	1933.38
457.497	1920.38
457.717	1811.38
457.937	1810.38
458.157	1918.38
458.377	1904.38
458.598	1926.38
458.818	1860.38
459.038	2011.38
459.258	2114.38
459.478	2182.38
459.698	2028.38
459.918	2104.38
460.138	2236.38
460.358	2261.38
460.578	2237.38
460.798	2377.38
461.018	2464.38
461.238	2396.38
461.458	2257.38
461.678	2272.38
461.898	2225.38
462.118	2142.38
462.338	2274.38
462.558	2241.38
462.777	2260.38
462.997	2335.38
463.217	2464.38
463.437	2474.38
463.657	2338.38
463.876	2264.38
464.096	2250.38
464.316	2241.38
464.536	2304.38
464.755	2367.38
464.975	2392.38
465.195	2285.38
465.414	2422.38
465.634	2403.38
465.854	2296.38
466.073	2404.38
466.293	2385.38
466.512	2094.38
466.732	2052.38
466.951	2154.38
467.171	2178.38
467.391	2051.38
467.61	2004.38
467.829	2027.38
468.049	2200.38
468.268	2470.38
468.488	2290.38
468.707	2217.38
468.927	2082.38
469.146	2072.38
469.365	2048.38
469.585	2047.38
469.804	2053.38
470.023	2078.38
470.243	2117.38
470.462	2070.38
470.681	2000.38
470.901	2120.38
471.12	2076.38
471.339	2017.38
471.558	1986.38
471.777	1951.38
471.997	1986.38
472.216	2027.38
472.435	1960.38
472.654	1994.38
472.873	2081.38
473.092	2201.38
473.311	2169.38
473.53	1998.38
473.749	1946.38
473.968	2015.38
474.187	2148.38
474.406	2280.38
474.625	2101.38
474.844	2095.38
475.063	2104.38
475.282	2169.38
475.501	2094.38
475.72	2084.38
475.939	2230.38
476.158	2130.38
476.377	2074.38
476.596	2134.38
476.814	2141.38
477.033	2172.38
477.252	2284.38
477.471	2292.38
477.69	2171.38
477.908	2194.38
478.127	2322.38
478.346	2478.38
478.564	2515.38
478.783	2490.38
479.002	2558.38
479.22	2446.38
479.439	2568.38
479.658	2952.38
479.876	2867.38
480.095	2486.38
480.313	2400.38
480.532	2274.38
480.751	2337.38
480.969	2432.38
481.188	2370.38
481.406	2297.38
481.624	2236.38
481.843	2260.38
482.061	2381.38
482.28	2413.38
482.498	2466.38
482.717	2355.38
482.935	2320.38
483.153	2306.38
483.372	2318.38
483.59	2228.38
483.808	2283.38
484.027	2359.38
484.245	2503.38
484.463	2898.38
484.681	3295.38
484.9	2534.38
485.118	2422.38
485.336	2344.38
485.554	2439.38
485.772	2552.38
485.99	2458.38
486.209	2508.38
486.427	2472.38
486.645	2469.38
486.863	2451.38
487.081	2509.38
487.299	2548.38
487.517	2534.38
487.735	2337.38
487.953	2365.38
488.171	2387.38
488.389	2339.38
488.607	2425.38
488.825	2628.38
489.043	2728.38
489.261	2398.38
489.479	2533.38
489.696	2577.38
489.914	2548.38
490.132	2493.38
490.35	2429.38
490.568	2542.38
490.786	2423.38
491.003	2377.38
491.221	2408.38
491.439	2520.38
491.657	2530.38
491.874	2476.38
492.092	2533.38
492.31	2544.38
492.527	2463.38
492.745	2486.38
492.963	2464.38
493.18	2540.38
493.398	2718.38
493.615	2817.38
493.833	2563.38
494.05	2528.38
494.268	2556.38
494.485	2566.38
494.703	2538.38
494.92	2417.38
495.138	2440.38
495.355	2505.38
495.573	2603.38
495.79	2814.38
496.008	2804.38
496.225	2645.38
496.442	2631.38
496.66	2692.38
496.877	2590.38
497.094	2723.38
497.312	2785.38
497.529	2727.38
497.746	2827.38
497.963	3196.38
498.181	3675.38
498.398	3384.38
498.615	3280.38
498.832	3272.38
499.049	3225.38
499.267	3205.38
499.484	3392.38
499.701	3673.38
499.918	3721.38
500.135	3976.38
500.352	4288.38
500.569	4230.38
500.786	4504.38
501.003	4150.38
501.22	3746.38
501.437	3732.38
501.654	3691.38
501.871	3626.38
502.088	3155.38
502.305	3141.38
502.522	3040.38
502.739	2887.38
502.956	2741.38
503.172	2763.38
503.389	2658.38
503.606	2617.38
503.823	2692.38
504.04	2642.38
504.256	2660.38
504.473	2673.38
504.69	2786.38
504.907	2631.38
505.123	2447.38
505.34	2610.38
505.557	3340.38
505.773	2900.38
505.99	2436.38
506.207	2268.38
506.423	2253.38
506.64	2221.38
506.856	2268.38
507.073	2596.38
507.289	2781.38
507.506	2684.38
507.722	2298.38
507.939	2184.38
508.155	2226.38
508.372	2249.38
508.588	2143.38
508.805	2106.38
509.021	2029.38
509.238	2046.38
509.454	2076.38
509.67	2066.38
509.887	2083.38
510.103	2051.38
510.319	2036.38
510.536	2170.38
510.752	2263.38
510.968	2184.38
511.184	2381.38
511.401	2370.38
511.617	2082.38
511.833	2037.38
512.049	2007.38
512.265	1996.38
512.481	1980.38
512.698	2058.38
512.914	2217.38
513.13	2150.38
513.346	2034.38
513.562	1978.38
513.778	2036.38
513.994	2114.38
514.21	2148.38
514.426	2185.38
514.642	2458.38
514.858	2336.38
515.074	2085.38
515.29	2055.38
515.506	2076.38
515.721	2146.38
515.937	2150.38
516.153	2453.38
516.369	2316.38
516.585	2173.38
516.801	2075.38
517.016	2145.38
517.232	2153.38
517.448	2199.38
517.664	2219.38
517.879	2216.38
518.095	2318.38
518.311	2183.38
518.527	2125.38
518.742	2081.38
518.958	2046.38
519.173	2020.38
519.389	2062.38
519.605	2076.38
519.82	2146.38
520.036	2088.38
520.251	2049.38
520.467	2099.38
520.682	2207.38
520.898	2302.38
521.113	2020.38
521.329	2020.38
521.544	2164.38
521.76	2062.38
521.975	1952.38
522.19	1912.38
522.406	1921.38
522.621	2328.38
522.836	2367.38
523.052	1920.38
523.267	1929.38
523.482	1905.38
523.698	1817.38
523.913	1786.38
524.128	1856.38
524.343	1981.38
524.559	1980.38
524.774	1883.38
524.989	1876.38
525.204	1818.38
525.419	1866.38
525.634	1758.38
525.849	1810.38
526.064	1825.38
526.28	1867.38
526.495	1762.38
526.71	1776.38
526.925	1771.38
527.14	1774.38
527.355	1738.38
527.57	1701.38
527.785	1796.38
527.999	1757.38
528.214	1696.38
528.429	1694.38
528.644	1692.38
528.859	1723.38
529.074	1740.38
529.289	1747.38
529.503	1749.38
529.718	1759.38
529.933	1739.38
530.148	1704.38
530.363	1706.38
530.577	1724.38
530.792	1766.38
531.007	1736.38
531.221	1724.38
531.436	1774.38
531.651	1829.38
531.865	1888.38
532.08	1821.38
532.295	1698.38
532.509	1638.38
532.724	1707.38
532.938	1752.38
533.153	1933.38
533.367	1789.38
533.582	1761.38
533.796	1678.38
534.011	1755.38
534.225	1743.38
534.44	1718.38
534.654	1650.38
534.868	1635.38
535.083	1772.38
535.297	1805.38
535.511	1718.38
535.726	1717.38
535.94	1714.38
536.154	1697.38
536.369	1682.38
536.583	1701.38
536.797	1652.38
537.011	1693.38
537.225	1662.38
537.44	1618.38
537.654	1708.38
537.868	1650.38
538.082	1567.38
538.296	1569.38
538.51	1548.38
538.724	1556.38
538.938	1549.38
539.153	1611.38
539.367	1619.38
539.581	1601.38
539.795	1732.38
540.009	1712.38
540.222	1668.38
540.436	1686.38
540.65	1821.38
540.864	1818.38
541.078	1726.38
541.292	1614.38
541.506	1600.38
541.72	1620.38
541.934	1660.38
542.147	1666.38
542.361	1607.38
542.575	1581.38
542.789	1545.38
543.002	1511.38
543.216	1577.38
543.43	1679.38
543.644	1724.38
543.857	1762.38
544.071	1677.38
544.285	1642.38
544.498	1626.38
544.712	1610.38
544.925	1645.38
545.139	1682.38
545.352	1596.38
545.566	1545.38
545.779	1539.38
545.993	1573.38
546.206	1618.38
546.42	1533.38
546.633	1517.38
546.847	1511.38
547.06	1510.38
547.274	1510.38
547.487	1483.38
547.7	1536.38
547.914	1529.38
548.127	1549.38
548.34	1579.38
548.554	1543.38
548.767	1533.38
548.98	1579.38
549.193	1501.38
549.407	1602.38
549.62	1624.38
549.833	1544.38
550.046	1513.38
550.259	1524.38
550.473	1511.38
550.686	1509.38
550.899	1502.38
551.112	1491.38
551.325	1462.38
551.538	1522.38
551.751	1820.38
551.964	1494.38
552.177	1420.38
552.39	1441.38
552.603	1517.38
552.816	1526.38
553.029	1578.38
553.242	1618.38
553.455	1517.38
553.667	1488.38
553.88	1527.38
554.093	1475.38
554.306	1433.38
554.519	1415.38
554.732	1405.38
554.944	1440.38
555.157	1478.38
555.37	1426.38
555.583	1428.38
555.795	1394.38
556.008	1372.38
556.221	1355.38
556.433	1310.38
556.646	1300.38
556.859	1315.38
557.071	1325.38
557.284	1313.38
557.496	1315.38
557.709	1258.38
557.921	1247.38
558.134	1268.38
558.346	1281.38
558.559	1235.38
558.771	1281.38
558.984	1242.38
559.196	1198.38
559.409	1210.38
559.621	1214.38
559.833	1223.38
560.046	1304.38
560.258	1267.38
560.47	1244.38
560.683	1244.38
560.895	1239.38
561.107	1249.38
561.32	1273.38
561.532	1281.38
561.744	1233.38
561.956	1284.38
562.168	1210.38
562.381	1188.38
562.593	1182.38
562.805	1200.38
563.017	1240.38
563.229	1213.38
563.441	1257.38
563.653	1201.38
563.865	1202.38
564.077	1232.38
564.289	1237.38
564.501	1223.38
564.713	1296.38
564.925	1304.38
565.137	1403.38
565.349	1272.38
565.561	1296.38
565.773	1286.38
565.985	1325.38
566.197	1392.38
566.408	1475.38
566.62	1503.38
566.832	1486.38
567.044	1457.38
567.255	1476.38
567.467	1499.38
567.679	1561.38
567.891	1614.38
568.102	1560.38
568.314	1492.38
568.526	1378.38
568.737	1357.38
568.949	1305.38
569.161	1242.38
569.372	1208.38
569.584	1219.38
569.795	1225.38
570.007	1155.38
570.218	1122.38
570.43	1109.38
570.641	1094.38
570.853	1125.38
571.064	1153.38
571.276	1090.38
571.487	1129.38
571.698	1049.38
571.91	1075.38
572.121	1028.38
572.333	1037.38
572.544	1015.38
572.755	995.38
572.966	973.38
573.178	979.38
573.389	977.38
573.6	1028.38
573.811	1116.38
574.023	1014.38
574.234	969.38
574.445	953.38
574.656	936.38
574.867	919.38
575.078	956.38
575.289	971.38
575.501	924.38
575.712	917.38
575.923	933.38
576.134	914.38
576.345	904.38
576.556	896.38
576.767	902.38
576.978	880.38
577.188	889.38
577.399	864.38
577.61	881.38
577.821	866.38
578.032	858.38
578.243	860.38
578.454	863.38
578.665	865.38
578.875	829.38
579.086	839.38
579.297	865.38
579.508	880.38
579.718	886.38
579.929	831.38
580.14	822.38
580.35	807.38
580.561	845.38
580.772	907.38
580.982	880.38
581.193	834.38
581.403	789.38
581.614	796.38
581.825	798.38
582.035	810.38
582.246	767.38
582.456	812.38
582.667	811.38
582.877	791.38
583.087	767.38
583.298	790.38
583.508	778.38
583.719	800.38
583.929	773.38
584.139	782.38
584.35	754.38
584.56	772.38
584.77	786.38
584.981	787.38
585.191	801.38
585.401	829.38
585.611	805.38
585.821	788.38
586.032	745.38
586.242	762.38
586.452	750.38
586.662	765.38
586.872	766.38
587.082	731.38
587.292	753.38
587.502	779.38
587.713	778.38
587.923	773.38
588.133	753.38
588.343	793.38
588.553	756.38
588.762	729.38
588.972	741.38
589.182	777.38
589.392	760.38
589.602	789.38
589.812	756.38
590.022	740.38
590.232	708.38
590.441	744.38
590.651	760.38
590.861	749.38
591.071	726.38
591.281	716.38
591.49	744.38
591.7	737.38
591.91	754.38
592.119	728.38
592.329	746.38
592.539	765.38
592.748	762.38
592.958	770.38
593.167	781.38
593.377	796.38
593.587	806.38
593.796	785.38
594.006	808.38
594.215	764.38
594.424	759.38
594.634	747.38
594.843	722.38
595.053	789.38
595.262	746.38
595.472	725.38
595.681	744.38
595.89	741.38
596.1	674.38
596.309	685.38
596.518	692.38
596.727	710.38
596.937	690.38
597.146	659.38
597.355	662.38
597.564	673.38
597.774	646.38
597.983	648.38
598.192	631.38
598.401	624.38
598.61	632.38
598.819	638.38
599.028	621.38
599.237	640.38
599.446	617.38
599.655	632.38
599.864	606.38
600.073	598.38
600.282	611.38
600.491	596.38
600.7	609.38
600.909	579.38
601.118	612.38
601.327	595.38
601.536	621.38
601.745	610.38
601.953	574.38
602.162	592.38
602.371	592.38
602.58	606.38
602.789	617.38
602.997	589.38
603.206	590.38
603.415	597.38
603.623	578.38
603.832	585.38
604.041	552.38
604.249	592.38
604.458	592.38
604.666	584.38
604.875	600.38
605.084	597.38
605.292	592.38
605.501	590.38
605.709	570.38
605.918	560.38
606.126	554.38
606.334	571.38
606.543	555.38
606.751	567.38
606.96	549.38
607.168	559.38
607.376	533.38
607.585	553.38
607.793	545.38
608.001	562.38
608.21	564.38
608.418	565.38
608.626	564.38
608.834	544.38
609.043	531.38
609.251	536.38
609.459	572.38
609.667	571.38
609.875	557.38
610.083	565.38
610.291	573.38
610.499	576.38
610.707	560.38
610.916	577.38
611.124	540.38
611.332	532.38
611.54	542.38
611.748	537.38
611.955	525.38
612.163	515.38
612.371	538.38
612.579	529.38
612.787	517.38
612.995	547.38
613.203	524.38
613.411	501.38
613.618	522.38
613.826	513.38
614.034	525.38
614.242	544.38
614.449	518.38
614.657	523.38
614.865	521.38
615.072	516.38
615.28	509.38
615.488	528.38
615.695	556.38
615.903	546.38
616.111	523.38
616.318	480.38
616.526	496.38
616.733	514.38
616.941	509.38
617.148	509.38
617.356	515.38
617.563	506.38
617.771	494.38
617.978	525.38
618.185	510.38
618.393	496.38
618.6	488.38
618.807	518.38
619.015	506.38
619.222	481.38
619.429	482.38
619.637	482.38
619.844	454.38
620.051	488.38
620.258	476.38
620.466	467.38
620.673	457.38
620.88	463.38
621.087	450.38
621.294	455.38
621.501	461.38
621.708	441.38
621.915	474.38
622.122	473.38
622.329	477.38
622.536	462.38
622.743	470.38
622.95	470.38
623.157	442.38
623.364	471.38
623.571	439.38
623.778	454.38
623.985	447.38
624.192	448.38
624.399	443.38
624.606	428.38
624.812	428.38
625.019	447.38
625.226	450.38
625.433	440.38
625.639	442.38
625.846	422.38
626.053	411.38
626.259	400.38
626.466	420.38
626.673	402.38
626.879	401.38
627.086	413.38
627.293	405.38
627.499	413.38
627.706	421.38
627.912	411.38
628.119	422.38
628.325	435.38
628.532	408.38
628.738	421.38
628.945	436.38
629.151	409.38
629.357	421.38
629.564	437.38
629.77	421.38
629.976	403.38
630.183	405.38
630.389	396.38
630.595	410.38
630.802	390.38
631.008	396.38
631.214	384.38
631.42	384.38
631.627	361.38
631.833	368.38
632.039	374.38
632.245	395.38
632.451	394.38
632.657	376.38
632.863	376.38
633.069	361.38
633.275	389.38
633.481	370.38
633.688	379.38
633.893	370.38
634.099	376.38
634.305	346.38
634.511	361.38
634.717	352.38
634.923	346.38
635.129	340.38
635.335	374.38
635.541	372.38
635.747	361.38
635.952	363.38
636.158	333.38
636.364	362.38
636.57	350.38
636.775	357.38
636.981	350.38
637.187	335.38
637.392	348.38
637.598	356.38
637.804	350.38
638.009	344.38
638.215	357.38
638.421	358.38
638.626	331.38
638.832	345.38
639.037	329.38
639.243	351.38
639.448	334.38
639.654	345.38
639.859	340.38
640.065	342.38
640.27	357.38
640.475	335.38
640.681	344.38
640.886	338.38
641.091	334.38
641.297	312.38
641.502	308.38
641.707	323.38
641.913	329.38
642.118	336.38
642.323	311.38
642.528	330.38
642.733	331.38
642.939	312.38
643.144	307.38
643.349	332.38
643.554	317.38
643.759	306.38
643.964	333.38
644.169	329.38
644.374	315.38
644.579	322.38
644.784	321.38
644.989	334.38
645.194	325.38
645.399	321.38
645.604	304.38
645.809	306.38
646.014	319.38
646.219	322.38
646.423	325.38
646.628	324.38
646.833	313.38
647.038	325.38
647.243	305.38
647.447	330.38
647.652	308.38
647.857	319.38
648.062	324.38
648.266	302.38
648.471	310.38
648.676	325.38
648.88	323.38
649.085	307.38
649.289	309.38
649.494	320.38
649.698	327.38
649.903	306.38
650.107	299.38
650.312	298.38
650.516	289.38
650.721	292.38
650.925	291.38
651.13	281.38
651.334	269.38
651.539	266.38
651.743	265.38
651.947	277.38
652.152	286.38
652.356	253.38
652.56	272.38
652.764	268.38
652.969	259.38
653.173	252.38
653.377	254.38
653.581	237.38
653.785	247.38
653.99	245.38
654.194	245.38
654.398	253.38
654.602	251.38
654.806	237.38
655.01	260.38
655.214	231.38
655.418	244.38
655.622	252.38
655.826	244.38
656.03	277.38
656.234	253.38
656.438	269.38
656.642	262.38
656.846	245.38
657.049	241.38
657.253	242.38
657.457	194.38
657.661	202.38
657.865	186.38
658.068	182.38
658.272	162.38
658.476	173.38
658.68	154.38
658.883	139.38
659.087	147.38
659.291	141.38
659.494	124.38
659.698	117.38
659.901	126.38
660.105	139.38
660.309	116.38
660.512	120.38
660.716	122.38
660.919	127.38
661.123	124.38
661.326	104.38
661.53	90.38
661.733	114.38
661.936	98.38
662.14	99.38
662.343	113.38
662.546	100.38
662.75	80.38
662.953	85.38
663.156	92.38
663.36	92.38
663.563	93.38
663.766	78.38
663.969	91.38
664.173	88.38
664.376	97.38
664.579	87.38
664.782	83.38
664.985	71.38
665.188	92.38
665.391	83.38
665.594	86.38
665.797	85.38
666	77.38
666.203	81.38
666.406	77.38
666.609	92.38
666.812	95.38
667.015	99.38
667.218	82.38
667.421	92.38
667.624	69.38
667.827	91.38
668.03	98.38
668.232	82.38
668.435	74.38
668.638	82.38
668.841	78.38
669.043	88.38
669.246	85.38
669.449	81.38
669.651	86.38
669.854	81.38
670.057	100.38
670.259	77.38
670.462	101.38
670.665	81.38
670.867	88.38
671.07	100.38
671.272	94.38
671.475	78.38
671.677	82.38
671.88	80.38
672.082	88.38
672.284	82.38
672.487	81.38
672.689	77.38
672.892	93.38
