Data from WStandard_LampEnergy10_LIBS07252019.E.O._I.C._HRD10591_15-55-36-928.txt Node
Date: Thu Jul 25 15:55:36 EDT 2019
User: cochatt
Spectrometer: HR+D1059
Trigger mode: 1
Integration Time (sec): 1.000000E-1
Scans to average: 1
Electric dark correction enabled: true
Nonlinearity correction enabled: false
Boxcar width: 0
XAxis mode: Wavelengths
Number of Pixels in Spectrum: 2048
>>>>>Begin Spectral Data<<<<<
223.165	-11.44
223.4	-11.44
223.635	-11.44
223.869	-25.44
224.104	-16.44
224.338	-26.44
224.573	-15.44
224.808	-16.44
225.042	-11.44
225.277	-10.44
225.511	-6.44
225.746	6.56
225.98	8.56
226.215	19.56
226.449	18.56
226.683	18.56
226.918	32.56
227.152	35.56
227.387	31.56
227.621	48.56
227.856	50.56
228.09	46.56
228.324	42.56
228.559	58.56
228.793	73.56
229.027	133.56
229.262	132.56
229.496	145.56
229.73	170.56
229.964	169.56
230.199	160.56
230.433	151.56
230.667	183.56
230.901	184.56
231.136	179.56
231.37	171.56
231.604	172.56
231.838	163.56
232.072	171.56
232.306	168.56
232.541	175.56
232.775	215.56
233.009	221.56
233.243	206.56
233.477	186.56
233.711	188.56
233.945	192.56
234.179	192.56
234.413	200.56
234.647	218.56
234.881	197.56
235.115	191.56
235.349	191.56
235.583	184.56
235.817	199.56
236.051	179.56
236.285	199.56
236.519	191.56
236.753	227.56
236.987	209.56
237.221	216.56
237.455	233.56
237.689	233.56
237.922	210.56
238.156	203.56
238.39	218.56
238.624	212.56
238.858	208.56
239.091	254.56
239.325	249.56
239.559	287.56
239.793	281.56
240.027	300.56
240.26	309.56
240.494	256.56
240.728	234.56
240.961	234.56
241.195	254.56
241.429	251.56
241.662	263.56
241.896	256.56
242.13	241.56
242.363	264.56
242.597	279.56
242.83	270.56
243.064	261.56
243.298	292.56
243.531	269.56
243.765	284.56
243.998	265.56
244.232	245.56
244.465	238.56
244.699	247.56
244.932	288.56
245.166	297.56
245.399	294.56
245.633	287.56
245.866	269.56
246.099	289.56
246.333	291.56
246.566	275.56
246.8	301.56
247.033	323.56
247.266	316.56
247.5	307.56
247.733	316.56
247.966	343.56
248.2	360.56
248.433	339.56
248.666	369.56
248.899	387.56
249.133	428.56
249.366	440.56
249.599	387.56
249.832	356.56
250.066	363.56
250.299	372.56
250.532	340.56
250.765	296.56
250.998	341.56
251.231	322.56
251.465	348.56
251.698	338.56
251.931	352.56
252.164	355.56
252.397	369.56
252.63	354.56
252.863	321.56
253.096	332.56
253.329	328.56
253.562	350.56
253.795	347.56
254.028	355.56
254.261	335.56
254.494	324.56
254.727	332.56
254.96	347.56
255.193	397.56
255.426	396.56
255.659	433.56
255.892	447.56
256.124	383.56
256.357	373.56
256.59	387.56
256.823	398.56
257.056	416.56
257.289	487.56
257.521	500.56
257.754	467.56
257.987	438.56
258.22	452.56
258.452	441.56
258.685	390.56
258.918	381.56
259.151	388.56
259.383	375.56
259.616	352.56
259.849	369.56
260.081	402.56
260.314	418.56
260.547	473.56
260.779	447.56
261.012	439.56
261.244	411.56
261.477	369.56
261.71	399.56
261.942	380.56
262.175	393.56
262.407	397.56
262.64	386.56
262.872	375.56
263.105	345.56
263.337	359.56
263.57	346.56
263.802	365.56
264.035	351.56
264.267	339.56
264.499	332.56
264.732	353.56
264.964	403.56
265.197	392.56
265.429	409.56
265.661	458.56
265.894	479.56
266.126	503.56
266.358	439.56
266.591	467.56
266.823	480.56
267.055	455.56
267.287	443.56
267.52	439.56
267.752	435.56
267.984	441.56
268.216	455.56
268.448	450.56
268.681	434.56
268.913	405.56
269.145	393.56
269.377	395.56
269.609	445.56
269.841	503.56
270.073	571.56
270.306	601.56
270.538	594.56
270.77	526.56
271.002	491.56
271.234	457.56
271.466	483.56
271.698	515.56
271.93	598.56
272.162	596.56
272.394	545.56
272.626	520.56
272.858	450.56
273.09	413.56
273.322	407.56
273.553	402.56
273.785	398.56
274.017	405.56
274.249	423.56
274.481	429.56
274.713	402.56
274.945	410.56
275.176	407.56
275.408	400.56
275.64	408.56
275.872	412.56
276.104	427.56
276.335	466.56
276.567	524.56
276.799	504.56
277.031	488.56
277.262	435.56
277.494	489.56
277.726	499.56
277.957	502.56
278.189	453.56
278.421	431.56
278.652	437.56
278.884	425.56
279.115	415.56
279.347	449.56
279.579	423.56
279.81	444.56
280.042	481.56
280.273	487.56
280.505	511.56
280.736	513.56
280.968	484.56
281.199	440.56
281.431	436.56
281.662	422.56
281.894	418.56
282.125	431.56
282.356	444.56
282.588	455.56
282.819	467.56
283.051	496.56
283.282	509.56
283.513	503.56
283.745	450.56
283.976	419.56
284.207	439.56
284.439	416.56
284.67	442.56
284.901	462.56
285.132	441.56
285.364	451.56
285.595	436.56
285.826	432.56
286.057	442.56
286.288	450.56
286.52	478.56
286.751	502.56
286.982	488.56
287.213	455.56
287.444	419.56
287.675	446.56
287.906	469.56
288.138	460.56
288.369	458.56
288.6	442.56
288.831	428.56
289.062	438.56
289.293	445.56
289.524	456.56
289.755	461.56
289.986	441.56
290.217	422.56
290.448	439.56
290.679	473.56
290.91	452.56
291.141	469.56
291.371	472.56
291.602	479.56
291.833	476.56
292.064	475.56
292.295	509.56
292.526	489.56
292.757	473.56
292.987	490.56
293.218	479.56
293.449	522.56
293.68	565.56
293.91	579.56
294.141	553.56
294.372	537.56
294.603	548.56
294.833	561.56
295.064	524.56
295.295	470.56
295.525	476.56
295.756	444.56
295.987	453.56
296.217	427.56
296.448	461.56
296.679	457.56
296.909	447.56
297.14	483.56
297.37	474.56
297.601	513.56
297.831	536.56
298.062	515.56
298.292	487.56
298.523	455.56
298.753	458.56
298.984	462.56
299.214	474.56
299.445	475.56
299.675	506.56
299.905	489.56
300.136	501.56
300.366	455.56
300.597	444.56
300.827	430.56
301.057	487.56
301.288	498.56
301.518	515.56
301.748	508.56
301.979	544.56
302.209	564.56
302.439	575.56
302.669	597.56
302.9	557.56
303.13	510.56
303.36	497.56
303.59	514.56
303.82	507.56
304.051	488.56
304.281	511.56
304.511	539.56
304.741	557.56
304.971	594.56
305.201	607.56
305.431	560.56
305.661	492.56
305.891	455.56
306.121	462.56
306.352	466.56
306.582	498.56
306.812	544.56
307.042	557.56
307.272	550.56
307.502	602.56
307.731	612.56
307.961	610.56
308.191	533.56
308.421	529.56
308.651	508.56
308.881	510.56
309.111	521.56
309.341	508.56
309.571	521.56
309.8	501.56
310.03	498.56
310.26	508.56
310.49	484.56
310.72	504.56
310.949	520.56
311.179	538.56
311.409	506.56
311.639	486.56
311.868	493.56
312.098	512.56
312.328	519.56
312.557	496.56
312.787	505.56
313.017	514.56
313.246	509.56
313.476	532.56
313.706	551.56
313.935	523.56
314.165	521.56
314.394	548.56
314.624	593.56
314.853	608.56
315.083	611.56
315.312	608.56
315.542	600.56
315.771	540.56
316.001	553.56
316.23	552.56
316.46	555.56
316.689	543.56
316.919	503.56
317.148	509.56
317.377	521.56
317.607	599.56
317.836	635.56
318.065	613.56
318.295	596.56
318.524	588.56
318.753	570.56
318.983	561.56
319.212	564.56
319.441	553.56
319.67	559.56
319.9	547.56
320.129	586.56
320.358	615.56
320.587	628.56
320.816	609.56
321.046	613.56
321.275	571.56
321.504	578.56
321.733	615.56
321.962	600.56
322.191	562.56
322.42	556.56
322.649	547.56
322.878	546.56
323.108	529.56
323.337	588.56
323.566	592.56
323.795	592.56
324.024	567.56
324.253	555.56
324.482	569.56
324.71	515.56
324.939	548.56
325.168	554.56
325.397	571.56
325.626	588.56
325.855	555.56
326.084	563.56
326.313	561.56
326.542	588.56
326.77	589.56
326.999	565.56
327.228	576.56
327.457	537.56
327.686	534.56
327.914	536.56
328.143	548.56
328.372	561.56
328.6	556.56
328.829	526.56
329.058	515.56
329.287	546.56
329.515	565.56
329.744	582.56
329.972	612.56
330.201	609.56
330.43	596.56
330.658	602.56
330.887	573.56
331.115	608.56
331.344	607.56
331.572	595.56
331.801	578.56
332.03	588.56
332.258	601.56
332.486	585.56
332.715	615.56
332.943	589.56
333.172	577.56
333.4	595.56
333.629	633.56
333.857	688.56
334.085	724.56
334.314	834.56
334.542	830.56
334.771	772.56
334.999	668.56
335.227	630.56
335.455	644.56
335.684	626.56
335.912	657.56
336.14	667.56
336.369	620.56
336.597	609.56
336.825	624.56
337.053	623.56
337.281	649.56
337.51	687.56
337.738	689.56
337.966	636.56
338.194	607.56
338.422	597.56
338.65	585.56
338.878	572.56
339.106	561.56
339.334	584.56
339.562	573.56
339.79	605.56
340.018	621.56
340.246	619.56
340.474	610.56
340.702	615.56
340.93	625.56
341.158	586.56
341.386	602.56
341.614	611.56
341.842	612.56
342.07	590.56
342.298	601.56
342.526	602.56
342.754	595.56
342.981	594.56
343.209	584.56
343.437	614.56
343.665	564.56
343.893	611.56
344.12	605.56
344.348	640.56
344.576	603.56
344.804	603.56
345.031	589.56
345.259	600.56
345.487	571.56
345.714	565.56
345.942	560.56
346.17	540.56
346.397	569.56
346.625	559.56
346.853	548.56
347.08	529.56
347.308	531.56
347.535	547.56
347.763	577.56
347.99	551.56
348.218	535.56
348.445	562.56
348.673	597.56
348.9	576.56
349.128	605.56
349.355	600.56
349.583	589.56
349.81	568.56
350.037	524.56
350.265	541.56
350.492	529.56
350.72	560.56
350.947	575.56
351.174	559.56
351.402	555.56
351.629	533.56
351.856	524.56
352.083	531.56
352.311	525.56
352.538	533.56
352.765	547.56
352.992	585.56
353.22	563.56
353.447	543.56
353.674	548.56
353.901	548.56
354.128	548.56
354.355	570.56
354.583	596.56
354.81	587.56
355.037	565.56
355.264	587.56
355.491	573.56
355.718	570.56
355.945	560.56
356.172	544.56
356.399	551.56
356.626	560.56
356.853	587.56
357.08	643.56
357.307	664.56
357.534	644.56
357.761	572.56
357.988	554.56
358.215	568.56
358.441	545.56
358.668	545.56
358.895	570.56
359.122	582.56
359.349	637.56
359.576	577.56
359.802	578.56
360.029	551.56
360.256	519.56
360.483	568.56
360.709	586.56
360.936	597.56
361.163	623.56
361.39	661.56
361.616	707.56
361.843	689.56
362.07	623.56
362.296	577.56
362.523	571.56
362.749	572.56
362.976	576.56
363.203	585.56
363.429	558.56
363.656	547.56
363.882	600.56
364.109	644.56
364.335	649.56
364.562	610.56
364.788	597.56
365.015	549.56
365.241	560.56
365.468	577.56
365.694	616.56
365.92	607.56
366.147	599.56
366.373	563.56
366.599	571.56
366.826	552.56
367.052	586.56
367.278	574.56
367.505	606.56
367.731	615.56
367.957	582.56
368.184	627.56
368.41	659.56
368.636	667.56
368.862	671.56
369.089	673.56
369.315	640.56
369.541	613.56
369.767	589.56
369.993	580.56
370.219	590.56
370.445	609.56
370.672	653.56
370.898	670.56
371.124	653.56
371.35	618.56
371.576	647.56
371.802	651.56
372.028	618.56
372.254	619.56
372.48	614.56
372.706	580.56
372.932	624.56
373.158	604.56
373.384	625.56
373.61	644.56
373.835	649.56
374.061	616.56
374.287	631.56
374.513	608.56
374.739	619.56
374.965	625.56
375.191	636.56
375.416	655.56
375.642	652.56
375.868	723.56
376.094	727.56
376.319	648.56
376.545	625.56
376.771	677.56
376.997	706.56
377.222	682.56
377.448	697.56
377.674	673.56
377.899	682.56
378.125	703.56
378.35	691.56
378.576	629.56
378.802	614.56
379.027	627.56
379.253	629.56
379.478	647.56
379.704	628.56
379.929	611.56
380.155	627.56
380.38	659.56
380.606	652.56
380.831	675.56
381.057	705.56
381.282	688.56
381.507	699.56
381.733	728.56
381.958	728.56
382.184	717.56
382.409	657.56
382.634	653.56
382.86	661.56
383.085	675.56
383.31	702.56
383.535	770.56
383.761	779.56
383.986	746.56
384.211	738.56
384.436	725.56
384.662	755.56
384.887	777.56
385.112	741.56
385.337	734.56
385.562	728.56
385.787	744.56
386.013	771.56
386.238	765.56
386.463	769.56
386.688	842.56
386.913	860.56
387.138	819.56
387.363	793.56
387.588	739.56
387.813	757.56
388.038	795.56
388.263	809.56
388.488	757.56
388.713	701.56
388.938	714.56
389.163	737.56
389.387	745.56
389.612	733.56
389.837	740.56
390.062	734.56
390.287	743.56
390.512	754.56
390.736	721.56
390.961	743.56
391.186	701.56
391.411	737.56
391.636	743.56
391.86	745.56
392.085	772.56
392.31	747.56
392.534	739.56
392.759	735.56
392.984	765.56
393.208	777.56
393.433	805.56
393.658	807.56
393.882	823.56
394.107	791.56
394.331	795.56
394.556	772.56
394.78	775.56
395.005	824.56
395.229	840.56
395.454	867.56
395.678	877.56
395.903	824.56
396.127	803.56
396.352	793.56
396.576	835.56
396.801	851.56
397.025	812.56
397.249	847.56
397.474	838.56
397.698	813.56
397.922	867.56
398.147	891.56
398.371	897.56
398.595	905.56
398.82	865.56
399.044	901.56
399.268	899.56
399.492	972.56
399.717	961.56
399.941	1010.56
400.165	953.56
400.389	931.56
400.613	969.56
400.837	1127.56
401.062	1183.56
401.286	1004.56
401.51	992.56
401.734	965.56
401.958	961.56
402.182	896.56
402.406	865.56
402.63	850.56
402.854	880.56
403.078	911.56
403.302	890.56
403.526	918.56
403.75	920.56
403.974	924.56
404.198	947.56
404.422	969.56
404.645	1009.56
404.869	987.56
405.093	902.56
405.317	917.56
405.541	891.56
405.765	898.56
405.988	927.56
406.212	945.56
406.436	948.56
406.66	983.56
406.883	1019.56
407.107	1146.56
407.331	1252.56
407.555	1253.56
407.778	1106.56
408.002	994.56
408.226	958.56
408.449	967.56
408.673	952.56
408.896	957.56
409.12	941.56
409.344	934.56
409.567	928.56
409.791	932.56
410.014	977.56
410.238	1034.56
410.461	1073.56
410.685	985.56
410.908	928.56
411.132	936.56
411.355	929.56
411.578	935.56
411.802	931.56
412.025	899.56
412.249	939.56
412.472	910.56
412.695	915.56
412.919	907.56
413.142	901.56
413.365	913.56
413.589	969.56
413.812	993.56
414.035	996.56
414.258	900.56
414.482	931.56
414.705	925.56
414.928	910.56
415.151	916.56
415.374	913.56
415.597	907.56
415.821	955.56
416.044	951.56
416.267	936.56
416.49	933.56
416.713	897.56
416.936	930.56
417.159	970.56
417.382	933.56
417.605	919.56
417.828	945.56
418.051	947.56
418.274	919.56
418.497	945.56
418.72	928.56
418.943	922.56
419.166	948.56
419.389	994.56
419.611	971.56
419.834	940.56
420.057	944.56
420.28	950.56
420.503	944.56
420.726	944.56
420.948	907.56
421.171	897.56
421.394	925.56
421.617	988.56
421.839	973.56
422.062	980.56
422.285	946.56
422.507	933.56
422.73	893.56
422.953	899.56
423.175	895.56
423.398	917.56
423.621	917.56
423.843	935.56
424.066	971.56
424.288	1029.56
424.511	1059.56
424.733	1008.56
424.956	900.56
425.178	923.56
425.401	926.56
425.623	921.56
425.846	922.56
426.068	961.56
426.291	966.56
426.513	971.56
426.735	951.56
426.958	1042.56
427.18	1060.56
427.402	998.56
427.625	1010.56
427.847	945.56
428.069	913.56
428.292	915.56
428.514	907.56
428.736	875.56
428.958	895.56
429.181	931.56
429.403	1069.56
429.625	1217.56
429.847	1031.56
430.069	946.56
430.292	1034.56
430.514	1018.56
430.736	950.56
430.958	957.56
431.18	934.56
431.402	881.56
431.624	838.56
431.846	793.56
432.068	724.56
432.29	733.56
432.512	786.56
432.734	891.56
432.956	918.56
433.178	982.56
433.4	956.56
433.622	944.56
433.844	899.56
434.066	842.56
434.287	768.56
434.509	789.56
434.731	831.56
434.953	897.56
435.175	933.56
435.397	902.56
435.618	860.56
435.84	847.56
436.062	834.56
436.284	915.56
436.505	922.56
436.727	957.56
436.949	924.56
437.17	908.56
437.392	886.56
437.614	864.56
437.835	816.56
438.057	804.56
438.278	825.56
438.5	869.56
438.721	884.56
438.943	901.56
439.165	899.56
439.386	930.56
439.608	978.56
439.829	964.56
440.05	957.56
440.272	964.56
440.493	946.56
440.715	950.56
440.936	1026.56
441.158	1052.56
441.379	1040.56
441.6	1048.56
441.822	1051.56
442.043	980.56
442.264	999.56
442.486	976.56
442.707	966.56
442.928	948.56
443.149	957.56
443.371	1001.56
443.592	1035.56
443.813	1012.56
444.034	992.56
444.255	971.56
444.476	1012.56
444.698	1036.56
444.919	1009.56
445.14	1129.56
445.361	1061.56
445.582	1048.56
445.803	1008.56
446.024	1035.56
446.245	1053.56
446.466	1075.56
446.687	1020.56
446.908	1035.56
447.129	1023.56
447.35	1002.56
447.571	965.56
447.792	965.56
448.013	944.56
448.234	960.56
448.455	977.56
448.675	983.56
448.896	918.56
449.117	922.56
449.338	901.56
449.559	931.56
449.779	965.56
450	997.56
450.221	1040.56
450.442	1002.56
450.662	940.56
450.883	868.56
451.104	839.56
451.324	859.56
451.545	882.56
451.766	851.56
451.986	819.56
452.207	830.56
452.428	787.56
452.648	788.56
452.869	794.56
453.089	787.56
453.31	754.56
453.53	785.56
453.751	737.56
453.971	698.56
454.192	728.56
454.412	781.56
454.633	801.56
454.853	743.56
455.073	748.56
455.294	762.56
455.514	754.56
455.734	737.56
455.955	777.56
456.175	757.56
456.395	733.56
456.616	732.56
456.836	747.56
457.056	751.56
457.276	767.56
457.497	703.56
457.717	700.56
457.937	732.56
458.157	713.56
458.377	679.56
458.598	687.56
458.818	667.56
459.038	683.56
459.258	738.56
459.478	694.56
459.698	705.56
459.918	764.56
460.138	784.56
460.358	837.56
460.578	813.56
460.798	846.56
461.018	900.56
461.238	856.56
461.458	853.56
461.678	847.56
461.898	832.56
462.118	811.56
462.338	833.56
462.558	838.56
462.777	858.56
462.997	884.56
463.217	895.56
463.437	888.56
463.657	880.56
463.876	845.56
464.096	830.56
464.316	826.56
464.536	849.56
464.755	879.56
464.975	866.56
465.195	871.56
465.414	883.56
465.634	883.56
465.854	884.56
466.073	967.56
466.293	945.56
466.512	860.56
466.732	883.56
466.951	884.56
467.171	879.56
467.391	907.56
467.61	881.56
467.829	902.56
468.049	953.56
468.268	1039.56
468.488	936.56
468.707	909.56
468.927	916.56
469.146	899.56
469.365	905.56
469.585	908.56
469.804	900.56
470.023	922.56
470.243	924.56
470.462	934.56
470.681	913.56
470.901	945.56
471.12	925.56
471.339	922.56
471.558	898.56
471.777	936.56
471.997	883.56
472.216	832.56
472.435	779.56
472.654	762.56
472.873	784.56
473.092	828.56
473.311	820.56
473.53	817.56
473.749	799.56
473.968	831.56
474.187	815.56
474.406	844.56
474.625	850.56
474.844	880.56
475.063	851.56
475.282	866.56
475.501	825.56
475.72	841.56
475.939	909.56
476.158	893.56
476.377	866.56
476.596	856.56
476.814	811.56
477.033	802.56
477.252	838.56
477.471	898.56
477.69	938.56
477.908	925.56
478.127	976.56
478.346	1009.56
478.564	959.56
478.783	1001.56
479.002	1020.56
479.22	1013.56
479.439	1019.56
479.658	1034.56
479.876	971.56
480.095	906.56
480.313	904.56
480.532	897.56
480.751	845.56
480.969	805.56
481.188	778.56
481.406	761.56
481.624	755.56
481.843	771.56
482.061	830.56
482.28	889.56
482.498	876.56
482.717	851.56
482.935	895.56
483.153	953.56
483.372	1023.56
483.59	1013.56
483.808	983.56
484.027	959.56
484.245	982.56
484.463	1205.56
484.681	1292.56
484.9	1021.56
485.118	963.56
485.336	926.56
485.554	896.56
485.772	894.56
485.99	891.56
486.209	936.56
486.427	894.56
486.645	957.56
486.863	1000.56
487.081	1024.56
487.299	977.56
487.517	1009.56
487.735	1104.56
487.953	1202.56
488.171	1155.56
488.389	1124.56
488.607	1103.56
488.825	1155.56
489.043	1090.56
489.261	965.56
489.479	1032.56
489.696	1065.56
489.914	1031.56
490.132	1037.56
490.35	1067.56
490.568	1188.56
490.786	1195.56
491.003	1178.56
491.221	1234.56
491.439	1285.56
491.657	1290.56
491.874	1316.56
492.092	1395.56
492.31	1479.56
492.527	1417.56
492.745	1378.56
492.963	1284.56
493.18	1288.56
493.398	1344.56
493.615	1303.56
493.833	1272.56
494.05	1250.56
494.268	1207.56
494.485	1219.56
494.703	1211.56
494.92	1208.56
495.138	1242.56
495.355	1210.56
495.573	1232.56
495.79	1318.56
496.008	1297.56
496.225	1254.56
496.442	1230.56
496.66	1223.56
496.877	1218.56
497.094	1228.56
497.312	1230.56
497.529	1236.56
497.746	1204.56
497.963	1258.56
498.181	1289.56
498.398	1283.56
498.615	1225.56
498.832	1159.56
499.049	1175.56
499.267	1166.56
499.484	1269.56
499.701	1329.56
499.918	1385.56
500.135	1490.56
500.352	1567.56
500.569	1559.56
500.786	1660.56
501.003	1542.56
501.22	1409.56
501.437	1368.56
501.654	1421.56
501.871	1354.56
502.088	1215.56
502.305	1184.56
502.522	1152.56
502.739	1084.56
502.956	1068.56
503.172	1039.56
503.389	1042.56
503.606	992.56
503.823	960.56
504.04	1000.56
504.256	998.56
504.473	1009.56
504.69	1039.56
504.907	986.56
505.123	966.56
505.34	1063.56
505.557	1354.56
505.773	1127.56
505.99	941.56
506.207	915.56
506.423	876.56
506.64	882.56
506.856	917.56
507.073	1031.56
507.289	1083.56
507.506	999.56
507.722	884.56
507.939	857.56
508.155	866.56
508.372	860.56
508.588	811.56
508.805	793.56
509.021	795.56
509.238	770.56
509.454	753.56
509.67	737.56
509.887	751.56
510.103	707.56
510.319	727.56
510.536	775.56
510.752	777.56
510.968	761.56
511.184	789.56
511.401	758.56
511.617	707.56
511.833	705.56
512.049	715.56
512.265	704.56
512.481	706.56
512.698	727.56
512.914	767.56
513.13	731.56
513.346	736.56
513.562	687.56
513.778	712.56
513.994	744.56
514.21	739.56
514.426	768.56
514.642	808.56
514.858	760.56
515.074	716.56
515.29	699.56
515.506	717.56
515.721	731.56
515.937	780.56
516.153	803.56
516.369	773.56
516.585	736.56
516.801	756.56
517.016	728.56
517.232	762.56
517.448	795.56
517.664	792.56
517.879	782.56
518.095	809.56
518.311	781.56
518.527	781.56
518.742	757.56
518.958	759.56
519.173	753.56
519.389	763.56
519.605	780.56
519.82	793.56
520.036	782.56
520.251	804.56
520.467	780.56
520.682	810.56
520.898	801.56
521.113	726.56
521.329	731.56
521.544	779.56
521.76	739.56
521.975	717.56
522.19	722.56
522.406	709.56
522.621	897.56
522.836	877.56
523.052	735.56
523.267	731.56
523.482	740.56
523.698	753.56
523.913	736.56
524.128	775.56
524.343	821.56
524.559	806.56
524.774	796.56
524.989	772.56
525.204	756.56
525.419	729.56
525.634	749.56
525.849	702.56
526.064	725.56
526.28	687.56
526.495	671.56
526.71	644.56
526.925	635.56
527.14	615.56
527.355	613.56
527.57	620.56
527.785	658.56
527.999	669.56
528.214	657.56
528.429	699.56
528.644	716.56
528.859	778.56
529.074	809.56
529.289	872.56
529.503	879.56
529.718	799.56
529.933	711.56
530.148	657.56
530.363	634.56
530.577	643.56
530.792	636.56
531.007	650.56
531.221	604.56
531.436	641.56
531.651	628.56
531.865	666.56
532.08	685.56
532.295	598.56
532.509	627.56
532.724	610.56
532.938	643.56
533.153	708.56
533.367	692.56
533.582	751.56
533.796	748.56
534.011	721.56
534.225	652.56
534.44	647.56
534.654	642.56
534.868	643.56
535.083	674.56
535.297	671.56
535.511	673.56
535.726	676.56
535.94	660.56
536.154	636.56
536.369	633.56
536.583	590.56
536.797	593.56
537.011	587.56
537.225	593.56
537.44	607.56
537.654	649.56
537.868	614.56
538.082	593.56
538.296	606.56
538.51	640.56
538.724	689.56
538.938	707.56
539.153	715.56
539.367	734.56
539.581	690.56
539.795	675.56
540.009	660.56
540.222	644.56
540.436	672.56
540.65	730.56
540.864	800.56
541.078	816.56
541.292	855.56
541.506	890.56
541.72	952.56
541.934	995.56
542.147	1055.56
542.361	973.56
542.575	927.56
542.789	836.56
543.002	740.56
543.216	758.56
543.43	765.56
543.644	797.56
543.857	886.56
544.071	902.56
544.285	922.56
544.498	907.56
544.712	909.56
544.925	956.56
545.139	948.56
545.352	928.56
545.566	898.56
545.779	925.56
545.993	968.56
546.206	939.56
546.42	944.56
546.633	916.56
546.847	932.56
547.06	925.56
547.274	965.56
547.487	963.56
547.7	995.56
547.914	957.56
548.127	951.56
548.34	919.56
548.554	938.56
548.767	922.56
548.98	911.56
549.193	899.56
549.407	946.56
549.62	939.56
549.833	918.56
550.046	905.56
550.259	893.56
550.473	855.56
550.686	883.56
550.899	858.56
551.112	863.56
551.325	836.56
551.538	835.56
551.751	877.56
551.964	699.56
552.177	735.56
552.39	803.56
552.603	825.56
552.816	877.56
553.029	890.56
553.242	913.56
553.455	890.56
553.667	889.56
553.88	897.56
554.093	901.56
554.306	852.56
554.519	857.56
554.732	825.56
554.944	820.56
555.157	834.56
555.37	810.56
555.583	807.56
555.795	771.56
556.008	732.56
556.221	731.56
556.433	731.56
556.646	699.56
556.859	735.56
557.071	724.56
557.284	743.56
557.496	756.56
557.709	727.56
557.921	736.56
558.134	743.56
558.346	713.56
558.559	714.56
558.771	680.56
558.984	710.56
559.196	691.56
559.409	680.56
559.621	677.56
559.833	645.56
560.046	683.56
560.258	672.56
560.47	687.56
560.683	691.56
560.895	680.56
561.107	677.56
561.32	676.56
561.532	700.56
561.744	690.56
561.956	677.56
562.168	676.56
562.381	641.56
562.593	636.56
562.805	626.56
563.017	612.56
563.229	648.56
563.441	656.56
563.653	628.56
563.865	635.56
564.077	608.56
564.289	616.56
564.501	630.56
564.713	629.56
564.925	624.56
565.137	660.56
565.349	603.56
565.561	602.56
565.773	615.56
565.985	622.56
566.197	642.56
566.408	660.56
566.62	671.56
566.832	665.56
567.044	687.56
567.255	634.56
567.467	652.56
567.679	653.56
567.891	651.56
568.102	617.56
568.314	591.56
568.526	547.56
568.737	496.56
568.949	485.56
569.161	479.56
569.372	445.56
569.584	443.56
569.795	457.56
570.007	472.56
570.218	453.56
570.43	465.56
570.641	452.56
570.853	459.56
571.064	483.56
571.276	480.56
571.487	506.56
571.698	475.56
571.91	455.56
572.121	460.56
572.333	439.56
572.544	426.56
572.755	412.56
572.966	393.56
573.178	393.56
573.389	409.56
573.6	409.56
573.811	440.56
574.023	395.56
574.234	382.56
574.445	371.56
574.656	391.56
574.867	403.56
575.078	397.56
575.289	432.56
575.501	405.56
575.712	409.56
575.923	390.56
576.134	394.56
576.345	415.56
576.556	403.56
576.767	396.56
576.978	399.56
577.188	387.56
577.399	371.56
577.61	370.56
577.821	357.56
578.032	369.56
578.243	369.56
578.454	363.56
578.665	351.56
578.875	368.56
579.086	346.56
579.297	330.56
579.508	349.56
579.718	348.56
579.929	328.56
580.14	336.56
580.35	330.56
580.561	368.56
580.772	387.56
580.982	375.56
581.193	349.56
581.403	353.56
581.614	344.56
581.825	319.56
582.035	333.56
582.246	347.56
582.456	348.56
582.667	336.56
582.877	324.56
583.087	331.56
583.298	324.56
583.508	344.56
583.719	322.56
583.929	337.56
584.139	334.56
584.35	330.56
584.56	318.56
584.77	311.56
584.981	327.56
585.191	320.56
585.401	346.56
585.611	341.56
585.821	310.56
586.032	315.56
586.242	294.56
586.452	315.56
586.662	306.56
586.872	319.56
587.082	309.56
587.292	302.56
587.502	331.56
587.713	308.56
587.923	327.56
588.133	306.56
588.343	325.56
588.553	324.56
588.762	316.56
588.972	310.56
589.182	314.56
589.392	325.56
589.602	326.56
589.812	310.56
590.022	292.56
590.232	295.56
590.441	297.56
590.651	331.56
590.861	306.56
591.071	308.56
591.281	301.56
591.49	311.56
591.7	303.56
591.91	300.56
592.119	307.56
592.329	314.56
592.539	324.56
592.748	298.56
592.958	329.56
593.167	324.56
593.377	322.56
593.587	319.56
593.796	312.56
594.006	328.56
594.215	338.56
594.424	344.56
594.634	319.56
594.843	343.56
595.053	359.56
595.262	324.56
595.472	325.56
595.681	321.56
595.89	301.56
596.1	312.56
596.309	316.56
596.518	328.56
596.727	346.56
596.937	332.56
597.146	340.56
597.355	319.56
597.564	286.56
597.774	282.56
597.983	305.56
598.192	281.56
598.401	299.56
598.61	290.56
598.819	271.56
599.028	306.56
599.237	291.56
599.446	287.56
599.655	289.56
599.864	294.56
600.073	296.56
600.282	288.56
600.491	292.56
600.7	290.56
600.909	298.56
601.118	323.56
601.327	329.56
601.536	330.56
601.745	344.56
601.953	357.56
602.162	365.56
602.371	352.56
602.58	350.56
602.789	358.56
602.997	353.56
603.206	349.56
603.415	362.56
603.623	346.56
603.832	347.56
604.041	342.56
604.249	311.56
604.458	306.56
604.666	297.56
604.875	328.56
605.084	323.56
605.292	342.56
605.501	351.56
605.709	357.56
605.918	356.56
606.126	361.56
606.334	360.56
606.543	356.56
606.751	380.56
606.96	371.56
607.168	353.56
607.376	360.56
607.585	352.56
607.793	352.56
608.001	363.56
608.21	375.56
608.418	355.56
608.626	371.56
608.834	353.56
609.043	343.56
609.251	333.56
609.459	365.56
609.667	348.56
609.875	369.56
610.083	383.56
610.291	374.56
610.499	358.56
610.707	363.56
610.916	364.56
611.124	358.56
611.332	366.56
611.54	363.56
611.748	353.56
611.955	362.56
612.163	351.56
612.371	356.56
612.579	337.56
612.787	352.56
612.995	368.56
613.203	361.56
613.411	361.56
613.618	377.56
613.826	355.56
614.034	369.56
614.242	357.56
614.449	376.56
614.657	363.56
614.865	371.56
615.072	353.56
615.28	350.56
615.488	353.56
615.695	366.56
615.903	367.56
616.111	362.56
616.318	353.56
616.526	355.56
616.733	359.56
616.941	318.56
617.148	351.56
617.356	346.56
617.563	332.56
617.771	322.56
617.978	315.56
618.185	344.56
618.393	332.56
618.6	337.56
618.807	344.56
619.015	346.56
619.222	336.56
619.429	332.56
619.637	309.56
619.844	281.56
620.051	285.56
620.258	309.56
620.466	308.56
620.673	323.56
620.88	315.56
621.087	314.56
621.294	310.56
621.501	299.56
621.708	270.56
621.915	334.56
622.122	317.56
622.329	316.56
622.536	338.56
622.743	324.56
622.95	331.56
623.157	299.56
623.364	344.56
623.571	319.56
623.778	324.56
623.985	336.56
624.192	320.56
624.399	324.56
624.606	317.56
624.812	293.56
625.019	304.56
625.226	297.56
625.433	308.56
625.639	281.56
625.846	263.56
626.053	261.56
626.259	248.56
626.466	223.56
626.673	230.56
626.879	239.56
627.086	251.56
627.293	258.56
627.499	285.56
627.706	287.56
627.912	284.56
628.119	285.56
628.325	296.56
628.532	303.56
628.738	289.56
628.945	296.56
629.151	291.56
629.357	288.56
629.564	291.56
629.77	276.56
629.976	261.56
630.183	263.56
630.389	270.56
630.595	274.56
630.802	287.56
631.008	283.56
631.214	279.56
631.42	265.56
631.627	256.56
631.833	232.56
632.039	270.56
632.245	274.56
632.451	273.56
632.657	281.56
632.863	269.56
633.069	275.56
633.275	271.56
633.481	266.56
633.688	250.56
633.893	259.56
634.099	246.56
634.305	227.56
634.511	246.56
634.717	239.56
634.923	223.56
635.129	235.56
635.335	255.56
635.541	242.56
635.747	238.56
635.952	223.56
636.158	260.56
636.364	257.56
636.57	279.56
636.775	265.56
636.981	271.56
637.187	260.56
637.392	263.56
637.598	268.56
637.804	278.56
638.009	260.56
638.215	269.56
638.421	251.56
638.626	262.56
638.832	259.56
639.037	263.56
639.243	244.56
639.448	241.56
639.654	241.56
639.859	234.56
640.065	225.56
640.27	241.56
640.475	234.56
640.681	257.56
640.886	243.56
641.091	255.56
641.297	251.56
641.502	245.56
641.707	255.56
641.913	259.56
642.118	242.56
642.323	256.56
642.528	241.56
642.733	236.56
642.939	245.56
643.144	237.56
643.349	247.56
643.554	236.56
643.759	231.56
643.964	208.56
644.169	236.56
644.374	254.56
644.579	259.56
644.784	252.56
644.989	245.56
645.194	239.56
645.399	220.56
645.604	236.56
645.809	233.56
646.014	253.56
646.219	256.56
646.423	244.56
646.628	224.56
646.833	236.56
647.038	255.56
647.243	259.56
647.447	240.56
647.652	247.56
647.857	241.56
648.062	225.56
648.266	232.56
648.471	251.56
648.676	260.56
648.88	230.56
649.085	237.56
649.289	238.56
649.494	230.56
649.698	251.56
649.903	240.56
650.107	240.56
650.312	246.56
650.516	219.56
650.721	224.56
650.925	235.56
651.13	223.56
651.334	231.56
651.539	211.56
651.743	230.56
651.947	207.56
652.152	215.56
652.356	214.56
652.56	207.56
652.764	205.56
652.969	223.56
653.173	208.56
653.377	205.56
653.581	209.56
653.785	213.56
653.99	198.56
654.194	203.56
654.398	204.56
654.602	202.56
654.806	201.56
655.01	201.56
655.214	195.56
655.418	198.56
655.622	205.56
655.826	218.56
656.03	203.56
656.234	213.56
656.438	232.56
656.642	217.56
656.846	209.56
657.049	200.56
657.253	204.56
657.457	188.56
657.661	202.56
657.865	159.56
658.068	155.56
658.272	158.56
658.476	159.56
658.68	158.56
658.883	148.56
659.087	150.56
659.291	146.56
659.494	155.56
659.698	152.56
659.901	140.56
660.105	125.56
660.309	130.56
660.512	112.56
660.716	118.56
660.919	124.56
661.123	129.56
661.326	124.56
661.53	120.56
661.733	108.56
661.936	88.56
662.14	93.56
662.343	91.56
662.546	89.56
662.75	100.56
662.953	96.56
663.156	110.56
663.36	94.56
663.563	89.56
663.766	88.56
663.969	81.56
664.173	89.56
664.376	85.56
664.579	88.56
664.782	84.56
664.985	80.56
665.188	89.56
665.391	101.56
665.594	86.56
665.797	93.56
666	82.56
666.203	88.56
666.406	77.56
666.609	68.56
666.812	88.56
667.015	79.56
667.218	90.56
667.421	83.56
667.624	71.56
667.827	74.56
668.03	83.56
668.232	88.56
668.435	77.56
668.638	91.56
668.841	92.56
669.043	81.56
669.246	82.56
669.449	65.56
669.651	89.56
669.854	74.56
670.057	78.56
670.259	77.56
670.462	81.56
670.665	72.56
670.867	71.56
671.07	70.56
671.272	80.56
671.475	76.56
671.677	99.56
671.88	75.56
672.082	88.56
672.284	76.56
672.487	88.56
672.689	88.56
672.892	77.56
