Data from WStandard_LampEnergy8_LIBS07252019.E.O._I.C._HRD10591_15-59-03-929.txt Node
Date: Thu Jul 25 15:59:03 EDT 2019
User: cochatt
Spectrometer: HR+D1059
Trigger mode: 1
Integration Time (sec): 1.000000E-1
Scans to average: 1
Electric dark correction enabled: true
Nonlinearity correction enabled: false
Boxcar width: 0
XAxis mode: Wavelengths
Number of Pixels in Spectrum: 2048
>>>>>Begin Spectral Data<<<<<
223.165	-30.19
223.4	-30.19
223.635	-30.19
223.869	-17.19
224.104	-29.19
224.338	-4.19
224.573	-14.19
224.808	-8.19
225.042	-6.19
225.277	-5.19
225.511	-13.19
225.746	2.81
225.98	10.81
226.215	8.81
226.449	19.81
226.683	17.81
226.918	34.81
227.152	32.81
227.387	19.81
227.621	32.81
227.856	33.81
228.09	38.81
228.324	26.81
228.559	52.81
228.793	101.81
229.027	199.81
229.262	201.81
229.496	208.81
229.73	216.81
229.964	243.81
230.199	265.81
230.433	281.81
230.667	294.81
230.901	309.81
231.136	285.81
231.37	259.81
231.604	255.81
231.838	263.81
232.072	248.81
232.306	253.81
232.541	277.81
232.775	295.81
233.009	314.81
233.243	317.81
233.477	295.81
233.711	297.81
233.945	289.81
234.179	295.81
234.413	335.81
234.647	323.81
234.881	320.81
235.115	312.81
235.349	309.81
235.583	301.81
235.817	298.81
236.051	293.81
236.285	309.81
236.519	327.81
236.753	372.81
236.987	370.81
237.221	344.81
237.455	374.81
237.689	372.81
237.922	365.81
238.156	341.81
238.39	348.81
238.624	369.81
238.858	393.81
239.091	397.81
239.325	421.81
239.559	478.81
239.793	522.81
240.027	523.81
240.26	505.81
240.494	416.81
240.728	370.81
240.961	376.81
241.195	371.81
241.429	409.81
241.662	405.81
241.896	421.81
242.13	391.81
242.363	441.81
242.597	459.81
242.83	458.81
243.064	455.81
243.298	491.81
243.531	466.81
243.765	480.81
243.998	474.81
244.232	408.81
244.465	390.81
244.699	411.81
244.932	484.81
245.166	510.81
245.399	500.81
245.633	459.81
245.866	472.81
246.099	495.81
246.333	501.81
246.566	493.81
246.8	549.81
247.033	584.81
247.266	512.81
247.5	531.81
247.733	546.81
247.966	576.81
248.2	635.81
248.433	601.81
248.666	639.81
248.899	679.81
249.133	758.81
249.366	824.81
249.599	691.81
249.832	652.81
250.066	618.81
250.299	621.81
250.532	594.81
250.765	574.81
250.998	586.81
251.231	588.81
251.465	577.81
251.698	578.81
251.931	590.81
252.164	587.81
252.397	593.81
252.63	623.81
252.863	569.81
253.096	563.81
253.329	572.81
253.562	608.81
253.795	621.81
254.028	619.81
254.261	585.81
254.494	565.81
254.727	554.81
254.96	578.81
255.193	666.81
255.426	710.81
255.659	782.81
255.892	808.81
256.124	677.81
256.357	678.81
256.59	714.81
256.823	737.81
257.056	719.81
257.289	864.81
257.521	920.81
257.754	821.81
257.987	815.81
258.22	854.81
258.452	839.81
258.685	701.81
258.918	671.81
259.151	694.81
259.383	651.81
259.616	567.81
259.849	633.81
260.081	701.81
260.314	767.81
260.547	827.81
260.779	841.81
261.012	776.81
261.244	725.81
261.477	687.81
261.71	702.81
261.942	681.81
262.175	680.81
262.407	707.81
262.64	673.81
262.872	655.81
263.105	622.81
263.337	639.81
263.57	642.81
263.802	632.81
264.035	610.81
264.267	593.81
264.499	571.81
264.732	631.81
264.964	620.81
265.197	685.81
265.429	737.81
265.661	787.81
265.894	858.81
266.126	845.81
266.358	815.81
266.591	803.81
266.823	863.81
267.055	801.81
267.287	794.81
267.52	783.81
267.752	767.81
267.984	775.81
268.216	807.81
268.448	833.81
268.681	803.81
268.913	748.81
269.145	664.81
269.377	729.81
269.609	771.81
269.841	914.81
270.073	1023.81
270.306	1121.81
270.538	1107.81
270.77	961.81
271.002	867.81
271.234	815.81
271.466	809.81
271.698	951.81
271.93	1069.81
272.162	1077.81
272.394	949.81
272.626	917.81
272.858	798.81
273.09	701.81
273.322	713.81
273.553	662.81
273.785	704.81
274.017	722.81
274.249	752.81
274.481	763.81
274.713	720.81
274.945	706.81
275.176	713.81
275.408	680.81
275.64	682.81
275.872	696.81
276.104	756.81
276.335	823.81
276.567	943.81
276.799	921.81
277.031	846.81
277.262	824.81
277.494	838.81
277.726	915.81
277.957	882.81
278.189	837.81
278.421	773.81
278.652	757.81
278.884	766.81
279.115	742.81
279.347	761.81
279.579	738.81
279.81	763.81
280.042	814.81
280.273	881.81
280.505	891.81
280.736	905.81
280.968	853.81
281.199	735.81
281.431	721.81
281.662	709.81
281.894	713.81
282.125	754.81
282.356	789.81
282.588	773.81
282.819	811.81
283.051	840.81
283.282	883.81
283.513	826.81
283.745	774.81
283.976	717.81
284.207	740.81
284.439	752.81
284.67	744.81
284.901	770.81
285.132	768.81
285.364	774.81
285.595	802.81
285.826	763.81
286.057	785.81
286.288	761.81
286.52	801.81
286.751	883.81
286.982	887.81
287.213	786.81
287.444	736.81
287.675	761.81
287.906	796.81
288.138	841.81
288.369	821.81
288.6	753.81
288.831	768.81
289.062	729.81
289.293	759.81
289.524	779.81
289.755	820.81
289.986	815.81
290.217	751.81
290.448	762.81
290.679	789.81
290.91	773.81
291.141	816.81
291.371	818.81
291.602	820.81
291.833	813.81
292.064	847.81
292.295	818.81
292.526	858.81
292.757	880.81
292.987	847.81
293.218	813.81
293.449	900.81
293.68	959.81
293.91	1023.81
294.141	981.81
294.372	914.81
294.603	953.81
294.833	991.81
295.064	907.81
295.295	832.81
295.525	845.81
295.756	769.81
295.987	731.81
296.217	801.81
296.448	792.81
296.679	789.81
296.909	784.81
297.14	765.81
297.37	815.81
297.601	865.81
297.831	885.81
298.062	895.81
298.292	827.81
298.523	772.81
298.753	796.81
298.984	809.81
299.214	821.81
299.445	847.81
299.675	885.81
299.905	831.81
300.136	815.81
300.366	747.81
300.597	773.81
300.827	790.81
301.057	810.81
301.288	853.81
301.518	874.81
301.748	909.81
301.979	917.81
302.209	945.81
302.439	984.81
302.669	1014.81
302.9	939.81
303.13	875.81
303.36	845.81
303.59	874.81
303.82	863.81
304.051	886.81
304.281	867.81
304.511	907.81
304.741	947.81
304.971	1047.81
305.201	1057.81
305.431	977.81
305.661	815.81
305.891	730.81
306.121	773.81
306.352	821.81
306.582	853.81
306.812	921.81
307.042	955.81
307.272	968.81
307.502	1015.81
307.731	1091.81
307.961	1078.81
308.191	1036.81
308.421	878.81
308.651	847.81
308.881	853.81
309.111	847.81
309.341	825.81
309.571	806.81
309.8	823.81
310.03	804.81
310.26	828.81
310.49	833.81
310.72	877.81
310.949	895.81
311.179	907.81
311.409	885.81
311.639	861.81
311.868	853.81
312.098	850.81
312.328	841.81
312.557	854.81
312.787	855.81
313.017	879.81
313.246	889.81
313.476	878.81
313.706	914.81
313.935	904.81
314.165	902.81
314.394	949.81
314.624	973.81
314.853	1032.81
315.083	1071.81
315.312	1061.81
315.542	1005.81
315.771	936.81
316.001	931.81
316.23	992.81
316.46	960.81
316.689	946.81
316.919	896.81
317.148	882.81
317.377	895.81
317.607	1001.81
317.836	1101.81
318.065	1087.81
318.295	1029.81
318.524	989.81
318.753	947.81
318.983	947.81
319.212	954.81
319.441	914.81
319.67	901.81
319.9	939.81
320.129	987.81
320.358	1050.81
320.587	1073.81
320.816	1049.81
321.046	1027.81
321.275	967.81
321.504	992.81
321.733	1038.81
321.962	1000.81
322.191	947.81
322.42	966.81
322.649	939.81
322.878	937.81
323.108	925.81
323.337	976.81
323.566	974.81
323.795	977.81
324.024	970.81
324.253	967.81
324.482	978.81
324.71	895.81
324.939	907.81
325.168	919.81
325.397	954.81
325.626	970.81
325.855	986.81
326.084	963.81
326.313	966.81
326.542	962.81
326.77	985.81
326.999	980.81
327.228	929.81
327.457	885.81
327.686	893.81
327.914	897.81
328.143	952.81
328.372	965.81
328.6	951.81
328.829	943.81
329.058	911.81
329.287	917.81
329.515	940.81
329.744	977.81
329.972	1013.81
330.201	1049.81
330.43	1031.81
330.658	989.81
330.887	982.81
331.115	1005.81
331.344	991.81
331.572	1001.81
331.801	957.81
332.03	975.81
332.258	1003.81
332.486	998.81
332.715	1029.81
332.943	1021.81
333.172	1027.81
333.4	1017.81
333.629	1064.81
333.857	1116.81
334.085	1244.81
334.314	1373.81
334.542	1434.81
334.771	1311.81
334.999	1149.81
335.227	1098.81
335.455	1063.81
335.684	1074.81
335.912	1103.81
336.14	1075.81
336.369	1065.81
336.597	1016.81
336.825	984.81
337.053	1049.81
337.281	1118.81
337.51	1155.81
337.738	1174.81
337.966	1120.81
338.194	1027.81
338.422	999.81
338.65	1014.81
338.878	977.81
339.106	972.81
339.334	940.81
339.562	969.81
339.79	999.81
340.018	1063.81
340.246	1074.81
340.474	1047.81
340.702	1038.81
340.93	1053.81
341.158	1036.81
341.386	1014.81
341.614	989.81
341.842	982.81
342.07	972.81
342.298	986.81
342.526	989.81
342.754	993.81
342.981	977.81
343.209	992.81
343.437	981.81
343.665	996.81
343.893	1050.81
344.12	1069.81
344.348	1062.81
344.576	1012.81
344.804	1002.81
345.031	1035.81
345.259	989.81
345.487	951.81
345.714	913.81
345.942	907.81
346.17	905.81
346.397	965.81
346.625	963.81
346.853	913.81
347.08	882.81
347.308	926.81
347.535	920.81
347.763	962.81
347.99	917.81
348.218	903.81
348.445	931.81
348.673	949.81
348.9	975.81
349.128	975.81
349.355	1013.81
349.583	990.81
349.81	913.81
350.037	885.81
350.265	899.81
350.492	891.81
350.72	905.81
350.947	956.81
351.174	957.81
351.402	894.81
351.629	880.81
351.856	862.81
352.083	863.81
352.311	866.81
352.538	940.81
352.765	948.81
352.992	980.81
353.22	929.81
353.447	927.81
353.674	923.81
353.901	927.81
354.128	914.81
354.355	905.81
354.583	963.81
354.81	960.81
355.037	983.81
355.264	976.81
355.491	951.81
355.718	937.81
355.945	931.81
356.172	929.81
356.399	884.81
356.626	897.81
356.853	960.81
357.08	1035.81
357.307	1125.81
357.534	1080.81
357.761	945.81
357.988	910.81
358.215	865.81
358.441	870.81
358.668	893.81
358.895	924.81
359.122	981.81
359.349	1069.81
359.576	993.81
359.802	938.81
360.029	909.81
360.256	901.81
360.483	937.81
360.709	931.81
360.936	974.81
361.163	1006.81
361.39	1117.81
361.616	1181.81
361.843	1141.81
362.07	1055.81
362.296	919.81
362.523	913.81
362.749	939.81
362.976	945.81
363.203	954.81
363.429	916.81
363.656	931.81
363.882	961.81
364.109	1052.81
364.335	1092.81
364.562	1034.81
364.788	966.81
365.015	958.81
365.241	934.81
365.468	950.81
365.694	961.81
365.92	997.81
366.147	968.81
366.373	932.81
366.599	882.81
366.826	897.81
367.052	910.81
367.278	928.81
367.505	947.81
367.731	968.81
367.957	966.81
368.184	986.81
368.41	1082.81
368.636	1109.81
368.862	1098.81
369.089	1050.81
369.315	1016.81
369.541	959.81
369.767	940.81
369.993	942.81
370.219	926.81
370.445	971.81
370.672	1029.81
370.898	1067.81
371.124	1059.81
371.35	1002.81
371.576	1025.81
371.802	1078.81
372.028	1023.81
372.254	989.81
372.48	931.81
372.706	946.81
372.932	940.81
373.158	976.81
373.384	986.81
373.61	1068.81
373.835	1056.81
374.061	1010.81
374.287	986.81
374.513	995.81
374.739	1007.81
374.965	997.81
375.191	1022.81
375.416	1006.81
375.642	1052.81
375.868	1104.81
376.094	1112.81
376.319	1053.81
376.545	1026.81
376.771	1026.81
376.997	1083.81
377.222	1081.81
377.448	1045.81
377.674	1049.81
377.899	1074.81
378.125	1123.81
378.35	1112.81
378.576	1019.81
378.802	992.81
379.027	954.81
379.253	1000.81
379.478	964.81
379.704	961.81
379.929	991.81
380.155	1022.81
380.38	1000.81
380.606	1022.81
380.831	1007.81
381.057	1132.81
381.282	1075.81
381.507	1059.81
381.733	1132.81
381.958	1111.81
382.184	1030.81
382.409	1055.81
382.634	1066.81
382.86	1059.81
383.085	1053.81
383.31	1114.81
383.535	1191.81
383.761	1254.81
383.986	1181.81
384.211	1117.81
384.436	1151.81
384.662	1179.81
384.887	1213.81
385.112	1134.81
385.337	1144.81
385.562	1130.81
385.787	1141.81
386.013	1207.81
386.238	1143.81
386.463	1173.81
386.688	1303.81
386.913	1338.81
387.138	1269.81
387.363	1227.81
387.588	1199.81
387.813	1169.81
388.038	1171.81
388.263	1221.81
388.488	1191.81
388.713	1059.81
388.938	1082.81
389.163	1098.81
389.387	1134.81
389.612	1107.81
389.837	1156.81
390.062	1167.81
390.287	1145.81
390.512	1167.81
390.736	1138.81
390.961	1099.81
391.186	1095.81
391.411	1116.81
391.636	1126.81
391.86	1141.81
392.085	1139.81
392.31	1126.81
392.534	1129.81
392.759	1162.81
392.984	1159.81
393.208	1143.81
393.433	1218.81
393.658	1247.81
393.882	1236.81
394.107	1150.81
394.331	1139.81
394.556	1129.81
394.78	1190.81
395.005	1197.81
395.229	1231.81
395.454	1312.81
395.678	1304.81
395.903	1269.81
396.127	1202.81
396.352	1212.81
396.576	1279.81
396.801	1274.81
397.025	1259.81
397.249	1248.81
397.474	1232.81
397.698	1232.81
397.922	1265.81
398.147	1338.81
398.371	1380.81
398.595	1346.81
398.82	1310.81
399.044	1337.81
399.268	1373.81
399.492	1451.81
399.717	1473.81
399.941	1529.81
400.165	1468.81
400.389	1450.81
400.613	1476.81
400.837	1657.81
401.062	1853.81
401.286	1513.81
401.51	1455.81
401.734	1527.81
401.958	1417.81
402.182	1318.81
402.406	1300.81
402.63	1275.81
402.854	1329.81
403.078	1325.81
403.302	1334.81
403.526	1329.81
403.75	1368.81
403.974	1344.81
404.198	1346.81
404.422	1447.81
404.645	1501.81
404.869	1425.81
405.093	1326.81
405.317	1318.81
405.541	1350.81
405.765	1386.81
405.988	1363.81
406.212	1413.81
406.436	1386.81
406.66	1484.81
406.883	1502.81
407.107	1712.81
407.331	1797.81
407.555	1936.81
407.778	1691.81
408.002	1484.81
408.226	1408.81
408.449	1411.81
408.673	1410.81
408.896	1402.81
409.12	1425.81
409.344	1383.81
409.567	1317.81
409.791	1368.81
410.014	1418.81
410.238	1492.81
410.461	1536.81
410.685	1405.81
410.908	1297.81
411.132	1374.81
411.355	1344.81
411.578	1341.81
411.802	1344.81
412.025	1350.81
412.249	1331.81
412.472	1303.81
412.695	1336.81
412.919	1303.81
413.142	1319.81
413.365	1331.81
413.589	1367.81
413.812	1437.81
414.035	1445.81
414.258	1344.81
414.482	1346.81
414.705	1329.81
414.928	1322.81
415.151	1333.81
415.374	1333.81
415.597	1361.81
415.821	1342.81
416.044	1367.81
416.267	1343.81
416.49	1281.81
416.713	1265.81
416.936	1290.81
417.159	1379.81
417.382	1393.81
417.605	1305.81
417.828	1357.81
418.051	1368.81
418.274	1305.81
418.497	1307.81
418.72	1302.81
418.943	1285.81
419.166	1357.81
419.389	1371.81
419.611	1344.81
419.834	1315.81
420.057	1304.81
420.28	1259.81
420.503	1334.81
420.726	1370.81
420.948	1338.81
421.171	1274.81
421.394	1292.81
421.617	1372.81
421.839	1390.81
422.062	1347.81
422.285	1285.81
422.507	1316.81
422.73	1235.81
422.953	1252.81
423.175	1249.81
423.398	1278.81
423.621	1295.81
423.843	1309.81
424.066	1321.81
424.288	1431.81
424.511	1436.81
424.733	1376.81
424.956	1253.81
425.178	1247.81
425.401	1280.81
425.623	1274.81
425.846	1269.81
426.068	1368.81
426.291	1375.81
426.513	1375.81
426.735	1362.81
426.958	1460.81
427.18	1510.81
427.402	1391.81
427.625	1421.81
427.847	1394.81
428.069	1308.81
428.292	1266.81
428.514	1225.81
428.736	1243.81
428.958	1238.81
429.181	1290.81
429.403	1487.81
429.625	1800.81
429.847	1471.81
430.069	1333.81
430.292	1468.81
430.514	1470.81
430.736	1394.81
430.958	1397.81
431.18	1317.81
431.402	1199.81
431.624	1209.81
431.846	1179.81
432.068	1145.81
432.29	1129.81
432.512	1200.81
432.734	1240.81
432.956	1297.81
433.178	1326.81
433.4	1366.81
433.622	1322.81
433.844	1255.81
434.066	1245.81
434.287	1204.81
434.509	1199.81
434.731	1304.81
434.953	1412.81
435.175	1306.81
435.397	1312.81
435.618	1303.81
435.84	1265.81
436.062	1236.81
436.284	1289.81
436.505	1328.81
436.727	1328.81
436.949	1289.81
437.17	1248.81
437.392	1226.81
437.614	1197.81
437.835	1175.81
438.057	1229.81
438.278	1235.81
438.5	1236.81
438.721	1254.81
438.943	1265.81
439.165	1234.81
439.386	1239.81
439.608	1245.81
439.829	1277.81
440.05	1229.81
440.272	1265.81
440.493	1267.81
440.715	1277.81
440.936	1389.81
441.158	1442.81
441.379	1399.81
441.6	1410.81
441.822	1342.81
442.043	1343.81
442.264	1332.81
442.486	1272.81
442.707	1273.81
442.928	1272.81
443.149	1282.81
443.371	1403.81
443.592	1425.81
443.813	1394.81
444.034	1377.81
444.255	1366.81
444.476	1386.81
444.698	1416.81
444.919	1411.81
445.14	1523.81
445.361	1453.81
445.582	1478.81
445.803	1415.81
446.024	1371.81
446.245	1442.81
446.466	1384.81
446.687	1348.81
446.908	1376.81
447.129	1317.81
447.35	1355.81
447.571	1301.81
447.792	1273.81
448.013	1267.81
448.234	1302.81
448.455	1308.81
448.675	1338.81
448.896	1211.81
449.117	1205.81
449.338	1223.81
449.559	1277.81
449.779	1343.81
450	1449.81
450.221	1462.81
450.442	1441.81
450.662	1305.81
450.883	1221.81
451.104	1204.81
451.324	1219.81
451.545	1231.81
451.766	1177.81
451.986	1173.81
452.207	1152.81
452.428	1119.81
452.648	1071.81
452.869	1127.81
453.089	1163.81
453.31	1168.81
453.53	1157.81
453.751	1106.81
453.971	1077.81
454.192	1100.81
454.412	1154.81
454.633	1153.81
454.853	1137.81
455.073	1061.81
455.294	1087.81
455.514	1086.81
455.734	1107.81
455.955	1089.81
456.175	1053.81
456.395	1059.81
456.616	1125.81
456.836	1105.81
457.056	1097.81
457.276	1102.81
457.497	1062.81
457.717	1059.81
457.937	1070.81
458.157	1085.81
458.377	1050.81
458.598	1041.81
458.818	1078.81
459.038	1135.81
459.258	1193.81
459.478	1146.81
459.698	1095.81
459.918	1161.81
460.138	1215.81
460.358	1257.81
460.578	1236.81
460.798	1317.81
461.018	1396.81
461.238	1291.81
461.458	1261.81
461.678	1282.81
461.898	1201.81
462.118	1218.81
462.338	1301.81
462.558	1247.81
462.777	1263.81
462.997	1347.81
463.217	1375.81
463.437	1352.81
463.657	1243.81
463.876	1251.81
464.096	1276.81
464.316	1294.81
464.536	1306.81
464.755	1305.81
464.975	1331.81
465.195	1277.81
465.414	1310.81
465.634	1314.81
465.854	1297.81
466.073	1451.81
466.293	1344.81
466.512	1234.81
466.732	1239.81
466.951	1275.81
467.171	1261.81
467.391	1189.81
467.61	1174.81
467.829	1243.81
468.049	1354.81
468.268	1469.81
468.488	1349.81
468.707	1277.81
468.927	1213.81
469.146	1203.81
469.365	1242.81
469.585	1239.81
469.804	1234.81
470.023	1244.81
470.243	1261.81
470.462	1250.81
470.681	1224.81
470.901	1238.81
471.12	1207.81
471.339	1251.81
471.558	1249.81
471.777	1177.81
471.997	1239.81
472.216	1206.81
472.435	1095.81
472.654	1145.81
472.873	1179.81
473.092	1224.81
473.311	1205.81
473.53	1157.81
473.749	1189.81
473.968	1190.81
474.187	1214.81
474.406	1259.81
474.625	1197.81
474.844	1234.81
475.063	1265.81
475.282	1239.81
475.501	1223.81
475.72	1240.81
475.939	1325.81
476.158	1277.81
476.377	1211.81
476.596	1209.81
476.814	1221.81
477.033	1234.81
477.252	1273.81
477.471	1329.81
477.69	1299.81
477.908	1311.81
478.127	1356.81
478.346	1425.81
478.564	1435.81
478.783	1412.81
479.002	1437.81
479.22	1434.81
479.439	1486.81
479.658	1620.81
479.876	1521.81
480.095	1398.81
480.313	1380.81
480.532	1333.81
480.751	1356.81
480.969	1281.81
481.188	1310.81
481.406	1258.81
481.624	1221.81
481.843	1318.81
482.061	1279.81
482.28	1342.81
482.498	1374.81
482.717	1343.81
482.935	1319.81
483.153	1387.81
483.372	1401.81
483.59	1381.81
483.808	1363.81
484.027	1362.81
484.245	1437.81
484.463	1773.81
484.681	1916.81
484.9	1466.81
485.118	1355.81
485.336	1343.81
485.554	1375.81
485.772	1422.81
485.99	1345.81
486.209	1382.81
486.427	1407.81
486.645	1417.81
486.863	1413.81
487.081	1486.81
487.299	1490.81
487.517	1447.81
487.735	1472.81
487.953	1486.81
488.171	1531.81
488.389	1495.81
488.607	1458.81
488.825	1611.81
489.043	1571.81
489.261	1431.81
489.479	1505.81
489.696	1474.81
489.914	1485.81
490.132	1406.81
490.35	1467.81
490.568	1531.81
490.786	1493.81
491.003	1481.81
491.221	1568.81
491.439	1592.81
491.657	1610.81
491.874	1681.81
492.092	1691.81
492.31	1679.81
492.527	1666.81
492.745	1656.81
492.963	1603.81
493.18	1627.81
493.398	1727.81
493.615	1748.81
493.833	1613.81
494.05	1575.81
494.268	1568.81
494.485	1594.81
494.703	1584.81
494.92	1565.81
495.138	1551.81
495.355	1576.81
495.573	1637.81
495.79	1682.81
496.008	1729.81
496.225	1598.81
496.442	1590.81
496.66	1634.81
496.877	1601.81
497.094	1607.81
497.312	1616.81
497.529	1640.81
497.746	1650.81
497.963	1893.81
498.181	1997.81
498.398	1914.81
498.615	1843.81
498.832	1780.81
499.049	1775.81
499.267	1802.81
499.484	1886.81
499.701	2033.81
499.918	2073.81
500.135	2215.81
500.352	2323.81
500.569	2333.81
500.786	2530.81
501.003	2319.81
501.22	2143.81
501.437	2102.81
501.654	2125.81
501.871	2021.81
502.088	1806.81
502.305	1795.81
502.522	1722.81
502.739	1608.81
502.956	1565.81
503.172	1585.81
503.389	1523.81
503.606	1485.81
503.823	1495.81
504.04	1528.81
504.256	1513.81
504.473	1515.81
504.69	1520.81
504.907	1461.81
505.123	1408.81
505.34	1553.81
505.557	2038.81
505.773	1661.81
505.99	1418.81
506.207	1344.81
506.423	1264.81
506.64	1300.81
506.856	1311.81
507.073	1542.81
507.289	1625.81
507.506	1515.81
507.722	1300.81
507.939	1263.81
508.155	1256.81
508.372	1261.81
508.588	1213.81
508.805	1231.81
509.021	1185.81
509.238	1172.81
509.454	1171.81
509.67	1183.81
509.887	1148.81
510.103	1120.81
510.319	1185.81
510.536	1217.81
510.752	1226.81
510.968	1231.81
511.184	1264.81
511.401	1248.81
511.617	1127.81
511.833	1136.81
512.049	1103.81
512.265	1115.81
512.481	1133.81
512.698	1146.81
512.914	1240.81
513.13	1188.81
513.346	1139.81
513.562	1095.81
513.778	1126.81
513.994	1192.81
514.21	1182.81
514.426	1237.81
514.642	1318.81
514.858	1241.81
515.074	1134.81
515.29	1099.81
515.506	1137.81
515.721	1161.81
515.937	1210.81
516.153	1309.81
516.369	1239.81
516.585	1219.81
516.801	1139.81
517.016	1167.81
517.232	1214.81
517.448	1231.81
517.664	1228.81
517.879	1261.81
518.095	1277.81
518.311	1225.81
518.527	1209.81
518.742	1158.81
518.958	1149.81
519.173	1149.81
519.389	1181.81
519.605	1207.81
519.82	1203.81
520.036	1190.81
520.251	1163.81
520.467	1190.81
520.682	1284.81
520.898	1235.81
521.113	1133.81
521.329	1125.81
521.544	1209.81
521.76	1155.81
521.975	1095.81
522.19	1101.81
522.406	1107.81
522.621	1375.81
522.836	1344.81
523.052	1113.81
523.267	1136.81
523.482	1127.81
523.698	1049.81
523.913	1048.81
524.128	1094.81
524.343	1141.81
524.559	1158.81
524.774	1122.81
524.989	1098.81
525.204	1087.81
525.419	1065.81
525.634	1065.81
525.849	1090.81
526.064	1064.81
526.28	1106.81
526.495	1037.81
526.71	1048.81
526.925	984.81
527.14	993.81
527.355	980.81
527.57	999.81
527.785	1049.81
527.999	978.81
528.214	993.81
528.429	1016.81
528.644	1029.81
528.859	1036.81
529.074	1051.81
529.289	1107.81
529.503	1115.81
529.718	1081.81
529.933	1032.81
530.148	983.81
530.363	970.81
530.577	974.81
530.792	1000.81
531.007	990.81
531.221	970.81
531.436	1008.81
531.651	1023.81
531.865	1073.81
532.08	1031.81
532.295	985.81
532.509	933.81
532.724	946.81
532.938	1035.81
533.153	1071.81
533.367	1070.81
533.582	1057.81
533.796	1015.81
534.011	1013.81
534.225	1001.81
534.44	965.81
534.654	976.81
534.868	997.81
535.083	1033.81
535.297	1063.81
535.511	1031.81
535.726	1023.81
535.94	1025.81
536.154	980.81
536.369	949.81
536.583	953.81
536.797	911.81
537.011	975.81
537.225	937.81
537.44	933.81
537.654	944.81
537.868	943.81
538.082	913.81
538.296	905.81
538.51	950.81
538.724	950.81
538.938	973.81
539.153	1026.81
539.367	988.81
539.581	959.81
539.795	1030.81
540.009	966.81
540.222	946.81
540.436	991.81
540.65	1078.81
540.864	1093.81
541.078	1081.81
541.292	1083.81
541.506	1111.81
541.72	1133.81
541.934	1140.81
542.147	1176.81
542.361	1150.81
542.575	1085.81
542.789	1033.81
543.002	942.81
543.216	977.81
543.43	1056.81
543.644	1097.81
543.857	1128.81
544.071	1109.81
544.285	1140.81
544.498	1091.81
544.712	1096.81
544.925	1099.81
545.139	1112.81
545.352	1069.81
545.566	1096.81
545.779	1069.81
545.993	1128.81
546.206	1088.81
546.42	1072.81
546.633	1052.81
546.847	1059.81
547.06	1082.81
547.274	1078.81
547.487	1095.81
547.7	1121.81
547.914	1105.81
548.127	1106.81
548.34	1070.81
548.554	1081.81
548.767	1089.81
548.98	1073.81
549.193	1072.81
549.407	1141.81
549.62	1125.81
549.833	1077.81
550.046	1048.81
550.259	1063.81
550.473	1035.81
550.686	996.81
550.899	1000.81
551.112	993.81
551.325	970.81
551.538	1028.81
551.751	1130.81
551.964	954.81
552.177	957.81
552.39	963.81
552.603	1019.81
552.816	1028.81
553.029	1081.81
553.242	1138.81
553.455	1068.81
553.667	1081.81
553.88	1065.81
554.093	1031.81
554.306	996.81
554.519	991.81
554.732	971.81
554.944	942.81
555.157	978.81
555.37	956.81
555.583	951.81
555.795	944.81
556.008	917.81
556.221	858.81
556.433	855.81
556.646	854.81
556.859	853.81
557.071	874.81
557.284	900.81
557.496	882.81
557.709	885.81
557.921	895.81
558.134	850.81
558.346	857.81
558.559	866.81
558.771	837.81
558.984	834.81
559.196	829.81
559.409	815.81
559.621	824.81
559.833	801.81
560.046	847.81
560.258	830.81
560.47	839.81
560.683	824.81
560.895	837.81
561.107	830.81
561.32	831.81
561.532	849.81
561.744	848.81
561.956	833.81
562.168	817.81
562.381	802.81
562.593	794.81
562.805	774.81
563.017	791.81
563.229	817.81
563.441	817.81
563.653	784.81
563.865	759.81
564.077	803.81
564.289	778.81
564.501	783.81
564.713	829.81
564.925	837.81
565.137	886.81
565.349	815.81
565.561	826.81
565.773	826.81
565.985	838.81
566.197	879.81
566.408	914.81
566.62	892.81
566.832	892.81
567.044	896.81
567.255	890.81
567.467	921.81
567.679	914.81
567.891	925.81
568.102	889.81
568.314	872.81
568.526	826.81
568.737	789.81
568.949	756.81
569.161	726.81
569.372	690.81
569.584	675.81
569.795	691.81
570.007	687.81
570.218	657.81
570.43	647.81
570.641	668.81
570.853	695.81
571.064	682.81
571.276	670.81
571.487	666.81
571.698	618.81
571.91	637.81
572.121	643.81
572.333	611.81
572.544	610.81
572.755	584.81
572.966	598.81
573.178	594.81
573.389	582.81
573.6	607.81
573.811	639.81
574.023	602.81
574.234	581.81
574.445	578.81
574.656	571.81
574.867	546.81
575.078	561.81
575.289	605.81
575.501	567.81
575.712	540.81
575.923	545.81
576.134	554.81
576.345	548.81
576.556	544.81
576.767	538.81
576.978	533.81
577.188	525.81
577.399	532.81
577.61	533.81
577.821	515.81
578.032	538.81
578.243	505.81
578.454	496.81
578.665	518.81
578.875	513.81
579.086	521.81
579.297	498.81
579.508	520.81
579.718	540.81
579.929	499.81
580.14	491.81
580.35	486.81
580.561	525.81
580.772	554.81
580.982	519.81
581.193	484.81
581.403	482.81
581.614	493.81
581.825	489.81
582.035	481.81
582.246	482.81
582.456	493.81
582.667	497.81
582.877	478.81
583.087	495.81
583.298	461.81
583.508	481.81
583.719	475.81
583.929	485.81
584.139	473.81
584.35	459.81
584.56	483.81
584.77	473.81
584.981	475.81
585.191	488.81
585.401	486.81
585.611	487.81
585.821	462.81
586.032	465.81
586.242	439.81
586.452	446.81
586.662	454.81
586.872	441.81
587.082	473.81
587.292	475.81
587.502	460.81
587.713	473.81
587.923	451.81
588.133	459.81
588.343	480.81
588.553	451.81
588.762	454.81
588.972	444.81
589.182	461.81
589.392	465.81
589.602	454.81
589.812	444.81
590.022	431.81
590.232	422.81
590.441	462.81
590.651	483.81
590.861	456.81
591.071	433.81
591.281	435.81
591.49	446.81
591.7	456.81
591.91	464.81
592.119	467.81
592.329	445.81
592.539	477.81
592.748	467.81
592.958	432.81
593.167	469.81
593.377	458.81
593.587	474.81
593.796	476.81
594.006	466.81
594.215	478.81
594.424	475.81
594.634	470.81
594.843	465.81
595.053	461.81
595.262	467.81
595.472	432.81
595.681	459.81
595.89	439.81
596.1	446.81
596.309	435.81
596.518	438.81
596.727	446.81
596.937	410.81
597.146	427.81
597.355	433.81
597.564	433.81
597.774	410.81
597.983	397.81
598.192	394.81
598.401	399.81
598.61	392.81
598.819	391.81
599.028	402.81
599.237	424.81
599.446	404.81
599.655	377.81
599.864	397.81
600.073	361.81
600.282	409.81
600.491	379.81
600.7	381.81
600.909	393.81
601.118	404.81
601.327	395.81
601.536	420.81
601.745	433.81
601.953	410.81
602.162	418.81
602.371	426.81
602.58	422.81
602.789	403.81
602.997	406.81
603.206	423.81
603.415	394.81
603.623	420.81
603.832	399.81
604.041	399.81
604.249	404.81
604.458	387.81
604.666	381.81
604.875	383.81
605.084	398.81
605.292	406.81
605.501	414.81
605.709	403.81
605.918	410.81
606.126	412.81
606.334	398.81
606.543	396.81
606.751	415.81
606.96	405.81
607.168	397.81
607.376	389.81
607.585	395.81
607.793	386.81
608.001	405.81
608.21	431.81
608.418	394.81
608.626	413.81
608.834	389.81
609.043	400.81
609.251	388.81
609.459	396.81
609.667	416.81
609.875	404.81
610.083	405.81
610.291	417.81
610.499	439.81
610.707	417.81
610.916	399.81
611.124	411.81
611.332	384.81
611.54	399.81
611.748	399.81
611.955	399.81
612.163	390.81
612.371	382.81
612.579	410.81
612.787	395.81
612.995	403.81
613.203	380.81
613.411	401.81
613.618	391.81
613.826	389.81
614.034	381.81
614.242	373.81
614.449	383.81
614.657	413.81
614.865	382.81
615.072	387.81
615.28	367.81
615.488	392.81
615.695	410.81
615.903	409.81
616.111	372.81
616.318	393.81
616.526	394.81
616.733	398.81
616.941	380.81
617.148	387.81
617.356	384.81
617.563	374.81
617.771	376.81
617.978	357.81
618.185	367.81
618.393	377.81
618.6	369.81
618.807	365.81
619.015	379.81
619.222	376.81
619.429	375.81
619.637	361.81
619.844	357.81
620.051	349.81
620.258	365.81
620.466	349.81
620.673	363.81
620.88	349.81
621.087	348.81
621.294	330.81
621.501	337.81
621.708	339.81
621.915	356.81
622.122	353.81
622.329	355.81
622.536	352.81
622.743	361.81
622.95	337.81
623.157	355.81
623.364	326.81
623.571	348.81
623.778	370.81
623.985	352.81
624.192	341.81
624.399	327.81
624.606	349.81
624.812	339.81
625.019	314.81
625.226	326.81
625.433	349.81
625.639	316.81
625.846	325.81
626.053	309.81
626.259	301.81
626.466	282.81
626.673	296.81
626.879	295.81
627.086	301.81
627.293	313.81
627.499	323.81
627.706	337.81
627.912	306.81
628.119	341.81
628.325	322.81
628.532	323.81
628.738	327.81
628.945	334.81
629.151	309.81
629.357	308.81
629.564	321.81
629.77	318.81
629.976	297.81
630.183	297.81
630.389	297.81
630.595	320.81
630.802	311.81
631.008	297.81
631.214	288.81
631.42	298.81
631.627	291.81
631.833	278.81
632.039	287.81
632.245	288.81
632.451	272.81
632.657	265.81
632.863	280.81
633.069	292.81
633.275	279.81
633.481	297.81
633.688	280.81
633.893	286.81
634.099	305.81
634.305	282.81
634.511	288.81
634.717	274.81
634.923	250.81
635.129	253.81
635.335	285.81
635.541	267.81
635.747	284.81
635.952	276.81
636.158	276.81
636.364	289.81
636.57	272.81
636.775	283.81
636.981	281.81
637.187	281.81
637.392	268.81
637.598	287.81
637.804	282.81
638.009	270.81
638.215	268.81
638.421	273.81
638.626	274.81
638.832	275.81
639.037	256.81
639.243	271.81
639.448	263.81
639.654	258.81
639.859	272.81
640.065	270.81
640.27	258.81
640.475	259.81
640.681	270.81
640.886	266.81
641.091	261.81
641.297	278.81
641.502	279.81
641.707	256.81
641.913	275.81
642.118	277.81
642.323	261.81
642.528	263.81
642.733	258.81
642.939	250.81
643.144	261.81
643.349	267.81
643.554	242.81
643.759	271.81
643.964	253.81
644.169	243.81
644.374	234.81
644.579	263.81
644.784	271.81
644.989	276.81
645.194	279.81
645.399	258.81
645.604	255.81
645.809	252.81
646.014	255.81
646.219	255.81
646.423	254.81
646.628	267.81
646.833	267.81
647.038	239.81
647.243	269.81
647.447	244.81
647.652	259.81
647.857	247.81
648.062	245.81
648.266	270.81
648.471	269.81
648.676	279.81
648.88	257.81
649.085	248.81
649.289	261.81
649.494	244.81
649.698	258.81
649.903	254.81
650.107	254.81
650.312	264.81
650.516	248.81
650.721	241.81
650.925	215.81
651.13	249.81
651.334	243.81
651.539	231.81
651.743	233.81
651.947	233.81
652.152	229.81
652.356	215.81
652.56	232.81
652.764	232.81
652.969	221.81
653.173	217.81
653.377	204.81
653.581	221.81
653.785	225.81
653.99	225.81
654.194	207.81
654.398	217.81
654.602	219.81
654.806	213.81
655.01	219.81
655.214	217.81
655.418	224.81
655.622	203.81
655.826	232.81
656.03	243.81
656.234	242.81
656.438	261.81
656.642	254.81
656.846	259.81
657.049	229.81
657.253	226.81
657.457	193.81
657.661	191.81
657.865	181.81
658.068	173.81
658.272	183.81
658.476	179.81
658.68	148.81
658.883	157.81
659.087	157.81
659.291	152.81
659.494	149.81
659.698	136.81
659.901	144.81
660.105	132.81
660.309	139.81
660.512	135.81
660.716	127.81
660.919	121.81
661.123	120.81
661.326	118.81
661.53	113.81
661.733	117.81
661.936	95.81
662.14	98.81
662.343	107.81
662.546	94.81
662.75	102.81
662.953	87.81
663.156	79.81
663.36	85.81
663.563	80.81
663.766	76.81
663.969	80.81
664.173	93.81
664.376	89.81
664.579	90.81
664.782	80.81
664.985	89.81
665.188	89.81
665.391	93.81
665.594	78.81
665.797	64.81
666	78.81
666.203	78.81
666.406	82.81
666.609	80.81
666.812	69.81
667.015	73.81
667.218	69.81
667.421	80.81
667.624	80.81
667.827	70.81
668.03	63.81
668.232	88.81
668.435	73.81
668.638	73.81
668.841	80.81
669.043	82.81
669.246	95.81
669.449	73.81
669.651	86.81
669.854	79.81
670.057	70.81
670.259	60.81
670.462	75.81
670.665	86.81
670.867	76.81
671.07	94.81
671.272	102.81
671.475	93.81
671.677	72.81
671.88	79.81
672.082	86.81
672.284	80.81
672.487	85.81
672.689	81.81
672.892	76.81
