Data from WStandard_LampEnergy5.5LIBS07252019.E.O._I.C._HRD10591_16-07-30-919.txt Node
Date: Thu Jul 25 16:07:30 EDT 2019
User: cochatt
Spectrometer: HR+D1059
Trigger mode: 1
Integration Time (sec): 1.000000E-1
Scans to average: 1
Electric dark correction enabled: true
Nonlinearity correction enabled: false
Boxcar width: 0
XAxis mode: Wavelengths
Number of Pixels in Spectrum: 2048
>>>>>Begin Spectral Data<<<<<
223.165	-11.31
223.4	-11.31
223.635	-11.31
223.869	-18.31
224.104	-19.31
224.338	-15.31
224.573	-11.31
224.808	-11.31
225.042	-7.31
225.277	-13.31
225.511	-13.31
225.746	5.69
225.98	10.69
226.215	16.69
226.449	18.69
226.683	14.69
226.918	21.69
227.152	32.69
227.387	36.69
227.621	36.69
227.856	43.69
228.09	56.69
228.324	55.69
228.559	62.69
228.793	149.69
229.027	386.69
229.262	389.69
229.496	378.69
229.73	394.69
229.964	452.69
230.199	479.69
230.433	478.69
230.667	515.69
230.901	552.69
231.136	499.69
231.37	473.69
231.604	460.69
231.838	497.69
232.072	491.69
232.306	457.69
232.541	480.69
232.775	575.69
233.009	590.69
233.243	609.69
233.477	546.69
233.711	577.69
233.945	608.69
234.179	568.69
234.413	589.69
234.647	666.69
234.881	601.69
235.115	565.69
235.349	564.69
235.583	587.69
235.817	599.69
236.051	548.69
236.285	575.69
236.519	612.69
236.753	686.69
236.987	751.69
237.221	687.69
237.455	799.69
237.689	735.69
237.922	727.69
238.156	680.69
238.39	681.69
238.624	744.69
238.858	774.69
239.091	809.69
239.325	839.69
239.559	950.69
239.793	989.69
240.027	1081.69
240.26	1092.69
240.494	782.69
240.728	746.69
240.961	748.69
241.195	738.69
241.429	843.69
241.662	840.69
241.896	785.69
242.13	794.69
242.363	888.69
242.597	923.69
242.83	902.69
243.064	902.69
243.298	980.69
243.531	953.69
243.765	954.69
243.998	994.69
244.232	840.69
244.465	804.69
244.699	811.69
244.932	923.69
245.166	1104.69
245.399	1034.69
245.633	947.69
245.866	954.69
246.099	983.69
246.333	972.69
246.566	998.69
246.8	1090.69
247.033	1218.69
247.266	1114.69
247.5	1074.69
247.733	1080.69
247.966	1141.69
248.2	1287.69
248.433	1218.69
248.666	1247.69
248.899	1375.69
249.133	1568.69
249.366	1830.69
249.599	1476.69
249.832	1287.69
250.066	1343.69
250.299	1341.69
250.532	1252.69
250.765	1127.69
250.998	1184.69
251.231	1268.69
251.465	1259.69
251.698	1236.69
251.931	1209.69
252.164	1234.69
252.397	1298.69
252.63	1287.69
252.863	1151.69
253.096	1113.69
253.329	1196.69
253.562	1245.69
253.795	1307.69
254.028	1305.69
254.261	1220.69
254.494	1197.69
254.727	1110.69
254.96	1174.69
255.193	1316.69
255.426	1450.69
255.659	1702.69
255.892	1742.69
256.124	1439.69
256.357	1398.69
256.59	1495.69
256.823	1489.69
257.056	1486.69
257.289	1734.69
257.521	1931.69
257.754	1783.69
257.987	1647.69
258.22	1855.69
258.452	1787.69
258.685	1473.69
258.918	1421.69
259.151	1427.69
259.383	1355.69
259.616	1223.69
259.849	1306.69
260.081	1426.69
260.314	1622.69
260.547	1759.69
260.779	1798.69
261.012	1655.69
261.244	1507.69
261.477	1395.69
261.71	1480.69
261.942	1460.69
262.175	1379.69
262.407	1493.69
262.64	1416.69
262.872	1358.69
263.105	1297.69
263.337	1304.69
263.57	1304.69
263.802	1358.69
264.035	1274.69
264.267	1205.69
264.499	1186.69
264.732	1262.69
264.964	1338.69
265.197	1340.69
265.429	1442.69
265.661	1626.69
265.894	1779.69
266.126	1861.69
266.358	1654.69
266.591	1707.69
266.823	1883.69
267.055	1680.69
267.287	1656.69
267.52	1639.69
267.752	1630.69
267.984	1643.69
268.216	1649.69
268.448	1749.69
268.681	1719.69
268.913	1555.69
269.145	1462.69
269.377	1422.69
269.609	1552.69
269.841	1820.69
270.073	2127.69
270.306	2362.69
270.538	2541.69
270.77	2137.69
271.002	1759.69
271.234	1709.69
271.466	1656.69
271.698	1874.69
271.93	2276.69
272.162	2269.69
272.394	2059.69
272.626	1975.69
272.858	1724.69
273.09	1488.69
273.322	1505.69
273.553	1411.69
273.785	1447.69
274.017	1504.69
274.249	1600.69
274.481	1619.69
274.713	1483.69
274.945	1452.69
275.176	1480.69
275.408	1438.69
275.64	1439.69
275.872	1386.69
276.104	1506.69
276.335	1700.69
276.567	1952.69
276.799	2002.69
277.031	1779.69
277.262	1632.69
277.494	1683.69
277.726	1954.69
277.957	1902.69
278.189	1722.69
278.421	1564.69
278.652	1541.69
278.884	1532.69
279.115	1517.69
279.347	1591.69
279.579	1480.69
279.81	1504.69
280.042	1687.69
280.273	1849.69
280.505	1843.69
280.736	1888.69
280.968	1785.69
281.199	1563.69
281.431	1477.69
281.662	1447.69
281.894	1477.69
282.125	1528.69
282.356	1561.69
282.588	1577.69
282.819	1581.69
283.051	1673.69
283.282	1835.69
283.513	1823.69
283.745	1561.69
283.976	1455.69
284.207	1470.69
284.439	1493.69
284.67	1516.69
284.901	1542.69
285.132	1601.69
285.364	1565.69
285.595	1624.69
285.826	1559.69
286.057	1569.69
286.288	1566.69
286.52	1594.69
286.751	1709.69
286.982	1778.69
287.213	1622.69
287.444	1500.69
287.675	1477.69
287.906	1570.69
288.138	1670.69
288.369	1667.69
288.6	1544.69
288.831	1506.69
289.062	1517.69
289.293	1524.69
289.524	1514.69
289.755	1607.69
289.986	1619.69
290.217	1493.69
290.448	1515.69
290.679	1582.69
290.91	1557.69
291.141	1593.69
291.371	1682.69
291.602	1663.69
291.833	1626.69
292.064	1723.69
292.295	1635.69
292.526	1666.69
292.757	1782.69
292.987	1726.69
293.218	1586.69
293.449	1706.69
293.68	1962.69
293.91	2125.69
294.141	1926.69
294.372	1836.69
294.603	1849.69
294.833	1960.69
295.064	1881.69
295.295	1715.69
295.525	1663.69
295.756	1556.69
295.987	1463.69
296.217	1474.69
296.448	1524.69
296.679	1540.69
296.909	1560.69
297.14	1548.69
297.37	1556.69
297.601	1629.69
297.831	1766.69
298.062	1794.69
298.292	1641.69
298.523	1544.69
298.753	1562.69
298.984	1548.69
299.214	1580.69
299.445	1616.69
299.675	1661.69
299.905	1661.69
300.136	1603.69
300.366	1574.69
300.597	1534.69
300.827	1517.69
301.057	1572.69
301.288	1651.69
301.518	1654.69
301.748	1696.69
301.979	1765.69
302.209	1787.69
302.439	1884.69
302.669	2027.69
302.9	1869.69
303.13	1675.69
303.36	1691.69
303.59	1719.69
303.82	1703.69
304.051	1665.69
304.281	1641.69
304.511	1694.69
304.741	1755.69
304.971	2001.69
305.201	2174.69
305.431	2024.69
305.661	1624.69
305.891	1480.69
306.121	1436.69
306.352	1523.69
306.582	1596.69
306.812	1723.69
307.042	1843.69
307.272	1865.69
307.502	1917.69
307.731	2053.69
307.961	2204.69
308.191	2056.69
308.421	1796.69
308.651	1629.69
308.881	1640.69
309.111	1605.69
309.341	1570.69
309.571	1608.69
309.8	1658.69
310.03	1609.69
310.26	1590.69
310.49	1602.69
310.72	1615.69
310.949	1692.69
311.179	1701.69
311.409	1684.69
311.639	1656.69
311.868	1610.69
312.098	1651.69
312.328	1662.69
312.557	1570.69
312.787	1666.69
313.017	1695.69
313.246	1693.69
313.476	1683.69
313.706	1726.69
313.935	1731.69
314.165	1724.69
314.394	1783.69
314.624	1863.69
314.853	1950.69
315.083	2064.69
315.312	2124.69
315.542	1992.69
315.771	1774.69
316.001	1758.69
316.23	1820.69
316.46	1839.69
316.689	1776.69
316.919	1728.69
317.148	1662.69
317.377	1661.69
317.607	1785.69
317.836	2010.69
318.065	2104.69
318.295	2039.69
318.524	1902.69
318.753	1809.69
318.983	1798.69
319.212	1799.69
319.441	1756.69
319.67	1758.69
319.9	1793.69
320.129	1853.69
320.358	1959.69
320.587	2006.69
320.816	1970.69
321.046	1935.69
321.275	1799.69
321.504	1836.69
321.733	2042.69
321.962	1982.69
322.191	1765.69
322.42	1779.69
322.649	1743.69
322.878	1715.69
323.108	1767.69
323.337	1841.69
323.566	1835.69
323.795	1833.69
324.024	1837.69
324.253	1780.69
324.482	1816.69
324.71	1751.69
324.939	1675.69
325.168	1689.69
325.397	1742.69
325.626	1852.69
325.855	1858.69
326.084	1749.69
326.313	1752.69
326.542	1794.69
326.77	1875.69
326.999	1852.69
327.228	1801.69
327.457	1691.69
327.686	1659.69
327.914	1719.69
328.143	1758.69
328.372	1784.69
328.6	1758.69
328.829	1745.69
329.058	1706.69
329.287	1719.69
329.515	1765.69
329.744	1796.69
329.972	1882.69
330.201	1927.69
330.43	1939.69
330.658	1845.69
330.887	1886.69
331.115	1836.69
331.344	1912.69
331.572	1844.69
331.801	1874.69
332.03	1843.69
332.258	1858.69
332.486	1869.69
332.715	1920.69
332.943	1925.69
333.172	1849.69
333.4	1871.69
333.629	1904.69
333.857	2012.69
334.085	2208.69
334.314	2515.69
334.542	2778.69
334.771	2575.69
334.999	2241.69
335.227	2131.69
335.455	1974.69
335.684	2025.69
335.912	2067.69
336.14	2084.69
336.369	2048.69
336.597	1885.69
336.825	1871.69
337.053	1936.69
337.281	2046.69
337.51	2104.69
337.738	2210.69
337.966	2172.69
338.194	1929.69
338.422	1840.69
338.65	1871.69
338.878	1831.69
339.106	1794.69
339.334	1765.69
339.562	1783.69
339.79	1814.69
340.018	1893.69
340.246	1929.69
340.474	2015.69
340.702	1936.69
340.93	1906.69
341.158	1911.69
341.386	1865.69
341.614	1878.69
341.842	1879.69
342.07	1878.69
342.298	1855.69
342.526	1869.69
342.754	1802.69
342.981	1827.69
343.209	1852.69
343.437	1820.69
343.665	1831.69
343.893	1883.69
344.12	1922.69
344.348	1986.69
344.576	1907.69
344.804	1861.69
345.031	1822.69
345.259	1880.69
345.487	1800.69
345.714	1711.69
345.942	1690.69
346.17	1723.69
346.397	1724.69
346.625	1794.69
346.853	1662.69
347.08	1661.69
347.308	1661.69
347.535	1690.69
347.763	1759.69
347.99	1724.69
348.218	1709.69
348.445	1666.69
348.673	1678.69
348.9	1747.69
349.128	1774.69
349.355	1884.69
349.583	1802.69
349.81	1763.69
350.037	1588.69
350.265	1605.69
350.492	1610.69
350.72	1639.69
350.947	1722.69
351.174	1790.69
351.402	1675.69
351.629	1611.69
351.856	1591.69
352.083	1591.69
352.311	1619.69
352.538	1648.69
352.765	1690.69
352.992	1779.69
353.22	1691.69
353.447	1623.69
353.674	1652.69
353.901	1687.69
354.128	1652.69
354.355	1646.69
354.583	1688.69
354.81	1786.69
355.037	1751.69
355.264	1735.69
355.491	1687.69
355.718	1722.69
355.945	1724.69
356.172	1676.69
356.399	1623.69
356.626	1606.69
356.853	1645.69
357.08	1834.69
357.307	2010.69
357.534	2062.69
357.761	1795.69
357.988	1611.69
358.215	1590.69
358.441	1628.69
358.668	1603.69
358.895	1652.69
359.122	1727.69
359.349	1879.69
359.576	1887.69
359.802	1723.69
360.029	1635.69
360.256	1602.69
360.483	1622.69
360.709	1670.69
360.936	1730.69
361.163	1798.69
361.39	2015.69
361.616	2114.69
361.843	2048.69
362.07	1973.69
362.296	1707.69
362.523	1641.69
362.749	1665.69
362.976	1698.69
363.203	1753.69
363.429	1700.69
363.656	1644.69
363.882	1661.69
364.109	1870.69
364.335	2032.69
364.562	1819.69
364.788	1765.69
365.015	1744.69
365.241	1637.69
365.468	1679.69
365.694	1763.69
365.92	1851.69
366.147	1783.69
366.373	1659.69
366.599	1616.69
366.826	1607.69
367.052	1603.69
367.278	1673.69
367.505	1676.69
367.731	1739.69
367.957	1702.69
368.184	1734.69
368.41	1858.69
368.636	1883.69
368.862	1886.69
369.089	1952.69
369.315	1878.69
369.541	1775.69
369.767	1711.69
369.993	1669.69
370.219	1680.69
370.445	1726.69
370.672	1780.69
370.898	1887.69
371.124	1913.69
371.35	1775.69
371.576	1780.69
371.802	1928.69
372.028	1806.69
372.254	1740.69
372.48	1738.69
372.706	1681.69
372.932	1664.69
373.158	1701.69
373.384	1734.69
373.61	1816.69
373.835	1867.69
374.061	1810.69
374.287	1754.69
374.513	1795.69
374.739	1802.69
374.965	1802.69
375.191	1804.69
375.416	1813.69
375.642	1817.69
375.868	1925.69
376.094	1966.69
376.319	1944.69
376.545	1755.69
376.771	1806.69
376.997	1931.69
377.222	1884.69
377.448	1826.69
377.674	1835.69
377.899	1834.69
378.125	1943.69
378.35	1976.69
378.576	1781.69
378.802	1717.69
379.027	1729.69
379.253	1701.69
379.478	1726.69
379.704	1769.69
379.929	1729.69
380.155	1763.69
380.38	1787.69
380.606	1775.69
380.831	1796.69
381.057	1871.69
381.282	1895.69
381.507	1803.69
381.733	1913.69
381.958	2048.69
382.184	1877.69
382.409	1808.69
382.634	1869.69
382.86	1823.69
383.085	1859.69
383.31	1892.69
383.535	2026.69
383.761	2183.69
383.986	2094.69
384.211	1988.69
384.436	1924.69
384.662	2076.69
384.887	2179.69
385.112	2028.69
385.337	2026.69
385.562	1985.69
385.787	1993.69
386.013	2055.69
386.238	2054.69
386.463	2034.69
386.688	2192.69
386.913	2298.69
387.138	2264.69
387.363	2095.69
387.588	2082.69
387.813	2084.69
388.038	2060.69
388.263	2146.69
388.488	2118.69
388.713	1943.69
388.938	1901.69
389.163	1914.69
389.387	1988.69
389.612	2011.69
389.837	2050.69
390.062	2043.69
390.287	2026.69
390.512	2012.69
390.736	1977.69
390.961	1912.69
391.186	1914.69
391.411	1898.69
391.636	1938.69
391.86	2020.69
392.085	1999.69
392.31	2022.69
392.534	1978.69
392.759	2074.69
392.984	2002.69
393.208	2069.69
393.433	2075.69
393.658	2171.69
393.882	2196.69
394.107	2092.69
394.331	1966.69
394.556	1953.69
394.78	2040.69
395.005	2091.69
395.229	2163.69
395.454	2308.69
395.678	2308.69
395.903	2254.69
396.127	2095.69
396.352	2131.69
396.576	2201.69
396.801	2198.69
397.025	2215.69
397.249	2202.69
397.474	2174.69
397.698	2131.69
397.922	2190.69
398.147	2283.69
398.371	2423.69
398.595	2389.69
398.82	2310.69
399.044	2312.69
399.268	2394.69
399.492	2564.69
399.717	2675.69
399.941	2703.69
400.165	2658.69
400.389	2630.69
400.613	2499.69
400.837	2820.69
401.062	3210.69
401.286	2779.69
401.51	2464.69
401.734	2643.69
401.958	2537.69
402.182	2367.69
402.406	2269.69
402.63	2272.69
402.854	2245.69
403.078	2307.69
403.302	2370.69
403.526	2419.69
403.75	2374.69
403.974	2391.69
404.198	2402.69
404.422	2443.69
404.645	2578.69
404.869	2559.69
405.093	2389.69
405.317	2354.69
405.541	2423.69
405.765	2448.69
405.988	2387.69
406.212	2408.69
406.436	2477.69
406.66	2570.69
406.883	2562.69
407.107	2849.69
407.331	3150.69
407.555	3354.69
407.778	3106.69
408.002	2602.69
408.226	2488.69
408.449	2514.69
408.673	2427.69
408.896	2455.69
409.12	2470.69
409.344	2471.69
409.567	2391.69
409.791	2409.69
410.014	2443.69
410.238	2543.69
410.461	2696.69
410.685	2420.69
410.908	2349.69
411.132	2390.69
411.355	2383.69
411.578	2332.69
411.802	2347.69
412.025	2414.69
412.249	2344.69
412.472	2239.69
412.695	2214.69
412.919	2284.69
413.142	2237.69
413.365	2270.69
413.589	2360.69
413.812	2420.69
414.035	2546.69
414.258	2314.69
414.482	2263.69
414.705	2298.69
414.928	2237.69
415.151	2266.69
415.374	2307.69
415.597	2302.69
415.821	2374.69
416.044	2447.69
416.267	2406.69
416.49	2190.69
416.713	2218.69
416.936	2298.69
417.159	2355.69
417.382	2378.69
417.605	2259.69
417.828	2282.69
418.051	2414.69
418.274	2292.69
418.497	2206.69
418.72	2188.69
418.943	2212.69
419.166	2341.69
419.389	2393.69
419.611	2328.69
419.834	2254.69
420.057	2307.69
420.28	2199.69
420.503	2208.69
420.726	2253.69
420.948	2284.69
421.171	2163.69
421.394	2215.69
421.617	2280.69
421.839	2238.69
422.062	2221.69
422.285	2133.69
422.507	2164.69
422.73	2132.69
422.953	2082.69
423.175	2150.69
423.398	2208.69
423.621	2196.69
423.843	2203.69
424.066	2234.69
424.288	2293.69
424.511	2388.69
424.733	2344.69
424.956	2100.69
425.178	2056.69
425.401	2104.69
425.623	2124.69
425.846	2118.69
426.068	2241.69
426.291	2277.69
426.513	2222.69
426.735	2199.69
426.958	2373.69
427.18	2525.69
427.402	2306.69
427.625	2400.69
427.847	2416.69
428.069	2255.69
428.292	2124.69
428.514	2083.69
428.736	2100.69
428.958	2098.69
429.181	2128.69
429.403	2359.69
429.625	2985.69
429.847	2645.69
430.069	2198.69
430.292	2418.69
430.514	2497.69
430.736	2317.69
430.958	2396.69
431.18	2289.69
431.402	2149.69
431.624	2132.69
431.846	2102.69
432.068	2065.69
432.29	2103.69
432.512	2116.69
432.734	2216.69
432.956	2228.69
433.178	2327.69
433.4	2278.69
433.622	2258.69
433.844	2177.69
434.066	2072.69
434.287	2056.69
434.509	2199.69
434.731	2296.69
434.953	2406.69
435.175	2407.69
435.397	2227.69
435.618	2299.69
435.84	2210.69
436.062	2188.69
436.284	2238.69
436.505	2243.69
436.727	2284.69
436.949	2211.69
437.17	2126.69
437.392	2142.69
437.614	2151.69
437.835	2094.69
438.057	2266.69
438.278	2281.69
438.5	2159.69
438.721	2100.69
438.943	2146.69
439.165	2102.69
439.386	2023.69
439.608	2054.69
439.829	2107.69
440.05	2146.69
440.272	2092.69
440.493	2064.69
440.715	2114.69
440.936	2275.69
441.158	2480.69
441.379	2427.69
441.6	2351.69
441.822	2286.69
442.043	2330.69
442.264	2234.69
442.486	2127.69
442.707	2083.69
442.928	2062.69
443.149	2140.69
443.371	2315.69
443.592	2377.69
443.813	2326.69
444.034	2302.69
444.255	2364.69
444.476	2377.69
444.698	2385.69
444.919	2401.69
445.14	2541.69
445.361	2461.69
445.582	2572.69
445.803	2462.69
446.024	2314.69
446.245	2400.69
446.466	2377.69
446.687	2218.69
446.908	2242.69
447.129	2146.69
447.35	2191.69
447.571	2198.69
447.792	2115.69
448.013	2054.69
448.234	2080.69
448.455	2191.69
448.675	2220.69
448.896	2034.69
449.117	2048.69
449.338	2044.69
449.559	2126.69
449.779	2267.69
450	2552.69
450.221	2692.69
450.442	2642.69
450.662	2284.69
450.883	2049.69
451.104	1965.69
451.324	2034.69
451.545	2093.69
451.766	2125.69
451.986	2001.69
452.207	1950.69
452.428	1914.69
452.648	1854.69
452.869	1966.69
453.089	2100.69
453.31	2130.69
453.53	2186.69
453.751	2034.69
453.971	1921.69
454.192	1957.69
454.412	2147.69
454.633	2044.69
454.853	1960.69
455.073	1864.69
455.294	1821.69
455.514	1853.69
455.734	1903.69
455.955	1934.69
456.175	1912.69
456.395	1913.69
456.616	1976.69
456.836	2024.69
457.056	1955.69
457.276	1965.69
457.497	1877.69
457.717	1824.69
457.937	1858.69
458.157	1937.69
458.377	1920.69
458.598	1922.69
458.818	1877.69
459.038	2019.69
459.258	2182.69
459.478	2159.69
459.698	2116.69
459.918	2107.69
460.138	2240.69
460.358	2314.69
460.578	2261.69
460.798	2390.69
461.018	2474.69
461.238	2397.69
461.458	2270.69
461.678	2273.69
461.898	2243.69
462.118	2172.69
462.338	2265.69
462.558	2297.69
462.777	2274.69
462.997	2396.69
463.217	2524.69
463.437	2493.69
463.657	2332.69
463.876	2308.69
464.096	2256.69
464.316	2261.69
464.536	2397.69
464.755	2343.69
464.975	2434.69
465.195	2309.69
465.414	2398.69
465.634	2409.69
465.854	2275.69
466.073	2413.69
466.293	2361.69
466.512	2094.69
466.732	2095.69
466.951	2183.69
467.171	2115.69
467.391	2062.69
467.61	2021.69
467.829	2063.69
468.049	2239.69
468.268	2514.69
468.488	2325.69
468.707	2189.69
468.927	2129.69
469.146	2144.69
469.365	2052.69
469.585	2051.69
469.804	2055.69
470.023	2054.69
470.243	2140.69
470.462	2109.69
470.681	2030.69
470.901	2018.69
471.12	2057.69
471.339	2035.69
471.558	1989.69
471.777	1990.69
471.997	2005.69
472.216	2000.69
472.435	1960.69
472.654	2006.69
472.873	2145.69
473.092	2231.69
473.311	2124.69
473.53	2000.69
473.749	1998.69
473.968	2051.69
474.187	2144.69
474.406	2266.69
474.625	2108.69
474.844	2081.69
475.063	2090.69
475.282	2167.69
475.501	2088.69
475.72	2092.69
475.939	2238.69
476.158	2175.69
476.377	2100.69
476.596	2143.69
476.814	2212.69
477.033	2178.69
477.252	2267.69
477.471	2366.69
477.69	2195.69
477.908	2140.69
478.127	2277.69
478.346	2491.69
478.564	2552.69
478.783	2486.69
479.002	2538.69
479.22	2461.69
479.439	2565.69
479.658	2938.69
479.876	2907.69
480.095	2514.69
480.313	2403.69
480.532	2283.69
480.751	2387.69
480.969	2447.69
481.188	2345.69
481.406	2312.69
481.624	2260.69
481.843	2328.69
482.061	2388.69
482.28	2401.69
482.498	2432.69
482.717	2451.69
482.935	2335.69
483.153	2322.69
483.372	2291.69
483.59	2278.69
483.808	2260.69
484.027	2351.69
484.245	2524.69
484.463	2887.69
484.681	3395.69
484.9	2565.69
485.118	2418.69
485.336	2358.69
485.554	2428.69
485.772	2555.69
485.99	2498.69
486.209	2526.69
486.427	2519.69
486.645	2523.69
486.863	2422.69
487.081	2536.69
487.299	2629.69
487.517	2554.69
487.735	2409.69
487.953	2415.69
488.171	2359.69
488.389	2387.69
488.607	2400.69
488.825	2656.69
489.043	2731.69
489.261	2440.69
489.479	2602.69
489.696	2586.69
489.914	2591.69
490.132	2508.69
490.35	2422.69
490.568	2545.69
490.786	2464.69
491.003	2351.69
491.221	2446.69
491.439	2568.69
491.657	2523.69
491.874	2542.69
492.092	2517.69
492.31	2553.69
492.527	2510.69
492.745	2531.69
492.963	2490.69
493.18	2522.69
493.398	2742.69
493.615	2854.69
493.833	2592.69
494.05	2473.69
494.268	2590.69
494.485	2607.69
494.703	2553.69
494.92	2508.69
495.138	2495.69
495.355	2527.69
495.573	2639.69
495.79	2806.69
496.008	2845.69
496.225	2635.69
496.442	2659.69
496.66	2710.69
496.877	2651.69
497.094	2736.69
497.312	2772.69
497.529	2691.69
497.746	2782.69
497.963	3326.69
498.181	3719.69
498.398	3471.69
498.615	3376.69
498.832	3202.69
499.049	3266.69
499.267	3240.69
499.484	3466.69
499.701	3720.69
499.918	3754.69
500.135	4026.69
500.352	4277.69
500.569	4259.69
500.786	4562.69
501.003	4210.69
501.22	3817.69
501.437	3708.69
501.654	3741.69
501.871	3727.69
502.088	3192.69
502.305	3215.69
502.522	3122.69
502.739	2878.69
502.956	2843.69
503.172	2761.69
503.389	2718.69
503.606	2660.69
503.823	2664.69
504.04	2688.69
504.256	2674.69
504.473	2696.69
504.69	2799.69
504.907	2674.69
505.123	2533.69
505.34	2640.69
505.557	3403.69
505.773	2967.69
505.99	2469.69
506.207	2287.69
506.423	2306.69
506.64	2292.69
506.856	2267.69
507.073	2588.69
507.289	2818.69
507.506	2738.69
507.722	2332.69
507.939	2229.69
508.155	2222.69
508.372	2230.69
508.588	2167.69
508.805	2102.69
509.021	2086.69
509.238	2067.69
509.454	2066.69
509.67	2106.69
509.887	2043.69
510.103	2023.69
510.319	2086.69
510.536	2167.69
510.752	2286.69
510.968	2275.69
511.184	2403.69
511.401	2343.69
511.617	2105.69
511.833	1983.69
512.049	1999.69
512.265	2030.69
512.481	1995.69
512.698	2104.69
512.914	2225.69
513.13	2132.69
513.346	2072.69
513.562	1989.69
513.778	2034.69
513.994	2103.69
514.21	2216.69
514.426	2244.69
514.642	2488.69
514.858	2311.69
515.074	2144.69
515.29	2032.69
515.506	2087.69
515.721	2159.69
515.937	2171.69
516.153	2482.69
516.369	2403.69
516.585	2234.69
516.801	2109.69
517.016	2122.69
517.232	2142.69
517.448	2216.69
517.664	2268.69
517.879	2265.69
518.095	2330.69
518.311	2256.69
518.527	2144.69
518.742	2094.69
518.958	2051.69
519.173	2018.69
519.389	2089.69
519.605	2122.69
519.82	2093.69
520.036	2107.69
520.251	2102.69
520.467	2064.69
520.682	2270.69
520.898	2297.69
521.113	2089.69
521.329	2023.69
521.544	2187.69
521.76	2106.69
521.975	1985.69
522.19	1960.69
522.406	1950.69
522.621	2336.69
522.836	2422.69
523.052	1946.69
523.267	1931.69
523.482	1990.69
523.698	1914.69
523.913	1761.69
524.128	1875.69
524.343	1974.69
524.559	2007.69
524.774	1873.69
524.989	1832.69
525.204	1896.69
525.419	1843.69
525.634	1832.69
525.849	1866.69
526.064	1849.69
526.28	1911.69
526.495	1767.69
526.71	1780.69
526.925	1814.69
527.14	1795.69
527.355	1737.69
527.57	1773.69
527.785	1829.69
527.999	1769.69
528.214	1741.69
528.429	1751.69
528.644	1756.69
528.859	1798.69
529.074	1771.69
529.289	1775.69
529.503	1780.69
529.718	1802.69
529.933	1762.69
530.148	1711.69
530.363	1695.69
530.577	1753.69
530.792	1747.69
531.007	1774.69
531.221	1773.69
531.436	1803.69
531.651	1845.69
531.865	1939.69
532.08	1848.69
532.295	1699.69
532.509	1677.69
532.724	1675.69
532.938	1783.69
533.153	1906.69
533.367	1826.69
533.582	1757.69
533.796	1734.69
534.011	1773.69
534.225	1781.69
534.44	1717.69
534.654	1717.69
534.868	1679.69
535.083	1777.69
535.297	1807.69
535.511	1730.69
535.726	1766.69
535.94	1738.69
536.154	1680.69
536.369	1706.69
536.583	1678.69
536.797	1648.69
537.011	1760.69
537.225	1657.69
537.44	1624.69
537.654	1707.69
537.868	1680.69
538.082	1600.69
538.296	1553.69
538.51	1606.69
538.724	1613.69
538.938	1600.69
539.153	1657.69
539.367	1659.69
539.581	1638.69
539.795	1727.69
540.009	1698.69
540.222	1632.69
540.436	1722.69
540.65	1866.69
540.864	1894.69
541.078	1742.69
541.292	1631.69
541.506	1625.69
541.72	1638.69
541.934	1648.69
542.147	1699.69
542.361	1640.69
542.575	1619.69
542.789	1599.69
543.002	1552.69
543.216	1576.69
543.43	1680.69
543.644	1744.69
543.857	1809.69
544.071	1702.69
544.285	1654.69
544.498	1629.69
544.712	1644.69
544.925	1659.69
545.139	1709.69
545.352	1591.69
545.566	1556.69
545.779	1540.69
545.993	1550.69
546.206	1578.69
546.42	1571.69
546.633	1515.69
546.847	1487.69
547.06	1527.69
547.274	1516.69
547.487	1550.69
547.7	1525.69
547.914	1508.69
548.127	1579.69
548.34	1569.69
548.554	1577.69
548.767	1584.69
548.98	1550.69
549.193	1584.69
549.407	1655.69
549.62	1673.69
549.833	1540.69
550.046	1538.69
550.259	1546.69
550.473	1530.69
550.686	1519.69
550.899	1496.69
551.112	1460.69
551.325	1449.69
551.538	1554.69
551.751	1842.69
551.964	1508.69
552.177	1464.69
552.39	1475.69
552.603	1505.69
552.816	1505.69
553.029	1567.69
553.242	1647.69
553.455	1549.69
553.667	1516.69
553.88	1542.69
554.093	1498.69
554.306	1462.69
554.519	1432.69
554.732	1416.69
554.944	1422.69
555.157	1450.69
555.37	1423.69
555.583	1440.69
555.795	1436.69
556.008	1398.69
556.221	1359.69
556.433	1337.69
556.646	1336.69
556.859	1338.69
557.071	1333.69
557.284	1321.69
557.496	1306.69
557.709	1275.69
557.921	1283.69
558.134	1293.69
558.346	1308.69
558.559	1267.69
558.771	1261.69
558.984	1238.69
559.196	1201.69
559.409	1265.69
559.621	1254.69
559.833	1273.69
560.046	1294.69
560.258	1302.69
560.47	1275.69
560.683	1244.69
560.895	1287.69
561.107	1273.69
561.32	1282.69
561.532	1292.69
561.744	1281.69
561.956	1275.69
562.168	1229.69
562.381	1199.69
562.593	1236.69
562.805	1247.69
563.017	1197.69
563.229	1238.69
563.441	1262.69
563.653	1229.69
563.865	1235.69
564.077	1213.69
564.289	1222.69
564.501	1285.69
564.713	1278.69
564.925	1335.69
565.137	1443.69
565.349	1282.69
565.561	1310.69
565.773	1300.69
565.985	1360.69
566.197	1402.69
566.408	1488.69
566.62	1527.69
566.832	1487.69
567.044	1522.69
567.255	1508.69
567.467	1514.69
567.679	1554.69
567.891	1630.69
568.102	1586.69
568.314	1499.69
568.526	1408.69
568.737	1378.69
568.949	1315.69
569.161	1239.69
569.372	1223.69
569.584	1207.69
569.795	1204.69
570.007	1183.69
570.218	1138.69
570.43	1128.69
570.641	1128.69
570.853	1118.69
571.064	1117.69
571.276	1110.69
571.487	1093.69
571.698	1072.69
571.91	1072.69
572.121	1030.69
572.333	1031.69
572.544	1046.69
572.755	1019.69
572.966	972.69
573.178	988.69
573.389	1007.69
573.6	1044.69
573.811	1122.69
574.023	1015.69
574.234	970.69
574.445	968.69
574.656	952.69
574.867	939.69
575.078	954.69
575.289	968.69
575.501	922.69
575.712	939.69
575.923	932.69
576.134	962.69
576.345	933.69
576.556	930.69
576.767	935.69
576.978	897.69
577.188	889.69
577.399	869.69
577.61	871.69
577.821	861.69
578.032	861.69
578.243	872.69
578.454	862.69
578.665	862.69
578.875	845.69
579.086	833.69
579.297	856.69
579.508	891.69
579.718	854.69
579.929	855.69
580.14	842.69
580.35	829.69
580.561	847.69
580.772	938.69
580.982	863.69
581.193	825.69
581.403	813.69
581.614	803.69
581.825	834.69
582.035	788.69
582.246	794.69
582.456	837.69
582.667	818.69
582.877	806.69
583.087	808.69
583.298	788.69
583.508	784.69
583.719	792.69
583.929	807.69
584.139	819.69
584.35	785.69
584.56	775.69
584.77	779.69
584.981	778.69
585.191	808.69
585.401	828.69
585.611	796.69
585.821	774.69
586.032	772.69
586.242	723.69
586.452	780.69
586.662	799.69
586.872	791.69
587.082	760.69
587.292	806.69
587.502	786.69
587.713	793.69
587.923	790.69
588.133	787.69
588.343	784.69
588.553	775.69
588.762	757.69
588.972	741.69
589.182	760.69
589.392	768.69
589.602	782.69
589.812	798.69
590.022	724.69
590.232	722.69
590.441	742.69
590.651	765.69
590.861	740.69
591.071	715.69
591.281	743.69
591.49	725.69
591.7	748.69
591.91	737.69
592.119	779.69
592.329	774.69
592.539	780.69
592.748	785.69
592.958	807.69
593.167	809.69
593.377	800.69
593.587	794.69
593.796	806.69
594.006	823.69
594.215	776.69
594.424	786.69
594.634	780.69
594.843	763.69
595.053	789.69
595.262	744.69
595.472	721.69
595.681	741.69
595.89	745.69
596.1	696.69
596.309	711.69
596.518	698.69
596.727	697.69
596.937	685.69
597.146	660.69
597.355	678.69
597.564	675.69
597.774	652.69
597.983	644.69
598.192	629.69
598.401	634.69
598.61	657.69
598.819	632.69
599.028	642.69
599.237	646.69
599.446	629.69
599.655	629.69
599.864	634.69
600.073	627.69
600.282	632.69
600.491	614.69
600.7	611.69
600.909	637.69
601.118	612.69
601.327	612.69
601.536	630.69
601.745	572.69
601.953	605.69
602.162	615.69
602.371	629.69
602.58	610.69
602.789	594.69
602.997	596.69
603.206	611.69
603.415	583.69
603.623	583.69
603.832	574.69
604.041	581.69
604.249	550.69
604.458	568.69
604.666	568.69
604.875	602.69
605.084	591.69
605.292	600.69
605.501	584.69
605.709	580.69
605.918	590.69
606.126	576.69
606.334	570.69
606.543	547.69
606.751	583.69
606.96	585.69
607.168	581.69
607.376	574.69
607.585	544.69
607.793	560.69
608.001	558.69
608.21	585.69
608.418	570.69
608.626	554.69
608.834	566.69
609.043	545.69
609.251	557.69
609.459	585.69
609.667	573.69
609.875	581.69
610.083	595.69
610.291	554.69
610.499	575.69
610.707	540.69
610.916	549.69
611.124	534.69
611.332	542.69
611.54	542.69
611.748	534.69
611.955	523.69
612.163	532.69
612.371	527.69
612.579	529.69
612.787	532.69
612.995	538.69
613.203	570.69
613.411	544.69
613.618	557.69
613.826	542.69
614.034	516.69
614.242	509.69
614.449	541.69
614.657	533.69
614.865	538.69
615.072	508.69
615.28	552.69
615.488	531.69
615.695	580.69
615.903	545.69
616.111	531.69
616.318	534.69
616.526	509.69
616.733	525.69
616.941	525.69
617.148	535.69
617.356	498.69
617.563	502.69
617.771	497.69
617.978	494.69
618.185	508.69
618.393	518.69
618.6	502.69
618.807	506.69
619.015	501.69
619.222	502.69
619.429	502.69
619.637	490.69
619.844	495.69
620.051	489.69
620.258	484.69
620.466	479.69
620.673	455.69
620.88	470.69
621.087	451.69
621.294	472.69
621.501	468.69
621.708	462.69
621.915	487.69
622.122	494.69
622.329	476.69
622.536	502.69
622.743	472.69
622.95	438.69
623.157	453.69
623.364	467.69
623.571	465.69
623.778	472.69
623.985	462.69
624.192	443.69
624.399	446.69
624.606	451.69
624.812	453.69
625.019	466.69
625.226	433.69
625.433	432.69
625.639	460.69
625.846	458.69
626.053	415.69
626.259	411.69
626.466	419.69
626.673	429.69
626.879	390.69
627.086	416.69
627.293	429.69
627.499	419.69
627.706	418.69
627.912	430.69
628.119	408.69
628.325	434.69
628.532	414.69
628.738	432.69
628.945	415.69
629.151	415.69
629.357	433.69
629.564	410.69
629.77	415.69
629.976	412.69
630.183	419.69
630.389	389.69
630.595	406.69
630.802	384.69
631.008	397.69
631.214	399.69
631.42	390.69
631.627	381.69
631.833	394.69
632.039	387.69
632.245	371.69
632.451	397.69
632.657	382.69
632.863	374.69
633.069	382.69
633.275	383.69
633.481	364.69
633.688	391.69
633.893	376.69
634.099	373.69
634.305	350.69
634.511	352.69
634.717	339.69
634.923	345.69
635.129	351.69
635.335	360.69
635.541	363.69
635.747	349.69
635.952	346.69
636.158	362.69
636.364	352.69
636.57	362.69
636.775	366.69
636.981	363.69
637.187	370.69
637.392	376.69
637.598	357.69
637.804	348.69
638.009	365.69
638.215	332.69
638.421	349.69
638.626	338.69
638.832	345.69
639.037	344.69
639.243	346.69
639.448	358.69
639.654	342.69
639.859	343.69
640.065	341.69
640.27	337.69
640.475	340.69
640.681	334.69
640.886	348.69
641.091	336.69
641.297	352.69
641.502	321.69
641.707	324.69
641.913	334.69
642.118	340.69
642.323	327.69
642.528	331.69
642.733	315.69
642.939	322.69
643.144	322.69
643.349	320.69
643.554	342.69
643.759	315.69
643.964	332.69
644.169	301.69
644.374	326.69
644.579	312.69
644.784	317.69
644.989	329.69
645.194	328.69
645.399	304.69
645.604	309.69
645.809	313.69
646.014	322.69
646.219	338.69
646.423	338.69
646.628	318.69
646.833	330.69
647.038	317.69
647.243	324.69
647.447	325.69
647.652	313.69
647.857	336.69
648.062	302.69
648.266	329.69
648.471	324.69
648.676	348.69
648.88	334.69
649.085	327.69
649.289	327.69
649.494	299.69
649.698	300.69
649.903	306.69
650.107	319.69
650.312	317.69
650.516	290.69
650.721	291.69
650.925	280.69
651.13	286.69
651.334	291.69
651.539	278.69
651.743	266.69
651.947	288.69
652.152	295.69
652.356	272.69
652.56	262.69
652.764	286.69
652.969	244.69
653.173	278.69
653.377	252.69
653.581	260.69
653.785	271.69
653.99	249.69
654.194	236.69
654.398	276.69
654.602	249.69
654.806	223.69
655.01	245.69
655.214	247.69
655.418	239.69
655.622	247.69
655.826	249.69
656.03	257.69
656.234	254.69
656.438	290.69
656.642	292.69
656.846	262.69
657.049	250.69
657.253	220.69
657.457	223.69
657.661	195.69
657.865	194.69
658.068	192.69
658.272	171.69
658.476	167.69
658.68	168.69
658.883	164.69
659.087	135.69
659.291	143.69
659.494	140.69
659.698	140.69
659.901	127.69
660.105	145.69
660.309	128.69
660.512	111.69
660.716	128.69
660.919	135.69
661.123	117.69
661.326	115.69
661.53	112.69
661.733	84.69
661.936	103.69
662.14	89.69
662.343	99.69
662.546	98.69
662.75	98.69
662.953	100.69
663.156	99.69
663.36	111.69
663.563	98.69
663.766	100.69
663.969	83.69
664.173	93.69
664.376	94.69
664.579	78.69
664.782	77.69
664.985	90.69
665.188	88.69
665.391	83.69
665.594	68.69
665.797	84.69
666	87.69
666.203	98.69
666.406	82.69
666.609	82.69
666.812	86.69
667.015	100.69
667.218	92.69
667.421	82.69
667.624	86.69
667.827	74.69
668.03	88.69
668.232	92.69
668.435	71.69
668.638	86.69
668.841	91.69
669.043	68.69
669.246	85.69
669.449	80.69
669.651	81.69
669.854	87.69
670.057	74.69
670.259	80.69
670.462	81.69
670.665	89.69
670.867	89.69
671.07	85.69
671.272	91.69
671.475	92.69
671.677	88.69
671.88	83.69
672.082	86.69
672.284	74.69
672.487	96.69
672.689	80.69
672.892	92.69
