Data from WStandard_LampEnergy8_LIBS07252019.E.O._I.C._HRD10591_16-00-55-930.txt Node
Date: Thu Jul 25 16:00:55 EDT 2019
User: cochatt
Spectrometer: HR+D1059
Trigger mode: 1
Integration Time (sec): 1.000000E-1
Scans to average: 1
Electric dark correction enabled: true
Nonlinearity correction enabled: false
Boxcar width: 0
XAxis mode: Wavelengths
Number of Pixels in Spectrum: 2048
>>>>>Begin Spectral Data<<<<<
223.165	-15.31
223.4	-15.31
223.635	-15.31
223.869	-21.31
224.104	-13.31
224.338	-11.31
224.573	-16.31
224.808	-7.31
225.042	-2.31
225.277	-16.31
225.511	3.69
225.746	9.69
225.98	8.69
226.215	18.69
226.449	8.69
226.683	16.69
226.918	23.69
227.152	13.69
227.387	36.69
227.621	46.69
227.856	42.69
228.09	33.69
228.324	38.69
228.559	58.69
228.793	91.69
229.027	195.69
229.262	196.69
229.496	205.69
229.73	211.69
229.964	236.69
230.199	227.69
230.433	257.69
230.667	252.69
230.901	275.69
231.136	251.69
231.37	237.69
231.604	243.69
231.838	243.69
232.072	239.69
232.306	245.69
232.541	252.69
232.775	291.69
233.009	318.69
233.243	301.69
233.477	270.69
233.711	286.69
233.945	286.69
234.179	294.69
234.413	302.69
234.647	331.69
234.881	288.69
235.115	300.69
235.349	293.69
235.583	295.69
235.817	295.69
236.051	287.69
236.285	286.69
236.519	303.69
236.753	338.69
236.987	322.69
237.221	337.69
237.455	364.69
237.689	347.69
237.922	342.69
238.156	335.69
238.39	332.69
238.624	366.69
238.858	380.69
239.091	406.69
239.325	419.69
239.559	463.69
239.793	471.69
240.027	507.69
240.26	484.69
240.494	373.69
240.728	360.69
240.961	355.69
241.195	372.69
241.429	399.69
241.662	389.69
241.896	358.69
242.13	389.69
242.363	412.69
242.597	427.69
242.83	433.69
243.064	446.69
243.298	467.69
243.531	448.69
243.765	454.69
243.998	441.69
244.232	397.69
244.465	388.69
244.699	395.69
244.932	458.69
245.166	497.69
245.399	470.69
245.633	452.69
245.866	447.69
246.099	478.69
246.333	464.69
246.566	485.69
246.8	516.69
247.033	554.69
247.266	508.69
247.5	530.69
247.733	518.69
247.966	536.69
248.2	574.69
248.433	577.69
248.666	598.69
248.899	623.69
249.133	733.69
249.366	791.69
249.599	657.69
249.832	602.69
250.066	619.69
250.299	596.69
250.532	565.69
250.765	521.69
250.998	564.69
251.231	578.69
251.465	578.69
251.698	558.69
251.931	572.69
252.164	570.69
252.397	606.69
252.63	599.69
252.863	555.69
253.096	512.69
253.329	554.69
253.562	568.69
253.795	618.69
254.028	585.69
254.261	565.69
254.494	548.69
254.727	547.69
254.96	565.69
255.193	613.69
255.426	678.69
255.659	789.69
255.892	765.69
256.124	646.69
256.357	636.69
256.59	677.69
256.823	665.69
257.056	700.69
257.289	791.69
257.521	848.69
257.754	799.69
257.987	770.69
258.22	838.69
258.452	779.69
258.685	678.69
258.918	646.69
259.151	637.69
259.383	634.69
259.616	578.69
259.849	603.69
260.081	665.69
260.314	738.69
260.547	794.69
260.779	836.69
261.012	732.69
261.244	670.69
261.477	661.69
261.71	670.69
261.942	673.69
262.175	629.69
262.407	690.69
262.64	643.69
262.872	634.69
263.105	606.69
263.337	633.69
263.57	627.69
263.802	622.69
264.035	577.69
264.267	570.69
264.499	542.69
264.732	591.69
264.964	634.69
265.197	665.69
265.429	675.69
265.661	770.69
265.894	823.69
266.126	856.69
266.358	783.69
266.591	803.69
266.823	825.69
267.055	754.69
267.287	747.69
267.52	766.69
267.752	718.69
267.984	750.69
268.216	755.69
268.448	810.69
268.681	766.69
268.913	724.69
269.145	678.69
269.377	675.69
269.609	740.69
269.841	859.69
270.073	981.69
270.306	1067.69
270.538	1068.69
270.77	924.69
271.002	816.69
271.234	761.69
271.466	796.69
271.698	888.69
271.93	1010.69
272.162	990.69
272.394	929.69
272.626	856.69
272.858	763.69
273.09	670.69
273.322	690.69
273.553	656.69
273.785	684.69
274.017	712.69
274.249	738.69
274.481	725.69
274.713	692.69
274.945	666.69
275.176	686.69
275.408	675.69
275.64	670.69
275.872	642.69
276.104	741.69
276.335	830.69
276.567	925.69
276.799	867.69
277.031	818.69
277.262	761.69
277.494	832.69
277.726	912.69
277.957	846.69
278.189	798.69
278.421	724.69
278.652	734.69
278.884	705.69
279.115	709.69
279.347	732.69
279.579	700.69
279.81	736.69
280.042	783.69
280.273	846.69
280.505	874.69
280.736	848.69
280.968	832.69
281.199	715.69
281.431	690.69
281.662	710.69
281.894	689.69
282.125	715.69
282.356	724.69
282.588	761.69
282.819	748.69
283.051	847.69
283.282	867.69
283.513	836.69
283.745	739.69
283.976	669.69
284.207	705.69
284.439	728.69
284.67	756.69
284.901	742.69
285.132	796.69
285.364	743.69
285.595	740.69
285.826	704.69
286.057	732.69
286.288	759.69
286.52	768.69
286.751	827.69
286.982	866.69
287.213	774.69
287.444	715.69
287.675	750.69
287.906	762.69
288.138	811.69
288.369	788.69
288.6	736.69
288.831	715.69
289.062	702.69
289.293	730.69
289.524	769.69
289.755	776.69
289.986	757.69
290.217	727.69
290.448	734.69
290.679	768.69
290.91	798.69
291.141	810.69
291.371	814.69
291.602	774.69
291.833	796.69
292.064	847.69
292.295	818.69
292.526	832.69
292.757	864.69
292.987	811.69
293.218	792.69
293.449	862.69
293.68	930.69
293.91	986.69
294.141	925.69
294.372	885.69
294.603	925.69
294.833	966.69
295.064	884.69
295.295	838.69
295.525	783.69
295.756	734.69
295.987	710.69
296.217	737.69
296.448	776.69
296.679	752.69
296.909	762.69
297.14	768.69
297.37	777.69
297.601	842.69
297.831	858.69
298.062	827.69
298.292	820.69
298.523	781.69
298.753	777.69
298.984	770.69
299.214	792.69
299.445	822.69
299.675	842.69
299.905	820.69
300.136	813.69
300.366	772.69
300.597	759.69
300.827	761.69
301.057	785.69
301.288	836.69
301.518	833.69
301.748	856.69
301.979	887.69
302.209	904.69
302.439	958.69
302.669	996.69
302.9	895.69
303.13	834.69
303.36	848.69
303.59	856.69
303.82	851.69
304.051	829.69
304.281	852.69
304.511	840.69
304.741	935.69
304.971	1015.69
305.201	1036.69
305.431	910.69
305.661	791.69
305.891	753.69
306.121	744.69
306.352	789.69
306.582	828.69
306.812	884.69
307.042	916.69
307.272	943.69
307.502	965.69
307.731	1019.69
307.961	1039.69
308.191	985.69
308.421	866.69
308.651	806.69
308.881	807.69
309.111	843.69
309.341	792.69
309.571	810.69
309.8	796.69
310.03	806.69
310.26	799.69
310.49	818.69
310.72	852.69
310.949	858.69
311.179	891.69
311.409	845.69
311.639	838.69
311.868	818.69
312.098	838.69
312.328	853.69
312.557	844.69
312.787	853.69
313.017	856.69
313.246	858.69
313.476	873.69
313.706	900.69
313.935	873.69
314.165	885.69
314.394	928.69
314.624	955.69
314.853	1014.69
315.083	1018.69
315.312	1033.69
315.542	952.69
315.771	900.69
316.001	911.69
316.23	924.69
316.46	942.69
316.689	905.69
316.919	866.69
317.148	826.69
317.377	896.69
317.607	966.69
317.836	1033.69
318.065	1080.69
318.295	1022.69
318.524	967.69
318.753	952.69
318.983	949.69
319.212	908.69
319.441	893.69
319.67	905.69
319.9	905.69
320.129	989.69
320.358	984.69
320.587	1006.69
320.816	986.69
321.046	983.69
321.275	959.69
321.504	983.69
321.733	1028.69
321.962	986.69
322.191	901.69
322.42	898.69
322.649	884.69
322.878	892.69
323.108	940.69
323.337	936.69
323.566	967.69
323.795	948.69
324.024	952.69
324.253	918.69
324.482	951.69
324.71	892.69
324.939	847.69
325.168	902.69
325.397	935.69
325.626	966.69
325.855	962.69
326.084	900.69
326.313	916.69
326.542	941.69
326.77	951.69
326.999	934.69
327.228	887.69
327.457	871.69
327.686	874.69
327.914	884.69
328.143	917.69
328.372	926.69
328.6	888.69
328.829	894.69
329.058	883.69
329.287	929.69
329.515	933.69
329.744	954.69
329.972	988.69
330.201	1023.69
330.43	986.69
330.658	964.69
330.887	988.69
331.115	980.69
331.344	968.69
331.572	968.69
331.801	954.69
332.03	976.69
332.258	984.69
332.486	989.69
332.715	993.69
332.943	1001.69
333.172	970.69
333.4	985.69
333.629	1007.69
333.857	1083.69
334.085	1209.69
334.314	1342.69
334.542	1383.69
334.771	1235.69
334.999	1144.69
335.227	1109.69
335.455	1066.69
335.684	1053.69
335.912	1072.69
336.14	1082.69
336.369	1023.69
336.597	1027.69
336.825	977.69
337.053	1055.69
337.281	1114.69
337.51	1140.69
337.738	1135.69
337.966	1066.69
338.194	999.69
338.422	982.69
338.65	951.69
338.878	947.69
339.106	925.69
339.334	933.69
339.562	911.69
339.79	943.69
340.018	1005.69
340.246	1057.69
340.474	1015.69
340.702	986.69
340.93	1014.69
341.158	966.69
341.386	994.69
341.614	967.69
341.842	980.69
342.07	972.69
342.298	978.69
342.526	960.69
342.754	933.69
342.981	939.69
343.209	950.69
343.437	933.69
343.665	952.69
343.893	995.69
344.12	1047.69
344.348	1059.69
344.576	978.69
344.804	947.69
345.031	951.69
345.259	966.69
345.487	950.69
345.714	907.69
345.942	858.69
346.17	930.69
346.397	920.69
346.625	926.69
346.853	884.69
347.08	852.69
347.308	890.69
347.535	914.69
347.763	928.69
347.99	918.69
348.218	871.69
348.445	905.69
348.673	898.69
348.9	926.69
349.128	976.69
349.355	971.69
349.583	962.69
349.81	902.69
350.037	862.69
350.265	839.69
350.492	876.69
350.72	901.69
350.947	937.69
351.174	918.69
351.402	879.69
351.629	842.69
351.856	863.69
352.083	838.69
352.311	832.69
352.538	888.69
352.765	923.69
352.992	920.69
353.22	898.69
353.447	858.69
353.674	900.69
353.901	922.69
354.128	877.69
354.355	885.69
354.583	930.69
354.81	960.69
355.037	932.69
355.264	930.69
355.491	895.69
355.718	933.69
355.945	911.69
356.172	878.69
356.399	903.69
356.626	883.69
356.853	960.69
357.08	1015.69
357.307	1085.69
357.534	1039.69
357.761	919.69
357.988	855.69
358.215	867.69
358.441	879.69
358.668	862.69
358.895	924.69
359.122	946.69
359.349	1052.69
359.576	979.69
359.802	902.69
360.029	904.69
360.256	879.69
360.483	909.69
360.709	924.69
360.936	956.69
361.163	998.69
361.39	1071.69
361.616	1132.69
361.843	1110.69
362.07	1060.69
362.296	930.69
362.523	898.69
362.749	883.69
362.976	915.69
363.203	938.69
363.429	919.69
363.656	889.69
363.882	946.69
364.109	1017.69
364.335	1094.69
364.562	994.69
364.788	950.69
365.015	907.69
365.241	907.69
365.468	910.69
365.694	947.69
365.92	1008.69
366.147	919.69
366.373	895.69
366.599	886.69
366.826	878.69
367.052	922.69
367.278	926.69
367.505	920.69
367.731	926.69
367.957	953.69
368.184	980.69
368.41	1026.69
368.636	1044.69
368.862	1010.69
369.089	1046.69
369.315	993.69
369.541	947.69
369.767	957.69
369.993	913.69
370.219	897.69
370.445	950.69
370.672	996.69
370.898	1060.69
371.124	982.69
371.35	973.69
371.576	1020.69
371.802	1022.69
372.028	999.69
372.254	936.69
372.48	910.69
372.706	930.69
372.932	937.69
373.158	934.69
373.384	959.69
373.61	983.69
373.835	1019.69
374.061	1002.69
374.287	969.69
374.513	972.69
374.739	965.69
374.965	986.69
375.191	1010.69
375.416	996.69
375.642	1025.69
375.868	1086.69
376.094	1128.69
376.319	1038.69
376.545	986.69
376.771	1019.69
376.997	1082.69
377.222	1018.69
377.448	1043.69
377.674	1012.69
377.899	1023.69
378.125	1106.69
378.35	1071.69
378.576	958.69
378.802	933.69
379.027	942.69
379.253	960.69
379.478	970.69
379.704	967.69
379.929	947.69
380.155	998.69
380.38	981.69
380.606	982.69
380.831	1014.69
381.057	1068.69
381.282	1071.69
381.507	1037.69
381.733	1111.69
381.958	1120.69
382.184	1036.69
382.409	1046.69
382.634	1040.69
382.86	1001.69
383.085	1008.69
383.31	1072.69
383.535	1156.69
383.761	1206.69
383.986	1140.69
384.211	1104.69
384.436	1137.69
384.662	1172.69
384.887	1146.69
385.112	1116.69
385.337	1112.69
385.562	1104.69
385.787	1130.69
386.013	1134.69
386.238	1156.69
386.463	1161.69
386.688	1214.69
386.913	1285.69
387.138	1258.69
387.363	1146.69
387.588	1139.69
387.813	1125.69
388.038	1156.69
388.263	1195.69
388.488	1162.69
388.713	1086.69
388.938	1095.69
389.163	1078.69
389.387	1085.69
389.612	1095.69
389.837	1136.69
390.062	1112.69
390.287	1138.69
390.512	1087.69
390.736	1088.69
390.961	1070.69
391.186	1081.69
391.411	1070.69
391.636	1113.69
391.86	1103.69
392.085	1101.69
392.31	1099.69
392.534	1110.69
392.759	1116.69
392.984	1093.69
393.208	1136.69
393.433	1173.69
393.658	1198.69
393.882	1198.69
394.107	1148.69
394.331	1117.69
394.556	1126.69
394.78	1126.69
395.005	1152.69
395.229	1243.69
395.454	1312.69
395.678	1268.69
395.903	1227.69
396.127	1164.69
396.352	1203.69
396.576	1243.69
396.801	1256.69
397.025	1210.69
397.249	1222.69
397.474	1177.69
397.698	1208.69
397.922	1253.69
398.147	1308.69
398.371	1330.69
398.595	1352.69
398.82	1284.69
399.044	1311.69
399.268	1352.69
399.492	1432.69
399.717	1474.69
399.941	1522.69
400.165	1466.69
400.389	1408.69
400.613	1442.69
400.837	1673.69
401.062	1800.69
401.286	1493.69
401.51	1439.69
401.734	1452.69
401.958	1411.69
402.182	1293.69
402.406	1294.69
402.63	1269.69
402.854	1263.69
403.078	1278.69
403.302	1308.69
403.526	1311.69
403.75	1328.69
403.974	1365.69
404.198	1305.69
404.422	1413.69
404.645	1468.69
404.869	1430.69
405.093	1312.69
405.317	1271.69
405.541	1361.69
405.765	1340.69
405.988	1324.69
406.212	1361.69
406.436	1376.69
406.66	1433.69
406.883	1478.69
407.107	1656.69
407.331	1822.69
407.555	1891.69
407.778	1694.69
408.002	1426.69
408.226	1399.69
408.449	1374.69
408.673	1361.69
408.896	1375.69
409.12	1419.69
409.344	1318.69
409.567	1319.69
409.791	1362.69
410.014	1388.69
410.238	1455.69
410.461	1516.69
410.685	1346.69
410.908	1355.69
411.132	1354.69
411.355	1348.69
411.578	1314.69
411.802	1372.69
412.025	1394.69
412.249	1358.69
412.472	1286.69
412.695	1282.69
412.919	1277.69
413.142	1251.69
413.365	1282.69
413.589	1334.69
413.812	1402.69
414.035	1429.69
414.258	1324.69
414.482	1288.69
414.705	1300.69
414.928	1293.69
415.151	1298.69
415.374	1296.69
415.597	1346.69
415.821	1306.69
416.044	1344.69
416.267	1319.69
416.49	1284.69
416.713	1241.69
416.936	1315.69
417.159	1350.69
417.382	1374.69
417.605	1288.69
417.828	1331.69
418.051	1331.69
418.274	1293.69
418.497	1310.69
418.72	1271.69
418.943	1256.69
419.166	1298.69
419.389	1355.69
419.611	1313.69
419.834	1258.69
420.057	1301.69
420.28	1274.69
420.503	1270.69
420.726	1333.69
420.948	1326.69
421.171	1242.69
421.394	1290.69
421.617	1331.69
421.839	1294.69
422.062	1310.69
422.285	1248.69
422.507	1270.69
422.73	1252.69
422.953	1236.69
423.175	1220.69
423.398	1280.69
423.621	1270.69
423.843	1276.69
424.066	1337.69
424.288	1388.69
424.511	1400.69
424.733	1309.69
424.956	1232.69
425.178	1237.69
425.401	1247.69
425.623	1259.69
425.846	1265.69
426.068	1345.69
426.291	1380.69
426.513	1291.69
426.735	1294.69
426.958	1424.69
427.18	1458.69
427.402	1378.69
427.625	1428.69
427.847	1347.69
428.069	1249.69
428.292	1246.69
428.514	1206.69
428.736	1187.69
428.958	1228.69
429.181	1260.69
429.403	1447.69
429.625	1747.69
429.847	1445.69
430.069	1315.69
430.292	1450.69
430.514	1446.69
430.736	1326.69
430.958	1357.69
431.18	1273.69
431.402	1215.69
431.624	1166.69
431.846	1166.69
432.068	1115.69
432.29	1134.69
432.512	1151.69
432.734	1223.69
432.956	1249.69
433.178	1335.69
433.4	1322.69
433.622	1324.69
433.844	1224.69
434.066	1189.69
434.287	1164.69
434.509	1183.69
434.731	1268.69
434.953	1358.69
435.175	1321.69
435.397	1260.69
435.618	1220.69
435.84	1209.69
436.062	1251.69
436.284	1251.69
436.505	1267.69
436.727	1279.69
436.949	1272.69
437.17	1178.69
437.392	1239.69
437.614	1188.69
437.835	1174.69
438.057	1204.69
438.278	1184.69
438.5	1183.69
438.721	1176.69
438.943	1243.69
439.165	1228.69
439.386	1231.69
439.608	1244.69
439.829	1218.69
440.05	1233.69
440.272	1223.69
440.493	1247.69
440.715	1263.69
440.936	1334.69
441.158	1410.69
441.379	1376.69
441.6	1340.69
441.822	1345.69
442.043	1328.69
442.264	1293.69
442.486	1242.69
442.707	1206.69
442.928	1236.69
443.149	1286.69
443.371	1333.69
443.592	1344.69
443.813	1347.69
444.034	1334.69
444.255	1358.69
444.476	1396.69
444.698	1415.69
444.919	1355.69
445.14	1428.69
445.361	1403.69
445.582	1438.69
445.803	1415.69
446.024	1378.69
446.245	1410.69
446.466	1400.69
446.687	1322.69
446.908	1323.69
447.129	1267.69
447.35	1276.69
447.571	1324.69
447.792	1244.69
448.013	1227.69
448.234	1275.69
448.455	1288.69
448.675	1325.69
448.896	1206.69
449.117	1150.69
449.338	1206.69
449.559	1254.69
449.779	1328.69
450	1360.69
450.221	1463.69
450.442	1404.69
450.662	1250.69
450.883	1141.69
451.104	1191.69
451.324	1186.69
451.545	1190.69
451.766	1171.69
451.986	1134.69
452.207	1100.69
452.428	1084.69
452.648	1079.69
452.869	1105.69
453.089	1106.69
453.31	1125.69
453.53	1168.69
453.751	1107.69
453.971	1033.69
454.192	1060.69
454.412	1145.69
454.633	1116.69
454.853	1096.69
455.073	1053.69
455.294	1053.69
455.514	1085.69
455.734	1057.69
455.955	1131.69
456.175	1057.69
456.395	1022.69
456.616	1074.69
456.836	1091.69
457.056	1062.69
457.276	1060.69
457.497	1037.69
457.717	1024.69
457.937	1029.69
458.157	1053.69
458.377	1050.69
458.598	1003.69
458.818	1032.69
459.038	1095.69
459.258	1151.69
459.478	1134.69
459.698	1102.69
459.918	1123.69
460.138	1189.69
460.358	1212.69
460.578	1265.69
460.798	1282.69
461.018	1327.69
461.238	1266.69
461.458	1250.69
461.678	1259.69
461.898	1200.69
462.118	1218.69
462.338	1233.69
462.558	1245.69
462.777	1263.69
462.997	1318.69
463.217	1360.69
463.437	1323.69
463.657	1265.69
463.876	1229.69
464.096	1244.69
464.316	1246.69
464.536	1250.69
464.755	1284.69
464.975	1293.69
465.195	1246.69
465.414	1296.69
465.634	1276.69
465.854	1247.69
466.073	1400.69
466.293	1315.69
466.512	1148.69
466.732	1171.69
466.951	1234.69
467.171	1236.69
467.391	1170.69
467.61	1191.69
467.829	1195.69
468.049	1316.69
468.268	1421.69
468.488	1296.69
468.707	1214.69
468.927	1198.69
469.146	1217.69
469.365	1179.69
469.585	1200.69
469.804	1199.69
470.023	1259.69
470.243	1243.69
470.462	1188.69
470.681	1204.69
470.901	1190.69
471.12	1213.69
471.339	1215.69
471.558	1207.69
471.777	1175.69
471.997	1191.69
472.216	1175.69
472.435	1118.69
472.654	1124.69
472.873	1173.69
473.092	1218.69
473.311	1166.69
473.53	1145.69
473.749	1114.69
473.968	1181.69
474.187	1197.69
474.406	1184.69
474.625	1179.69
474.844	1194.69
475.063	1186.69
475.282	1214.69
475.501	1174.69
475.72	1166.69
475.939	1230.69
476.158	1219.69
476.377	1194.69
476.596	1220.69
476.814	1219.69
477.033	1165.69
477.252	1278.69
477.471	1269.69
477.69	1263.69
477.908	1282.69
478.127	1380.69
478.346	1396.69
478.564	1386.69
478.783	1382.69
479.002	1472.69
479.22	1383.69
479.439	1454.69
479.658	1582.69
479.876	1495.69
480.095	1362.69
480.313	1295.69
480.532	1295.69
480.751	1268.69
480.969	1309.69
481.188	1256.69
481.406	1212.69
481.624	1216.69
481.843	1268.69
482.061	1277.69
482.28	1317.69
482.498	1310.69
482.717	1319.69
482.935	1297.69
483.153	1329.69
483.372	1331.69
483.59	1333.69
483.808	1366.69
484.027	1342.69
484.245	1395.69
484.463	1720.69
484.681	1859.69
484.9	1477.69
485.118	1359.69
485.336	1330.69
485.554	1341.69
485.772	1367.69
485.99	1338.69
486.209	1379.69
486.427	1349.69
486.645	1383.69
486.863	1399.69
487.081	1443.69
487.299	1456.69
487.517	1410.69
487.735	1442.69
487.953	1479.69
488.171	1512.69
488.389	1456.69
488.607	1473.69
488.825	1580.69
489.043	1503.69
489.261	1403.69
489.479	1425.69
489.696	1451.69
489.914	1491.69
490.132	1407.69
490.35	1440.69
490.568	1519.69
490.786	1504.69
491.003	1452.69
491.221	1505.69
491.439	1558.69
491.657	1531.69
491.874	1640.69
492.092	1644.69
492.31	1688.69
492.527	1647.69
492.745	1576.69
492.963	1581.69
493.18	1600.69
493.398	1691.69
493.615	1710.69
493.833	1586.69
494.05	1532.69
494.268	1567.69
494.485	1605.69
494.703	1556.69
494.92	1486.69
495.138	1532.69
495.355	1560.69
495.573	1566.69
495.79	1650.69
496.008	1638.69
496.225	1598.69
496.442	1575.69
496.66	1586.69
496.877	1538.69
497.094	1617.69
497.312	1634.69
497.529	1615.69
497.746	1635.69
497.963	1850.69
498.181	1955.69
498.398	1872.69
498.615	1797.69
498.832	1739.69
499.049	1741.69
499.267	1727.69
499.484	1886.69
499.701	2011.69
499.918	2024.69
500.135	2183.69
500.352	2310.69
500.569	2352.69
500.786	2504.69
501.003	2290.69
501.22	2067.69
501.437	2054.69
501.654	2046.69
501.871	1992.69
502.088	1756.69
502.305	1735.69
502.522	1673.69
502.739	1570.69
502.956	1554.69
503.172	1486.69
503.389	1482.69
503.606	1490.69
503.823	1450.69
504.04	1470.69
504.256	1504.69
504.473	1468.69
504.69	1515.69
504.907	1409.69
505.123	1426.69
505.34	1521.69
505.557	1953.69
505.773	1627.69
505.99	1380.69
506.207	1287.69
506.423	1267.69
506.64	1258.69
506.856	1314.69
507.073	1491.69
507.289	1573.69
507.506	1484.69
507.722	1315.69
507.939	1241.69
508.155	1206.69
508.372	1254.69
508.588	1170.69
508.805	1194.69
509.021	1162.69
509.238	1134.69
509.454	1118.69
509.67	1146.69
509.887	1106.69
510.103	1107.69
510.319	1127.69
510.536	1187.69
510.752	1214.69
510.968	1170.69
511.184	1240.69
511.401	1233.69
511.617	1096.69
511.833	1094.69
512.049	1107.69
512.265	1112.69
512.481	1082.69
512.698	1132.69
512.914	1194.69
513.13	1143.69
513.346	1103.69
513.562	1089.69
513.778	1119.69
513.994	1147.69
514.21	1185.69
514.426	1160.69
514.642	1277.69
514.858	1218.69
515.074	1143.69
515.29	1098.69
515.506	1124.69
515.721	1157.69
515.937	1146.69
516.153	1267.69
516.369	1244.69
516.585	1206.69
516.801	1159.69
517.016	1117.69
517.232	1187.69
517.448	1196.69
517.664	1213.69
517.879	1189.69
518.095	1285.69
518.311	1195.69
518.527	1168.69
518.742	1155.69
518.958	1117.69
519.173	1136.69
519.389	1160.69
519.605	1150.69
519.82	1154.69
520.036	1174.69
520.251	1128.69
520.467	1151.69
520.682	1206.69
520.898	1212.69
521.113	1107.69
521.329	1106.69
521.544	1166.69
521.76	1086.69
521.975	1084.69
522.19	1076.69
522.406	1086.69
522.621	1373.69
522.836	1309.69
523.052	1087.69
523.267	1094.69
523.482	1083.69
523.698	1058.69
523.913	1047.69
524.128	1079.69
524.343	1137.69
524.559	1159.69
524.774	1103.69
524.989	1078.69
525.204	1051.69
525.419	1028.69
525.634	1050.69
525.849	1077.69
526.064	1040.69
526.28	1027.69
526.495	1020.69
526.71	979.69
526.925	988.69
527.14	959.69
527.355	956.69
527.57	984.69
527.785	1006.69
527.999	954.69
528.214	970.69
528.429	972.69
528.644	1024.69
528.859	1018.69
529.074	1059.69
529.289	1092.69
529.503	1099.69
529.718	1070.69
529.933	1006.69
530.148	944.69
530.363	972.69
530.577	951.69
530.792	994.69
531.007	961.69
531.221	975.69
531.436	971.69
531.651	981.69
531.865	1066.69
532.08	1014.69
532.295	955.69
532.509	931.69
532.724	939.69
532.938	998.69
533.153	1054.69
533.367	1046.69
533.582	1021.69
533.796	983.69
534.011	990.69
534.225	984.69
534.44	976.69
534.654	952.69
534.868	951.69
535.083	1015.69
535.297	1016.69
535.511	1005.69
535.726	997.69
535.94	980.69
536.154	957.69
536.369	920.69
536.583	916.69
536.797	939.69
537.011	940.69
537.225	928.69
537.44	903.69
537.654	958.69
537.868	922.69
538.082	902.69
538.296	886.69
538.51	896.69
538.724	943.69
538.938	927.69
539.153	991.69
539.367	1003.69
539.581	972.69
539.795	967.69
540.009	968.69
540.222	933.69
540.436	956.69
540.65	1066.69
540.864	1078.69
541.078	1045.69
541.292	1038.69
541.506	1078.69
541.72	1095.69
541.934	1143.69
542.147	1180.69
542.361	1114.69
542.575	1041.69
542.789	1021.69
543.002	955.69
543.216	942.69
543.43	1008.69
543.644	1029.69
543.857	1092.69
544.071	1094.69
544.285	1077.69
544.498	1040.69
544.712	1074.69
544.925	1111.69
545.139	1115.69
545.352	1066.69
545.566	1054.69
545.779	1032.69
545.993	1038.69
546.206	1085.69
546.42	1046.69
546.633	1038.69
546.847	1026.69
547.06	1015.69
547.274	1041.69
547.487	1083.69
547.7	1080.69
547.914	1058.69
548.127	1068.69
548.34	1055.69
548.554	1054.69
548.767	1020.69
548.98	1037.69
549.193	1034.69
549.407	1087.69
549.62	1080.69
549.833	1040.69
550.046	1035.69
550.259	1048.69
550.473	1000.69
550.686	1018.69
550.899	1007.69
551.112	982.69
551.325	961.69
551.538	1047.69
551.751	1128.69
551.964	935.69
552.177	933.69
552.39	956.69
552.603	999.69
552.816	1016.69
553.029	1039.69
553.242	1080.69
553.455	1034.69
553.667	1032.69
553.88	995.69
554.093	1006.69
554.306	972.69
554.519	958.69
554.732	926.69
554.944	958.69
555.157	940.69
555.37	910.69
555.583	940.69
555.795	925.69
556.008	896.69
556.221	870.69
556.433	849.69
556.646	865.69
556.859	862.69
557.071	849.69
557.284	888.69
557.496	867.69
557.709	847.69
557.921	869.69
558.134	844.69
558.346	865.69
558.559	857.69
558.771	829.69
558.984	813.69
559.196	811.69
559.409	783.69
559.621	806.69
559.833	772.69
560.046	829.69
560.258	849.69
560.47	832.69
560.683	776.69
560.895	829.69
561.107	830.69
561.32	811.69
561.532	794.69
561.744	811.69
561.956	838.69
562.168	789.69
562.381	773.69
562.593	768.69
562.805	782.69
563.017	769.69
563.229	768.69
563.441	780.69
563.653	782.69
563.865	752.69
564.077	747.69
564.289	749.69
564.501	752.69
564.713	783.69
564.925	802.69
565.137	883.69
565.349	812.69
565.561	817.69
565.773	797.69
565.985	820.69
566.197	871.69
566.408	894.69
566.62	871.69
566.832	896.69
567.044	890.69
567.255	888.69
567.467	874.69
567.679	924.69
567.891	902.69
568.102	874.69
568.314	832.69
568.526	806.69
568.737	784.69
568.949	731.69
569.161	738.69
569.372	687.69
569.584	692.69
569.795	658.69
570.007	664.69
570.218	629.69
570.43	642.69
570.641	624.69
570.853	644.69
571.064	674.69
571.276	640.69
571.487	648.69
571.698	640.69
571.91	623.69
572.121	616.69
572.333	592.69
572.544	596.69
572.755	579.69
572.966	570.69
573.178	560.69
573.389	572.69
573.6	573.69
573.811	643.69
574.023	580.69
574.234	574.69
574.445	559.69
574.656	555.69
574.867	559.69
575.078	546.69
575.289	567.69
575.501	562.69
575.712	541.69
575.923	549.69
576.134	554.69
576.345	554.69
576.556	544.69
576.767	524.69
576.978	526.69
577.188	531.69
577.399	525.69
577.61	502.69
577.821	534.69
578.032	506.69
578.243	510.69
578.454	518.69
578.665	503.69
578.875	469.69
579.086	464.69
579.297	472.69
579.508	517.69
579.718	480.69
579.929	504.69
580.14	493.69
580.35	474.69
580.561	513.69
580.772	539.69
580.982	530.69
581.193	503.69
581.403	499.69
581.614	482.69
581.825	470.69
582.035	487.69
582.246	473.69
582.456	499.69
582.667	461.69
582.877	473.69
583.087	476.69
583.298	461.69
583.508	462.69
583.719	466.69
583.929	482.69
584.139	442.69
584.35	446.69
584.56	466.69
584.77	451.69
584.981	458.69
585.191	461.69
585.401	469.69
585.611	466.69
585.821	457.69
586.032	453.69
586.242	438.69
586.452	443.69
586.662	453.69
586.872	439.69
587.082	414.69
587.292	456.69
587.502	451.69
587.713	444.69
587.923	439.69
588.133	450.69
588.343	444.69
588.553	442.69
588.762	439.69
588.972	433.69
589.182	459.69
589.392	447.69
589.602	422.69
589.812	428.69
590.022	450.69
590.232	433.69
590.441	463.69
590.651	448.69
590.861	434.69
591.071	438.69
591.281	408.69
591.49	421.69
591.7	446.69
591.91	432.69
592.119	428.69
592.329	448.69
592.539	448.69
592.748	452.69
592.958	440.69
593.167	458.69
593.377	457.69
593.587	478.69
593.796	484.69
594.006	477.69
594.215	464.69
594.424	464.69
594.634	445.69
594.843	464.69
595.053	466.69
595.262	438.69
595.472	435.69
595.681	434.69
595.89	429.69
596.1	431.69
596.309	425.69
596.518	428.69
596.727	414.69
596.937	439.69
597.146	406.69
597.355	430.69
597.564	392.69
597.774	399.69
597.983	389.69
598.192	386.69
598.401	400.69
598.61	399.69
598.819	397.69
599.028	388.69
599.237	410.69
599.446	405.69
599.655	369.69
599.864	387.69
600.073	383.69
600.282	380.69
600.491	384.69
600.7	386.69
600.909	383.69
601.118	388.69
601.327	382.69
601.536	386.69
601.745	418.69
601.953	408.69
602.162	408.69
602.371	403.69
602.58	406.69
602.789	416.69
602.997	396.69
603.206	408.69
603.415	395.69
603.623	397.69
603.832	400.69
604.041	385.69
604.249	384.69
604.458	368.69
604.666	397.69
604.875	375.69
605.084	401.69
605.292	410.69
605.501	385.69
605.709	404.69
605.918	396.69
606.126	388.69
606.334	385.69
606.543	408.69
606.751	412.69
606.96	401.69
607.168	408.69
607.376	391.69
607.585	400.69
607.793	382.69
608.001	386.69
608.21	390.69
608.418	387.69
608.626	398.69
608.834	389.69
609.043	390.69
609.251	388.69
609.459	389.69
609.667	392.69
609.875	376.69
610.083	421.69
610.291	403.69
610.499	401.69
610.707	394.69
610.916	374.69
611.124	380.69
611.332	389.69
611.54	386.69
611.748	392.69
611.955	392.69
612.163	390.69
612.371	379.69
612.579	371.69
612.787	396.69
612.995	380.69
613.203	391.69
613.411	391.69
613.618	378.69
613.826	384.69
614.034	368.69
614.242	389.69
614.449	374.69
614.657	381.69
614.865	382.69
615.072	378.69
615.28	356.69
615.488	383.69
615.695	391.69
615.903	393.69
616.111	374.69
616.318	378.69
616.526	382.69
616.733	376.69
616.941	375.69
617.148	372.69
617.356	389.69
617.563	371.69
617.771	364.69
617.978	360.69
618.185	351.69
618.393	335.69
618.6	353.69
618.807	374.69
619.015	344.69
619.222	346.69
619.429	350.69
619.637	355.69
619.844	340.69
620.051	342.69
620.258	349.69
620.466	352.69
620.673	329.69
620.88	343.69
621.087	331.69
621.294	330.69
621.501	319.69
621.708	336.69
621.915	341.69
622.122	339.69
622.329	339.69
622.536	343.69
622.743	336.69
622.95	354.69
623.157	340.69
623.364	358.69
623.571	331.69
623.778	324.69
623.985	333.69
624.192	335.69
624.399	333.69
624.606	350.69
624.812	310.69
625.019	323.69
625.226	316.69
625.433	317.69
625.639	318.69
625.846	317.69
626.053	307.69
626.259	274.69
626.466	277.69
626.673	300.69
626.879	272.69
627.086	282.69
627.293	301.69
627.499	302.69
627.706	308.69
627.912	314.69
628.119	319.69
628.325	335.69
628.532	299.69
628.738	298.69
628.945	293.69
629.151	305.69
629.357	307.69
629.564	307.69
629.77	290.69
629.976	299.69
630.183	298.69
630.389	312.69
630.595	279.69
630.802	269.69
631.008	296.69
631.214	304.69
631.42	276.69
631.627	279.69
631.833	260.69
632.039	281.69
632.245	287.69
632.451	286.69
632.657	271.69
632.863	304.69
633.069	303.69
633.275	284.69
633.481	259.69
633.688	279.69
633.893	289.69
634.099	285.69
634.305	272.69
634.511	276.69
634.717	246.69
634.923	261.69
635.129	256.69
635.335	268.69
635.541	271.69
635.747	254.69
635.952	276.69
636.158	288.69
636.364	287.69
636.57	290.69
636.775	285.69
636.981	279.69
637.187	265.69
637.392	269.69
637.598	257.69
637.804	268.69
638.009	270.69
638.215	276.69
638.421	269.69
638.626	269.69
638.832	268.69
639.037	262.69
639.243	253.69
639.448	260.69
639.654	265.69
639.859	241.69
640.065	251.69
640.27	269.69
640.475	254.69
640.681	259.69
640.886	258.69
641.091	274.69
641.297	267.69
641.502	250.69
641.707	251.69
641.913	252.69
642.118	234.69
642.323	262.69
642.528	244.69
642.733	259.69
642.939	263.69
643.144	255.69
643.349	242.69
643.554	249.69
643.759	243.69
643.964	241.69
644.169	249.69
644.374	232.69
644.579	236.69
644.784	267.69
644.989	248.69
645.194	231.69
645.399	248.69
645.604	244.69
645.809	258.69
646.014	241.69
646.219	239.69
646.423	256.69
646.628	243.69
646.833	256.69
647.038	251.69
647.243	252.69
647.447	257.69
647.652	261.69
647.857	232.69
648.062	252.69
648.266	270.69
648.471	240.69
648.676	264.69
648.88	237.69
649.085	261.69
649.289	235.69
649.494	233.69
649.698	242.69
649.903	248.69
650.107	240.69
650.312	234.69
650.516	251.69
650.721	246.69
650.925	246.69
651.13	222.69
651.334	253.69
651.539	236.69
651.743	238.69
651.947	226.69
652.152	222.69
652.356	219.69
652.56	239.69
652.764	213.69
652.969	231.69
653.173	209.69
653.377	213.69
653.581	213.69
653.785	219.69
653.99	203.69
654.194	219.69
654.398	234.69
654.602	224.69
654.806	204.69
655.01	212.69
655.214	215.69
655.418	218.69
655.622	228.69
655.826	225.69
656.03	223.69
656.234	240.69
656.438	251.69
656.642	242.69
656.846	250.69
657.049	212.69
657.253	217.69
657.457	203.69
657.661	194.69
657.865	167.69
658.068	173.69
658.272	166.69
658.476	152.69
658.68	169.69
658.883	140.69
659.087	137.69
659.291	135.69
659.494	132.69
659.698	142.69
659.901	124.69
660.105	108.69
660.309	119.69
660.512	119.69
660.716	101.69
660.919	114.69
661.123	108.69
661.326	116.69
661.53	109.69
661.733	98.69
661.936	91.69
662.14	104.69
662.343	93.69
662.546	97.69
662.75	92.69
662.953	96.69
663.156	81.69
663.36	90.69
663.563	96.69
663.766	77.69
663.969	83.69
664.173	89.69
664.376	85.69
664.579	71.69
664.782	68.69
664.985	63.69
665.188	80.69
665.391	84.69
665.594	80.69
665.797	77.69
666	82.69
666.203	80.69
666.406	64.69
666.609	74.69
666.812	76.69
667.015	70.69
667.218	95.69
667.421	90.69
667.624	84.69
667.827	64.69
668.03	80.69
668.232	84.69
668.435	90.69
668.638	66.69
668.841	71.69
669.043	72.69
669.246	76.69
669.449	73.69
669.651	79.69
669.854	67.69
670.057	66.69
670.259	70.69
670.462	85.69
670.665	71.69
670.867	79.69
671.07	77.69
671.272	89.69
671.475	86.69
671.677	74.69
671.88	72.69
672.082	76.69
672.284	90.69
672.487	72.69
672.689	71.69
672.892	71.69
