Data from WStandard_LampEnergy5.5LIBS07252019.E.O._I.C._HRD10591_16-07-53-921.txt Node
Date: Thu Jul 25 16:07:53 EDT 2019
User: cochatt
Spectrometer: HR+D1059
Trigger mode: 1
Integration Time (sec): 1.000000E-1
Scans to average: 1
Electric dark correction enabled: true
Nonlinearity correction enabled: false
Boxcar width: 0
XAxis mode: Wavelengths
Number of Pixels in Spectrum: 2048
>>>>>Begin Spectral Data<<<<<
223.165	-11.94
223.4	-11.94
223.635	-11.94
223.869	-9.94
224.104	-2.94
224.338	-6.94
224.573	-9.94
224.808	-18.94
225.042	-12.94
225.277	-21.94
225.511	-19.94
225.746	4.06
225.98	9.06
226.215	12.06
226.449	14.06
226.683	26.06
226.918	21.06
227.152	29.06
227.387	30.06
227.621	51.06
227.856	44.06
228.09	60.06
228.324	48.06
228.559	60.06
228.793	148.06
229.027	350.06
229.262	393.06
229.496	384.06
229.73	389.06
229.964	444.06
230.199	456.06
230.433	462.06
230.667	486.06
230.901	548.06
231.136	454.06
231.37	488.06
231.604	452.06
231.838	485.06
232.072	467.06
232.306	459.06
232.541	469.06
232.775	577.06
233.009	606.06
233.243	588.06
233.477	529.06
233.711	563.06
233.945	587.06
234.179	551.06
234.413	587.06
234.647	653.06
234.881	588.06
235.115	539.06
235.349	570.06
235.583	582.06
235.817	553.06
236.051	514.06
236.285	546.06
236.519	572.06
236.753	666.06
236.987	704.06
237.221	666.06
237.455	747.06
237.689	718.06
237.922	671.06
238.156	638.06
238.39	675.06
238.624	701.06
238.858	740.06
239.091	764.06
239.325	814.06
239.559	930.06
239.793	953.06
240.027	1066.06
240.26	1078.06
240.494	780.06
240.728	721.06
240.961	741.06
241.195	734.06
241.429	821.06
241.662	830.06
241.896	777.06
242.13	770.06
242.363	854.06
242.597	928.06
242.83	883.06
243.064	891.06
243.298	964.06
243.531	947.06
243.765	948.06
243.998	944.06
244.232	801.06
244.465	788.06
244.699	801.06
244.932	910.06
245.166	1020.06
245.399	969.06
245.633	906.06
245.866	908.06
246.099	948.06
246.333	962.06
246.566	967.06
246.8	1064.06
247.033	1183.06
247.266	1085.06
247.5	1069.06
247.733	1045.06
247.966	1094.06
248.2	1243.06
248.433	1219.06
248.666	1244.06
248.899	1347.06
249.133	1546.06
249.366	1746.06
249.599	1458.06
249.832	1263.06
250.066	1264.06
250.299	1314.06
250.532	1213.06
250.765	1093.06
250.998	1177.06
251.231	1194.06
251.465	1257.06
251.698	1216.06
251.931	1177.06
252.164	1206.06
252.397	1257.06
252.63	1268.06
252.863	1098.06
253.096	1100.06
253.329	1148.06
253.562	1181.06
253.795	1272.06
254.028	1290.06
254.261	1166.06
254.494	1206.06
254.727	1133.06
254.96	1150.06
255.193	1244.06
255.426	1449.06
255.659	1662.06
255.892	1671.06
256.124	1356.06
256.357	1366.06
256.59	1430.06
256.823	1461.06
257.056	1423.06
257.289	1693.06
257.521	1950.06
257.754	1717.06
257.987	1625.06
258.22	1803.06
258.452	1742.06
258.685	1374.06
258.918	1359.06
259.151	1385.06
259.383	1322.06
259.616	1156.06
259.849	1204.06
260.081	1408.06
260.314	1516.06
260.547	1722.06
260.779	1723.06
261.012	1627.06
261.244	1432.06
261.477	1383.06
261.71	1471.06
261.942	1432.06
262.175	1368.06
262.407	1461.06
262.64	1380.06
262.872	1318.06
263.105	1222.06
263.337	1280.06
263.57	1288.06
263.802	1317.06
264.035	1228.06
264.267	1174.06
264.499	1118.06
264.732	1230.06
264.964	1276.06
265.197	1370.06
265.429	1429.06
265.661	1590.06
265.894	1731.06
266.126	1837.06
266.358	1618.06
266.591	1641.06
266.823	1838.06
267.055	1643.06
267.287	1616.06
267.52	1568.06
267.752	1542.06
267.984	1548.06
268.216	1620.06
268.448	1652.06
268.681	1685.06
268.913	1505.06
269.145	1438.06
269.377	1363.06
269.609	1536.06
269.841	1720.06
270.073	2072.06
270.306	2264.06
270.538	2478.06
270.77	2061.06
271.002	1720.06
271.234	1677.06
271.466	1659.06
271.698	1834.06
271.93	2270.06
272.162	2267.06
272.394	2008.06
272.626	1916.06
272.858	1698.06
273.09	1497.06
273.322	1476.06
273.553	1410.06
273.785	1367.06
274.017	1442.06
274.249	1572.06
274.481	1645.06
274.713	1479.06
274.945	1410.06
275.176	1419.06
275.408	1416.06
275.64	1393.06
275.872	1362.06
276.104	1456.06
276.335	1658.06
276.567	1870.06
276.799	1959.06
277.031	1741.06
277.262	1614.06
277.494	1657.06
277.726	1876.06
277.957	1818.06
278.189	1678.06
278.421	1568.06
278.652	1497.06
278.884	1488.06
279.115	1477.06
279.347	1538.06
279.579	1436.06
279.81	1486.06
280.042	1612.06
280.273	1793.06
280.505	1791.06
280.736	1879.06
280.968	1752.06
281.199	1542.06
281.431	1422.06
281.662	1407.06
281.894	1451.06
282.125	1457.06
282.356	1548.06
282.588	1597.06
282.819	1545.06
283.051	1684.06
283.282	1806.06
283.513	1790.06
283.745	1518.06
283.976	1464.06
284.207	1440.06
284.439	1479.06
284.67	1514.06
284.901	1545.06
285.132	1594.06
285.364	1534.06
285.595	1584.06
285.826	1558.06
286.057	1517.06
286.288	1510.06
286.52	1569.06
286.751	1724.06
286.982	1757.06
287.213	1641.06
287.444	1485.06
287.675	1464.06
287.906	1516.06
288.138	1654.06
288.369	1610.06
288.6	1539.06
288.831	1456.06
289.062	1500.06
289.293	1553.06
289.524	1511.06
289.755	1588.06
289.986	1614.06
290.217	1454.06
290.448	1462.06
290.679	1549.06
290.91	1540.06
291.141	1591.06
291.371	1644.06
291.602	1610.06
291.833	1601.06
292.064	1662.06
292.295	1643.06
292.526	1676.06
292.757	1760.06
292.987	1673.06
293.218	1548.06
293.449	1651.06
293.68	1838.06
293.91	2081.06
294.141	1889.06
294.372	1796.06
294.603	1885.06
294.833	1982.06
295.064	1792.06
295.295	1644.06
295.525	1623.06
295.756	1529.06
295.987	1417.06
296.217	1437.06
296.448	1466.06
296.679	1535.06
296.909	1534.06
297.14	1530.06
297.37	1508.06
297.601	1591.06
297.831	1707.06
298.062	1768.06
298.292	1592.06
298.523	1541.06
298.753	1538.06
298.984	1561.06
299.214	1562.06
299.445	1571.06
299.675	1614.06
299.905	1620.06
300.136	1608.06
300.366	1501.06
300.597	1498.06
300.827	1453.06
301.057	1595.06
301.288	1610.06
301.518	1597.06
301.748	1637.06
301.979	1730.06
302.209	1732.06
302.439	1912.06
302.669	1979.06
302.9	1862.06
303.13	1634.06
303.36	1637.06
303.59	1682.06
303.82	1659.06
304.051	1641.06
304.281	1682.06
304.511	1668.06
304.741	1742.06
304.971	1906.06
305.201	2154.06
305.431	1900.06
305.661	1599.06
305.891	1418.06
306.121	1392.06
306.352	1440.06
306.582	1594.06
306.812	1691.06
307.042	1810.06
307.272	1825.06
307.502	1831.06
307.731	2021.06
307.961	2150.06
308.191	2053.06
308.421	1742.06
308.651	1618.06
308.881	1573.06
309.111	1628.06
309.341	1542.06
309.571	1601.06
309.8	1599.06
310.03	1565.06
310.26	1557.06
310.49	1515.06
310.72	1634.06
310.949	1687.06
311.179	1721.06
311.409	1695.06
311.639	1656.06
311.868	1572.06
312.098	1636.06
312.328	1612.06
312.557	1596.06
312.787	1662.06
313.017	1671.06
313.246	1642.06
313.476	1682.06
313.706	1732.06
313.935	1690.06
314.165	1681.06
314.394	1761.06
314.624	1842.06
314.853	1930.06
315.083	2027.06
315.312	2040.06
315.542	1932.06
315.771	1681.06
316.001	1685.06
316.23	1816.06
316.46	1785.06
316.689	1796.06
316.919	1660.06
317.148	1623.06
317.377	1653.06
317.607	1767.06
317.836	1983.06
318.065	2052.06
318.295	1946.06
318.524	1887.06
318.753	1796.06
318.983	1805.06
319.212	1772.06
319.441	1703.06
319.67	1691.06
319.9	1743.06
320.129	1810.06
320.358	1884.06
320.587	1935.06
320.816	1922.06
321.046	1879.06
321.275	1773.06
321.504	1795.06
321.733	1934.06
321.962	1950.06
322.191	1778.06
322.42	1715.06
322.649	1702.06
322.878	1728.06
323.108	1742.06
323.337	1834.06
323.566	1803.06
323.795	1818.06
324.024	1797.06
324.253	1737.06
324.482	1764.06
324.71	1706.06
324.939	1623.06
325.168	1650.06
325.397	1767.06
325.626	1768.06
325.855	1790.06
326.084	1726.06
326.313	1778.06
326.542	1753.06
326.77	1824.06
326.999	1822.06
327.228	1744.06
327.457	1644.06
327.686	1665.06
327.914	1692.06
328.143	1748.06
328.372	1734.06
328.6	1718.06
328.829	1716.06
329.058	1692.06
329.287	1704.06
329.515	1766.06
329.744	1747.06
329.972	1818.06
330.201	1948.06
330.43	1915.06
330.658	1796.06
330.887	1841.06
331.115	1844.06
331.344	1860.06
331.572	1841.06
331.801	1824.06
332.03	1798.06
332.258	1837.06
332.486	1866.06
332.715	1864.06
332.943	1860.06
333.172	1853.06
333.4	1836.06
333.629	1876.06
333.857	1965.06
334.085	2163.06
334.314	2458.06
334.542	2709.06
334.771	2530.06
334.999	2233.06
335.227	2065.06
335.455	1987.06
335.684	1926.06
335.912	2000.06
336.14	2064.06
336.369	2036.06
336.597	1900.06
336.825	1855.06
337.053	1878.06
337.281	2010.06
337.51	2103.06
337.738	2205.06
337.966	2044.06
338.194	1896.06
338.422	1848.06
338.65	1850.06
338.878	1781.06
339.106	1768.06
339.334	1723.06
339.562	1696.06
339.79	1747.06
340.018	1840.06
340.246	1952.06
340.474	1924.06
340.702	1843.06
340.93	1907.06
341.158	1866.06
341.386	1802.06
341.614	1802.06
341.842	1770.06
342.07	1802.06
342.298	1815.06
342.526	1850.06
342.754	1765.06
342.981	1806.06
343.209	1788.06
343.437	1798.06
343.665	1818.06
343.893	1844.06
344.12	1924.06
344.348	1975.06
344.576	1864.06
344.804	1760.06
345.031	1809.06
345.259	1802.06
345.487	1792.06
345.714	1718.06
345.942	1622.06
346.17	1640.06
346.397	1702.06
346.625	1736.06
346.853	1651.06
347.08	1619.06
347.308	1623.06
347.535	1670.06
347.763	1742.06
347.99	1679.06
348.218	1654.06
348.445	1674.06
348.673	1676.06
348.9	1717.06
349.128	1732.06
349.355	1846.06
349.583	1803.06
349.81	1716.06
350.037	1568.06
350.265	1574.06
350.492	1596.06
350.72	1620.06
350.947	1676.06
351.174	1752.06
351.402	1629.06
351.629	1580.06
351.856	1577.06
352.083	1522.06
352.311	1574.06
352.538	1578.06
352.765	1706.06
352.992	1738.06
353.22	1681.06
353.447	1615.06
353.674	1655.06
353.901	1642.06
354.128	1658.06
354.355	1573.06
354.583	1653.06
354.81	1737.06
355.037	1705.06
355.264	1749.06
355.491	1653.06
355.718	1705.06
355.945	1657.06
356.172	1619.06
356.399	1613.06
356.626	1612.06
356.853	1644.06
357.08	1803.06
357.307	1981.06
357.534	2007.06
357.761	1716.06
357.988	1606.06
358.215	1561.06
358.441	1579.06
358.668	1575.06
358.895	1620.06
359.122	1693.06
359.349	1850.06
359.576	1855.06
359.802	1679.06
360.029	1580.06
360.256	1569.06
360.483	1588.06
360.709	1649.06
360.936	1714.06
361.163	1736.06
361.39	1923.06
361.616	2104.06
361.843	2050.06
362.07	1926.06
362.296	1690.06
362.523	1650.06
362.749	1650.06
362.976	1681.06
363.203	1703.06
363.429	1667.06
363.656	1612.06
363.882	1672.06
364.109	1831.06
364.335	1960.06
364.562	1856.06
364.788	1788.06
365.015	1688.06
365.241	1609.06
365.468	1637.06
365.694	1701.06
365.92	1828.06
366.147	1724.06
366.373	1613.06
366.599	1591.06
366.826	1607.06
367.052	1613.06
367.278	1642.06
367.505	1648.06
367.731	1678.06
367.957	1706.06
368.184	1709.06
368.41	1844.06
368.636	1857.06
368.862	1868.06
369.089	1897.06
369.315	1836.06
369.541	1733.06
369.767	1728.06
369.993	1656.06
370.219	1613.06
370.445	1691.06
370.672	1761.06
370.898	1853.06
371.124	1892.06
371.35	1751.06
371.576	1765.06
371.802	1872.06
372.028	1768.06
372.254	1725.06
372.48	1709.06
372.706	1698.06
372.932	1653.06
373.158	1657.06
373.384	1688.06
373.61	1752.06
373.835	1858.06
374.061	1772.06
374.287	1708.06
374.513	1708.06
374.739	1750.06
374.965	1783.06
375.191	1778.06
375.416	1775.06
375.642	1776.06
375.868	1912.06
376.094	1965.06
376.319	1883.06
376.545	1744.06
376.771	1757.06
376.997	1858.06
377.222	1845.06
377.448	1801.06
377.674	1784.06
377.899	1829.06
378.125	1928.06
378.35	1951.06
378.576	1770.06
378.802	1664.06
379.027	1645.06
379.253	1708.06
379.478	1730.06
379.704	1669.06
379.929	1717.06
380.155	1679.06
380.38	1745.06
380.606	1785.06
380.831	1726.06
381.057	1816.06
381.282	1840.06
381.507	1787.06
381.733	1908.06
381.958	2003.06
382.184	1820.06
382.409	1782.06
382.634	1824.06
382.86	1787.06
383.085	1818.06
383.31	1858.06
383.535	2000.06
383.761	2118.06
383.986	2037.06
384.211	1937.06
384.436	1931.06
384.662	1981.06
384.887	2121.06
385.112	2003.06
385.337	1989.06
385.562	1971.06
385.787	1950.06
386.013	2043.06
386.238	2129.06
386.463	2005.06
386.688	2081.06
386.913	2283.06
387.138	2241.06
387.363	2003.06
387.588	2087.06
387.813	2044.06
388.038	2053.06
388.263	2083.06
388.488	2037.06
388.713	1908.06
388.938	1922.06
389.163	1920.06
389.387	1926.06
389.612	1971.06
389.837	2011.06
390.062	2004.06
390.287	2011.06
390.512	2028.06
390.736	2001.06
390.961	1904.06
391.186	1912.06
391.411	1914.06
391.636	1976.06
391.86	1956.06
392.085	1963.06
392.31	1957.06
392.534	1979.06
392.759	1970.06
392.984	1975.06
393.208	1978.06
393.433	2077.06
393.658	2078.06
393.882	2119.06
394.107	2037.06
394.331	1961.06
394.556	1955.06
394.78	1979.06
395.005	2083.06
395.229	2107.06
395.454	2258.06
395.678	2285.06
395.903	2176.06
396.127	2064.06
396.352	2076.06
396.576	2178.06
396.801	2170.06
397.025	2140.06
397.249	2149.06
397.474	2158.06
397.698	2146.06
397.922	2186.06
398.147	2290.06
398.371	2344.06
398.595	2370.06
398.82	2274.06
399.044	2307.06
399.268	2372.06
399.492	2561.06
399.717	2659.06
399.941	2660.06
400.165	2621.06
400.389	2508.06
400.613	2437.06
400.837	2745.06
401.062	3175.06
401.286	2719.06
401.51	2507.06
401.734	2560.06
401.958	2493.06
402.182	2347.06
402.406	2259.06
402.63	2217.06
402.854	2230.06
403.078	2291.06
403.302	2343.06
403.526	2380.06
403.75	2381.06
403.974	2404.06
404.198	2311.06
404.422	2470.06
404.645	2549.06
404.869	2516.06
405.093	2347.06
405.317	2254.06
405.541	2354.06
405.765	2352.06
405.988	2341.06
406.212	2369.06
406.436	2472.06
406.66	2514.06
406.883	2516.06
407.107	2802.06
407.331	3050.06
407.555	3320.06
407.778	3056.06
408.002	2569.06
408.226	2490.06
408.449	2520.06
408.673	2362.06
408.896	2478.06
409.12	2504.06
409.344	2410.06
409.567	2375.06
409.791	2358.06
410.014	2426.06
410.238	2516.06
410.461	2627.06
410.685	2387.06
410.908	2284.06
411.132	2326.06
411.355	2321.06
411.578	2254.06
411.802	2307.06
412.025	2366.06
412.249	2331.06
412.472	2264.06
412.695	2245.06
412.919	2244.06
413.142	2229.06
413.365	2215.06
413.589	2295.06
413.812	2394.06
414.035	2507.06
414.258	2261.06
414.482	2249.06
414.705	2288.06
414.928	2268.06
415.151	2214.06
415.374	2218.06
415.597	2280.06
415.821	2241.06
416.044	2354.06
416.267	2396.06
416.49	2180.06
416.713	2201.06
416.936	2228.06
417.159	2306.06
417.382	2342.06
417.605	2190.06
417.828	2274.06
418.051	2266.06
418.274	2203.06
418.497	2149.06
418.72	2127.06
418.943	2137.06
419.166	2315.06
419.389	2437.06
419.611	2236.06
419.834	2226.06
420.057	2261.06
420.28	2203.06
420.503	2157.06
420.726	2199.06
420.948	2208.06
421.171	2163.06
421.394	2097.06
421.617	2230.06
421.839	2217.06
422.062	2158.06
422.285	2161.06
422.507	2115.06
422.73	2042.06
422.953	2050.06
423.175	2060.06
423.398	2127.06
423.621	2152.06
423.843	2161.06
424.066	2190.06
424.288	2251.06
424.511	2325.06
424.733	2225.06
424.956	2078.06
425.178	2042.06
425.401	2041.06
425.623	2084.06
425.846	2072.06
426.068	2196.06
426.291	2224.06
426.513	2190.06
426.735	2204.06
426.958	2304.06
427.18	2484.06
427.402	2280.06
427.625	2334.06
427.847	2348.06
428.069	2170.06
428.292	2111.06
428.514	2078.06
428.736	2084.06
428.958	2053.06
429.181	2127.06
429.403	2328.06
429.625	2936.06
429.847	2607.06
430.069	2200.06
430.292	2357.06
430.514	2463.06
430.736	2277.06
430.958	2417.06
431.18	2281.06
431.402	2084.06
431.624	2102.06
431.846	2072.06
432.068	2032.06
432.29	2078.06
432.512	2105.06
432.734	2183.06
432.956	2175.06
433.178	2266.06
433.4	2241.06
433.622	2276.06
433.844	2147.06
434.066	2081.06
434.287	2057.06
434.509	2155.06
434.731	2258.06
434.953	2427.06
435.175	2390.06
435.397	2224.06
435.618	2209.06
435.84	2193.06
436.062	2180.06
436.284	2176.06
436.505	2207.06
436.727	2248.06
436.949	2216.06
437.17	2087.06
437.392	2103.06
437.614	2114.06
437.835	2044.06
438.057	2208.06
438.278	2312.06
438.5	2153.06
438.721	2119.06
438.943	2101.06
439.165	2099.06
439.386	2037.06
439.608	2091.06
439.829	2122.06
440.05	2106.06
440.272	2061.06
440.493	1992.06
440.715	2050.06
440.936	2235.06
441.158	2462.06
441.379	2402.06
441.6	2306.06
441.822	2262.06
442.043	2208.06
442.264	2193.06
442.486	2094.06
442.707	2089.06
442.928	2078.06
443.149	2112.06
443.371	2282.06
443.592	2343.06
443.813	2278.06
444.034	2221.06
444.255	2271.06
444.476	2314.06
444.698	2376.06
444.919	2387.06
445.14	2427.06
445.361	2441.06
445.582	2521.06
445.803	2390.06
446.024	2302.06
446.245	2394.06
446.466	2323.06
446.687	2151.06
446.908	2207.06
447.129	2113.06
447.35	2165.06
447.571	2144.06
447.792	2035.06
448.013	2034.06
448.234	2033.06
448.455	2202.06
448.675	2172.06
448.896	2022.06
449.117	2018.06
449.338	2057.06
449.559	2146.06
449.779	2264.06
450	2523.06
450.221	2701.06
450.442	2610.06
450.662	2260.06
450.883	1992.06
451.104	1976.06
451.324	1988.06
451.545	2071.06
451.766	2046.06
451.986	1924.06
452.207	1941.06
452.428	1900.06
452.648	1858.06
452.869	1923.06
453.089	2064.06
453.31	2062.06
453.53	2080.06
453.751	2069.06
453.971	1874.06
454.192	1955.06
454.412	2066.06
454.633	2012.06
454.853	1966.06
455.073	1849.06
455.294	1848.06
455.514	1821.06
455.734	1799.06
455.955	1869.06
456.175	1885.06
456.395	1878.06
456.616	1904.06
456.836	1979.06
457.056	1928.06
457.276	1942.06
457.497	1884.06
457.717	1773.06
457.937	1834.06
458.157	1889.06
458.377	1883.06
458.598	1869.06
458.818	1876.06
459.038	1997.06
459.258	2127.06
459.478	2125.06
459.698	2066.06
459.918	2139.06
460.138	2173.06
460.358	2245.06
460.578	2210.06
460.798	2362.06
461.018	2440.06
461.238	2360.06
461.458	2243.06
461.678	2221.06
461.898	2212.06
462.118	2145.06
462.338	2252.06
462.558	2295.06
462.777	2251.06
462.997	2308.06
463.217	2510.06
463.437	2500.06
463.657	2303.06
463.876	2251.06
464.096	2245.06
464.316	2251.06
464.536	2372.06
464.755	2330.06
464.975	2364.06
465.195	2267.06
465.414	2352.06
465.634	2356.06
465.854	2217.06
466.073	2381.06
466.293	2354.06
466.512	2088.06
466.732	2002.06
466.951	2133.06
467.171	2144.06
467.391	1988.06
467.61	1995.06
467.829	2026.06
468.049	2187.06
468.268	2422.06
468.488	2336.06
468.707	2157.06
468.927	2066.06
469.146	2032.06
469.365	2020.06
469.585	2056.06
469.804	2000.06
470.023	1982.06
470.243	2070.06
470.462	2089.06
470.681	1998.06
470.901	2039.06
471.12	2084.06
471.339	2000.06
471.558	1955.06
471.777	1978.06
471.997	1952.06
472.216	2011.06
472.435	1949.06
472.654	1974.06
472.873	2090.06
473.092	2137.06
473.311	2054.06
473.53	1930.06
473.749	1947.06
473.968	2020.06
474.187	2151.06
474.406	2281.06
474.625	2116.06
474.844	2078.06
475.063	2036.06
475.282	2133.06
475.501	2099.06
475.72	2068.06
475.939	2222.06
476.158	2140.06
476.377	2080.06
476.596	2079.06
476.814	2129.06
477.033	2158.06
477.252	2244.06
477.471	2312.06
477.69	2197.06
477.908	2186.06
478.127	2264.06
478.346	2445.06
478.564	2475.06
478.783	2404.06
479.002	2533.06
479.22	2413.06
479.439	2497.06
479.658	2878.06
479.876	2866.06
480.095	2488.06
480.313	2365.06
480.532	2293.06
480.751	2339.06
480.969	2389.06
481.188	2327.06
481.406	2289.06
481.624	2208.06
481.843	2294.06
482.061	2320.06
482.28	2351.06
482.498	2416.06
482.717	2362.06
482.935	2271.06
483.153	2292.06
483.372	2291.06
483.59	2273.06
483.808	2300.06
484.027	2388.06
484.245	2467.06
484.463	2823.06
484.681	3331.06
484.9	2551.06
485.118	2336.06
485.336	2344.06
485.554	2425.06
485.772	2496.06
485.99	2516.06
486.209	2435.06
486.427	2418.06
486.645	2468.06
486.863	2410.06
487.081	2469.06
487.299	2568.06
487.517	2475.06
487.735	2381.06
487.953	2371.06
488.171	2395.06
488.389	2343.06
488.607	2331.06
488.825	2615.06
489.043	2733.06
489.261	2452.06
489.479	2486.06
489.696	2549.06
489.914	2512.06
490.132	2454.06
490.35	2406.06
490.568	2530.06
490.786	2450.06
491.003	2357.06
491.221	2432.06
491.439	2484.06
491.657	2447.06
491.874	2468.06
492.092	2503.06
492.31	2446.06
492.527	2467.06
492.745	2483.06
492.963	2434.06
493.18	2521.06
493.398	2693.06
493.615	2745.06
493.833	2564.06
494.05	2482.06
494.268	2545.06
494.485	2594.06
494.703	2519.06
494.92	2446.06
495.138	2477.06
495.355	2499.06
495.573	2585.06
495.79	2759.06
496.008	2743.06
496.225	2588.06
496.442	2535.06
496.66	2666.06
496.877	2595.06
497.094	2740.06
497.312	2695.06
497.529	2689.06
497.746	2745.06
497.963	3227.06
498.181	3587.06
498.398	3351.06
498.615	3309.06
498.832	3237.06
499.049	3174.06
499.267	3145.06
499.484	3401.06
499.701	3628.06
499.918	3728.06
500.135	3920.06
500.352	4222.06
500.569	4163.06
500.786	4434.06
501.003	4210.06
501.22	3772.06
501.437	3730.06
501.654	3695.06
501.871	3573.06
502.088	3142.06
502.305	3184.06
502.522	3072.06
502.739	2765.06
502.956	2716.06
503.172	2743.06
503.389	2658.06
503.606	2645.06
503.823	2623.06
504.04	2620.06
504.256	2629.06
504.473	2625.06
504.69	2732.06
504.907	2596.06
505.123	2461.06
505.34	2577.06
505.557	3377.06
505.773	2891.06
505.99	2417.06
506.207	2312.06
506.423	2200.06
506.64	2256.06
506.856	2268.06
507.073	2492.06
507.289	2732.06
507.506	2659.06
507.722	2251.06
507.939	2174.06
508.155	2162.06
508.372	2241.06
508.588	2133.06
508.805	2092.06
509.021	2052.06
509.238	2022.06
509.454	2076.06
509.67	2048.06
509.887	2049.06
510.103	2028.06
510.319	2058.06
510.536	2135.06
510.752	2182.06
510.968	2187.06
511.184	2306.06
511.401	2339.06
511.617	2089.06
511.833	2003.06
512.049	2002.06
512.265	1961.06
512.481	1994.06
512.698	2062.06
512.914	2181.06
513.13	2096.06
513.346	2012.06
513.562	1972.06
513.778	2004.06
513.994	2101.06
514.21	2176.06
514.426	2170.06
514.642	2421.06
514.858	2260.06
515.074	2082.06
515.29	2010.06
515.506	2063.06
515.721	2148.06
515.937	2137.06
516.153	2429.06
516.369	2379.06
516.585	2187.06
516.801	2037.06
517.016	2089.06
517.232	2104.06
517.448	2153.06
517.664	2172.06
517.879	2202.06
518.095	2293.06
518.311	2251.06
518.527	2080.06
518.742	2065.06
518.958	1994.06
519.173	1993.06
519.389	2096.06
519.605	2030.06
519.82	2077.06
520.036	2080.06
520.251	1982.06
520.467	2046.06
520.682	2214.06
520.898	2277.06
521.113	2053.06
521.329	1990.06
521.544	2100.06
521.76	2071.06
521.975	1970.06
522.19	1930.06
522.406	1900.06
522.621	2246.06
522.836	2354.06
523.052	1912.06
523.267	1906.06
523.482	1938.06
523.698	1815.06
523.913	1778.06
524.128	1859.06
524.343	1951.06
524.559	1990.06
524.774	1828.06
524.989	1860.06
525.204	1848.06
525.419	1789.06
525.634	1786.06
525.849	1802.06
526.064	1801.06
526.28	1861.06
526.495	1748.06
526.71	1725.06
526.925	1761.06
527.14	1776.06
527.355	1769.06
527.57	1721.06
527.785	1785.06
527.999	1736.06
528.214	1725.06
528.429	1637.06
528.644	1710.06
528.859	1705.06
529.074	1700.06
529.289	1744.06
529.503	1756.06
529.718	1774.06
529.933	1734.06
530.148	1713.06
530.363	1686.06
530.577	1718.06
530.792	1754.06
531.007	1767.06
531.221	1735.06
531.436	1776.06
531.651	1838.06
531.865	1900.06
532.08	1805.06
532.295	1672.06
532.509	1635.06
532.724	1683.06
532.938	1720.06
533.153	1873.06
533.367	1781.06
533.582	1766.06
533.796	1680.06
534.011	1706.06
534.225	1739.06
534.44	1738.06
534.654	1654.06
534.868	1651.06
535.083	1783.06
535.297	1784.06
535.511	1704.06
535.726	1698.06
535.94	1684.06
536.154	1710.06
536.369	1657.06
536.583	1633.06
536.797	1622.06
537.011	1658.06
537.225	1650.06
537.44	1612.06
537.654	1705.06
537.868	1660.06
538.082	1567.06
538.296	1510.06
538.51	1526.06
538.724	1540.06
538.938	1514.06
539.153	1629.06
539.367	1636.06
539.581	1630.06
539.795	1712.06
540.009	1648.06
540.222	1598.06
540.436	1690.06
540.65	1798.06
540.864	1837.06
541.078	1731.06
541.292	1625.06
541.506	1581.06
541.72	1625.06
541.934	1627.06
542.147	1638.06
542.361	1623.06
542.575	1593.06
542.789	1509.06
543.002	1513.06
543.216	1568.06
543.43	1601.06
543.644	1717.06
543.857	1768.06
544.071	1660.06
544.285	1644.06
544.498	1589.06
544.712	1592.06
544.925	1623.06
545.139	1673.06
545.352	1608.06
545.566	1513.06
545.779	1504.06
545.993	1547.06
546.206	1535.06
546.42	1508.06
546.633	1498.06
546.847	1515.06
547.06	1512.06
547.274	1510.06
547.487	1513.06
547.7	1525.06
547.914	1549.06
548.127	1567.06
548.34	1566.06
548.554	1590.06
548.767	1531.06
548.98	1559.06
549.193	1493.06
549.407	1574.06
549.62	1631.06
549.833	1514.06
550.046	1525.06
550.259	1551.06
550.473	1506.06
550.686	1504.06
550.899	1486.06
551.112	1454.06
551.325	1411.06
551.538	1539.06
551.751	1809.06
551.964	1456.06
552.177	1437.06
552.39	1442.06
552.603	1490.06
552.816	1517.06
553.029	1603.06
553.242	1609.06
553.455	1526.06
553.667	1472.06
553.88	1511.06
554.093	1500.06
554.306	1431.06
554.519	1403.06
554.732	1373.06
554.944	1392.06
555.157	1462.06
555.37	1398.06
555.583	1414.06
555.795	1376.06
556.008	1348.06
556.221	1341.06
556.433	1296.06
556.646	1302.06
556.859	1319.06
557.071	1275.06
557.284	1312.06
557.496	1302.06
557.709	1249.06
557.921	1251.06
558.134	1254.06
558.346	1261.06
558.559	1249.06
558.771	1230.06
558.984	1196.06
559.196	1195.06
559.409	1214.06
559.621	1226.06
559.833	1211.06
560.046	1263.06
560.258	1251.06
560.47	1248.06
560.683	1219.06
560.895	1236.06
561.107	1252.06
561.32	1268.06
561.532	1290.06
561.744	1241.06
561.956	1270.06
562.168	1213.06
562.381	1184.06
562.593	1180.06
562.805	1230.06
563.017	1198.06
563.229	1184.06
563.441	1250.06
563.653	1221.06
563.865	1217.06
564.077	1206.06
564.289	1205.06
564.501	1212.06
564.713	1284.06
564.925	1307.06
565.137	1390.06
565.349	1302.06
565.561	1272.06
565.773	1268.06
565.985	1314.06
566.197	1390.06
566.408	1465.06
566.62	1501.06
566.832	1464.06
567.044	1508.06
567.255	1455.06
567.467	1472.06
567.679	1535.06
567.891	1536.06
568.102	1506.06
568.314	1465.06
568.526	1422.06
568.737	1349.06
568.949	1290.06
569.161	1224.06
569.372	1195.06
569.584	1182.06
569.795	1178.06
570.007	1177.06
570.218	1137.06
570.43	1119.06
570.641	1125.06
570.853	1118.06
571.064	1087.06
571.276	1090.06
571.487	1085.06
571.698	1064.06
571.91	1024.06
572.121	996.06
572.333	1015.06
572.544	1048.06
572.755	979.06
572.966	963.06
573.178	972.06
573.389	1011.06
573.6	1012.06
573.811	1073.06
574.023	1024.06
574.234	985.06
574.445	926.06
574.656	924.06
574.867	945.06
575.078	943.06
575.289	934.06
575.501	929.06
575.712	930.06
575.923	934.06
576.134	968.06
576.345	920.06
576.556	889.06
576.767	874.06
576.978	893.06
577.188	878.06
577.399	861.06
577.61	852.06
577.821	880.06
578.032	844.06
578.243	856.06
578.454	839.06
578.665	845.06
578.875	837.06
579.086	821.06
579.297	863.06
579.508	864.06
579.718	856.06
579.929	853.06
580.14	809.06
580.35	808.06
580.561	861.06
580.772	922.06
580.982	858.06
581.193	796.06
581.403	796.06
581.614	758.06
581.825	783.06
582.035	797.06
582.246	817.06
582.456	808.06
582.667	832.06
582.877	771.06
583.087	776.06
583.298	790.06
583.508	797.06
583.719	800.06
583.929	817.06
584.139	794.06
584.35	760.06
584.56	769.06
584.77	747.06
584.981	801.06
585.191	813.06
585.401	822.06
585.611	795.06
585.821	770.06
586.032	752.06
586.242	756.06
586.452	738.06
586.662	765.06
586.872	767.06
587.082	760.06
587.292	752.06
587.502	777.06
587.713	781.06
587.923	729.06
588.133	738.06
588.343	768.06
588.553	752.06
588.762	734.06
588.972	731.06
589.182	764.06
589.392	733.06
589.602	731.06
589.812	757.06
590.022	728.06
590.232	722.06
590.441	735.06
590.651	768.06
590.861	743.06
591.071	724.06
591.281	699.06
591.49	744.06
591.7	731.06
591.91	724.06
592.119	721.06
592.329	737.06
592.539	771.06
592.748	756.06
592.958	770.06
593.167	764.06
593.377	764.06
593.587	796.06
593.796	766.06
594.006	803.06
594.215	768.06
594.424	799.06
594.634	747.06
594.843	752.06
595.053	768.06
595.262	739.06
595.472	728.06
595.681	758.06
595.89	712.06
596.1	693.06
596.309	698.06
596.518	675.06
596.727	692.06
596.937	655.06
597.146	657.06
597.355	680.06
597.564	650.06
597.774	630.06
597.983	645.06
598.192	621.06
598.401	634.06
598.61	633.06
598.819	613.06
599.028	633.06
599.237	624.06
599.446	610.06
599.655	616.06
599.864	611.06
600.073	597.06
600.282	610.06
600.491	576.06
600.7	621.06
600.909	586.06
601.118	619.06
601.327	595.06
601.536	615.06
601.745	610.06
601.953	608.06
602.162	613.06
602.371	611.06
602.58	602.06
602.789	606.06
602.997	574.06
603.206	610.06
603.415	592.06
603.623	587.06
603.832	585.06
604.041	556.06
604.249	562.06
604.458	576.06
604.666	590.06
604.875	577.06
605.084	590.06
605.292	590.06
605.501	558.06
605.709	570.06
605.918	562.06
606.126	564.06
606.334	539.06
606.543	560.06
606.751	573.06
606.96	554.06
607.168	553.06
607.376	530.06
607.585	566.06
607.793	544.06
608.001	528.06
608.21	566.06
608.418	562.06
608.626	553.06
608.834	544.06
609.043	529.06
609.251	569.06
609.459	554.06
609.667	547.06
609.875	552.06
610.083	570.06
610.291	566.06
610.499	553.06
610.707	558.06
610.916	535.06
611.124	536.06
611.332	507.06
611.54	522.06
611.748	526.06
611.955	521.06
612.163	530.06
612.371	541.06
612.579	512.06
612.787	521.06
612.995	551.06
613.203	540.06
613.411	530.06
613.618	526.06
613.826	540.06
614.034	513.06
614.242	539.06
614.449	497.06
614.657	521.06
614.865	514.06
615.072	516.06
615.28	505.06
615.488	516.06
615.695	542.06
615.903	515.06
616.111	524.06
616.318	525.06
616.526	523.06
616.733	518.06
616.941	476.06
617.148	496.06
617.356	523.06
617.563	506.06
617.771	500.06
617.978	500.06
618.185	506.06
618.393	498.06
618.6	482.06
618.807	518.06
619.015	495.06
619.222	474.06
619.429	487.06
619.637	477.06
619.844	497.06
620.051	456.06
620.258	487.06
620.466	478.06
620.673	459.06
620.88	463.06
621.087	479.06
621.294	472.06
621.501	469.06
621.708	470.06
621.915	488.06
622.122	464.06
622.329	473.06
622.536	472.06
622.743	467.06
622.95	448.06
623.157	468.06
623.364	457.06
623.571	459.06
623.778	442.06
623.985	466.06
624.192	456.06
624.399	432.06
624.606	441.06
624.812	430.06
625.019	448.06
625.226	423.06
625.433	455.06
625.639	422.06
625.846	436.06
626.053	432.06
626.259	421.06
626.466	423.06
626.673	413.06
626.879	402.06
627.086	422.06
627.293	423.06
627.499	424.06
627.706	429.06
627.912	413.06
628.119	414.06
628.325	401.06
628.532	404.06
628.738	393.06
628.945	397.06
629.151	400.06
629.357	419.06
629.564	403.06
629.77	403.06
629.976	399.06
630.183	388.06
630.389	386.06
630.595	416.06
630.802	405.06
631.008	404.06
631.214	400.06
631.42	389.06
631.627	389.06
631.833	364.06
632.039	352.06
632.245	375.06
632.451	378.06
632.657	364.06
632.863	360.06
633.069	368.06
633.275	384.06
633.481	363.06
633.688	343.06
633.893	360.06
634.099	368.06
634.305	368.06
634.511	370.06
634.717	354.06
634.923	351.06
635.129	352.06
635.335	357.06
635.541	357.06
635.747	336.06
635.952	352.06
636.158	355.06
636.364	369.06
636.57	360.06
636.775	343.06
636.981	357.06
637.187	348.06
637.392	361.06
637.598	356.06
637.804	355.06
638.009	342.06
638.215	351.06
638.421	346.06
638.626	353.06
638.832	346.06
639.037	339.06
639.243	337.06
639.448	328.06
639.654	356.06
639.859	336.06
640.065	328.06
640.27	350.06
640.475	348.06
640.681	321.06
640.886	314.06
641.091	327.06
641.297	333.06
641.502	326.06
641.707	336.06
641.913	349.06
642.118	346.06
642.323	338.06
642.528	308.06
642.733	300.06
642.939	309.06
643.144	316.06
643.349	321.06
643.554	320.06
643.759	322.06
643.964	318.06
644.169	313.06
644.374	311.06
644.579	326.06
644.784	322.06
644.989	312.06
645.194	315.06
645.399	307.06
645.604	308.06
645.809	310.06
646.014	326.06
646.219	321.06
646.423	324.06
646.628	321.06
646.833	322.06
647.038	305.06
647.243	314.06
647.447	322.06
647.652	326.06
647.857	305.06
648.062	331.06
648.266	322.06
648.471	330.06
648.676	328.06
648.88	324.06
649.085	320.06
649.289	315.06
649.494	315.06
649.698	306.06
649.903	305.06
650.107	313.06
650.312	316.06
650.516	295.06
650.721	292.06
650.925	299.06
651.13	281.06
651.334	280.06
651.539	281.06
651.743	266.06
651.947	281.06
652.152	278.06
652.356	262.06
652.56	275.06
652.764	268.06
652.969	265.06
653.173	247.06
653.377	263.06
653.581	257.06
653.785	238.06
653.99	242.06
654.194	244.06
654.398	221.06
654.602	237.06
654.806	243.06
655.01	236.06
655.214	247.06
655.418	240.06
655.622	253.06
655.826	260.06
656.03	256.06
656.234	267.06
656.438	270.06
656.642	266.06
656.846	263.06
657.049	247.06
657.253	233.06
657.457	215.06
657.661	211.06
657.865	193.06
658.068	179.06
658.272	195.06
658.476	169.06
658.68	152.06
658.883	160.06
659.087	144.06
659.291	127.06
659.494	147.06
659.698	128.06
659.901	126.06
660.105	138.06
660.309	128.06
660.512	127.06
660.716	118.06
660.919	126.06
661.123	110.06
661.326	126.06
661.53	105.06
661.733	101.06
661.936	88.06
662.14	110.06
662.343	107.06
662.546	90.06
662.75	93.06
662.953	92.06
663.156	97.06
663.36	97.06
663.563	83.06
663.766	85.06
663.969	89.06
664.173	99.06
664.376	88.06
664.579	88.06
664.782	85.06
664.985	84.06
665.188	87.06
665.391	80.06
665.594	82.06
665.797	91.06
666	85.06
666.203	75.06
666.406	70.06
666.609	83.06
666.812	88.06
667.015	64.06
667.218	65.06
667.421	87.06
667.624	78.06
667.827	87.06
668.03	91.06
668.232	80.06
668.435	81.06
668.638	76.06
668.841	87.06
669.043	82.06
669.246	94.06
669.449	72.06
669.651	81.06
669.854	89.06
670.057	91.06
670.259	96.06
670.462	85.06
670.665	68.06
670.867	80.06
671.07	74.06
671.272	96.06
671.475	90.06
671.677	92.06
671.88	74.06
672.082	91.06
672.284	83.06
672.487	84.06
672.689	85.06
672.892	83.06
