Data from WStandard_LampEnergy5.5LIBS07252019.E.O._I.C._HRD10591_16-07-33-919.txt Node
Date: Thu Jul 25 16:07:33 EDT 2019
User: cochatt
Spectrometer: HR+D1059
Trigger mode: 1
Integration Time (sec): 1.000000E-1
Scans to average: 1
Electric dark correction enabled: true
Nonlinearity correction enabled: false
Boxcar width: 0
XAxis mode: Wavelengths
Number of Pixels in Spectrum: 2048
>>>>>Begin Spectral Data<<<<<
223.165	-17.56
223.4	-17.56
223.635	-17.56
223.869	-21.56
224.104	-12.56
224.338	-14.56
224.573	-0.56
224.808	-9.56
225.042	-15.56
225.277	-9.56
225.511	-8.56
225.746	-4.56
225.98	12.44
226.215	15.44
226.449	27.44
226.683	25.44
226.918	10.44
227.152	23.44
227.387	20.44
227.621	40.44
227.856	36.44
228.09	34.44
228.324	61.44
228.559	66.44
228.793	149.44
229.027	363.44
229.262	378.44
229.496	402.44
229.73	411.44
229.964	459.44
230.199	480.44
230.433	471.44
230.667	523.44
230.901	568.44
231.136	506.44
231.37	479.44
231.604	490.44
231.838	476.44
232.072	519.44
232.306	452.44
232.541	488.44
232.775	579.44
233.009	646.44
233.243	587.44
233.477	548.44
233.711	566.44
233.945	588.44
234.179	566.44
234.413	627.44
234.647	640.44
234.881	630.44
235.115	552.44
235.349	586.44
235.583	598.44
235.817	597.44
236.051	560.44
236.285	570.44
236.519	596.44
236.753	701.44
236.987	705.44
237.221	704.44
237.455	772.44
237.689	758.44
237.922	719.44
238.156	686.44
238.39	709.44
238.624	728.44
238.858	774.44
239.091	822.44
239.325	837.44
239.559	953.44
239.793	1015.44
240.027	1111.44
240.26	1068.44
240.494	771.44
240.728	739.44
240.961	737.44
241.195	758.44
241.429	862.44
241.662	860.44
241.896	785.44
242.13	800.44
242.363	884.44
242.597	930.44
242.83	898.44
243.064	939.44
243.298	981.44
243.531	966.44
243.765	966.44
243.998	992.44
244.232	845.44
244.465	814.44
244.699	836.44
244.932	919.44
245.166	1088.44
245.399	1026.44
245.633	934.44
245.866	913.44
246.099	984.44
246.333	978.44
246.566	1008.44
246.8	1096.44
247.033	1222.44
247.266	1127.44
247.5	1131.44
247.733	1104.44
247.966	1173.44
248.2	1296.44
248.433	1210.44
248.666	1259.44
248.899	1407.44
249.133	1582.44
249.366	1843.44
249.599	1482.44
249.832	1282.44
250.066	1355.44
250.299	1347.44
250.532	1235.44
250.765	1135.44
250.998	1192.44
251.231	1246.44
251.465	1291.44
251.698	1202.44
251.931	1206.44
252.164	1256.44
252.397	1334.44
252.63	1306.44
252.863	1134.44
253.096	1122.44
253.329	1205.44
253.562	1254.44
253.795	1371.44
254.028	1306.44
254.261	1232.44
254.494	1239.44
254.727	1145.44
254.96	1226.44
255.193	1314.44
255.426	1471.44
255.659	1684.44
255.892	1798.44
256.124	1417.44
256.357	1374.44
256.59	1476.44
256.823	1476.44
257.056	1462.44
257.289	1771.44
257.521	1992.44
257.754	1760.44
257.987	1659.44
258.22	1848.44
258.452	1884.44
258.685	1460.44
258.918	1435.44
259.151	1462.44
259.383	1409.44
259.616	1210.44
259.849	1310.44
260.081	1449.44
260.314	1637.44
260.547	1771.44
260.779	1792.44
261.012	1680.44
261.244	1509.44
261.477	1399.44
261.71	1503.44
261.942	1491.44
262.175	1435.44
262.407	1498.44
262.64	1428.44
262.872	1337.44
263.105	1280.44
263.337	1381.44
263.57	1324.44
263.802	1366.44
264.035	1266.44
264.267	1207.44
264.499	1151.44
264.732	1246.44
264.964	1377.44
265.197	1396.44
265.429	1436.44
265.661	1648.44
265.894	1827.44
266.126	1886.44
266.358	1649.44
266.591	1728.44
266.823	1891.44
267.055	1726.44
267.287	1676.44
267.52	1660.44
267.752	1627.44
267.984	1594.44
268.216	1691.44
268.448	1734.44
268.681	1683.44
268.913	1616.44
269.145	1488.44
269.377	1443.44
269.609	1587.44
269.841	1834.44
270.073	2145.44
270.306	2345.44
270.538	2589.44
270.77	2145.44
271.002	1802.44
271.234	1715.44
271.466	1690.44
271.698	1926.44
271.93	2274.44
272.162	2322.44
272.394	2059.44
272.626	1988.44
272.858	1780.44
273.09	1502.44
273.322	1536.44
273.553	1423.44
273.785	1416.44
274.017	1503.44
274.249	1659.44
274.481	1643.44
274.713	1482.44
274.945	1444.44
275.176	1462.44
275.408	1436.44
275.64	1448.44
275.872	1420.44
276.104	1507.44
276.335	1735.44
276.567	1939.44
276.799	1982.44
277.031	1784.44
277.262	1672.44
277.494	1725.44
277.726	1936.44
277.957	1972.44
278.189	1783.44
278.421	1611.44
278.652	1528.44
278.884	1516.44
279.115	1520.44
279.347	1573.44
279.579	1532.44
279.81	1503.44
280.042	1710.44
280.273	1858.44
280.505	1840.44
280.736	1907.44
280.968	1796.44
281.199	1554.44
281.431	1475.44
281.662	1480.44
281.894	1494.44
282.125	1568.44
282.356	1626.44
282.588	1665.44
282.819	1586.44
283.051	1737.44
283.282	1872.44
283.513	1843.44
283.745	1560.44
283.976	1475.44
284.207	1470.44
284.439	1513.44
284.67	1564.44
284.901	1569.44
285.132	1657.44
285.364	1581.44
285.595	1605.44
285.826	1593.44
286.057	1563.44
286.288	1534.44
286.52	1617.44
286.751	1754.44
286.982	1804.44
287.213	1682.44
287.444	1530.44
287.675	1531.44
287.906	1586.44
288.138	1746.44
288.369	1698.44
288.6	1612.44
288.831	1519.44
289.062	1524.44
289.293	1560.44
289.524	1585.44
289.755	1630.44
289.986	1633.44
290.217	1472.44
290.448	1510.44
290.679	1594.44
290.91	1597.44
291.141	1646.44
291.371	1682.44
291.602	1651.44
291.833	1669.44
292.064	1724.44
292.295	1682.44
292.526	1672.44
292.757	1803.44
292.987	1728.44
293.218	1644.44
293.449	1717.44
293.68	1962.44
293.91	2138.44
294.141	1928.44
294.372	1852.44
294.603	1935.44
294.833	2005.44
295.064	1890.44
295.295	1718.44
295.525	1684.44
295.756	1588.44
295.987	1488.44
296.217	1523.44
296.448	1552.44
296.679	1549.44
296.909	1556.44
297.14	1530.44
297.37	1572.44
297.601	1654.44
297.831	1832.44
298.062	1818.44
298.292	1640.44
298.523	1589.44
298.753	1589.44
298.984	1627.44
299.214	1577.44
299.445	1612.44
299.675	1682.44
299.905	1633.44
300.136	1626.44
300.366	1590.44
300.597	1559.44
300.827	1547.44
301.057	1565.44
301.288	1659.44
301.518	1677.44
301.748	1720.44
301.979	1839.44
302.209	1831.44
302.439	1969.44
302.669	2070.44
302.9	1905.44
303.13	1714.44
303.36	1702.44
303.59	1745.44
303.82	1726.44
304.051	1704.44
304.281	1708.44
304.511	1740.44
304.741	1810.44
304.971	1979.44
305.201	2206.44
305.431	2012.44
305.661	1683.44
305.891	1507.44
306.121	1488.44
306.352	1541.44
306.582	1658.44
306.812	1761.44
307.042	1896.44
307.272	1897.44
307.502	1873.44
307.731	2098.44
307.961	2263.44
308.191	2097.44
308.421	1761.44
308.651	1660.44
308.881	1646.44
309.111	1648.44
309.341	1588.44
309.571	1676.44
309.8	1643.44
310.03	1681.44
310.26	1624.44
310.49	1616.44
310.72	1683.44
310.949	1724.44
311.179	1768.44
311.409	1698.44
311.639	1686.44
311.868	1628.44
312.098	1698.44
312.328	1666.44
312.557	1654.44
312.787	1642.44
313.017	1725.44
313.246	1732.44
313.476	1662.44
313.706	1759.44
313.935	1730.44
314.165	1724.44
314.394	1790.44
314.624	1880.44
314.853	1986.44
315.083	2075.44
315.312	2120.44
315.542	1970.44
315.771	1787.44
316.001	1769.44
316.23	1899.44
316.46	1850.44
316.689	1877.44
316.919	1761.44
317.148	1656.44
317.377	1710.44
317.607	1802.44
317.836	2062.44
318.065	2114.44
318.295	2059.44
318.524	1955.44
318.753	1901.44
318.983	1836.44
319.212	1778.44
319.441	1784.44
319.67	1784.44
319.9	1824.44
320.129	1897.44
320.358	1982.44
320.587	2034.44
320.816	2042.44
321.046	1983.44
321.275	1844.44
321.504	1873.44
321.733	2062.44
321.962	1989.44
322.191	1822.44
322.42	1814.44
322.649	1784.44
322.878	1749.44
323.108	1810.44
323.337	1875.44
323.566	1862.44
323.795	1848.44
324.024	1878.44
324.253	1823.44
324.482	1867.44
324.71	1774.44
324.939	1666.44
325.168	1718.44
325.397	1743.44
325.626	1859.44
325.855	1869.44
326.084	1790.44
326.313	1788.44
326.542	1813.44
326.77	1880.44
326.999	1912.44
327.228	1810.44
327.457	1720.44
327.686	1643.44
327.914	1728.44
328.143	1790.44
328.372	1804.44
328.6	1785.44
328.829	1787.44
329.058	1762.44
329.287	1772.44
329.515	1820.44
329.744	1843.44
329.972	1885.44
330.201	2006.44
330.43	1941.44
330.658	1921.44
330.887	1887.44
331.115	1897.44
331.344	1950.44
331.572	1869.44
331.801	1852.44
332.03	1879.44
332.258	1892.44
332.486	1896.44
332.715	1956.44
332.943	1945.44
333.172	1838.44
333.4	1895.44
333.629	1954.44
333.857	2067.44
334.085	2253.44
334.314	2552.44
334.542	2864.44
334.771	2589.44
334.999	2284.44
335.227	2190.44
335.455	2017.44
335.684	1996.44
335.912	2058.44
336.14	2151.44
336.369	2039.44
336.597	1925.44
336.825	1904.44
337.053	1952.44
337.281	2099.44
337.51	2190.44
337.738	2308.44
337.966	2161.44
338.194	1970.44
338.422	1886.44
338.65	1902.44
338.878	1869.44
339.106	1816.44
339.334	1800.44
339.562	1760.44
339.79	1799.44
340.018	1918.44
340.246	1992.44
340.474	2000.44
340.702	1972.44
340.93	1958.44
341.158	1972.44
341.386	1859.44
341.614	1905.44
341.842	1907.44
342.07	1847.44
342.298	1893.44
342.526	1864.44
342.754	1847.44
342.981	1863.44
343.209	1850.44
343.437	1850.44
343.665	1847.44
343.893	1928.44
344.12	1987.44
344.348	2030.44
344.576	1956.44
344.804	1852.44
345.031	1844.44
345.259	1890.44
345.487	1806.44
345.714	1729.44
345.942	1738.44
346.17	1728.44
346.397	1763.44
346.625	1808.44
346.853	1715.44
347.08	1656.44
347.308	1708.44
347.535	1738.44
347.763	1808.44
347.99	1739.44
348.218	1673.44
348.445	1700.44
348.673	1713.44
348.9	1739.44
349.128	1833.44
349.355	1938.44
349.583	1865.44
349.81	1778.44
350.037	1659.44
350.265	1644.44
350.492	1658.44
350.72	1714.44
350.947	1748.44
351.174	1800.44
351.402	1716.44
351.629	1657.44
351.856	1626.44
352.083	1587.44
352.311	1609.44
352.538	1643.44
352.765	1718.44
352.992	1759.44
353.22	1716.44
353.447	1666.44
353.674	1702.44
353.901	1754.44
354.128	1668.44
354.355	1649.44
354.583	1728.44
354.81	1768.44
355.037	1754.44
355.264	1753.44
355.491	1710.44
355.718	1742.44
355.945	1739.44
356.172	1688.44
356.399	1654.44
356.626	1674.44
356.853	1696.44
357.08	1835.44
357.307	2074.44
357.534	2106.44
357.761	1799.44
357.988	1669.44
358.215	1588.44
358.441	1639.44
358.668	1626.44
358.895	1654.44
359.122	1731.44
359.349	1938.44
359.576	1989.44
359.802	1677.44
360.029	1625.44
360.256	1610.44
360.483	1684.44
360.709	1710.44
360.936	1784.44
361.163	1819.44
361.39	2000.44
361.616	2148.44
361.843	2111.44
362.07	2030.44
362.296	1729.44
362.523	1674.44
362.749	1674.44
362.976	1721.44
363.203	1798.44
363.429	1672.44
363.656	1633.44
363.882	1695.44
364.109	1914.44
364.335	2085.44
364.562	1937.44
364.788	1781.44
365.015	1744.44
365.241	1664.44
365.468	1681.44
365.694	1792.44
365.92	1865.44
366.147	1780.44
366.373	1710.44
366.599	1640.44
366.826	1649.44
367.052	1633.44
367.278	1698.44
367.505	1766.44
367.731	1735.44
367.957	1718.44
368.184	1781.44
368.41	1921.44
368.636	1876.44
368.862	1899.44
369.089	1925.44
369.315	1872.44
369.541	1799.44
369.767	1748.44
369.993	1720.44
370.219	1689.44
370.445	1743.44
370.672	1817.44
370.898	1945.44
371.124	1926.44
371.35	1810.44
371.576	1820.44
371.802	1936.44
372.028	1831.44
372.254	1767.44
372.48	1755.44
372.706	1737.44
372.932	1750.44
373.158	1732.44
373.384	1763.44
373.61	1824.44
373.835	1909.44
374.061	1837.44
374.287	1780.44
374.513	1816.44
374.739	1828.44
374.965	1820.44
375.191	1865.44
375.416	1838.44
375.642	1846.44
375.868	1936.44
376.094	1982.44
376.319	1906.44
376.545	1815.44
376.771	1832.44
376.997	1952.44
377.222	1926.44
377.448	1860.44
377.674	1868.44
377.899	1859.44
378.125	1977.44
378.35	1953.44
378.576	1820.44
378.802	1735.44
379.027	1722.44
379.253	1765.44
379.478	1805.44
379.704	1809.44
379.929	1786.44
380.155	1782.44
380.38	1788.44
380.606	1830.44
380.831	1838.44
381.057	1914.44
381.282	1931.44
381.507	1887.44
381.733	1946.44
381.958	2073.44
382.184	1894.44
382.409	1852.44
382.634	1874.44
382.86	1855.44
383.085	1865.44
383.31	1914.44
383.535	2061.44
383.761	2218.44
383.986	2107.44
384.211	2032.44
384.436	1978.44
384.662	2086.44
384.887	2206.44
385.112	2050.44
385.337	2051.44
385.562	2098.44
385.787	2051.44
386.013	2100.44
386.238	2115.44
386.463	2078.44
386.688	2168.44
386.913	2358.44
387.138	2344.44
387.363	2143.44
387.588	2137.44
387.813	2088.44
388.038	2067.44
388.263	2233.44
388.488	2132.44
388.713	2022.44
388.938	1982.44
389.163	1987.44
389.387	2041.44
389.612	1997.44
389.837	2062.44
390.062	2116.44
390.287	2057.44
390.512	2027.44
390.736	2012.44
390.961	1987.44
391.186	1911.44
391.411	1951.44
391.636	2024.44
391.86	2006.44
392.085	2038.44
392.31	1996.44
392.534	2053.44
392.759	2073.44
392.984	2020.44
393.208	2040.44
393.433	2122.44
393.658	2196.44
393.882	2236.44
394.107	2133.44
394.331	2006.44
394.556	2023.44
394.78	2064.44
395.005	2139.44
395.229	2201.44
395.454	2358.44
395.678	2382.44
395.903	2224.44
396.127	2149.44
396.352	2166.44
396.576	2228.44
396.801	2272.44
397.025	2238.44
397.249	2183.44
397.474	2224.44
397.698	2204.44
397.922	2266.44
398.147	2354.44
398.371	2422.44
398.595	2487.44
398.82	2332.44
399.044	2379.44
399.268	2474.44
399.492	2684.44
399.717	2759.44
399.941	2747.44
400.165	2704.44
400.389	2595.44
400.613	2616.44
400.837	2866.44
401.062	3303.44
401.286	2901.44
401.51	2573.44
401.734	2692.44
401.958	2611.44
402.182	2446.44
402.406	2305.44
402.63	2306.44
402.854	2315.44
403.078	2317.44
403.302	2408.44
403.526	2425.44
403.75	2454.44
403.974	2451.44
404.198	2461.44
404.422	2523.44
404.645	2596.44
404.869	2583.44
405.093	2436.44
405.317	2356.44
405.541	2422.44
405.765	2473.44
405.988	2454.44
406.212	2505.44
406.436	2556.44
406.66	2639.44
406.883	2630.44
407.107	2913.44
407.331	3242.44
407.555	3447.44
407.778	3227.44
408.002	2634.44
408.226	2574.44
408.449	2532.44
408.673	2476.44
408.896	2480.44
409.12	2532.44
409.344	2509.44
409.567	2412.44
409.791	2480.44
410.014	2528.44
410.238	2597.44
410.461	2745.44
410.685	2487.44
410.908	2312.44
411.132	2472.44
411.355	2469.44
411.578	2379.44
411.802	2403.44
412.025	2420.44
412.249	2362.44
412.472	2287.44
412.695	2278.44
412.919	2274.44
413.142	2268.44
413.365	2360.44
413.589	2373.44
413.812	2454.44
414.035	2592.44
414.258	2342.44
414.482	2372.44
414.705	2370.44
414.928	2318.44
415.151	2275.44
415.374	2300.44
415.597	2393.44
415.821	2328.44
416.044	2466.44
416.267	2483.44
416.49	2261.44
416.713	2212.44
416.936	2300.44
417.159	2436.44
417.382	2389.44
417.605	2269.44
417.828	2357.44
418.051	2399.44
418.274	2329.44
418.497	2231.44
418.72	2216.44
418.943	2198.44
419.166	2398.44
419.389	2476.44
419.611	2323.44
419.834	2288.44
420.057	2299.44
420.28	2219.44
420.503	2233.44
420.726	2314.44
420.948	2260.44
421.171	2216.44
421.394	2291.44
421.617	2350.44
421.839	2303.44
422.062	2302.44
422.285	2199.44
422.507	2235.44
422.73	2175.44
422.953	2138.44
423.175	2174.44
423.398	2186.44
423.621	2215.44
423.843	2245.44
424.066	2292.44
424.288	2371.44
424.511	2383.44
424.733	2326.44
424.956	2123.44
425.178	2162.44
425.401	2128.44
425.623	2158.44
425.846	2170.44
426.068	2280.44
426.291	2370.44
426.513	2257.44
426.735	2308.44
426.958	2399.44
427.18	2584.44
427.402	2394.44
427.625	2446.44
427.847	2471.44
428.069	2287.44
428.292	2177.44
428.514	2120.44
428.736	2146.44
428.958	2155.44
429.181	2168.44
429.403	2425.44
429.625	3078.44
429.847	2692.44
430.069	2217.44
430.292	2467.44
430.514	2550.44
430.736	2350.44
430.958	2481.44
431.18	2304.44
431.402	2167.44
431.624	2168.44
431.846	2150.44
432.068	2117.44
432.29	2154.44
432.512	2166.44
432.734	2235.44
432.956	2219.44
433.178	2396.44
433.4	2309.44
433.622	2320.44
433.844	2201.44
434.066	2166.44
434.287	2154.44
434.509	2244.44
434.731	2324.44
434.953	2527.44
435.175	2420.44
435.397	2290.44
435.618	2328.44
435.84	2310.44
436.062	2239.44
436.284	2239.44
436.505	2307.44
436.727	2325.44
436.949	2266.44
437.17	2178.44
437.392	2182.44
437.614	2178.44
437.835	2118.44
438.057	2265.44
438.278	2372.44
438.5	2196.44
438.721	2174.44
438.943	2176.44
439.165	2146.44
439.386	2066.44
439.608	2112.44
439.829	2157.44
440.05	2170.44
440.272	2121.44
440.493	2102.44
440.715	2129.44
440.936	2272.44
441.158	2520.44
441.379	2449.44
441.6	2399.44
441.822	2342.44
442.043	2278.44
442.264	2278.44
442.486	2155.44
442.707	2182.44
442.928	2129.44
443.149	2194.44
443.371	2391.44
443.592	2427.44
443.813	2406.44
444.034	2342.44
444.255	2352.44
444.476	2427.44
444.698	2421.44
444.919	2451.44
445.14	2501.44
445.361	2524.44
445.582	2600.44
445.803	2535.44
446.024	2377.44
446.245	2492.44
446.466	2358.44
446.687	2232.44
446.908	2245.44
447.129	2185.44
447.35	2183.44
447.571	2264.44
447.792	2091.44
448.013	2122.44
448.234	2133.44
448.455	2269.44
448.675	2282.44
448.896	2091.44
449.117	2047.44
449.338	2107.44
449.559	2177.44
449.779	2335.44
450	2544.44
450.221	2753.44
450.442	2650.44
450.662	2312.44
450.883	2084.44
451.104	2003.44
451.324	2052.44
451.545	2130.44
451.766	2131.44
451.986	2007.44
452.207	2037.44
452.428	1932.44
452.648	1931.44
452.869	1955.44
453.089	2134.44
453.31	2145.44
453.53	2158.44
453.751	2068.44
453.971	1984.44
454.192	2043.44
454.412	2163.44
454.633	2046.44
454.853	2022.44
455.073	1841.44
455.294	1857.44
455.514	1896.44
455.734	1882.44
455.955	1950.44
456.175	1916.44
456.395	1973.44
456.616	1956.44
456.836	2014.44
457.056	1988.44
457.276	2000.44
457.497	1957.44
457.717	1866.44
457.937	1945.44
458.157	1978.44
458.377	1915.44
458.598	1919.44
458.818	1935.44
459.038	2083.44
459.258	2226.44
459.478	2172.44
459.698	2130.44
459.918	2119.44
460.138	2292.44
460.358	2337.44
460.578	2315.44
460.798	2393.44
461.018	2536.44
461.238	2368.44
461.458	2338.44
461.678	2326.44
461.898	2297.44
462.118	2180.44
462.338	2330.44
462.558	2327.44
462.777	2320.44
462.997	2433.44
463.217	2532.44
463.437	2539.44
463.657	2350.44
463.876	2362.44
464.096	2339.44
464.316	2334.44
464.536	2434.44
464.755	2381.44
464.975	2443.44
465.195	2338.44
465.414	2462.44
465.634	2464.44
465.854	2287.44
466.073	2478.44
466.293	2426.44
466.512	2121.44
466.732	2129.44
466.951	2228.44
467.171	2222.44
467.391	2065.44
467.61	2040.44
467.829	2065.44
468.049	2274.44
468.268	2522.44
468.488	2347.44
468.707	2242.44
468.927	2128.44
469.146	2108.44
469.365	2043.44
469.585	2151.44
469.804	2101.44
470.023	2134.44
470.243	2146.44
470.462	2115.44
470.681	2106.44
470.901	2133.44
471.12	2106.44
471.339	2085.44
471.558	2024.44
471.777	2026.44
471.997	2069.44
472.216	2127.44
472.435	2018.44
472.654	2014.44
472.873	2153.44
473.092	2252.44
473.311	2173.44
473.53	2027.44
473.749	2011.44
473.968	2067.44
474.187	2214.44
474.406	2322.44
474.625	2193.44
474.844	2100.44
475.063	2142.44
475.282	2165.44
475.501	2138.44
475.72	2124.44
475.939	2271.44
476.158	2192.44
476.377	2159.44
476.596	2209.44
476.814	2176.44
477.033	2208.44
477.252	2323.44
477.471	2356.44
477.69	2276.44
477.908	2243.44
478.127	2314.44
478.346	2531.44
478.564	2552.44
478.783	2488.44
479.002	2616.44
479.22	2565.44
479.439	2633.44
479.658	3013.44
479.876	2964.44
480.095	2573.44
480.313	2459.44
480.532	2343.44
480.751	2342.44
480.969	2430.44
481.188	2450.44
481.406	2362.44
481.624	2382.44
481.843	2348.44
482.061	2425.44
482.28	2433.44
482.498	2450.44
482.717	2460.44
482.935	2409.44
483.153	2364.44
483.372	2364.44
483.59	2307.44
483.808	2421.44
484.027	2444.44
484.245	2566.44
484.463	2958.44
484.681	3446.44
484.9	2620.44
485.118	2446.44
485.336	2338.44
485.554	2468.44
485.772	2584.44
485.99	2561.44
486.209	2539.44
486.427	2562.44
486.645	2563.44
486.863	2503.44
487.081	2518.44
487.299	2649.44
487.517	2603.44
487.735	2457.44
487.953	2473.44
488.171	2484.44
488.389	2465.44
488.607	2507.44
488.825	2721.44
489.043	2840.44
489.261	2478.44
489.479	2605.44
489.696	2711.44
489.914	2628.44
490.132	2562.44
490.35	2503.44
490.568	2619.44
490.786	2527.44
491.003	2472.44
491.221	2437.44
491.439	2568.44
491.657	2545.44
491.874	2552.44
492.092	2582.44
492.31	2567.44
492.527	2518.44
492.745	2503.44
492.963	2546.44
493.18	2651.44
493.398	2767.44
493.615	2901.44
493.833	2598.44
494.05	2584.44
494.268	2628.44
494.485	2663.44
494.703	2596.44
494.92	2522.44
495.138	2564.44
495.355	2546.44
495.573	2656.44
495.79	2845.44
496.008	2870.44
496.225	2701.44
496.442	2691.44
496.66	2699.44
496.877	2730.44
497.094	2841.44
497.312	2867.44
497.529	2784.44
497.746	2862.44
497.963	3354.44
498.181	3750.44
498.398	3491.44
498.615	3438.44
498.832	3302.44
499.049	3308.44
499.267	3287.44
499.484	3518.44
499.701	3762.44
499.918	3817.44
500.135	4020.44
500.352	4361.44
500.569	4414.44
500.786	4692.44
501.003	4349.44
501.22	3928.44
501.437	3849.44
501.654	3848.44
501.871	3747.44
502.088	3222.44
502.305	3284.44
502.522	3184.44
502.739	2902.44
502.956	2830.44
503.172	2829.44
503.389	2789.44
503.606	2705.44
503.823	2729.44
504.04	2715.44
504.256	2704.44
504.473	2724.44
504.69	2830.44
504.907	2655.44
505.123	2553.44
505.34	2686.44
505.557	3550.44
505.773	3035.44
505.99	2572.44
506.207	2364.44
506.423	2316.44
506.64	2306.44
506.856	2344.44
507.073	2626.44
507.289	2875.44
507.506	2794.44
507.722	2382.44
507.939	2280.44
508.155	2234.44
508.372	2278.44
508.588	2178.44
508.805	2170.44
509.021	2106.44
509.238	2109.44
509.454	2053.44
509.67	2152.44
509.887	2091.44
510.103	2076.44
510.319	2105.44
510.536	2255.44
510.752	2279.44
510.968	2318.44
511.184	2444.44
511.401	2432.44
511.617	2059.44
511.833	1993.44
512.049	2070.44
512.265	2045.44
512.481	1993.44
512.698	2121.44
512.914	2265.44
513.13	2147.44
513.346	2109.44
513.562	2019.44
513.778	2032.44
513.994	2177.44
514.21	2253.44
514.426	2208.44
514.642	2512.44
514.858	2396.44
515.074	2143.44
515.29	2082.44
515.506	2151.44
515.721	2154.44
515.937	2162.44
516.153	2476.44
516.369	2418.44
516.585	2262.44
516.801	2130.44
517.016	2111.44
517.232	2211.44
517.448	2255.44
517.664	2276.44
517.879	2245.44
518.095	2420.44
518.311	2254.44
518.527	2186.44
518.742	2143.44
518.958	2082.44
519.173	2098.44
519.389	2110.44
519.605	2080.44
519.82	2147.44
520.036	2128.44
520.251	2108.44
520.467	2110.44
520.682	2289.44
520.898	2332.44
521.113	2067.44
521.329	2072.44
521.544	2249.44
521.76	2096.44
521.975	2033.44
522.19	1962.44
522.406	1994.44
522.621	2397.44
522.836	2421.44
523.052	1980.44
523.267	1992.44
523.482	1966.44
523.698	1904.44
523.913	1828.44
524.128	1881.44
524.343	2025.44
524.559	2043.44
524.774	1942.44
524.989	1884.44
525.204	1878.44
525.419	1835.44
525.634	1840.44
525.849	1876.44
526.064	1915.44
526.28	1924.44
526.495	1849.44
526.71	1837.44
526.925	1828.44
527.14	1828.44
527.355	1795.44
527.57	1756.44
527.785	1861.44
527.999	1828.44
528.214	1763.44
528.429	1706.44
528.644	1784.44
528.859	1795.44
529.074	1746.44
529.289	1819.44
529.503	1855.44
529.718	1843.44
529.933	1814.44
530.148	1782.44
530.363	1708.44
530.577	1798.44
530.792	1814.44
531.007	1823.44
531.221	1795.44
531.436	1834.44
531.651	1897.44
531.865	1946.44
532.08	1883.44
532.295	1758.44
532.509	1690.44
532.724	1772.44
532.938	1805.44
533.153	1943.44
533.367	1854.44
533.582	1797.44
533.796	1746.44
534.011	1753.44
534.225	1801.44
534.44	1769.44
534.654	1763.44
534.868	1770.44
535.083	1854.44
535.297	1838.44
535.511	1799.44
535.726	1783.44
535.94	1758.44
536.154	1739.44
536.369	1730.44
536.583	1738.44
536.797	1691.44
537.011	1760.44
537.225	1702.44
537.44	1650.44
537.654	1797.44
537.868	1720.44
538.082	1632.44
538.296	1650.44
538.51	1593.44
538.724	1580.44
538.938	1626.44
539.153	1668.44
539.367	1690.44
539.581	1651.44
539.795	1758.44
540.009	1728.44
540.222	1630.44
540.436	1719.44
540.65	1870.44
540.864	1861.44
541.078	1775.44
541.292	1627.44
541.506	1648.44
541.72	1686.44
541.934	1658.44
542.147	1700.44
542.361	1647.44
542.575	1608.44
542.789	1610.44
543.002	1570.44
543.216	1578.44
543.43	1682.44
543.644	1801.44
543.857	1810.44
544.071	1742.44
544.285	1686.44
544.498	1661.44
544.712	1635.44
544.925	1727.44
545.139	1689.44
545.352	1634.44
545.566	1584.44
545.779	1547.44
545.993	1586.44
546.206	1609.44
546.42	1547.44
546.633	1509.44
546.847	1545.44
547.06	1540.44
547.274	1543.44
547.487	1506.44
547.7	1569.44
547.914	1565.44
548.127	1585.44
548.34	1633.44
548.554	1618.44
548.767	1561.44
548.98	1591.44
549.193	1586.44
549.407	1654.44
549.62	1677.44
549.833	1600.44
550.046	1561.44
550.259	1571.44
550.473	1564.44
550.686	1568.44
550.899	1562.44
551.112	1483.44
551.325	1470.44
551.538	1564.44
551.751	1866.44
551.964	1522.44
552.177	1530.44
552.39	1513.44
552.603	1556.44
552.816	1536.44
553.029	1604.44
553.242	1652.44
553.455	1552.44
553.667	1593.44
553.88	1538.44
554.093	1567.44
554.306	1478.44
554.519	1498.44
554.732	1446.44
554.944	1471.44
555.157	1537.44
555.37	1485.44
555.583	1470.44
555.795	1417.44
556.008	1409.44
556.221	1344.44
556.433	1349.44
556.646	1342.44
556.859	1355.44
557.071	1369.44
557.284	1320.44
557.496	1318.44
557.709	1300.44
557.921	1326.44
558.134	1304.44
558.346	1293.44
558.559	1270.44
558.771	1321.44
558.984	1268.44
559.196	1266.44
559.409	1288.44
559.621	1252.44
559.833	1313.44
560.046	1336.44
560.258	1323.44
560.47	1264.44
560.683	1285.44
560.895	1286.44
561.107	1271.44
561.32	1306.44
561.532	1338.44
561.744	1253.44
561.956	1290.44
562.168	1246.44
562.381	1224.44
562.593	1231.44
562.805	1255.44
563.017	1209.44
563.229	1260.44
563.441	1321.44
563.653	1228.44
563.865	1231.44
564.077	1256.44
564.289	1254.44
564.501	1296.44
564.713	1328.44
564.925	1362.44
565.137	1422.44
565.349	1342.44
565.561	1341.44
565.773	1306.44
565.985	1349.44
566.197	1421.44
566.408	1537.44
566.62	1507.44
566.832	1512.44
567.044	1558.44
567.255	1543.44
567.467	1570.44
567.679	1612.44
567.891	1595.44
568.102	1607.44
568.314	1536.44
568.526	1455.44
568.737	1404.44
568.949	1319.44
569.161	1274.44
569.372	1197.44
569.584	1210.44
569.795	1208.44
570.007	1184.44
570.218	1156.44
570.43	1163.44
570.641	1146.44
570.853	1171.44
571.064	1163.44
571.276	1145.44
571.487	1124.44
571.698	1072.44
571.91	1084.44
572.121	1072.44
572.333	1043.44
572.544	1022.44
572.755	1010.44
572.966	993.44
573.178	1006.44
573.389	1026.44
573.6	1075.44
573.811	1155.44
574.023	1054.44
574.234	1029.44
574.445	999.44
574.656	974.44
574.867	955.44
575.078	969.44
575.289	982.44
575.501	928.44
575.712	919.44
575.923	934.44
576.134	969.44
576.345	936.44
576.556	934.44
576.767	886.44
576.978	886.44
577.188	887.44
577.399	917.44
577.61	888.44
577.821	874.44
578.032	888.44
578.243	886.44
578.454	870.44
578.665	868.44
578.875	849.44
579.086	848.44
579.297	867.44
579.508	929.44
579.718	881.44
579.929	846.44
580.14	848.44
580.35	840.44
580.561	888.44
580.772	948.44
580.982	890.44
581.193	863.44
581.403	794.44
581.614	833.44
581.825	818.44
582.035	807.44
582.246	808.44
582.456	850.44
582.667	830.44
582.877	787.44
583.087	805.44
583.298	795.44
583.508	816.44
583.719	822.44
583.929	804.44
584.139	837.44
584.35	790.44
584.56	777.44
584.77	800.44
584.981	787.44
585.191	809.44
585.401	826.44
585.611	802.44
585.821	781.44
586.032	780.44
586.242	764.44
586.452	775.44
586.662	802.44
586.872	796.44
587.082	755.44
587.292	809.44
587.502	793.44
587.713	812.44
587.923	781.44
588.133	791.44
588.343	786.44
588.553	777.44
588.762	790.44
588.972	754.44
589.182	811.44
589.392	788.44
589.602	802.44
589.812	786.44
590.022	738.44
590.232	726.44
590.441	749.44
590.651	783.44
590.861	764.44
591.071	732.44
591.281	755.44
591.49	737.44
591.7	751.44
591.91	747.44
592.119	765.44
592.329	750.44
592.539	788.44
592.748	758.44
592.958	772.44
593.167	798.44
593.377	773.44
593.587	818.44
593.796	826.44
594.006	789.44
594.215	809.44
594.424	798.44
594.634	772.44
594.843	785.44
595.053	781.44
595.262	770.44
595.472	728.44
595.681	759.44
595.89	738.44
596.1	726.44
596.309	711.44
596.518	713.44
596.727	702.44
596.937	725.44
597.146	698.44
597.355	655.44
597.564	701.44
597.774	676.44
597.983	674.44
598.192	676.44
598.401	667.44
598.61	648.44
598.819	627.44
599.028	646.44
599.237	643.44
599.446	636.44
599.655	637.44
599.864	630.44
600.073	628.44
600.282	628.44
600.491	637.44
600.7	632.44
600.909	622.44
601.118	618.44
601.327	634.44
601.536	625.44
601.745	632.44
601.953	620.44
602.162	636.44
602.371	652.44
602.58	622.44
602.789	603.44
602.997	614.44
603.206	633.44
603.415	617.44
603.623	622.44
603.832	610.44
604.041	592.44
604.249	581.44
604.458	594.44
604.666	591.44
604.875	610.44
605.084	599.44
605.292	596.44
605.501	599.44
605.709	596.44
605.918	574.44
606.126	560.44
606.334	583.44
606.543	599.44
606.751	567.44
606.96	587.44
607.168	549.44
607.376	536.44
607.585	571.44
607.793	581.44
608.001	546.44
608.21	563.44
608.418	578.44
608.626	562.44
608.834	567.44
609.043	564.44
609.251	562.44
609.459	559.44
609.667	556.44
609.875	550.44
610.083	570.44
610.291	592.44
610.499	601.44
610.707	555.44
610.916	529.44
611.124	535.44
611.332	532.44
611.54	545.44
611.748	543.44
611.955	542.44
612.163	531.44
612.371	543.44
612.579	541.44
612.787	538.44
612.995	574.44
613.203	572.44
613.411	529.44
613.618	538.44
613.826	547.44
614.034	525.44
614.242	521.44
614.449	520.44
614.657	538.44
614.865	524.44
615.072	541.44
615.28	538.44
615.488	517.44
615.695	578.44
615.903	547.44
616.111	517.44
616.318	530.44
616.526	537.44
616.733	539.44
616.941	513.44
617.148	523.44
617.356	523.44
617.563	520.44
617.771	524.44
617.978	526.44
618.185	501.44
618.393	501.44
618.6	514.44
618.807	513.44
619.015	511.44
619.222	512.44
619.429	508.44
619.637	543.44
619.844	498.44
620.051	497.44
620.258	483.44
620.466	476.44
620.673	484.44
620.88	448.44
621.087	473.44
621.294	468.44
621.501	468.44
621.708	486.44
621.915	491.44
622.122	495.44
622.329	491.44
622.536	486.44
622.743	475.44
622.95	483.44
623.157	458.44
623.364	463.44
623.571	480.44
623.778	473.44
623.985	463.44
624.192	457.44
624.399	476.44
624.606	460.44
624.812	439.44
625.019	435.44
625.226	435.44
625.433	455.44
625.639	457.44
625.846	442.44
626.053	433.44
626.259	428.44
626.466	419.44
626.673	422.44
626.879	420.44
627.086	418.44
627.293	433.44
627.499	430.44
627.706	430.44
627.912	402.44
628.119	438.44
628.325	431.44
628.532	407.44
628.738	430.44
628.945	424.44
629.151	393.44
629.357	408.44
629.564	418.44
629.77	420.44
629.976	392.44
630.183	403.44
630.389	416.44
630.595	402.44
630.802	408.44
631.008	406.44
631.214	401.44
631.42	406.44
631.627	402.44
631.833	400.44
632.039	387.44
632.245	392.44
632.451	387.44
632.657	380.44
632.863	404.44
633.069	390.44
633.275	380.44
633.481	362.44
633.688	369.44
633.893	358.44
634.099	392.44
634.305	377.44
634.511	372.44
634.717	364.44
634.923	371.44
635.129	361.44
635.335	352.44
635.541	374.44
635.747	364.44
635.952	357.44
636.158	359.44
636.364	374.44
636.57	364.44
636.775	354.44
636.981	369.44
637.187	365.44
637.392	377.44
637.598	339.44
637.804	366.44
638.009	359.44
638.215	355.44
638.421	350.44
638.626	352.44
638.832	338.44
639.037	335.44
639.243	358.44
639.448	326.44
639.654	321.44
639.859	322.44
640.065	326.44
640.27	328.44
640.475	338.44
640.681	330.44
640.886	350.44
641.091	326.44
641.297	328.44
641.502	321.44
641.707	334.44
641.913	338.44
642.118	330.44
642.323	323.44
642.528	325.44
642.733	340.44
642.939	331.44
643.144	317.44
643.349	335.44
643.554	346.44
643.759	340.44
643.964	343.44
644.169	340.44
644.374	319.44
644.579	334.44
644.784	323.44
644.989	324.44
645.194	314.44
645.399	325.44
645.604	320.44
645.809	310.44
646.014	333.44
646.219	336.44
646.423	324.44
646.628	332.44
646.833	324.44
647.038	312.44
647.243	313.44
647.447	319.44
647.652	325.44
647.857	342.44
648.062	334.44
648.266	342.44
648.471	296.44
648.676	303.44
648.88	323.44
649.085	321.44
649.289	304.44
649.494	293.44
649.698	326.44
649.903	309.44
650.107	322.44
650.312	300.44
650.516	306.44
650.721	293.44
650.925	295.44
651.13	303.44
651.334	303.44
651.539	280.44
651.743	277.44
651.947	267.44
652.152	283.44
652.356	279.44
652.56	280.44
652.764	276.44
652.969	249.44
653.173	270.44
653.377	244.44
653.581	262.44
653.785	275.44
653.99	247.44
654.194	256.44
654.398	258.44
654.602	251.44
654.806	238.44
655.01	262.44
655.214	240.44
655.418	254.44
655.622	248.44
655.826	226.44
656.03	272.44
656.234	272.44
656.438	283.44
656.642	280.44
656.846	268.44
657.049	250.44
657.253	243.44
657.457	211.44
657.661	182.44
657.865	162.44
658.068	164.44
658.272	181.44
658.476	166.44
658.68	170.44
658.883	155.44
659.087	140.44
659.291	133.44
659.494	135.44
659.698	127.44
659.901	142.44
660.105	126.44
660.309	123.44
660.512	120.44
660.716	124.44
660.919	120.44
661.123	117.44
661.326	97.44
661.53	102.44
661.733	110.44
661.936	101.44
662.14	114.44
662.343	92.44
662.546	100.44
662.75	95.44
662.953	103.44
663.156	92.44
663.36	103.44
663.563	92.44
663.766	104.44
663.969	88.44
664.173	97.44
664.376	88.44
664.579	86.44
664.782	76.44
664.985	80.44
665.188	88.44
665.391	88.44
665.594	92.44
665.797	83.44
666	92.44
666.203	83.44
666.406	71.44
666.609	72.44
666.812	84.44
667.015	96.44
667.218	94.44
667.421	71.44
667.624	78.44
667.827	88.44
668.03	85.44
668.232	65.44
668.435	74.44
668.638	83.44
668.841	86.44
669.043	92.44
669.246	84.44
669.449	77.44
669.651	81.44
669.854	78.44
670.057	88.44
670.259	85.44
670.462	76.44
670.665	79.44
670.867	76.44
671.07	103.44
671.272	90.44
671.475	82.44
671.677	81.44
671.88	80.44
672.082	81.44
672.284	85.44
672.487	72.44
672.689	88.44
672.892	95.44
