Data from WStandard_LampEnergy5.5LIBS07252019.E.O._I.C._HRD10591_16-09-31-920.txt Node
Date: Thu Jul 25 16:09:31 EDT 2019
User: cochatt
Spectrometer: HR+D1059
Trigger mode: 1
Integration Time (sec): 1.000000E-1
Scans to average: 1
Electric dark correction enabled: true
Nonlinearity correction enabled: false
Boxcar width: 0
XAxis mode: Wavelengths
Number of Pixels in Spectrum: 2048
>>>>>Begin Spectral Data<<<<<
223.165	-22.75
223.4	-22.75
223.635	-22.75
223.869	-19.75
224.104	-25.75
224.338	-19.75
224.573	-21.75
224.808	2.25
225.042	-7.75
225.277	-14.75
225.511	-0.75
225.746	2.25
225.98	-4.75
226.215	16.25
226.449	23.25
226.683	37.25
226.918	26.25
227.152	30.25
227.387	27.25
227.621	30.25
227.856	39.25
228.09	50.25
228.324	40.25
228.559	55.25
228.793	135.25
229.027	337.25
229.262	375.25
229.496	361.25
229.73	375.25
229.964	423.25
230.199	444.25
230.433	444.25
230.667	484.25
230.901	513.25
231.136	454.25
231.37	428.25
231.604	449.25
231.838	453.25
232.072	452.25
232.306	417.25
232.541	461.25
232.775	541.25
233.009	568.25
233.243	541.25
233.477	514.25
233.711	488.25
233.945	539.25
234.179	522.25
234.413	552.25
234.647	631.25
234.881	578.25
235.115	508.25
235.349	543.25
235.583	549.25
235.817	515.25
236.051	532.25
236.285	538.25
236.519	569.25
236.753	623.25
236.987	640.25
237.221	644.25
237.455	708.25
237.689	673.25
237.922	651.25
238.156	612.25
238.39	635.25
238.624	653.25
238.858	707.25
239.091	704.25
239.325	749.25
239.559	870.25
239.793	917.25
240.027	1002.25
240.26	982.25
240.494	736.25
240.728	680.25
240.961	709.25
241.195	717.25
241.429	775.25
241.662	789.25
241.896	720.25
242.13	723.25
242.363	799.25
242.597	867.25
242.83	875.25
243.064	837.25
243.298	913.25
243.531	871.25
243.765	900.25
243.998	891.25
244.232	791.25
244.465	763.25
244.699	762.25
244.932	855.25
245.166	977.25
245.399	925.25
245.633	870.25
245.866	864.25
246.099	902.25
246.333	901.25
246.566	916.25
246.8	1008.25
247.033	1160.25
247.266	1022.25
247.5	988.25
247.733	1006.25
247.966	1061.25
248.2	1186.25
248.433	1134.25
248.666	1176.25
248.899	1286.25
249.133	1449.25
249.366	1655.25
249.599	1350.25
249.832	1219.25
250.066	1244.25
250.299	1224.25
250.532	1177.25
250.765	1020.25
250.998	1090.25
251.231	1117.25
251.465	1158.25
251.698	1090.25
251.931	1126.25
252.164	1139.25
252.397	1205.25
252.63	1185.25
252.863	1079.25
253.096	1026.25
253.329	1083.25
253.562	1135.25
253.795	1203.25
254.028	1195.25
254.261	1090.25
254.494	1100.25
254.727	1037.25
254.96	1090.25
255.193	1191.25
255.426	1352.25
255.659	1565.25
255.892	1628.25
256.124	1301.25
256.357	1289.25
256.59	1336.25
256.823	1355.25
257.056	1342.25
257.289	1633.25
257.521	1741.25
257.754	1617.25
257.987	1512.25
258.22	1690.25
258.452	1671.25
258.685	1351.25
258.918	1297.25
259.151	1317.25
259.383	1249.25
259.616	1118.25
259.849	1179.25
260.081	1331.25
260.314	1483.25
260.547	1592.25
260.779	1650.25
261.012	1533.25
261.244	1400.25
261.477	1290.25
261.71	1335.25
261.942	1386.25
262.175	1303.25
262.407	1407.25
262.64	1324.25
262.872	1239.25
263.105	1192.25
263.337	1233.25
263.57	1241.25
263.802	1271.25
264.035	1169.25
264.267	1099.25
264.499	1097.25
264.732	1188.25
264.964	1263.25
265.197	1271.25
265.429	1359.25
265.661	1482.25
265.894	1659.25
266.126	1711.25
266.358	1501.25
266.591	1560.25
266.823	1723.25
267.055	1535.25
267.287	1555.25
267.52	1498.25
267.752	1471.25
267.984	1467.25
268.216	1545.25
268.448	1587.25
268.681	1551.25
268.913	1428.25
269.145	1403.25
269.377	1370.25
269.609	1449.25
269.841	1698.25
270.073	1925.25
270.306	2151.25
270.538	2288.25
270.77	1920.25
271.002	1684.25
271.234	1567.25
271.466	1521.25
271.698	1746.25
271.93	2079.25
272.162	2057.25
272.394	1915.25
272.626	1801.25
272.858	1618.25
273.09	1403.25
273.322	1378.25
273.553	1337.25
273.785	1358.25
274.017	1397.25
274.249	1493.25
274.481	1506.25
274.713	1394.25
274.945	1343.25
275.176	1362.25
275.408	1343.25
275.64	1313.25
275.872	1316.25
276.104	1426.25
276.335	1595.25
276.567	1779.25
276.799	1840.25
277.031	1669.25
277.262	1573.25
277.494	1590.25
277.726	1779.25
277.957	1733.25
278.189	1611.25
278.421	1488.25
278.652	1420.25
278.884	1410.25
279.115	1458.25
279.347	1471.25
279.579	1442.25
279.81	1419.25
280.042	1576.25
280.273	1697.25
280.505	1687.25
280.736	1747.25
280.968	1642.25
281.199	1455.25
281.431	1414.25
281.662	1390.25
281.894	1422.25
282.125	1441.25
282.356	1467.25
282.588	1522.25
282.819	1514.25
283.051	1589.25
283.282	1748.25
283.513	1691.25
283.745	1468.25
283.976	1350.25
284.207	1398.25
284.439	1439.25
284.67	1440.25
284.901	1523.25
285.132	1535.25
285.364	1470.25
285.595	1508.25
285.826	1460.25
286.057	1462.25
286.288	1468.25
286.52	1499.25
286.751	1605.25
286.982	1687.25
287.213	1564.25
287.444	1397.25
287.675	1432.25
287.906	1504.25
288.138	1584.25
288.369	1587.25
288.6	1496.25
288.831	1427.25
289.062	1429.25
289.293	1479.25
289.524	1483.25
289.755	1544.25
289.986	1559.25
290.217	1415.25
290.448	1447.25
290.679	1484.25
290.91	1479.25
291.141	1531.25
291.371	1629.25
291.602	1595.25
291.833	1567.25
292.064	1569.25
292.295	1583.25
292.526	1647.25
292.757	1709.25
292.987	1632.25
293.218	1528.25
293.449	1596.25
293.68	1815.25
293.91	1933.25
294.141	1840.25
294.372	1713.25
294.603	1798.25
294.833	1916.25
295.064	1749.25
295.295	1576.25
295.525	1557.25
295.756	1485.25
295.987	1397.25
296.217	1429.25
296.448	1458.25
296.679	1489.25
296.909	1461.25
297.14	1459.25
297.37	1467.25
297.601	1558.25
297.831	1676.25
298.062	1715.25
298.292	1573.25
298.523	1457.25
298.753	1484.25
298.984	1498.25
299.214	1501.25
299.445	1554.25
299.675	1584.25
299.905	1548.25
300.136	1521.25
300.366	1499.25
300.597	1451.25
300.827	1443.25
301.057	1513.25
301.288	1578.25
301.518	1590.25
301.748	1562.25
301.979	1699.25
302.209	1691.25
302.439	1804.25
302.669	1890.25
302.9	1754.25
303.13	1617.25
303.36	1613.25
303.59	1616.25
303.82	1601.25
304.051	1601.25
304.281	1621.25
304.511	1612.25
304.741	1716.25
304.971	1825.25
305.201	2041.25
305.431	1857.25
305.661	1563.25
305.891	1406.25
306.121	1439.25
306.352	1467.25
306.582	1525.25
306.812	1637.25
307.042	1791.25
307.272	1795.25
307.502	1805.25
307.731	1939.25
307.961	2060.25
308.191	1931.25
308.421	1649.25
308.651	1595.25
308.881	1514.25
309.111	1538.25
309.341	1508.25
309.571	1541.25
309.8	1534.25
310.03	1485.25
310.26	1510.25
310.49	1529.25
310.72	1567.25
310.949	1634.25
311.179	1675.25
311.409	1609.25
311.639	1619.25
311.868	1562.25
312.098	1579.25
312.328	1574.25
312.557	1531.25
312.787	1587.25
313.017	1641.25
313.246	1612.25
313.476	1590.25
313.706	1641.25
313.935	1660.25
314.165	1633.25
314.394	1691.25
314.624	1815.25
314.853	1883.25
315.083	1967.25
315.312	1987.25
315.542	1898.25
315.771	1706.25
316.001	1675.25
316.23	1762.25
316.46	1768.25
316.689	1734.25
316.919	1655.25
317.148	1601.25
317.377	1593.25
317.607	1696.25
317.836	1911.25
318.065	1973.25
318.295	1929.25
318.524	1809.25
318.753	1728.25
318.983	1753.25
319.212	1712.25
319.441	1702.25
319.67	1668.25
319.9	1703.25
320.129	1750.25
320.358	1845.25
320.587	1909.25
320.816	1892.25
321.046	1845.25
321.275	1720.25
321.504	1760.25
321.733	1913.25
321.962	1880.25
322.191	1739.25
322.42	1713.25
322.649	1709.25
322.878	1711.25
323.108	1727.25
323.337	1732.25
323.566	1771.25
323.795	1733.25
324.024	1720.25
324.253	1707.25
324.482	1715.25
324.71	1660.25
324.939	1599.25
325.168	1627.25
325.397	1667.25
325.626	1788.25
325.855	1764.25
326.084	1695.25
326.313	1711.25
326.542	1717.25
326.77	1765.25
326.999	1756.25
327.228	1706.25
327.457	1634.25
327.686	1638.25
327.914	1676.25
328.143	1711.25
328.372	1683.25
328.6	1682.25
328.829	1678.25
329.058	1687.25
329.287	1690.25
329.515	1684.25
329.744	1705.25
329.972	1848.25
330.201	1871.25
330.43	1836.25
330.658	1757.25
330.887	1811.25
331.115	1804.25
331.344	1832.25
331.572	1768.25
331.801	1746.25
332.03	1825.25
332.258	1815.25
332.486	1809.25
332.715	1836.25
332.943	1874.25
333.172	1823.25
333.4	1861.25
333.629	1880.25
333.857	1945.25
334.085	2133.25
334.314	2380.25
334.542	2604.25
334.771	2439.25
334.999	2141.25
335.227	2089.25
335.455	1951.25
335.684	1927.25
335.912	1939.25
336.14	2033.25
336.369	1952.25
336.597	1856.25
336.825	1841.25
337.053	1866.25
337.281	1958.25
337.51	2040.25
337.738	2135.25
337.966	2067.25
338.194	1865.25
338.422	1800.25
338.65	1809.25
338.878	1765.25
339.106	1742.25
339.334	1717.25
339.562	1651.25
339.79	1729.25
340.018	1772.25
340.246	1913.25
340.474	1891.25
340.702	1811.25
340.93	1876.25
341.158	1848.25
341.386	1817.25
341.614	1833.25
341.842	1778.25
342.07	1783.25
342.298	1785.25
342.526	1778.25
342.754	1745.25
342.981	1770.25
343.209	1756.25
343.437	1742.25
343.665	1761.25
343.893	1819.25
344.12	1904.25
344.348	1900.25
344.576	1833.25
344.804	1796.25
345.031	1747.25
345.259	1770.25
345.487	1700.25
345.714	1702.25
345.942	1662.25
346.17	1657.25
346.397	1704.25
346.625	1698.25
346.853	1619.25
347.08	1577.25
347.308	1627.25
347.535	1660.25
347.763	1736.25
347.99	1660.25
348.218	1585.25
348.445	1596.25
348.673	1635.25
348.9	1681.25
349.128	1751.25
349.355	1835.25
349.583	1762.25
349.81	1691.25
350.037	1592.25
350.265	1572.25
350.492	1586.25
350.72	1603.25
350.947	1690.25
351.174	1676.25
351.402	1651.25
351.629	1552.25
351.856	1539.25
352.083	1496.25
352.311	1555.25
352.538	1607.25
352.765	1645.25
352.992	1692.25
353.22	1642.25
353.447	1584.25
353.674	1605.25
353.901	1665.25
354.128	1616.25
354.355	1603.25
354.583	1662.25
354.81	1710.25
355.037	1723.25
355.264	1652.25
355.491	1649.25
355.718	1671.25
355.945	1628.25
356.172	1652.25
356.399	1642.25
356.626	1607.25
356.853	1662.25
357.08	1743.25
357.307	1932.25
357.534	1968.25
357.761	1712.25
357.988	1623.25
358.215	1547.25
358.441	1534.25
358.668	1539.25
358.895	1603.25
359.122	1664.25
359.349	1839.25
359.576	1796.25
359.802	1654.25
360.029	1580.25
360.256	1580.25
360.483	1601.25
360.709	1633.25
360.936	1693.25
361.163	1731.25
361.39	1866.25
361.616	2013.25
361.843	1939.25
362.07	1899.25
362.296	1677.25
362.523	1626.25
362.749	1638.25
362.976	1663.25
363.203	1692.25
363.429	1618.25
363.656	1593.25
363.882	1630.25
364.109	1820.25
364.335	1920.25
364.562	1794.25
364.788	1709.25
365.015	1712.25
365.241	1608.25
365.468	1653.25
365.694	1719.25
365.92	1804.25
366.147	1693.25
366.373	1609.25
366.599	1583.25
366.826	1601.25
367.052	1580.25
367.278	1636.25
367.505	1625.25
367.731	1677.25
367.957	1701.25
368.184	1693.25
368.41	1797.25
368.636	1857.25
368.862	1835.25
369.089	1839.25
369.315	1787.25
369.541	1748.25
369.767	1690.25
369.993	1632.25
370.219	1635.25
370.445	1663.25
370.672	1760.25
370.898	1841.25
371.124	1873.25
371.35	1720.25
371.576	1769.25
371.802	1848.25
372.028	1755.25
372.254	1708.25
372.48	1662.25
372.706	1679.25
372.932	1650.25
373.158	1670.25
373.384	1711.25
373.61	1731.25
373.835	1795.25
374.061	1713.25
374.287	1721.25
374.513	1717.25
374.739	1747.25
374.965	1767.25
375.191	1777.25
375.416	1761.25
375.642	1776.25
375.868	1832.25
376.094	1939.25
376.319	1855.25
376.545	1735.25
376.771	1773.25
376.997	1823.25
377.222	1841.25
377.448	1791.25
377.674	1827.25
377.899	1766.25
378.125	1883.25
378.35	1887.25
378.576	1753.25
378.802	1683.25
379.027	1696.25
379.253	1709.25
379.478	1756.25
379.704	1719.25
379.929	1685.25
380.155	1699.25
380.38	1775.25
380.606	1735.25
380.831	1745.25
381.057	1781.25
381.282	1829.25
381.507	1837.25
381.733	1899.25
381.958	2001.25
382.184	1830.25
382.409	1754.25
382.634	1767.25
382.86	1776.25
383.085	1817.25
383.31	1836.25
383.535	2032.25
383.761	2100.25
383.986	2040.25
384.211	1941.25
384.436	1889.25
384.662	1987.25
384.887	2116.25
385.112	1964.25
385.337	2018.25
385.562	1963.25
385.787	1991.25
386.013	2041.25
386.238	2020.25
386.463	2007.25
386.688	2147.25
386.913	2289.25
387.138	2207.25
387.363	2071.25
387.588	2047.25
387.813	1980.25
388.038	2049.25
388.263	2121.25
388.488	2051.25
388.713	1923.25
388.938	1895.25
389.163	1896.25
389.387	1959.25
389.612	1926.25
389.837	1963.25
390.062	1998.25
390.287	1978.25
390.512	1937.25
390.736	1917.25
390.961	1897.25
391.186	1844.25
391.411	1870.25
391.636	1963.25
391.86	1992.25
392.085	2021.25
392.31	1991.25
392.534	1973.25
392.759	1989.25
392.984	1996.25
393.208	1966.25
393.433	1995.25
393.658	2095.25
393.882	2142.25
394.107	1996.25
394.331	1951.25
394.556	1953.25
394.78	1995.25
395.005	2107.25
395.229	2083.25
395.454	2255.25
395.678	2244.25
395.903	2221.25
396.127	2092.25
396.352	2079.25
396.576	2119.25
396.801	2179.25
397.025	2163.25
397.249	2151.25
397.474	2134.25
397.698	2135.25
397.922	2171.25
398.147	2262.25
398.371	2344.25
398.595	2348.25
398.82	2241.25
399.044	2260.25
399.268	2369.25
399.492	2537.25
399.717	2653.25
399.941	2661.25
400.165	2608.25
400.389	2524.25
400.613	2514.25
400.837	2736.25
401.062	3232.25
401.286	2719.25
401.51	2455.25
401.734	2533.25
401.958	2525.25
402.182	2347.25
402.406	2258.25
402.63	2191.25
402.854	2227.25
403.078	2323.25
403.302	2359.25
403.526	2345.25
403.75	2343.25
403.974	2373.25
404.198	2375.25
404.422	2411.25
404.645	2504.25
404.869	2521.25
405.093	2320.25
405.317	2291.25
405.541	2372.25
405.765	2370.25
405.988	2343.25
406.212	2381.25
406.436	2400.25
406.66	2540.25
406.883	2577.25
407.107	2819.25
407.331	3049.25
407.555	3304.25
407.778	3112.25
408.002	2525.25
408.226	2461.25
408.449	2521.25
408.673	2392.25
408.896	2429.25
409.12	2447.25
409.344	2410.25
409.567	2334.25
409.791	2371.25
410.014	2421.25
410.238	2489.25
410.461	2680.25
410.685	2409.25
410.908	2325.25
411.132	2373.25
411.355	2342.25
411.578	2238.25
411.802	2307.25
412.025	2355.25
412.249	2318.25
412.472	2245.25
412.695	2225.25
412.919	2254.25
413.142	2215.25
413.365	2219.25
413.589	2300.25
413.812	2335.25
414.035	2483.25
414.258	2303.25
414.482	2245.25
414.705	2315.25
414.928	2224.25
415.151	2220.25
415.374	2261.25
415.597	2275.25
415.821	2261.25
416.044	2361.25
416.267	2378.25
416.49	2188.25
416.713	2153.25
416.936	2239.25
417.159	2288.25
417.382	2317.25
417.605	2224.25
417.828	2213.25
418.051	2290.25
418.274	2232.25
418.497	2144.25
418.72	2177.25
418.943	2137.25
419.166	2296.25
419.389	2401.25
419.611	2303.25
419.834	2197.25
420.057	2284.25
420.28	2169.25
420.503	2165.25
420.726	2194.25
420.948	2204.25
421.171	2139.25
421.394	2187.25
421.617	2221.25
421.839	2231.25
422.062	2188.25
422.285	2151.25
422.507	2147.25
422.73	2112.25
422.953	2092.25
423.175	2131.25
423.398	2152.25
423.621	2155.25
423.843	2137.25
424.066	2190.25
424.288	2314.25
424.511	2289.25
424.733	2262.25
424.956	2084.25
425.178	2057.25
425.401	2066.25
425.623	2123.25
425.846	2086.25
426.068	2181.25
426.291	2221.25
426.513	2197.25
426.735	2215.25
426.958	2354.25
427.18	2473.25
427.402	2235.25
427.625	2319.25
427.847	2351.25
428.069	2169.25
428.292	2111.25
428.514	2055.25
428.736	2067.25
428.958	2072.25
429.181	2120.25
429.403	2336.25
429.625	2940.25
429.847	2584.25
430.069	2142.25
430.292	2394.25
430.514	2444.25
430.736	2234.25
430.958	2359.25
431.18	2245.25
431.402	2115.25
431.624	2076.25
431.846	2100.25
432.068	2025.25
432.29	2049.25
432.512	2108.25
432.734	2149.25
432.956	2155.25
433.178	2258.25
433.4	2224.25
433.622	2181.25
433.844	2153.25
434.066	2023.25
434.287	2051.25
434.509	2155.25
434.731	2219.25
434.953	2379.25
435.175	2338.25
435.397	2175.25
435.618	2218.25
435.84	2171.25
436.062	2144.25
436.284	2139.25
436.505	2214.25
436.727	2246.25
436.949	2125.25
437.17	2118.25
437.392	2111.25
437.614	2088.25
437.835	2025.25
438.057	2179.25
438.278	2291.25
438.5	2125.25
438.721	2079.25
438.943	2045.25
439.165	2077.25
439.386	1989.25
439.608	2056.25
439.829	2020.25
440.05	2076.25
440.272	2038.25
440.493	2018.25
440.715	2056.25
440.936	2182.25
441.158	2432.25
441.379	2364.25
441.6	2338.25
441.822	2260.25
442.043	2208.25
442.264	2165.25
442.486	2073.25
442.707	2077.25
442.928	2092.25
443.149	2114.25
443.371	2246.25
443.592	2338.25
443.813	2256.25
444.034	2241.25
444.255	2252.25
444.476	2319.25
444.698	2358.25
444.919	2335.25
445.14	2373.25
445.361	2383.25
445.582	2428.25
445.803	2344.25
446.024	2270.25
446.245	2367.25
446.466	2255.25
446.687	2187.25
446.908	2139.25
447.129	2118.25
447.35	2139.25
447.571	2116.25
447.792	2017.25
448.013	2016.25
448.234	2052.25
448.455	2171.25
448.675	2149.25
448.896	1988.25
449.117	1950.25
449.338	2031.25
449.559	2147.25
449.779	2236.25
450	2409.25
450.221	2595.25
450.442	2518.25
450.662	2219.25
450.883	2002.25
451.104	1955.25
451.324	1967.25
451.545	2065.25
451.766	2031.25
451.986	1920.25
452.207	1903.25
452.428	1872.25
452.648	1845.25
452.869	1893.25
453.089	2005.25
453.31	2009.25
453.53	2052.25
453.751	2017.25
453.971	1903.25
454.192	1948.25
454.412	2062.25
454.633	1964.25
454.853	1928.25
455.073	1827.25
455.294	1780.25
455.514	1826.25
455.734	1823.25
455.955	1842.25
456.175	1876.25
456.395	1873.25
456.616	1923.25
456.836	1933.25
457.056	1890.25
457.276	1953.25
457.497	1857.25
457.717	1776.25
457.937	1831.25
458.157	1898.25
458.377	1877.25
458.598	1847.25
458.818	1894.25
459.038	2001.25
459.258	2138.25
459.478	2128.25
459.698	2026.25
459.918	2091.25
460.138	2180.25
460.358	2240.25
460.578	2201.25
460.798	2309.25
461.018	2487.25
461.238	2325.25
461.458	2251.25
461.678	2257.25
461.898	2204.25
462.118	2122.25
462.338	2241.25
462.558	2241.25
462.777	2266.25
462.997	2341.25
463.217	2534.25
463.437	2442.25
463.657	2259.25
463.876	2259.25
464.096	2267.25
464.316	2242.25
464.536	2280.25
464.755	2355.25
464.975	2353.25
465.195	2284.25
465.414	2364.25
465.634	2329.25
465.854	2198.25
466.073	2344.25
466.293	2303.25
466.512	2027.25
466.732	2064.25
466.951	2088.25
467.171	2114.25
467.391	2005.25
467.61	1955.25
467.829	1987.25
468.049	2130.25
468.268	2383.25
468.488	2243.25
468.707	2124.25
468.927	2058.25
469.146	2029.25
469.365	1976.25
469.585	2018.25
469.804	1968.25
470.023	2048.25
470.243	2082.25
470.462	2030.25
470.681	1948.25
470.901	2041.25
471.12	2061.25
471.339	2042.25
471.558	1979.25
471.777	1949.25
471.997	2001.25
472.216	1973.25
472.435	1929.25
472.654	1993.25
472.873	2052.25
473.092	2218.25
473.311	2048.25
473.53	1911.25
473.749	1906.25
473.968	1978.25
474.187	2075.25
474.406	2161.25
474.625	2068.25
474.844	2026.25
475.063	2033.25
475.282	2125.25
475.501	2067.25
475.72	2032.25
475.939	2130.25
476.158	2056.25
476.377	2054.25
476.596	2076.25
476.814	2159.25
477.033	2136.25
477.252	2236.25
477.471	2307.25
477.69	2172.25
477.908	2130.25
478.127	2270.25
478.346	2467.25
478.564	2424.25
478.783	2423.25
479.002	2502.25
479.22	2470.25
479.439	2521.25
479.658	2844.25
479.876	2833.25
480.095	2502.25
480.313	2425.25
480.532	2276.25
480.751	2285.25
480.969	2349.25
481.188	2330.25
481.406	2304.25
481.624	2232.25
481.843	2276.25
482.061	2260.25
482.28	2319.25
482.498	2407.25
482.717	2360.25
482.935	2261.25
483.153	2283.25
483.372	2300.25
483.59	2249.25
483.808	2325.25
484.027	2378.25
484.245	2485.25
484.463	2810.25
484.681	3226.25
484.9	2506.25
485.118	2353.25
485.336	2328.25
485.554	2361.25
485.772	2503.25
485.99	2428.25
486.209	2426.25
486.427	2493.25
486.645	2481.25
486.863	2428.25
487.081	2493.25
487.299	2550.25
487.517	2508.25
487.735	2392.25
487.953	2357.25
488.171	2381.25
488.389	2339.25
488.607	2367.25
488.825	2603.25
489.043	2658.25
489.261	2347.25
489.479	2510.25
489.696	2556.25
489.914	2553.25
490.132	2431.25
490.35	2373.25
490.568	2481.25
490.786	2426.25
491.003	2331.25
491.221	2380.25
491.439	2436.25
491.657	2458.25
491.874	2407.25
492.092	2473.25
492.31	2482.25
492.527	2469.25
492.745	2430.25
492.963	2431.25
493.18	2503.25
493.398	2637.25
493.615	2731.25
493.833	2524.25
494.05	2469.25
494.268	2481.25
494.485	2535.25
494.703	2479.25
494.92	2430.25
495.138	2463.25
495.355	2492.25
495.573	2563.25
495.79	2767.25
496.008	2756.25
496.225	2640.25
496.442	2598.25
496.66	2656.25
496.877	2621.25
497.094	2709.25
497.312	2748.25
497.529	2672.25
497.746	2792.25
497.963	3172.25
498.181	3559.25
498.398	3313.25
498.615	3266.25
498.832	3176.25
499.049	3173.25
499.267	3211.25
499.484	3393.25
499.701	3606.25
499.918	3781.25
500.135	4001.25
500.352	4287.25
500.569	4272.25
500.786	4494.25
501.003	4196.25
501.22	3911.25
501.437	3683.25
501.654	3670.25
501.871	3538.25
502.088	3173.25
502.305	3174.25
502.522	3055.25
502.739	2861.25
502.956	2792.25
503.172	2759.25
503.389	2644.25
503.606	2608.25
503.823	2602.25
504.04	2635.25
504.256	2683.25
504.473	2647.25
504.69	2772.25
504.907	2592.25
505.123	2483.25
505.34	2627.25
505.557	3358.25
505.773	2859.25
505.99	2427.25
506.207	2294.25
506.423	2239.25
506.64	2200.25
506.856	2261.25
507.073	2530.25
507.289	2688.25
507.506	2639.25
507.722	2307.25
507.939	2187.25
508.155	2144.25
508.372	2203.25
508.588	2167.25
508.805	2123.25
509.021	2076.25
509.238	2054.25
509.454	2031.25
509.67	2053.25
509.887	2022.25
510.103	2035.25
510.319	2043.25
510.536	2164.25
510.752	2212.25
510.968	2169.25
511.184	2297.25
511.401	2283.25
511.617	2005.25
511.833	1968.25
512.049	1944.25
512.265	1944.25
512.481	1988.25
512.698	2070.25
512.914	2193.25
513.13	2112.25
513.346	2013.25
513.562	1948.25
513.778	1986.25
513.994	2090.25
514.21	2155.25
514.426	2117.25
514.642	2370.25
514.858	2268.25
515.074	2071.25
515.29	1983.25
515.506	2090.25
515.721	2084.25
515.937	2109.25
516.153	2362.25
516.369	2308.25
516.585	2188.25
516.801	2108.25
517.016	2112.25
517.232	2178.25
517.448	2183.25
517.664	2209.25
517.879	2186.25
518.095	2329.25
518.311	2211.25
518.527	2126.25
518.742	2114.25
518.958	2023.25
519.173	1983.25
519.389	2023.25
519.605	2078.25
519.82	2017.25
520.036	2099.25
520.251	2011.25
520.467	1990.25
520.682	2181.25
520.898	2276.25
521.113	2053.25
521.329	1980.25
521.544	2141.25
521.76	2035.25
521.975	1931.25
522.19	1926.25
522.406	1841.25
522.621	2273.25
522.836	2305.25
523.052	1910.25
523.267	1899.25
523.482	1884.25
523.698	1823.25
523.913	1787.25
524.128	1826.25
524.343	1938.25
524.559	1943.25
524.774	1864.25
524.989	1797.25
525.204	1802.25
525.419	1811.25
525.634	1772.25
525.849	1839.25
526.064	1830.25
526.28	1850.25
526.495	1777.25
526.71	1739.25
526.925	1732.25
527.14	1754.25
527.355	1697.25
527.57	1699.25
527.785	1757.25
527.999	1717.25
528.214	1703.25
528.429	1684.25
528.644	1673.25
528.859	1697.25
529.074	1701.25
529.289	1715.25
529.503	1765.25
529.718	1792.25
529.933	1731.25
530.148	1667.25
530.363	1707.25
530.577	1715.25
530.792	1732.25
531.007	1713.25
531.221	1723.25
531.436	1779.25
531.651	1809.25
531.865	1889.25
532.08	1800.25
532.295	1695.25
532.509	1681.25
532.724	1686.25
532.938	1745.25
533.153	1845.25
533.367	1794.25
533.582	1741.25
533.796	1703.25
534.011	1732.25
534.225	1694.25
534.44	1704.25
534.654	1656.25
534.868	1697.25
535.083	1774.25
535.297	1760.25
535.511	1711.25
535.726	1709.25
535.94	1716.25
536.154	1662.25
536.369	1626.25
536.583	1634.25
536.797	1639.25
537.011	1674.25
537.225	1632.25
537.44	1597.25
537.654	1648.25
537.868	1647.25
538.082	1557.25
538.296	1533.25
538.51	1543.25
538.724	1557.25
538.938	1563.25
539.153	1628.25
539.367	1598.25
539.581	1613.25
539.795	1715.25
540.009	1662.25
540.222	1647.25
540.436	1695.25
540.65	1792.25
540.864	1809.25
541.078	1674.25
541.292	1599.25
541.506	1606.25
541.72	1594.25
541.934	1583.25
542.147	1646.25
542.361	1617.25
542.575	1573.25
542.789	1542.25
543.002	1489.25
543.216	1560.25
543.43	1642.25
543.644	1692.25
543.857	1715.25
544.071	1675.25
544.285	1637.25
544.498	1609.25
544.712	1599.25
544.925	1616.25
545.139	1647.25
545.352	1582.25
545.566	1521.25
545.779	1491.25
545.993	1591.25
546.206	1580.25
546.42	1520.25
546.633	1497.25
546.847	1491.25
547.06	1507.25
547.274	1517.25
547.487	1495.25
547.7	1466.25
547.914	1521.25
548.127	1568.25
548.34	1564.25
548.554	1523.25
548.767	1518.25
548.98	1549.25
549.193	1534.25
549.407	1598.25
549.62	1588.25
549.833	1528.25
550.046	1509.25
550.259	1541.25
550.473	1470.25
550.686	1509.25
550.899	1455.25
551.112	1468.25
551.325	1463.25
551.538	1517.25
551.751	1781.25
551.964	1474.25
552.177	1429.25
552.39	1471.25
552.603	1506.25
552.816	1472.25
553.029	1558.25
553.242	1610.25
553.455	1540.25
553.667	1505.25
553.88	1487.25
554.093	1484.25
554.306	1425.25
554.519	1413.25
554.732	1371.25
554.944	1395.25
555.157	1415.25
555.37	1373.25
555.583	1415.25
555.795	1397.25
556.008	1349.25
556.221	1314.25
556.433	1320.25
556.646	1304.25
556.859	1273.25
557.071	1303.25
557.284	1289.25
557.496	1320.25
557.709	1282.25
557.921	1287.25
558.134	1299.25
558.346	1282.25
558.559	1228.25
558.771	1265.25
558.984	1243.25
559.196	1207.25
559.409	1216.25
559.621	1241.25
559.833	1227.25
560.046	1305.25
560.258	1262.25
560.47	1228.25
560.683	1236.25
560.895	1239.25
561.107	1299.25
561.32	1261.25
561.532	1291.25
561.744	1258.25
561.956	1229.25
562.168	1228.25
562.381	1212.25
562.593	1186.25
562.805	1199.25
563.017	1171.25
563.229	1227.25
563.441	1260.25
563.653	1225.25
563.865	1228.25
564.077	1193.25
564.289	1211.25
564.501	1217.25
564.713	1271.25
564.925	1303.25
565.137	1414.25
565.349	1317.25
565.561	1281.25
565.773	1321.25
565.985	1331.25
566.197	1399.25
566.408	1457.25
566.62	1503.25
566.832	1520.25
567.044	1495.25
567.255	1466.25
567.467	1489.25
567.679	1573.25
567.891	1586.25
568.102	1549.25
568.314	1462.25
568.526	1415.25
568.737	1330.25
568.949	1301.25
569.161	1235.25
569.372	1194.25
569.584	1200.25
569.795	1194.25
570.007	1167.25
570.218	1122.25
570.43	1124.25
570.641	1110.25
570.853	1140.25
571.064	1113.25
571.276	1110.25
571.487	1086.25
571.698	1056.25
571.91	1052.25
572.121	1044.25
572.333	1029.25
572.544	998.25
572.755	1004.25
572.966	980.25
573.178	979.25
573.389	978.25
573.6	999.25
573.811	1112.25
574.023	1000.25
574.234	974.25
574.445	955.25
574.656	939.25
574.867	932.25
575.078	940.25
575.289	960.25
575.501	919.25
575.712	908.25
575.923	943.25
576.134	974.25
576.345	916.25
576.556	925.25
576.767	890.25
576.978	875.25
577.188	883.25
577.399	874.25
577.61	883.25
577.821	893.25
578.032	857.25
578.243	885.25
578.454	868.25
578.665	833.25
578.875	847.25
579.086	859.25
579.297	843.25
579.508	891.25
579.718	861.25
579.929	849.25
580.14	837.25
580.35	802.25
580.561	838.25
580.772	901.25
580.982	849.25
581.193	817.25
581.403	792.25
581.614	811.25
581.825	791.25
582.035	803.25
582.246	770.25
582.456	815.25
582.667	793.25
582.877	778.25
583.087	755.25
583.298	807.25
583.508	797.25
583.719	786.25
583.929	807.25
584.139	797.25
584.35	779.25
584.56	777.25
584.77	778.25
584.981	787.25
585.191	793.25
585.401	804.25
585.611	767.25
585.821	761.25
586.032	762.25
586.242	755.25
586.452	742.25
586.662	775.25
586.872	741.25
587.082	755.25
587.292	792.25
587.502	775.25
587.713	764.25
587.923	746.25
588.133	765.25
588.343	748.25
588.553	726.25
588.762	725.25
588.972	734.25
589.182	778.25
589.392	741.25
589.602	751.25
589.812	734.25
590.022	723.25
590.232	717.25
590.441	722.25
590.651	769.25
590.861	727.25
591.071	728.25
591.281	735.25
591.49	736.25
591.7	735.25
591.91	745.25
592.119	698.25
592.329	740.25
592.539	769.25
592.748	761.25
592.958	789.25
593.167	787.25
593.377	770.25
593.587	795.25
593.796	805.25
594.006	795.25
594.215	755.25
594.424	770.25
594.634	757.25
594.843	737.25
595.053	791.25
595.262	755.25
595.472	740.25
595.681	714.25
595.89	715.25
596.1	702.25
596.309	725.25
596.518	705.25
596.727	703.25
596.937	689.25
597.146	649.25
597.355	654.25
597.564	645.25
597.774	649.25
597.983	630.25
598.192	633.25
598.401	620.25
598.61	627.25
598.819	639.25
599.028	644.25
599.237	645.25
599.446	606.25
599.655	607.25
599.864	608.25
600.073	603.25
600.282	610.25
600.491	599.25
600.7	601.25
600.909	598.25
601.118	596.25
601.327	620.25
601.536	612.25
601.745	585.25
601.953	587.25
602.162	598.25
602.371	610.25
602.58	609.25
602.789	606.25
602.997	578.25
603.206	600.25
603.415	583.25
603.623	614.25
603.832	603.25
604.041	578.25
604.249	557.25
604.458	569.25
604.666	591.25
604.875	555.25
605.084	595.25
605.292	576.25
605.501	561.25
605.709	582.25
605.918	564.25
606.126	560.25
606.334	548.25
606.543	571.25
606.751	568.25
606.96	568.25
607.168	541.25
607.376	548.25
607.585	560.25
607.793	576.25
608.001	543.25
608.21	531.25
608.418	554.25
608.626	542.25
608.834	541.25
609.043	563.25
609.251	544.25
609.459	531.25
609.667	532.25
609.875	549.25
610.083	570.25
610.291	553.25
610.499	556.25
610.707	552.25
610.916	540.25
611.124	525.25
611.332	530.25
611.54	545.25
611.748	536.25
611.955	519.25
612.163	520.25
612.371	525.25
612.579	519.25
612.787	516.25
612.995	529.25
613.203	522.25
613.411	508.25
613.618	519.25
613.826	525.25
614.034	536.25
614.242	524.25
614.449	510.25
614.657	527.25
614.865	506.25
615.072	541.25
615.28	536.25
615.488	520.25
615.695	543.25
615.903	549.25
616.111	511.25
616.318	536.25
616.526	501.25
616.733	503.25
616.941	506.25
617.148	506.25
617.356	498.25
617.563	505.25
617.771	523.25
617.978	472.25
618.185	500.25
618.393	497.25
618.6	492.25
618.807	511.25
619.015	523.25
619.222	496.25
619.429	487.25
619.637	486.25
619.844	479.25
620.051	475.25
620.258	477.25
620.466	460.25
620.673	445.25
620.88	449.25
621.087	457.25
621.294	462.25
621.501	456.25
621.708	458.25
621.915	461.25
622.122	458.25
622.329	475.25
622.536	459.25
622.743	462.25
622.95	450.25
623.157	442.25
623.364	442.25
623.571	463.25
623.778	442.25
623.985	453.25
624.192	460.25
624.399	457.25
624.606	447.25
624.812	417.25
625.019	420.25
625.226	425.25
625.433	431.25
625.639	416.25
625.846	422.25
626.053	422.25
626.259	425.25
626.466	411.25
626.673	387.25
626.879	396.25
627.086	421.25
627.293	414.25
627.499	419.25
627.706	405.25
627.912	413.25
628.119	409.25
628.325	408.25
628.532	433.25
628.738	385.25
628.945	397.25
629.151	411.25
629.357	421.25
629.564	397.25
629.77	402.25
629.976	397.25
630.183	395.25
630.389	406.25
630.595	410.25
630.802	397.25
631.008	388.25
631.214	389.25
631.42	364.25
631.627	380.25
631.833	369.25
632.039	377.25
632.245	387.25
632.451	367.25
632.657	372.25
632.863	373.25
633.069	368.25
633.275	356.25
633.481	350.25
633.688	382.25
633.893	358.25
634.099	362.25
634.305	368.25
634.511	356.25
634.717	365.25
634.923	370.25
635.129	348.25
635.335	363.25
635.541	361.25
635.747	361.25
635.952	355.25
636.158	343.25
636.364	348.25
636.57	344.25
636.775	372.25
636.981	321.25
637.187	319.25
637.392	368.25
637.598	336.25
637.804	353.25
638.009	346.25
638.215	332.25
638.421	333.25
638.626	331.25
638.832	340.25
639.037	355.25
639.243	333.25
639.448	338.25
639.654	327.25
639.859	312.25
640.065	340.25
640.27	337.25
640.475	325.25
640.681	348.25
640.886	353.25
641.091	315.25
641.297	317.25
641.502	317.25
641.707	325.25
641.913	331.25
642.118	330.25
642.323	321.25
642.528	311.25
642.733	341.25
642.939	318.25
643.144	319.25
643.349	337.25
643.554	328.25
643.759	319.25
643.964	324.25
644.169	329.25
644.374	319.25
644.579	324.25
644.784	326.25
644.989	312.25
645.194	309.25
645.399	303.25
645.604	292.25
645.809	308.25
646.014	292.25
646.219	305.25
646.423	325.25
646.628	320.25
646.833	317.25
647.038	326.25
647.243	315.25
647.447	312.25
647.652	292.25
647.857	324.25
648.062	308.25
648.266	293.25
648.471	324.25
648.676	325.25
648.88	311.25
649.085	312.25
649.289	311.25
649.494	308.25
649.698	294.25
649.903	305.25
650.107	307.25
650.312	312.25
650.516	307.25
650.721	283.25
650.925	304.25
651.13	275.25
651.334	288.25
651.539	285.25
651.743	279.25
651.947	269.25
652.152	259.25
652.356	268.25
652.56	258.25
652.764	252.25
652.969	257.25
653.173	275.25
653.377	256.25
653.581	236.25
653.785	239.25
653.99	253.25
654.194	247.25
654.398	239.25
654.602	239.25
654.806	236.25
655.01	241.25
655.214	235.25
655.418	249.25
655.622	231.25
655.826	267.25
656.03	247.25
656.234	277.25
656.438	289.25
656.642	279.25
656.846	271.25
657.049	246.25
657.253	235.25
657.457	208.25
657.661	192.25
657.865	184.25
658.068	197.25
658.272	172.25
658.476	163.25
658.68	143.25
658.883	148.25
659.087	129.25
659.291	135.25
659.494	134.25
659.698	126.25
659.901	130.25
660.105	123.25
660.309	121.25
660.512	122.25
660.716	103.25
660.919	113.25
661.123	121.25
661.326	105.25
661.53	109.25
661.733	106.25
661.936	96.25
662.14	97.25
662.343	82.25
662.546	93.25
662.75	102.25
662.953	87.25
663.156	91.25
663.36	79.25
663.563	90.25
663.766	65.25
663.969	67.25
664.173	69.25
664.376	83.25
664.579	83.25
664.782	89.25
664.985	93.25
665.188	76.25
665.391	90.25
665.594	88.25
665.797	95.25
666	91.25
666.203	81.25
666.406	77.25
666.609	70.25
666.812	76.25
667.015	88.25
667.218	92.25
667.421	87.25
667.624	91.25
667.827	76.25
668.03	78.25
668.232	73.25
668.435	85.25
668.638	77.25
668.841	81.25
669.043	84.25
669.246	75.25
669.449	85.25
669.651	95.25
669.854	66.25
670.057	72.25
670.259	77.25
670.462	80.25
670.665	86.25
670.867	85.25
671.07	70.25
671.272	82.25
671.475	100.25
671.677	66.25
671.88	88.25
672.082	62.25
672.284	82.25
672.487	79.25
672.689	83.25
672.892	105.25
