Data from WStandard_LampEnergy5.5LIBS07252019.E.O._I.C._HRD10591_16-07-45-920.txt Node
Date: Thu Jul 25 16:07:45 EDT 2019
User: cochatt
Spectrometer: HR+D1059
Trigger mode: 1
Integration Time (sec): 1.000000E-1
Scans to average: 1
Electric dark correction enabled: true
Nonlinearity correction enabled: false
Boxcar width: 0
XAxis mode: Wavelengths
Number of Pixels in Spectrum: 2048
>>>>>Begin Spectral Data<<<<<
223.165	-18.88
223.4	-18.88
223.635	-18.88
223.869	-20.88
224.104	-2.88
224.338	-18.88
224.573	-7.88
224.808	-10.88
225.042	-10.88
225.277	-9.88
225.511	-8.88
225.746	-8.88
225.98	13.12
226.215	5.12
226.449	18.12
226.683	16.12
226.918	29.12
227.152	37.12
227.387	43.12
227.621	43.12
227.856	47.12
228.09	47.12
228.324	51.12
228.559	60.12
228.793	152.12
229.027	348.12
229.262	372.12
229.496	402.12
229.73	410.12
229.964	420.12
230.199	477.12
230.433	474.12
230.667	535.12
230.901	528.12
231.136	489.12
231.37	494.12
231.604	474.12
231.838	485.12
232.072	477.12
232.306	452.12
232.541	455.12
232.775	564.12
233.009	621.12
233.243	602.12
233.477	555.12
233.711	544.12
233.945	570.12
234.179	553.12
234.413	586.12
234.647	638.12
234.881	596.12
235.115	559.12
235.349	582.12
235.583	588.12
235.817	571.12
236.051	536.12
236.285	558.12
236.519	593.12
236.753	681.12
236.987	679.12
237.221	681.12
237.455	759.12
237.689	770.12
237.922	687.12
238.156	696.12
238.39	649.12
238.624	708.12
238.858	751.12
239.091	787.12
239.325	798.12
239.559	930.12
239.793	944.12
240.027	1054.12
240.26	1052.12
240.494	780.12
240.728	726.12
240.961	719.12
241.195	734.12
241.429	826.12
241.662	823.12
241.896	755.12
242.13	791.12
242.363	862.12
242.597	906.12
242.83	885.12
243.064	915.12
243.298	951.12
243.531	946.12
243.765	939.12
243.998	966.12
244.232	850.12
244.465	770.12
244.699	795.12
244.932	920.12
245.166	1044.12
245.399	995.12
245.633	904.12
245.866	923.12
246.099	945.12
246.333	966.12
246.566	987.12
246.8	1064.12
247.033	1202.12
247.266	1063.12
247.5	1092.12
247.733	1063.12
247.966	1121.12
248.2	1272.12
248.433	1193.12
248.666	1245.12
248.899	1356.12
249.133	1491.12
249.366	1763.12
249.599	1433.12
249.832	1230.12
250.066	1291.12
250.299	1310.12
250.532	1212.12
250.765	1080.12
250.998	1161.12
251.231	1216.12
251.465	1246.12
251.698	1204.12
251.931	1202.12
252.164	1241.12
252.397	1270.12
252.63	1257.12
252.863	1076.12
253.096	1093.12
253.329	1181.12
253.562	1226.12
253.795	1288.12
254.028	1287.12
254.261	1209.12
254.494	1172.12
254.727	1124.12
254.96	1176.12
255.193	1272.12
255.426	1431.12
255.659	1619.12
255.892	1678.12
256.124	1406.12
256.357	1330.12
256.59	1444.12
256.823	1433.12
257.056	1432.12
257.289	1751.12
257.521	1885.12
257.754	1688.12
257.987	1582.12
258.22	1779.12
258.452	1754.12
258.685	1421.12
258.918	1394.12
259.151	1406.12
259.383	1308.12
259.616	1206.12
259.849	1258.12
260.081	1395.12
260.314	1556.12
260.547	1687.12
260.779	1695.12
261.012	1600.12
261.244	1458.12
261.477	1358.12
261.71	1402.12
261.942	1439.12
262.175	1392.12
262.407	1509.12
262.64	1408.12
262.872	1325.12
263.105	1282.12
263.337	1300.12
263.57	1307.12
263.802	1301.12
264.035	1255.12
264.267	1172.12
264.499	1146.12
264.732	1232.12
264.964	1302.12
265.197	1354.12
265.429	1446.12
265.661	1600.12
265.894	1758.12
266.126	1789.12
266.358	1614.12
266.591	1657.12
266.823	1781.12
267.055	1631.12
267.287	1591.12
267.52	1580.12
267.752	1556.12
267.984	1541.12
268.216	1614.12
268.448	1648.12
268.681	1637.12
268.913	1538.12
269.145	1470.12
269.377	1443.12
269.609	1508.12
269.841	1751.12
270.073	2077.12
270.306	2280.12
270.538	2445.12
270.77	2080.12
271.002	1809.12
271.234	1652.12
271.466	1615.12
271.698	1836.12
271.93	2199.12
272.162	2238.12
272.394	1968.12
272.626	1957.12
272.858	1685.12
273.09	1460.12
273.322	1453.12
273.553	1409.12
273.785	1414.12
274.017	1451.12
274.249	1581.12
274.481	1562.12
274.713	1447.12
274.945	1436.12
275.176	1443.12
275.408	1425.12
275.64	1366.12
275.872	1367.12
276.104	1486.12
276.335	1659.12
276.567	1904.12
276.799	1891.12
277.031	1689.12
277.262	1598.12
277.494	1688.12
277.726	1888.12
277.957	1894.12
278.189	1695.12
278.421	1556.12
278.652	1520.12
278.884	1499.12
279.115	1488.12
279.347	1543.12
279.579	1481.12
279.81	1469.12
280.042	1624.12
280.273	1804.12
280.505	1756.12
280.736	1868.12
280.968	1735.12
281.199	1498.12
281.431	1399.12
281.662	1431.12
281.894	1474.12
282.125	1493.12
282.356	1544.12
282.588	1570.12
282.819	1516.12
283.051	1647.12
283.282	1765.12
283.513	1742.12
283.745	1537.12
283.976	1426.12
284.207	1410.12
284.439	1482.12
284.67	1486.12
284.901	1535.12
285.132	1578.12
285.364	1526.12
285.595	1561.12
285.826	1533.12
286.057	1528.12
286.288	1538.12
286.52	1533.12
286.751	1656.12
286.982	1716.12
287.213	1602.12
287.444	1448.12
287.675	1437.12
287.906	1545.12
288.138	1676.12
288.369	1616.12
288.6	1532.12
288.831	1468.12
289.062	1478.12
289.293	1517.12
289.524	1489.12
289.755	1583.12
289.986	1552.12
290.217	1427.12
290.448	1471.12
290.679	1541.12
290.91	1516.12
291.141	1608.12
291.371	1621.12
291.602	1634.12
291.833	1622.12
292.064	1652.12
292.295	1616.12
292.526	1658.12
292.757	1747.12
292.987	1665.12
293.218	1575.12
293.449	1683.12
293.68	1897.12
293.91	2043.12
294.141	1950.12
294.372	1758.12
294.603	1811.12
294.833	1932.12
295.064	1842.12
295.295	1624.12
295.525	1613.12
295.756	1531.12
295.987	1423.12
296.217	1459.12
296.448	1502.12
296.679	1519.12
296.909	1532.12
297.14	1507.12
297.37	1528.12
297.601	1584.12
297.831	1764.12
298.062	1739.12
298.292	1594.12
298.523	1512.12
298.753	1539.12
298.984	1518.12
299.214	1563.12
299.445	1598.12
299.675	1625.12
299.905	1620.12
300.136	1575.12
300.366	1556.12
300.597	1506.12
300.827	1515.12
301.057	1589.12
301.288	1645.12
301.518	1613.12
301.748	1672.12
301.979	1730.12
302.209	1769.12
302.439	1876.12
302.669	2002.12
302.9	1848.12
303.13	1636.12
303.36	1670.12
303.59	1684.12
303.82	1664.12
304.051	1644.12
304.281	1686.12
304.511	1633.12
304.741	1756.12
304.971	1924.12
305.201	2111.12
305.431	1947.12
305.661	1637.12
305.891	1438.12
306.121	1428.12
306.352	1519.12
306.582	1577.12
306.812	1689.12
307.042	1817.12
307.272	1785.12
307.502	1857.12
307.731	2019.12
307.961	2202.12
308.191	2004.12
308.421	1716.12
308.651	1654.12
308.881	1583.12
309.111	1606.12
309.341	1546.12
309.571	1568.12
309.8	1606.12
310.03	1550.12
310.26	1593.12
310.49	1544.12
310.72	1574.12
310.949	1655.12
311.179	1741.12
311.409	1666.12
311.639	1634.12
311.868	1553.12
312.098	1597.12
312.328	1589.12
312.557	1587.12
312.787	1633.12
313.017	1664.12
313.246	1688.12
313.476	1661.12
313.706	1710.12
313.935	1681.12
314.165	1708.12
314.394	1735.12
314.624	1834.12
314.853	1912.12
315.083	1995.12
315.312	2106.12
315.542	1924.12
315.771	1722.12
316.001	1690.12
316.23	1818.12
316.46	1812.12
316.689	1755.12
316.919	1671.12
317.148	1601.12
317.377	1624.12
317.607	1739.12
317.836	1956.12
318.065	2024.12
318.295	1956.12
318.524	1861.12
318.753	1815.12
318.983	1802.12
319.212	1781.12
319.441	1726.12
319.67	1710.12
319.9	1718.12
320.129	1842.12
320.358	1883.12
320.587	1919.12
320.816	1911.12
321.046	1903.12
321.275	1732.12
321.504	1753.12
321.733	1995.12
321.962	1909.12
322.191	1773.12
322.42	1769.12
322.649	1714.12
322.878	1732.12
323.108	1696.12
323.337	1779.12
323.566	1782.12
323.795	1775.12
324.024	1796.12
324.253	1754.12
324.482	1797.12
324.71	1708.12
324.939	1654.12
325.168	1660.12
325.397	1759.12
325.626	1789.12
325.855	1830.12
326.084	1717.12
326.313	1727.12
326.542	1742.12
326.77	1829.12
326.999	1819.12
327.228	1752.12
327.457	1660.12
327.686	1614.12
327.914	1660.12
328.143	1739.12
328.372	1756.12
328.6	1739.12
328.829	1705.12
329.058	1666.12
329.287	1708.12
329.515	1762.12
329.744	1762.12
329.972	1818.12
330.201	1932.12
330.43	1902.12
330.658	1850.12
330.887	1843.12
331.115	1822.12
331.344	1840.12
331.572	1778.12
331.801	1789.12
332.03	1805.12
332.258	1828.12
332.486	1865.12
332.715	1843.12
332.943	1891.12
333.172	1849.12
333.4	1885.12
333.629	1881.12
333.857	1966.12
334.085	2178.12
334.314	2486.12
334.542	2719.12
334.771	2537.12
334.999	2222.12
335.227	2083.12
335.455	1990.12
335.684	1956.12
335.912	2005.12
336.14	2096.12
336.369	2027.12
336.597	1900.12
336.825	1848.12
337.053	1858.12
337.281	2002.12
337.51	2126.12
337.738	2199.12
337.966	2083.12
338.194	1854.12
338.422	1828.12
338.65	1810.12
338.878	1795.12
339.106	1732.12
339.334	1726.12
339.562	1714.12
339.79	1722.12
340.018	1861.12
340.246	1895.12
340.474	1939.12
340.702	1858.12
340.93	1882.12
341.158	1872.12
341.386	1851.12
341.614	1812.12
341.842	1814.12
342.07	1794.12
342.298	1823.12
342.526	1847.12
342.754	1802.12
342.981	1787.12
343.209	1805.12
343.437	1778.12
343.665	1795.12
343.893	1830.12
344.12	1980.12
344.348	1949.12
344.576	1874.12
344.804	1779.12
345.031	1800.12
345.259	1824.12
345.487	1763.12
345.714	1687.12
345.942	1646.12
346.17	1660.12
346.397	1706.12
346.625	1730.12
346.853	1651.12
347.08	1627.12
347.308	1609.12
347.535	1682.12
347.763	1725.12
347.99	1698.12
348.218	1586.12
348.445	1655.12
348.673	1696.12
348.9	1756.12
349.128	1803.12
349.355	1872.12
349.583	1801.12
349.81	1721.12
350.037	1556.12
350.265	1596.12
350.492	1576.12
350.72	1636.12
350.947	1700.12
351.174	1725.12
351.402	1622.12
351.629	1546.12
351.856	1551.12
352.083	1510.12
352.311	1549.12
352.538	1624.12
352.765	1706.12
352.992	1722.12
353.22	1704.12
353.447	1612.12
353.674	1613.12
353.901	1672.12
354.128	1647.12
354.355	1614.12
354.583	1728.12
354.81	1711.12
355.037	1744.12
355.264	1712.12
355.491	1679.12
355.718	1723.12
355.945	1696.12
356.172	1651.12
356.399	1570.12
356.626	1623.12
356.853	1660.12
357.08	1818.12
357.307	1992.12
357.534	2003.12
357.761	1748.12
357.988	1615.12
358.215	1548.12
358.441	1590.12
358.668	1599.12
358.895	1602.12
359.122	1698.12
359.349	1893.12
359.576	1901.12
359.802	1699.12
360.029	1605.12
360.256	1595.12
360.483	1581.12
360.709	1666.12
360.936	1700.12
361.163	1779.12
361.39	1936.12
361.616	2078.12
361.843	2019.12
362.07	1922.12
362.296	1699.12
362.523	1616.12
362.749	1624.12
362.976	1632.12
363.203	1725.12
363.429	1670.12
363.656	1619.12
363.882	1650.12
364.109	1819.12
364.335	1993.12
364.562	1834.12
364.788	1773.12
365.015	1682.12
365.241	1602.12
365.468	1632.12
365.694	1694.12
365.92	1829.12
366.147	1771.12
366.373	1636.12
366.599	1608.12
366.826	1596.12
367.052	1616.12
367.278	1620.12
367.505	1647.12
367.731	1712.12
367.957	1706.12
368.184	1733.12
368.41	1823.12
368.636	1863.12
368.862	1859.12
369.089	1909.12
369.315	1826.12
369.541	1746.12
369.767	1711.12
369.993	1659.12
370.219	1627.12
370.445	1664.12
370.672	1751.12
370.898	1832.12
371.124	1838.12
371.35	1751.12
371.576	1779.12
371.802	1865.12
372.028	1817.12
372.254	1706.12
372.48	1654.12
372.706	1653.12
372.932	1689.12
373.158	1679.12
373.384	1703.12
373.61	1745.12
373.835	1854.12
374.061	1778.12
374.287	1734.12
374.513	1765.12
374.739	1769.12
374.965	1735.12
375.191	1743.12
375.416	1804.12
375.642	1792.12
375.868	1828.12
376.094	1949.12
376.319	1863.12
376.545	1782.12
376.771	1747.12
376.997	1884.12
377.222	1843.12
377.448	1779.12
377.674	1799.12
377.899	1800.12
378.125	1927.12
378.35	1961.12
378.576	1753.12
378.802	1684.12
379.027	1693.12
379.253	1689.12
379.478	1717.12
379.704	1715.12
379.929	1754.12
380.155	1711.12
380.38	1738.12
380.606	1747.12
380.831	1773.12
381.057	1822.12
381.282	1859.12
381.507	1807.12
381.733	1867.12
381.958	1975.12
382.184	1841.12
382.409	1801.12
382.634	1827.12
382.86	1812.12
383.085	1835.12
383.31	1855.12
383.535	1969.12
383.761	2097.12
383.986	2069.12
384.211	1952.12
384.436	1932.12
384.662	2002.12
384.887	2095.12
385.112	1978.12
385.337	2021.12
385.562	1991.12
385.787	1989.12
386.013	2035.12
386.238	2054.12
386.463	2019.12
386.688	2081.12
386.913	2251.12
387.138	2221.12
387.363	2063.12
387.588	2060.12
387.813	2041.12
388.038	2042.12
388.263	2123.12
388.488	2075.12
388.713	1887.12
388.938	1911.12
389.163	1917.12
389.387	2007.12
389.612	1966.12
389.837	2024.12
390.062	2010.12
390.287	1982.12
390.512	1986.12
390.736	1979.12
390.961	1910.12
391.186	1858.12
391.411	1886.12
391.636	1980.12
391.86	1957.12
392.085	1970.12
392.31	1944.12
392.534	1975.12
392.759	1975.12
392.984	1974.12
393.208	1988.12
393.433	1999.12
393.658	2082.12
393.882	2133.12
394.107	2013.12
394.331	1954.12
394.556	1973.12
394.78	1960.12
395.005	2057.12
395.229	2050.12
395.454	2255.12
395.678	2281.12
395.903	2160.12
396.127	2058.12
396.352	2123.12
396.576	2183.12
396.801	2188.12
397.025	2131.12
397.249	2182.12
397.474	2137.12
397.698	2085.12
397.922	2141.12
398.147	2320.12
398.371	2389.12
398.595	2353.12
398.82	2260.12
399.044	2279.12
399.268	2382.12
399.492	2570.12
399.717	2631.12
399.941	2687.12
400.165	2568.12
400.389	2559.12
400.613	2523.12
400.837	2705.12
401.062	3180.12
401.286	2693.12
401.51	2441.12
401.734	2600.12
401.958	2518.12
402.182	2368.12
402.406	2254.12
402.63	2244.12
402.854	2203.12
403.078	2306.12
403.302	2335.12
403.526	2360.12
403.75	2361.12
403.974	2376.12
404.198	2352.12
404.422	2408.12
404.645	2506.12
404.869	2522.12
405.093	2243.12
405.317	2293.12
405.541	2346.12
405.765	2374.12
405.988	2318.12
406.212	2406.12
406.436	2448.12
406.66	2542.12
406.883	2566.12
407.107	2773.12
407.331	3097.12
407.555	3271.12
407.778	3086.12
408.002	2536.12
408.226	2457.12
408.449	2480.12
408.673	2393.12
408.896	2438.12
409.12	2494.12
409.344	2427.12
409.567	2314.12
409.791	2366.12
410.014	2385.12
410.238	2538.12
410.461	2694.12
410.685	2407.12
410.908	2308.12
411.132	2322.12
411.355	2377.12
411.578	2290.12
411.802	2338.12
412.025	2368.12
412.249	2330.12
412.472	2263.12
412.695	2272.12
412.919	2235.12
413.142	2242.12
413.365	2214.12
413.589	2310.12
413.812	2367.12
414.035	2493.12
414.258	2302.12
414.482	2214.12
414.705	2283.12
414.928	2190.12
415.151	2202.12
415.374	2268.12
415.597	2224.12
415.821	2302.12
416.044	2355.12
416.267	2393.12
416.49	2228.12
416.713	2157.12
416.936	2287.12
417.159	2360.12
417.382	2344.12
417.605	2214.12
417.828	2258.12
418.051	2335.12
418.274	2259.12
418.497	2159.12
418.72	2151.12
418.943	2111.12
419.166	2272.12
419.389	2426.12
419.611	2273.12
419.834	2186.12
420.057	2244.12
420.28	2198.12
420.503	2173.12
420.726	2175.12
420.948	2204.12
421.171	2155.12
421.394	2199.12
421.617	2259.12
421.839	2242.12
422.062	2213.12
422.285	2162.12
422.507	2113.12
422.73	2117.12
422.953	2057.12
423.175	2044.12
423.398	2146.12
423.621	2188.12
423.843	2191.12
424.066	2189.12
424.288	2232.12
424.511	2271.12
424.733	2254.12
424.956	2085.12
425.178	2063.12
425.401	2072.12
425.623	2135.12
425.846	2095.12
426.068	2212.12
426.291	2255.12
426.513	2180.12
426.735	2175.12
426.958	2341.12
427.18	2491.12
427.402	2261.12
427.625	2354.12
427.847	2371.12
428.069	2207.12
428.292	2152.12
428.514	2063.12
428.736	2060.12
428.958	2094.12
429.181	2098.12
429.403	2377.12
429.625	2969.12
429.847	2580.12
430.069	2178.12
430.292	2324.12
430.514	2424.12
430.736	2300.12
430.958	2381.12
431.18	2263.12
431.402	2100.12
431.624	2076.12
431.846	2110.12
432.068	2034.12
432.29	2076.12
432.512	2114.12
432.734	2154.12
432.956	2170.12
433.178	2279.12
433.4	2288.12
433.622	2240.12
433.844	2174.12
434.066	2101.12
434.287	2082.12
434.509	2192.12
434.731	2218.12
434.953	2401.12
435.175	2341.12
435.397	2206.12
435.618	2253.12
435.84	2211.12
436.062	2200.12
436.284	2174.12
436.505	2187.12
436.727	2253.12
436.949	2238.12
437.17	2113.12
437.392	2171.12
437.614	2128.12
437.835	2031.12
438.057	2196.12
438.278	2250.12
438.5	2123.12
438.721	2109.12
438.943	2127.12
439.165	2069.12
439.386	2022.12
439.608	2092.12
439.829	2104.12
440.05	2102.12
440.272	2036.12
440.493	2070.12
440.715	2109.12
440.936	2226.12
441.158	2429.12
441.379	2401.12
441.6	2347.12
441.822	2224.12
442.043	2250.12
442.264	2214.12
442.486	2069.12
442.707	2099.12
442.928	2071.12
443.149	2139.12
443.371	2285.12
443.592	2384.12
443.813	2304.12
444.034	2293.12
444.255	2270.12
444.476	2357.12
444.698	2347.12
444.919	2341.12
445.14	2444.12
445.361	2415.12
445.582	2485.12
445.803	2386.12
446.024	2302.12
446.245	2380.12
446.466	2299.12
446.687	2182.12
446.908	2209.12
447.129	2106.12
447.35	2157.12
447.571	2172.12
447.792	2087.12
448.013	2032.12
448.234	2054.12
448.455	2168.12
448.675	2181.12
448.896	2015.12
449.117	1975.12
449.338	2069.12
449.559	2106.12
449.779	2249.12
450	2473.12
450.221	2709.12
450.442	2612.12
450.662	2281.12
450.883	2022.12
451.104	1970.12
451.324	2014.12
451.545	2064.12
451.766	2046.12
451.986	1944.12
452.207	1971.12
452.428	1912.12
452.648	1871.12
452.869	1908.12
453.089	2036.12
453.31	2068.12
453.53	2081.12
453.751	1994.12
453.971	1878.12
454.192	1974.12
454.412	2104.12
454.633	2000.12
454.853	1949.12
455.073	1820.12
455.294	1774.12
455.514	1862.12
455.734	1803.12
455.955	1881.12
456.175	1889.12
456.395	1883.12
456.616	1927.12
456.836	1970.12
457.056	1914.12
457.276	1926.12
457.497	1855.12
457.717	1806.12
457.937	1867.12
458.157	1898.12
458.377	1898.12
458.598	1871.12
458.818	1895.12
459.038	2019.12
459.258	2156.12
459.478	2130.12
459.698	2059.12
459.918	2112.12
460.138	2180.12
460.358	2228.12
460.578	2247.12
460.798	2323.12
461.018	2464.12
461.238	2352.12
461.458	2262.12
461.678	2245.12
461.898	2140.12
462.118	2153.12
462.338	2271.12
462.558	2233.12
462.777	2264.12
462.997	2372.12
463.217	2498.12
463.437	2474.12
463.657	2342.12
463.876	2294.12
464.096	2199.12
464.316	2230.12
464.536	2368.12
464.755	2346.12
464.975	2350.12
465.195	2299.12
465.414	2360.12
465.634	2400.12
465.854	2216.12
466.073	2367.12
466.293	2364.12
466.512	2095.12
466.732	2059.12
466.951	2166.12
467.171	2134.12
467.391	2036.12
467.61	1953.12
467.829	1989.12
468.049	2166.12
468.268	2438.12
468.488	2286.12
468.707	2187.12
468.927	2071.12
469.146	2072.12
469.365	1979.12
469.585	2032.12
469.804	2023.12
470.023	2026.12
470.243	2063.12
470.462	2037.12
470.681	1965.12
470.901	2040.12
471.12	2090.12
471.339	2044.12
471.558	1956.12
471.777	1943.12
471.997	1986.12
472.216	2008.12
472.435	1946.12
472.654	1986.12
472.873	2037.12
473.092	2187.12
473.311	2104.12
473.53	1930.12
473.749	2014.12
473.968	2043.12
474.187	2127.12
474.406	2250.12
474.625	2130.12
474.844	2082.12
475.063	2030.12
475.282	2108.12
475.501	2100.12
475.72	2119.12
475.939	2165.12
476.158	2109.12
476.377	2063.12
476.596	2103.12
476.814	2151.12
477.033	2143.12
477.252	2238.12
477.471	2271.12
477.69	2156.12
477.908	2192.12
478.127	2293.12
478.346	2468.12
478.564	2478.12
478.783	2395.12
479.002	2519.12
479.22	2452.12
479.439	2576.12
479.658	2876.12
479.876	2866.12
480.095	2502.12
480.313	2370.12
480.532	2284.12
480.751	2288.12
480.969	2402.12
481.188	2343.12
481.406	2320.12
481.624	2243.12
481.843	2251.12
482.061	2297.12
482.28	2334.12
482.498	2389.12
482.717	2403.12
482.935	2279.12
483.153	2255.12
483.372	2311.12
483.59	2270.12
483.808	2298.12
484.027	2335.12
484.245	2451.12
484.463	2830.12
484.681	3254.12
484.9	2507.12
485.118	2452.12
485.336	2310.12
485.554	2381.12
485.772	2558.12
485.99	2486.12
486.209	2471.12
486.427	2452.12
486.645	2488.12
486.863	2420.12
487.081	2488.12
487.299	2510.12
487.517	2497.12
487.735	2414.12
487.953	2380.12
488.171	2341.12
488.389	2366.12
488.607	2384.12
488.825	2623.12
489.043	2660.12
489.261	2410.12
489.479	2488.12
489.696	2577.12
489.914	2536.12
490.132	2508.12
490.35	2383.12
490.568	2499.12
490.786	2461.12
491.003	2354.12
491.221	2462.12
491.439	2530.12
491.657	2456.12
491.874	2446.12
492.092	2449.12
492.31	2492.12
492.527	2467.12
492.745	2474.12
492.963	2474.12
493.18	2529.12
493.398	2783.12
493.615	2755.12
493.833	2534.12
494.05	2495.12
494.268	2517.12
494.485	2607.12
494.703	2496.12
494.92	2437.12
495.138	2456.12
495.355	2506.12
495.573	2576.12
495.79	2728.12
496.008	2789.12
496.225	2644.12
496.442	2632.12
496.66	2675.12
496.877	2626.12
497.094	2677.12
497.312	2731.12
497.529	2700.12
497.746	2778.12
497.963	3203.12
498.181	3601.12
498.398	3336.12
498.615	3269.12
498.832	3230.12
499.049	3224.12
499.267	3186.12
499.484	3454.12
499.701	3696.12
499.918	3745.12
500.135	3926.12
500.352	4236.12
500.569	4178.12
500.786	4479.12
501.003	4221.12
501.22	3792.12
501.437	3659.12
501.654	3665.12
501.871	3639.12
502.088	3198.12
502.305	3138.12
502.522	3070.12
502.739	2860.12
502.956	2769.12
503.172	2778.12
503.389	2668.12
503.606	2656.12
503.823	2640.12
504.04	2657.12
504.256	2664.12
504.473	2620.12
504.69	2742.12
504.907	2634.12
505.123	2512.12
505.34	2587.12
505.557	3308.12
505.773	2878.12
505.99	2473.12
506.207	2260.12
506.423	2257.12
506.64	2252.12
506.856	2256.12
507.073	2565.12
507.289	2798.12
507.506	2643.12
507.722	2282.12
507.939	2174.12
508.155	2181.12
508.372	2163.12
508.588	2116.12
508.805	2061.12
509.021	2084.12
509.238	2064.12
509.454	2020.12
509.67	2064.12
509.887	2054.12
510.103	2062.12
510.319	2067.12
510.536	2129.12
510.752	2245.12
510.968	2195.12
511.184	2380.12
511.401	2310.12
511.617	2054.12
511.833	1980.12
512.049	1973.12
512.265	2002.12
512.481	1994.12
512.698	2062.12
512.914	2176.12
513.13	2122.12
513.346	2004.12
513.562	1970.12
513.778	2012.12
513.994	2109.12
514.21	2142.12
514.426	2160.12
514.642	2377.12
514.858	2322.12
515.074	2083.12
515.29	2027.12
515.506	2053.12
515.721	2135.12
515.937	2138.12
516.153	2413.12
516.369	2309.12
516.585	2171.12
516.801	2070.12
517.016	2094.12
517.232	2144.12
517.448	2200.12
517.664	2206.12
517.879	2203.12
518.095	2303.12
518.311	2279.12
518.527	2113.12
518.742	2061.12
518.958	2015.12
519.173	2039.12
519.389	2051.12
519.605	2068.12
519.82	2059.12
520.036	2106.12
520.251	2014.12
520.467	2014.12
520.682	2210.12
520.898	2288.12
521.113	2032.12
521.329	1974.12
521.544	2179.12
521.76	2030.12
521.975	1946.12
522.19	1911.12
522.406	1913.12
522.621	2258.12
522.836	2331.12
523.052	1936.12
523.267	1910.12
523.482	1957.12
523.698	1822.12
523.913	1775.12
524.128	1811.12
524.343	1943.12
524.559	1958.12
524.774	1874.12
524.989	1850.12
525.204	1862.12
525.419	1809.12
525.634	1809.12
525.849	1805.12
526.064	1896.12
526.28	1856.12
526.495	1802.12
526.71	1819.12
526.925	1759.12
527.14	1742.12
527.355	1732.12
527.57	1709.12
527.785	1767.12
527.999	1769.12
528.214	1706.12
528.429	1696.12
528.644	1685.12
528.859	1703.12
529.074	1731.12
529.289	1735.12
529.503	1772.12
529.718	1772.12
529.933	1698.12
530.148	1662.12
530.363	1702.12
530.577	1714.12
530.792	1758.12
531.007	1719.12
531.221	1728.12
531.436	1787.12
531.651	1849.12
531.865	1911.12
532.08	1783.12
532.295	1694.12
532.509	1631.12
532.724	1715.12
532.938	1771.12
533.153	1876.12
533.367	1767.12
533.582	1754.12
533.796	1690.12
534.011	1739.12
534.225	1772.12
534.44	1726.12
534.654	1688.12
534.868	1686.12
535.083	1774.12
535.297	1795.12
535.511	1700.12
535.726	1708.12
535.94	1695.12
536.154	1731.12
536.369	1668.12
536.583	1667.12
536.797	1647.12
537.011	1701.12
537.225	1669.12
537.44	1587.12
537.654	1708.12
537.868	1641.12
538.082	1562.12
538.296	1543.12
538.51	1574.12
538.724	1540.12
538.938	1561.12
539.153	1610.12
539.367	1631.12
539.581	1619.12
539.795	1670.12
540.009	1686.12
540.222	1639.12
540.436	1699.12
540.65	1822.12
540.864	1810.12
541.078	1705.12
541.292	1606.12
541.506	1577.12
541.72	1647.12
541.934	1616.12
542.147	1664.12
542.361	1605.12
542.575	1577.12
542.789	1555.12
543.002	1518.12
543.216	1557.12
543.43	1680.12
543.644	1703.12
543.857	1792.12
544.071	1694.12
544.285	1632.12
544.498	1605.12
544.712	1599.12
544.925	1623.12
545.139	1703.12
545.352	1602.12
545.566	1520.12
545.779	1537.12
545.993	1518.12
546.206	1603.12
546.42	1523.12
546.633	1516.12
546.847	1513.12
547.06	1525.12
547.274	1522.12
547.487	1520.12
547.7	1517.12
547.914	1586.12
548.127	1554.12
548.34	1577.12
548.554	1552.12
548.767	1519.12
548.98	1550.12
549.193	1564.12
549.407	1629.12
549.62	1645.12
549.833	1575.12
550.046	1545.12
550.259	1503.12
550.473	1494.12
550.686	1492.12
550.899	1494.12
551.112	1478.12
551.325	1464.12
551.538	1559.12
551.751	1796.12
551.964	1485.12
552.177	1439.12
552.39	1497.12
552.603	1519.12
552.816	1482.12
553.029	1589.12
553.242	1618.12
553.455	1518.12
553.667	1524.12
553.88	1544.12
554.093	1501.12
554.306	1430.12
554.519	1393.12
554.732	1400.12
554.944	1429.12
555.157	1439.12
555.37	1415.12
555.583	1449.12
555.795	1381.12
556.008	1362.12
556.221	1334.12
556.433	1334.12
556.646	1322.12
556.859	1300.12
557.071	1307.12
557.284	1285.12
557.496	1282.12
557.709	1273.12
557.921	1259.12
558.134	1254.12
558.346	1270.12
558.559	1292.12
558.771	1264.12
558.984	1229.12
559.196	1164.12
559.409	1213.12
559.621	1242.12
559.833	1232.12
560.046	1263.12
560.258	1276.12
560.47	1246.12
560.683	1231.12
560.895	1275.12
561.107	1250.12
561.32	1279.12
561.532	1260.12
561.744	1257.12
561.956	1249.12
562.168	1238.12
562.381	1193.12
562.593	1185.12
562.805	1188.12
563.017	1201.12
563.229	1200.12
563.441	1226.12
563.653	1211.12
563.865	1225.12
564.077	1208.12
564.289	1253.12
564.501	1208.12
564.713	1295.12
564.925	1298.12
565.137	1404.12
565.349	1294.12
565.561	1262.12
565.773	1304.12
565.985	1330.12
566.197	1390.12
566.408	1503.12
566.62	1491.12
566.832	1475.12
567.044	1493.12
567.255	1439.12
567.467	1483.12
567.679	1556.12
567.891	1541.12
568.102	1547.12
568.314	1475.12
568.526	1427.12
568.737	1334.12
568.949	1267.12
569.161	1254.12
569.372	1210.12
569.584	1164.12
569.795	1192.12
570.007	1190.12
570.218	1148.12
570.43	1094.12
570.641	1146.12
570.853	1121.12
571.064	1112.12
571.276	1103.12
571.487	1071.12
571.698	1046.12
571.91	1022.12
572.121	1026.12
572.333	1038.12
572.544	1011.12
572.755	991.12
572.966	955.12
573.178	973.12
573.389	1011.12
573.6	1015.12
573.811	1060.12
574.023	983.12
574.234	989.12
574.445	958.12
574.656	947.12
574.867	939.12
575.078	935.12
575.289	934.12
575.501	910.12
575.712	910.12
575.923	921.12
576.134	941.12
576.345	917.12
576.556	892.12
576.767	875.12
576.978	881.12
577.188	902.12
577.399	860.12
577.61	875.12
577.821	874.12
578.032	830.12
578.243	824.12
578.454	852.12
578.665	822.12
578.875	847.12
579.086	808.12
579.297	854.12
579.508	892.12
579.718	879.12
579.929	862.12
580.14	821.12
580.35	806.12
580.561	823.12
580.772	913.12
580.982	845.12
581.193	825.12
581.403	824.12
581.614	808.12
581.825	802.12
582.035	820.12
582.246	797.12
582.456	824.12
582.667	811.12
582.877	778.12
583.087	810.12
583.298	799.12
583.508	766.12
583.719	782.12
583.929	799.12
584.139	798.12
584.35	766.12
584.56	734.12
584.77	770.12
584.981	779.12
585.191	782.12
585.401	791.12
585.611	791.12
585.821	760.12
586.032	770.12
586.242	746.12
586.452	757.12
586.662	746.12
586.872	768.12
587.082	765.12
587.292	806.12
587.502	799.12
587.713	797.12
587.923	789.12
588.133	742.12
588.343	775.12
588.553	750.12
588.762	748.12
588.972	744.12
589.182	760.12
589.392	751.12
589.602	776.12
589.812	766.12
590.022	751.12
590.232	717.12
590.441	720.12
590.651	747.12
590.861	731.12
591.071	717.12
591.281	760.12
591.49	724.12
591.7	727.12
591.91	743.12
592.119	722.12
592.329	749.12
592.539	777.12
592.748	759.12
592.958	743.12
593.167	772.12
593.377	807.12
593.587	767.12
593.796	780.12
594.006	789.12
594.215	781.12
594.424	766.12
594.634	758.12
594.843	751.12
595.053	798.12
595.262	727.12
595.472	727.12
595.681	750.12
595.89	710.12
596.1	685.12
596.309	737.12
596.518	694.12
596.727	694.12
596.937	708.12
597.146	652.12
597.355	659.12
597.564	644.12
597.774	657.12
597.983	654.12
598.192	644.12
598.401	632.12
598.61	620.12
598.819	650.12
599.028	642.12
599.237	632.12
599.446	612.12
599.655	590.12
599.864	597.12
600.073	628.12
600.282	620.12
600.491	610.12
600.7	596.12
600.909	619.12
601.118	598.12
601.327	602.12
601.536	615.12
601.745	630.12
601.953	626.12
602.162	606.12
602.371	611.12
602.58	611.12
602.789	639.12
602.997	600.12
603.206	608.12
603.415	578.12
603.623	584.12
603.832	568.12
604.041	558.12
604.249	567.12
604.458	576.12
604.666	607.12
604.875	587.12
605.084	570.12
605.292	603.12
605.501	582.12
605.709	573.12
605.918	557.12
606.126	562.12
606.334	544.12
606.543	547.12
606.751	559.12
606.96	579.12
607.168	563.12
607.376	559.12
607.585	535.12
607.793	536.12
608.001	552.12
608.21	571.12
608.418	546.12
608.626	539.12
608.834	551.12
609.043	532.12
609.251	545.12
609.459	551.12
609.667	555.12
609.875	544.12
610.083	572.12
610.291	567.12
610.499	599.12
610.707	554.12
610.916	536.12
611.124	556.12
611.332	540.12
611.54	541.12
611.748	538.12
611.955	546.12
612.163	531.12
612.371	538.12
612.579	519.12
612.787	507.12
612.995	543.12
613.203	532.12
613.411	524.12
613.618	545.12
613.826	541.12
614.034	522.12
614.242	530.12
614.449	524.12
614.657	526.12
614.865	510.12
615.072	525.12
615.28	526.12
615.488	528.12
615.695	552.12
615.903	541.12
616.111	520.12
616.318	546.12
616.526	508.12
616.733	508.12
616.941	493.12
617.148	522.12
617.356	516.12
617.563	499.12
617.771	517.12
617.978	496.12
618.185	500.12
618.393	488.12
618.6	488.12
618.807	483.12
619.015	515.12
619.222	500.12
619.429	493.12
619.637	482.12
619.844	470.12
620.051	474.12
620.258	441.12
620.466	472.12
620.673	480.12
620.88	436.12
621.087	450.12
621.294	459.12
621.501	468.12
621.708	471.12
621.915	462.12
622.122	477.12
622.329	481.12
622.536	463.12
622.743	455.12
622.95	471.12
623.157	480.12
623.364	455.12
623.571	440.12
623.778	451.12
623.985	449.12
624.192	481.12
624.399	431.12
624.606	423.12
624.812	473.12
625.019	437.12
625.226	440.12
625.433	432.12
625.639	426.12
625.846	458.12
626.053	440.12
626.259	440.12
626.466	438.12
626.673	395.12
626.879	410.12
627.086	414.12
627.293	431.12
627.499	416.12
627.706	411.12
627.912	395.12
628.119	420.12
628.325	424.12
628.532	415.12
628.738	411.12
628.945	430.12
629.151	410.12
629.357	408.12
629.564	421.12
629.77	414.12
629.976	400.12
630.183	422.12
630.389	401.12
630.595	424.12
630.802	404.12
631.008	378.12
631.214	388.12
631.42	356.12
631.627	371.12
631.833	381.12
632.039	393.12
632.245	385.12
632.451	385.12
632.657	389.12
632.863	380.12
633.069	388.12
633.275	384.12
633.481	370.12
633.688	338.12
633.893	353.12
634.099	357.12
634.305	369.12
634.511	366.12
634.717	344.12
634.923	344.12
635.129	359.12
635.335	365.12
635.541	357.12
635.747	368.12
635.952	363.12
636.158	340.12
636.364	358.12
636.57	376.12
636.775	358.12
636.981	352.12
637.187	345.12
637.392	355.12
637.598	360.12
637.804	350.12
638.009	341.12
638.215	345.12
638.421	326.12
638.626	328.12
638.832	333.12
639.037	344.12
639.243	337.12
639.448	348.12
639.654	331.12
639.859	343.12
640.065	338.12
640.27	346.12
640.475	349.12
640.681	344.12
640.886	342.12
641.091	326.12
641.297	346.12
641.502	342.12
641.707	323.12
641.913	332.12
642.118	335.12
642.323	340.12
642.528	310.12
642.733	328.12
642.939	335.12
643.144	321.12
643.349	328.12
643.554	324.12
643.759	326.12
643.964	330.12
644.169	333.12
644.374	322.12
644.579	347.12
644.784	314.12
644.989	334.12
645.194	317.12
645.399	297.12
645.604	306.12
645.809	318.12
646.014	325.12
646.219	315.12
646.423	319.12
646.628	327.12
646.833	309.12
647.038	320.12
647.243	329.12
647.447	320.12
647.652	325.12
647.857	303.12
648.062	315.12
648.266	326.12
648.471	337.12
648.676	334.12
648.88	335.12
649.085	309.12
649.289	302.12
649.494	317.12
649.698	314.12
649.903	315.12
650.107	307.12
650.312	292.12
650.516	306.12
650.721	294.12
650.925	284.12
651.13	284.12
651.334	273.12
651.539	289.12
651.743	287.12
651.947	291.12
652.152	273.12
652.356	268.12
652.56	285.12
652.764	270.12
652.969	277.12
653.173	260.12
653.377	251.12
653.581	257.12
653.785	250.12
653.99	243.12
654.194	241.12
654.398	245.12
654.602	238.12
654.806	246.12
655.01	235.12
655.214	244.12
655.418	248.12
655.622	247.12
655.826	276.12
656.03	271.12
656.234	268.12
656.438	269.12
656.642	271.12
656.846	242.12
657.049	258.12
657.253	237.12
657.457	207.12
657.661	187.12
657.865	179.12
658.068	171.12
658.272	179.12
658.476	165.12
658.68	154.12
658.883	164.12
659.087	157.12
659.291	136.12
659.494	132.12
659.698	129.12
659.901	122.12
660.105	148.12
660.309	132.12
660.512	141.12
660.716	112.12
660.919	130.12
661.123	123.12
661.326	126.12
661.53	104.12
661.733	98.12
661.936	101.12
662.14	107.12
662.343	102.12
662.546	93.12
662.75	93.12
662.953	88.12
663.156	87.12
663.36	90.12
663.563	87.12
663.766	87.12
663.969	85.12
664.173	71.12
664.376	67.12
664.579	85.12
664.782	76.12
664.985	86.12
665.188	86.12
665.391	91.12
665.594	91.12
665.797	80.12
666	87.12
666.203	90.12
666.406	88.12
666.609	87.12
666.812	81.12
667.015	81.12
667.218	86.12
667.421	90.12
667.624	100.12
667.827	83.12
668.03	88.12
668.232	69.12
668.435	75.12
668.638	72.12
668.841	81.12
669.043	89.12
669.246	87.12
669.449	93.12
669.651	79.12
669.854	81.12
670.057	87.12
670.259	81.12
670.462	85.12
670.665	78.12
670.867	81.12
671.07	87.12
671.272	81.12
671.475	90.12
671.677	85.12
671.88	91.12
672.082	90.12
672.284	79.12
672.487	79.12
672.689	79.12
672.892	78.12
