Data from WStandard_LampEnergy10_LIBS07252019.E.O._I.C._HRD10591_15-53-04-928.txt Node
Date: Thu Jul 25 15:53:04 EDT 2019
User: cochatt
Spectrometer: HR+D1059
Trigger mode: 1
Integration Time (sec): 1.000000E-1
Scans to average: 1
Electric dark correction enabled: true
Nonlinearity correction enabled: false
Boxcar width: 0
XAxis mode: Wavelengths
Number of Pixels in Spectrum: 2048
>>>>>Begin Spectral Data<<<<<
223.165	-21.31
223.4	-21.31
223.635	-21.31
223.869	-18.31
224.104	-20.31
224.338	-20.31
224.573	-12.31
224.808	-7.31
225.042	-16.31
225.277	-5.31
225.511	-5.31
225.746	-8.31
225.98	14.69
226.215	17.69
226.449	25.69
226.683	21.69
226.918	23.69
227.152	31.69
227.387	48.69
227.621	45.69
227.856	39.69
228.09	52.69
228.324	69.69
228.559	52.69
228.793	97.69
229.027	135.69
229.262	135.69
229.496	160.69
229.73	147.69
229.964	167.69
230.199	166.69
230.433	180.69
230.667	180.69
230.901	212.69
231.136	175.69
231.37	171.69
231.604	189.69
231.838	185.69
232.072	196.69
232.306	171.69
232.541	177.69
232.775	200.69
233.009	222.69
233.243	212.69
233.477	197.69
233.711	211.69
233.945	207.69
234.179	192.69
234.413	215.69
234.647	220.69
234.881	214.69
235.115	202.69
235.349	207.69
235.583	224.69
235.817	208.69
236.051	201.69
236.285	209.69
236.519	222.69
236.753	229.69
236.987	234.69
237.221	224.69
237.455	248.69
237.689	236.69
237.922	234.69
238.156	229.69
238.39	236.69
238.624	247.69
238.858	250.69
239.091	248.69
239.325	265.69
239.559	293.69
239.793	292.69
240.027	312.69
240.26	308.69
240.494	230.69
240.728	232.69
240.961	240.69
241.195	241.69
241.429	265.69
241.662	251.69
241.896	261.69
242.13	256.69
242.363	274.69
242.597	288.69
242.83	291.69
243.064	291.69
243.298	299.69
243.531	292.69
243.765	291.69
243.998	294.69
244.232	259.69
244.465	257.69
244.699	255.69
244.932	285.69
245.166	301.69
245.399	317.69
245.633	284.69
245.866	304.69
246.099	307.69
246.333	297.69
246.566	331.69
246.8	337.69
247.033	342.69
247.266	347.69
247.5	329.69
247.733	331.69
247.966	352.69
248.2	369.69
248.433	356.69
248.666	368.69
248.899	377.69
249.133	426.69
249.366	476.69
249.599	394.69
249.832	373.69
250.066	393.69
250.299	367.69
250.532	351.69
250.765	327.69
250.998	336.69
251.231	360.69
251.465	359.69
251.698	356.69
251.931	355.69
252.164	360.69
252.397	352.69
252.63	358.69
252.863	318.69
253.096	340.69
253.329	355.69
253.562	351.69
253.795	400.69
254.028	377.69
254.261	351.69
254.494	360.69
254.727	337.69
254.96	355.69
255.193	389.69
255.426	416.69
255.659	470.69
255.892	459.69
256.124	407.69
256.357	382.69
256.59	436.69
256.823	429.69
257.056	422.69
257.289	509.69
257.521	522.69
257.754	471.69
257.987	475.69
258.22	492.69
258.452	461.69
258.685	398.69
258.918	409.69
259.151	400.69
259.383	404.69
259.616	353.69
259.849	371.69
260.081	437.69
260.314	456.69
260.547	496.69
260.779	480.69
261.012	462.69
261.244	428.69
261.477	421.69
261.71	416.69
261.942	410.69
262.175	409.69
262.407	422.69
262.64	414.69
262.872	395.69
263.105	378.69
263.337	371.69
263.57	395.69
263.802	404.69
264.035	373.69
264.267	345.69
264.499	349.69
264.732	375.69
264.964	409.69
265.197	398.69
265.429	422.69
265.661	482.69
265.894	497.69
266.126	503.69
266.358	465.69
266.591	485.69
266.823	513.69
267.055	454.69
267.287	442.69
267.52	462.69
267.752	464.69
267.984	455.69
268.216	474.69
268.448	467.69
268.681	457.69
268.913	426.69
269.145	441.69
269.377	416.69
269.609	447.69
269.841	540.69
270.073	613.69
270.306	601.69
270.538	630.69
270.77	548.69
271.002	484.69
271.234	474.69
271.466	499.69
271.698	546.69
271.93	632.69
272.162	588.69
272.394	576.69
272.626	507.69
272.858	456.69
273.09	407.69
273.322	416.69
273.553	401.69
273.785	425.69
274.017	439.69
274.249	465.69
274.481	454.69
274.713	423.69
274.945	403.69
275.176	400.69
275.408	409.69
275.64	406.69
275.872	438.69
276.104	449.69
276.335	524.69
276.567	527.69
276.799	544.69
277.031	507.69
277.262	476.69
277.494	507.69
277.726	532.69
277.957	521.69
278.189	483.69
278.421	452.69
278.652	433.69
278.884	463.69
279.115	449.69
279.347	453.69
279.579	440.69
279.81	470.69
280.042	491.69
280.273	520.69
280.505	525.69
280.736	528.69
280.968	503.69
281.199	458.69
281.431	443.69
281.662	437.69
281.894	429.69
282.125	463.69
282.356	464.69
282.588	479.69
282.819	478.69
283.051	511.69
283.282	523.69
283.513	510.69
283.745	445.69
283.976	433.69
284.207	448.69
284.439	440.69
284.67	457.69
284.901	456.69
285.132	468.69
285.364	461.69
285.595	475.69
285.826	454.69
286.057	466.69
286.288	467.69
286.52	474.69
286.751	528.69
286.982	520.69
287.213	473.69
287.444	435.69
287.675	459.69
287.906	482.69
288.138	496.69
288.369	489.69
288.6	468.69
288.831	463.69
289.062	464.69
289.293	445.69
289.524	462.69
289.755	493.69
289.986	486.69
290.217	435.69
290.448	460.69
290.679	474.69
290.91	465.69
291.141	455.69
291.371	480.69
291.602	501.69
291.833	504.69
292.064	525.69
292.295	508.69
292.526	525.69
292.757	533.69
292.987	494.69
293.218	493.69
293.449	552.69
293.68	606.69
293.91	612.69
294.141	585.69
294.372	573.69
294.603	576.69
294.833	581.69
295.064	549.69
295.295	503.69
295.525	488.69
295.756	460.69
295.987	439.69
296.217	449.69
296.448	486.69
296.679	466.69
296.909	477.69
297.14	477.69
297.37	492.69
297.601	533.69
297.831	544.69
298.062	538.69
298.292	496.69
298.523	486.69
298.753	485.69
298.984	483.69
299.214	464.69
299.445	517.69
299.675	523.69
299.905	531.69
300.136	500.69
300.366	474.69
300.597	477.69
300.827	470.69
301.057	505.69
301.288	509.69
301.518	529.69
301.748	538.69
301.979	554.69
302.209	582.69
302.439	600.69
302.669	587.69
302.9	579.69
303.13	528.69
303.36	523.69
303.59	543.69
303.82	538.69
304.051	532.69
304.281	533.69
304.511	555.69
304.741	565.69
304.971	646.69
305.201	667.69
305.431	588.69
305.661	515.69
305.891	478.69
306.121	459.69
306.352	504.69
306.582	510.69
306.812	564.69
307.042	573.69
307.272	584.69
307.502	603.69
307.731	643.69
307.961	654.69
308.191	597.69
308.421	519.69
308.651	487.69
308.881	548.69
309.111	515.69
309.341	527.69
309.571	504.69
309.8	486.69
310.03	489.69
310.26	506.69
310.49	537.69
310.72	528.69
310.949	539.69
311.179	562.69
311.409	515.69
311.639	517.69
311.868	513.69
312.098	502.69
312.328	507.69
312.557	521.69
312.787	528.69
313.017	546.69
313.246	536.69
313.476	509.69
313.706	523.69
313.935	551.69
314.165	550.69
314.394	584.69
314.624	596.69
314.853	638.69
315.083	670.69
315.312	635.69
315.542	586.69
315.771	542.69
316.001	561.69
316.23	584.69
316.46	583.69
316.689	582.69
316.919	557.69
317.148	538.69
317.377	558.69
317.607	600.69
317.836	645.69
318.065	667.69
318.295	660.69
318.524	608.69
318.753	592.69
318.983	605.69
319.212	559.69
319.441	567.69
319.67	566.69
319.9	560.69
320.129	612.69
320.358	633.69
320.587	656.69
320.816	648.69
321.046	615.69
321.275	609.69
321.504	619.69
321.733	655.69
321.962	599.69
322.191	588.69
322.42	564.69
322.649	560.69
322.878	563.69
323.108	565.69
323.337	593.69
323.566	594.69
323.795	613.69
324.024	568.69
324.253	559.69
324.482	569.69
324.71	554.69
324.939	531.69
325.168	559.69
325.397	607.69
325.626	591.69
325.855	581.69
326.084	576.69
326.313	587.69
326.542	593.69
326.77	606.69
326.999	621.69
327.228	572.69
327.457	537.69
327.686	559.69
327.914	586.69
328.143	582.69
328.372	571.69
328.6	579.69
328.829	569.69
329.058	567.69
329.287	566.69
329.515	579.69
329.744	597.69
329.972	645.69
330.201	628.69
330.43	597.69
330.658	607.69
330.887	620.69
331.115	613.69
331.344	597.69
331.572	592.69
331.801	596.69
332.03	618.69
332.258	591.69
332.486	624.69
332.715	635.69
332.943	631.69
333.172	623.69
333.4	623.69
333.629	601.69
333.857	644.69
334.085	767.69
334.314	852.69
334.542	851.69
334.771	792.69
334.999	725.69
335.227	675.69
335.455	653.69
335.684	654.69
335.912	662.69
336.14	674.69
336.369	655.69
336.597	631.69
336.825	630.69
337.053	638.69
337.281	705.69
337.51	718.69
337.738	732.69
337.966	672.69
338.194	613.69
338.422	604.69
338.65	596.69
338.878	593.69
339.106	573.69
339.334	565.69
339.562	563.69
339.79	596.69
340.018	638.69
340.246	634.69
340.474	647.69
340.702	629.69
340.93	637.69
341.158	622.69
341.386	595.69
341.614	608.69
341.842	635.69
342.07	605.69
342.298	606.69
342.526	617.69
342.754	597.69
342.981	618.69
343.209	606.69
343.437	559.69
343.665	604.69
343.893	618.69
344.12	635.69
344.348	653.69
344.576	637.69
344.804	612.69
345.031	613.69
345.259	592.69
345.487	566.69
345.714	588.69
345.942	571.69
346.17	560.69
346.397	575.69
346.625	591.69
346.853	556.69
347.08	586.69
347.308	586.69
347.535	573.69
347.763	592.69
347.99	567.69
348.218	564.69
348.445	543.69
348.673	571.69
348.9	604.69
349.128	647.69
349.355	615.69
349.583	604.69
349.81	570.69
350.037	573.69
350.265	545.69
350.492	542.69
350.72	565.69
350.947	601.69
351.174	579.69
351.402	545.69
351.629	515.69
351.856	535.69
352.083	544.69
352.311	551.69
352.538	564.69
352.765	575.69
352.992	578.69
353.22	556.69
353.447	562.69
353.674	578.69
353.901	571.69
354.128	548.69
354.355	560.69
354.583	598.69
354.81	608.69
355.037	589.69
355.264	575.69
355.491	575.69
355.718	602.69
355.945	569.69
356.172	585.69
356.399	550.69
356.626	567.69
356.853	616.69
357.08	659.69
357.307	685.69
357.534	658.69
357.761	590.69
357.988	546.69
358.215	546.69
358.441	565.69
358.668	559.69
358.895	581.69
359.122	617.69
359.349	645.69
359.576	609.69
359.802	579.69
360.029	544.69
360.256	549.69
360.483	595.69
360.709	583.69
360.936	591.69
361.163	636.69
361.39	711.69
361.616	724.69
361.843	691.69
362.07	673.69
362.296	590.69
362.523	575.69
362.749	573.69
362.976	594.69
363.203	619.69
363.429	589.69
363.656	579.69
363.882	619.69
364.109	660.69
364.335	677.69
364.562	656.69
364.788	608.69
365.015	610.69
365.241	564.69
365.468	594.69
365.694	629.69
365.92	641.69
366.147	580.69
366.373	577.69
366.599	581.69
366.826	569.69
367.052	554.69
367.278	585.69
367.505	613.69
367.731	615.69
367.957	599.69
368.184	650.69
368.41	693.69
368.636	676.69
368.862	686.69
369.089	688.69
369.315	654.69
369.541	641.69
369.767	605.69
369.993	603.69
370.219	606.69
370.445	635.69
370.672	677.69
370.898	670.69
371.124	655.69
371.35	639.69
371.576	655.69
371.802	668.69
372.028	657.69
372.254	637.69
372.48	624.69
372.706	624.69
372.932	613.69
373.158	605.69
373.384	621.69
373.61	658.69
373.835	679.69
374.061	647.69
374.287	630.69
374.513	634.69
374.739	646.69
374.965	660.69
375.191	647.69
375.416	685.69
375.642	695.69
375.868	701.69
376.094	732.69
376.319	707.69
376.545	669.69
376.771	703.69
376.997	710.69
377.222	676.69
377.448	677.69
377.674	695.69
377.899	693.69
378.125	749.69
378.35	723.69
378.576	655.69
378.802	645.69
379.027	645.69
379.253	644.69
379.478	638.69
379.704	656.69
379.929	664.69
380.155	655.69
380.38	654.69
380.606	659.69
380.831	666.69
381.057	725.69
381.282	730.69
381.507	715.69
381.733	746.69
381.958	795.69
382.184	710.69
382.409	693.69
382.634	694.69
382.86	691.69
383.085	718.69
383.31	768.69
383.535	800.69
383.761	807.69
383.986	791.69
384.211	743.69
384.436	739.69
384.662	763.69
384.887	813.69
385.112	762.69
385.337	749.69
385.562	756.69
385.787	759.69
386.013	797.69
386.238	771.69
386.463	774.69
386.688	838.69
386.913	885.69
387.138	847.69
387.363	793.69
387.588	795.69
387.813	775.69
388.038	808.69
388.263	835.69
388.488	762.69
388.713	731.69
388.938	714.69
389.163	729.69
389.387	771.69
389.612	739.69
389.837	790.69
390.062	775.69
390.287	768.69
390.512	742.69
390.736	776.69
390.961	747.69
391.186	709.69
391.411	748.69
391.636	753.69
391.86	747.69
392.085	767.69
392.31	770.69
392.534	759.69
392.759	773.69
392.984	784.69
393.208	747.69
393.433	829.69
393.658	837.69
393.882	847.69
394.107	784.69
394.331	782.69
394.556	772.69
394.78	788.69
395.005	822.69
395.229	867.69
395.454	887.69
395.678	869.69
395.903	859.69
396.127	871.69
396.352	856.69
396.576	844.69
396.801	857.69
397.025	861.69
397.249	855.69
397.474	867.69
397.698	849.69
397.922	854.69
398.147	920.69
398.371	930.69
398.595	936.69
398.82	901.69
399.044	934.69
399.268	944.69
399.492	955.69
399.717	1005.69
399.941	990.69
400.165	986.69
400.389	955.69
400.613	1022.69
400.837	1149.69
401.062	1191.69
401.286	1028.69
401.51	997.69
401.734	1005.69
401.958	973.69
402.182	910.69
402.406	901.69
402.63	868.69
402.854	908.69
403.078	903.69
403.302	913.69
403.526	929.69
403.75	918.69
403.974	958.69
404.198	937.69
404.422	990.69
404.645	998.69
404.869	971.69
405.093	931.69
405.317	945.69
405.541	954.69
405.765	943.69
405.988	936.69
406.212	942.69
406.436	962.69
406.66	983.69
406.883	1070.69
407.107	1134.69
407.331	1244.69
407.555	1323.69
407.778	1159.69
408.002	1032.69
408.226	965.69
408.449	986.69
408.673	959.69
408.896	967.69
409.12	1003.69
409.344	968.69
409.567	928.69
409.791	959.69
410.014	960.69
410.238	1054.69
410.461	1065.69
410.685	960.69
410.908	957.69
411.132	965.69
411.355	976.69
411.578	936.69
411.802	950.69
412.025	970.69
412.249	937.69
412.472	937.69
412.695	893.69
412.919	939.69
413.142	916.69
413.365	962.69
413.589	970.69
413.812	1029.69
414.035	1021.69
414.258	964.69
414.482	949.69
414.705	947.69
414.928	911.69
415.151	939.69
415.374	979.69
415.597	975.69
415.821	969.69
416.044	960.69
416.267	962.69
416.49	923.69
416.713	911.69
416.936	962.69
417.159	981.69
417.382	949.69
417.605	944.69
417.828	940.69
418.051	981.69
418.274	950.69
418.497	949.69
418.72	991.69
418.943	963.69
419.166	983.69
419.389	1027.69
419.611	971.69
419.834	952.69
420.057	989.69
420.28	960.69
420.503	952.69
420.726	986.69
420.948	995.69
421.171	928.69
421.394	944.69
421.617	980.69
421.839	1036.69
422.062	975.69
422.285	968.69
422.507	966.69
422.73	935.69
422.953	927.69
423.175	902.69
423.398	924.69
423.621	961.69
423.843	951.69
424.066	980.69
424.288	1032.69
424.511	1055.69
424.733	1038.69
424.956	974.69
425.178	971.69
425.401	940.69
425.623	959.69
425.846	935.69
426.068	995.69
426.291	1005.69
426.513	998.69
426.735	993.69
426.958	1083.69
427.18	1077.69
427.402	1017.69
427.625	1067.69
427.847	995.69
428.069	944.69
428.292	911.69
428.514	915.69
428.736	906.69
428.958	921.69
429.181	956.69
429.403	1113.69
429.625	1282.69
429.847	1059.69
430.069	978.69
430.292	1103.69
430.514	1057.69
430.736	995.69
430.958	1015.69
431.18	948.69
431.402	897.69
431.624	869.69
431.846	813.69
432.068	764.69
432.29	765.69
432.512	832.69
432.734	909.69
432.956	934.69
433.178	973.69
433.4	975.69
433.622	980.69
433.844	925.69
434.066	863.69
434.287	824.69
434.509	799.69
434.731	843.69
434.953	908.69
435.175	943.69
435.397	951.69
435.618	886.69
435.84	839.69
436.062	847.69
436.284	943.69
436.505	943.69
436.727	956.69
436.949	931.69
437.17	895.69
437.392	904.69
437.614	865.69
437.835	830.69
438.057	857.69
438.278	835.69
438.5	880.69
438.721	919.69
438.943	929.69
439.165	968.69
439.386	971.69
439.608	998.69
439.829	974.69
440.05	992.69
440.272	975.69
440.493	985.69
440.715	969.69
440.936	1039.69
441.158	1085.69
441.379	1051.69
441.6	1091.69
441.822	1057.69
442.043	1052.69
442.264	1016.69
442.486	1005.69
442.707	944.69
442.928	998.69
443.149	986.69
443.371	1019.69
443.592	1063.69
443.813	1056.69
444.034	1028.69
444.255	1025.69
444.476	1059.69
444.698	1054.69
444.919	1055.69
445.14	1161.69
445.361	1139.69
445.582	1110.69
445.803	1083.69
446.024	1073.69
446.245	1110.69
446.466	1107.69
446.687	1062.69
446.908	1079.69
447.129	1042.69
447.35	1043.69
447.571	1035.69
447.792	998.69
448.013	975.69
448.234	969.69
448.455	1011.69
448.675	1011.69
448.896	947.69
449.117	927.69
449.338	908.69
449.559	969.69
449.779	977.69
450	1029.69
450.221	1048.69
450.442	1038.69
450.662	998.69
450.883	893.69
451.104	896.69
451.324	912.69
451.545	937.69
451.766	882.69
451.986	854.69
452.207	837.69
452.428	797.69
452.648	825.69
452.869	785.69
453.089	804.69
453.31	808.69
453.53	784.69
453.751	749.69
453.971	730.69
454.192	750.69
454.412	783.69
454.633	802.69
454.853	803.69
455.073	781.69
455.294	789.69
455.514	770.69
455.734	784.69
455.955	807.69
456.175	766.69
456.395	750.69
456.616	766.69
456.836	751.69
457.056	759.69
457.276	732.69
457.497	719.69
457.717	701.69
457.937	717.69
458.157	737.69
458.377	708.69
458.598	720.69
458.818	684.69
459.038	727.69
459.258	716.69
459.478	729.69
459.698	737.69
459.918	770.69
460.138	821.69
460.358	849.69
460.578	843.69
460.798	891.69
461.018	911.69
461.238	865.69
461.458	876.69
461.678	869.69
461.898	853.69
462.118	810.69
462.338	865.69
462.558	863.69
462.777	870.69
462.997	897.69
463.217	923.69
463.437	872.69
463.657	836.69
463.876	856.69
464.096	845.69
464.316	877.69
464.536	887.69
464.755	889.69
464.975	906.69
465.195	894.69
465.414	891.69
465.634	902.69
465.854	913.69
466.073	990.69
466.293	945.69
466.512	892.69
466.732	895.69
466.951	959.69
467.171	910.69
467.391	923.69
467.61	917.69
467.829	912.69
468.049	999.69
468.268	1071.69
468.488	972.69
468.707	914.69
468.927	955.69
469.146	913.69
469.365	928.69
469.585	944.69
469.804	951.69
470.023	944.69
470.243	961.69
470.462	990.69
470.681	965.69
470.901	937.69
471.12	953.69
471.339	968.69
471.558	955.69
471.777	915.69
471.997	919.69
472.216	880.69
472.435	783.69
472.654	780.69
472.873	800.69
473.092	876.69
473.311	835.69
473.53	837.69
473.749	872.69
473.968	871.69
474.187	854.69
474.406	861.69
474.625	887.69
474.844	879.69
475.063	895.69
475.282	881.69
475.501	852.69
475.72	854.69
475.939	942.69
476.158	943.69
476.377	911.69
476.596	894.69
476.814	844.69
477.033	783.69
477.252	867.69
477.471	887.69
477.69	954.69
477.908	959.69
478.127	998.69
478.346	1035.69
478.564	1016.69
478.783	999.69
479.002	1039.69
479.22	1081.69
479.439	1059.69
479.658	1068.69
479.876	1020.69
480.095	924.69
480.313	908.69
480.532	918.69
480.751	900.69
480.969	834.69
481.188	811.69
481.406	805.69
481.624	811.69
481.843	808.69
482.061	838.69
482.28	892.69
482.498	923.69
482.717	910.69
482.935	917.69
483.153	997.69
483.372	1056.69
483.59	1035.69
483.808	1008.69
484.027	974.69
484.245	1018.69
484.463	1264.69
484.681	1379.69
484.9	1091.69
485.118	973.69
485.336	954.69
485.554	928.69
485.772	941.69
485.99	899.69
486.209	929.69
486.427	906.69
486.645	957.69
486.863	1029.69
487.081	1068.69
487.299	1060.69
487.517	1031.69
487.735	1128.69
487.953	1218.69
488.171	1201.69
488.389	1167.69
488.607	1093.69
488.825	1187.69
489.043	1086.69
489.261	1019.69
489.479	1102.69
489.696	1093.69
489.914	1063.69
490.132	1061.69
490.35	1076.69
490.568	1180.69
490.786	1207.69
491.003	1207.69
491.221	1289.69
491.439	1323.69
491.657	1323.69
491.874	1388.69
492.092	1499.69
492.31	1559.69
492.527	1473.69
492.745	1399.69
492.963	1324.69
493.18	1348.69
493.398	1388.69
493.615	1329.69
493.833	1301.69
494.05	1260.69
494.268	1287.69
494.485	1262.69
494.703	1229.69
494.92	1244.69
495.138	1254.69
495.355	1278.69
495.573	1283.69
495.79	1333.69
496.008	1309.69
496.225	1259.69
496.442	1293.69
496.66	1228.69
496.877	1235.69
497.094	1243.69
497.312	1269.69
497.529	1207.69
497.746	1236.69
497.963	1283.69
498.181	1324.69
498.398	1271.69
498.615	1223.69
498.832	1161.69
499.049	1188.69
499.267	1164.69
499.484	1239.69
499.701	1340.69
499.918	1395.69
500.135	1477.69
500.352	1570.69
500.569	1617.69
500.786	1729.69
501.003	1563.69
501.22	1437.69
501.437	1415.69
501.654	1439.69
501.871	1395.69
502.088	1240.69
502.305	1232.69
502.522	1168.69
502.739	1127.69
502.956	1085.69
503.172	1099.69
503.389	1044.69
503.606	1011.69
503.823	1012.69
504.04	1009.69
504.256	1031.69
504.473	1004.69
504.69	1031.69
504.907	983.69
505.123	993.69
505.34	1078.69
505.557	1385.69
505.773	1145.69
505.99	997.69
506.207	925.69
506.423	904.69
506.64	922.69
506.856	942.69
507.073	1066.69
507.289	1116.69
507.506	1054.69
507.722	928.69
507.939	875.69
508.155	874.69
508.372	870.69
508.588	841.69
508.805	821.69
509.021	777.69
509.238	806.69
509.454	749.69
509.67	761.69
509.887	765.69
510.103	760.69
510.319	762.69
510.536	787.69
510.752	788.69
510.968	775.69
511.184	816.69
511.401	816.69
511.617	718.69
511.833	700.69
512.049	734.69
512.265	732.69
512.481	726.69
512.698	777.69
512.914	795.69
513.13	765.69
513.346	712.69
513.562	720.69
513.778	721.69
513.994	749.69
514.21	756.69
514.426	808.69
514.642	832.69
514.858	813.69
515.074	727.69
515.29	744.69
515.506	769.69
515.721	763.69
515.937	764.69
516.153	823.69
516.369	802.69
516.585	769.69
516.801	723.69
517.016	769.69
517.232	767.69
517.448	793.69
517.664	807.69
517.879	815.69
518.095	841.69
518.311	779.69
518.527	774.69
518.742	765.69
518.958	742.69
519.173	774.69
519.389	805.69
519.605	799.69
519.82	800.69
520.036	817.69
520.251	774.69
520.467	804.69
520.682	849.69
520.898	806.69
521.113	758.69
521.329	732.69
521.544	789.69
521.76	774.69
521.975	737.69
522.19	751.69
522.406	747.69
522.621	949.69
522.836	891.69
523.052	755.69
523.267	777.69
523.482	782.69
523.698	767.69
523.913	733.69
524.128	783.69
524.343	809.69
524.559	867.69
524.774	812.69
524.989	776.69
525.204	764.69
525.419	774.69
525.634	755.69
525.849	750.69
526.064	746.69
526.28	721.69
526.495	692.69
526.71	677.69
526.925	647.69
527.14	653.69
527.355	640.69
527.57	635.69
527.785	688.69
527.999	676.69
528.214	693.69
528.429	697.69
528.644	756.69
528.859	825.69
529.074	851.69
529.289	906.69
529.503	893.69
529.718	843.69
529.933	738.69
530.148	669.69
530.363	647.69
530.577	655.69
530.792	649.69
531.007	658.69
531.221	622.69
531.436	640.69
531.651	655.69
531.865	678.69
532.08	667.69
532.295	633.69
532.509	634.69
532.724	630.69
532.938	669.69
533.153	718.69
533.367	725.69
533.582	769.69
533.796	761.69
534.011	716.69
534.225	677.69
534.44	651.69
534.654	673.69
534.868	669.69
535.083	706.69
535.297	704.69
535.511	698.69
535.726	701.69
535.94	700.69
536.154	637.69
536.369	641.69
536.583	637.69
536.797	611.69
537.011	633.69
537.225	617.69
537.44	657.69
537.654	667.69
537.868	638.69
538.082	612.69
538.296	615.69
538.51	666.69
538.724	700.69
538.938	713.69
539.153	776.69
539.367	739.69
539.581	696.69
539.795	691.69
540.009	658.69
540.222	661.69
540.436	688.69
540.65	771.69
540.864	817.69
541.078	836.69
541.292	846.69
541.506	931.69
541.72	957.69
541.934	1048.69
542.147	1104.69
542.361	1039.69
542.575	954.69
542.789	823.69
543.002	773.69
543.216	763.69
543.43	771.69
543.644	836.69
543.857	900.69
544.071	956.69
544.285	980.69
544.498	951.69
544.712	925.69
544.925	958.69
545.139	982.69
545.352	953.69
545.566	957.69
545.779	965.69
545.993	967.69
546.206	975.69
546.42	1003.69
546.633	968.69
546.847	943.69
547.06	969.69
547.274	977.69
547.487	998.69
547.7	1031.69
547.914	1001.69
548.127	990.69
548.34	943.69
548.554	933.69
548.767	952.69
548.98	941.69
549.193	954.69
549.407	963.69
549.62	991.69
549.833	934.69
550.046	935.69
550.259	908.69
550.473	932.69
550.686	912.69
550.899	879.69
551.112	873.69
551.325	865.69
551.538	875.69
551.751	909.69
551.964	724.69
552.177	736.69
552.39	812.69
552.603	848.69
552.816	873.69
553.029	930.69
553.242	959.69
553.455	935.69
553.667	921.69
553.88	913.69
554.093	889.69
554.306	865.69
554.519	831.69
554.732	852.69
554.944	843.69
555.157	837.69
555.37	853.69
555.583	825.69
555.795	816.69
556.008	749.69
556.221	756.69
556.433	746.69
556.646	765.69
556.859	765.69
557.071	743.69
557.284	767.69
557.496	759.69
557.709	771.69
557.921	793.69
558.134	749.69
558.346	744.69
558.559	729.69
558.771	729.69
558.984	694.69
559.196	714.69
559.409	685.69
559.621	681.69
559.833	683.69
560.046	715.69
560.258	711.69
560.47	693.69
560.683	704.69
560.895	696.69
561.107	686.69
561.32	677.69
561.532	687.69
561.744	679.69
561.956	695.69
562.168	681.69
562.381	670.69
562.593	630.69
562.805	657.69
563.017	652.69
563.229	678.69
563.441	664.69
563.653	636.69
563.865	631.69
564.077	637.69
564.289	607.69
564.501	607.69
564.713	654.69
564.925	663.69
565.137	689.69
565.349	651.69
565.561	647.69
565.773	639.69
565.985	631.69
566.197	660.69
566.408	698.69
566.62	677.69
566.832	678.69
567.044	707.69
567.255	665.69
567.467	647.69
567.679	651.69
567.891	656.69
568.102	632.69
568.314	590.69
568.526	552.69
568.737	534.69
568.949	499.69
569.161	483.69
569.372	462.69
569.584	460.69
569.795	443.69
570.007	465.69
570.218	441.69
570.43	437.69
570.641	443.69
570.853	484.69
571.064	499.69
571.276	484.69
571.487	478.69
571.698	496.69
571.91	472.69
572.121	480.69
572.333	456.69
572.544	435.69
572.755	429.69
572.966	398.69
573.178	407.69
573.389	417.69
573.6	430.69
573.811	454.69
574.023	391.69
574.234	405.69
574.445	394.69
574.656	407.69
574.867	410.69
575.078	403.69
575.289	420.69
575.501	407.69
575.712	414.69
575.923	404.69
576.134	401.69
576.345	427.69
576.556	428.69
576.767	379.69
576.978	405.69
577.188	385.69
577.399	397.69
577.61	381.69
577.821	390.69
578.032	370.69
578.243	380.69
578.454	395.69
578.665	355.69
578.875	364.69
579.086	352.69
579.297	360.69
579.508	346.69
579.718	372.69
579.929	361.69
580.14	355.69
580.35	349.69
580.561	372.69
580.772	395.69
580.982	371.69
581.193	355.69
581.403	365.69
581.614	366.69
581.825	339.69
582.035	347.69
582.246	353.69
582.456	383.69
582.667	358.69
582.877	342.69
583.087	344.69
583.298	341.69
583.508	331.69
583.719	347.69
583.929	343.69
584.139	324.69
584.35	329.69
584.56	330.69
584.77	340.69
584.981	327.69
585.191	356.69
585.401	339.69
585.611	326.69
585.821	347.69
586.032	333.69
586.242	324.69
586.452	321.69
586.662	336.69
586.872	326.69
587.082	323.69
587.292	348.69
587.502	334.69
587.713	325.69
587.923	340.69
588.133	323.69
588.343	334.69
588.553	319.69
588.762	329.69
588.972	307.69
589.182	324.69
589.392	330.69
589.602	322.69
589.812	335.69
590.022	326.69
590.232	294.69
590.441	307.69
590.651	303.69
590.861	311.69
591.071	314.69
591.281	311.69
591.49	298.69
591.7	330.69
591.91	317.69
592.119	313.69
592.329	321.69
592.539	339.69
592.748	337.69
592.958	342.69
593.167	340.69
593.377	324.69
593.587	326.69
593.796	332.69
594.006	334.69
594.215	332.69
594.424	344.69
594.634	334.69
594.843	341.69
595.053	358.69
595.262	343.69
595.472	329.69
595.681	305.69
595.89	325.69
596.1	323.69
596.309	330.69
596.518	328.69
596.727	322.69
596.937	333.69
597.146	326.69
597.355	323.69
597.564	314.69
597.774	324.69
597.983	293.69
598.192	283.69
598.401	286.69
598.61	310.69
598.819	297.69
599.028	301.69
599.237	307.69
599.446	313.69
599.655	292.69
599.864	298.69
600.073	291.69
600.282	286.69
600.491	299.69
600.7	297.69
600.909	305.69
601.118	305.69
601.327	335.69
601.536	334.69
601.745	360.69
601.953	362.69
602.162	360.69
602.371	354.69
602.58	376.69
602.789	349.69
602.997	354.69
603.206	355.69
603.415	355.69
603.623	364.69
603.832	352.69
604.041	337.69
604.249	334.69
604.458	326.69
604.666	302.69
604.875	311.69
605.084	307.69
605.292	336.69
605.501	353.69
605.709	365.69
605.918	353.69
606.126	365.69
606.334	371.69
606.543	366.69
606.751	364.69
606.96	368.69
607.168	362.69
607.376	362.69
607.585	366.69
607.793	380.69
608.001	368.69
608.21	373.69
608.418	366.69
608.626	359.69
608.834	366.69
609.043	382.69
609.251	371.69
609.459	360.69
609.667	385.69
609.875	375.69
610.083	392.69
610.291	381.69
610.499	375.69
610.707	361.69
610.916	376.69
611.124	371.69
611.332	375.69
611.54	401.69
611.748	385.69
611.955	372.69
612.163	372.69
612.371	378.69
612.579	365.69
612.787	363.69
612.995	362.69
613.203	359.69
613.411	365.69
613.618	368.69
613.826	375.69
614.034	350.69
614.242	350.69
614.449	358.69
614.657	369.69
614.865	358.69
615.072	367.69
615.28	357.69
615.488	377.69
615.695	380.69
615.903	379.69
616.111	358.69
616.318	347.69
616.526	360.69
616.733	364.69
616.941	368.69
617.148	362.69
617.356	365.69
617.563	346.69
617.771	332.69
617.978	320.69
618.185	347.69
618.393	364.69
618.6	376.69
618.807	363.69
619.015	341.69
619.222	336.69
619.429	334.69
619.637	328.69
619.844	307.69
620.051	333.69
620.258	325.69
620.466	337.69
620.673	321.69
620.88	327.69
621.087	326.69
621.294	333.69
621.501	291.69
621.708	300.69
621.915	310.69
622.122	326.69
622.329	334.69
622.536	315.69
622.743	326.69
622.95	328.69
623.157	314.69
623.364	321.69
623.571	327.69
623.778	343.69
623.985	341.69
624.192	345.69
624.399	330.69
624.606	334.69
624.812	324.69
625.019	302.69
625.226	297.69
625.433	304.69
625.639	286.69
625.846	279.69
626.053	267.69
626.259	252.69
626.466	260.69
626.673	255.69
626.879	229.69
627.086	231.69
627.293	263.69
627.499	286.69
627.706	298.69
627.912	318.69
628.119	312.69
628.325	303.69
628.532	283.69
628.738	303.69
628.945	300.69
629.151	289.69
629.357	313.69
629.564	305.69
629.77	279.69
629.976	292.69
630.183	259.69
630.389	286.69
630.595	287.69
630.802	299.69
631.008	295.69
631.214	280.69
631.42	265.69
631.627	265.69
631.833	268.69
632.039	269.69
632.245	271.69
632.451	285.69
632.657	263.69
632.863	276.69
633.069	268.69
633.275	263.69
633.481	274.69
633.688	251.69
633.893	247.69
634.099	261.69
634.305	253.69
634.511	272.69
634.717	238.69
634.923	237.69
635.129	246.69
635.335	240.69
635.541	245.69
635.747	247.69
635.952	260.69
636.158	273.69
636.364	271.69
636.57	270.69
636.775	263.69
636.981	280.69
637.187	286.69
637.392	273.69
637.598	269.69
637.804	270.69
638.009	268.69
638.215	262.69
638.421	266.69
638.626	251.69
638.832	259.69
639.037	248.69
639.243	267.69
639.448	247.69
639.654	256.69
639.859	259.69
640.065	263.69
640.27	276.69
640.475	245.69
640.681	251.69
640.886	245.69
641.091	265.69
641.297	259.69
641.502	242.69
641.707	259.69
641.913	276.69
642.118	263.69
642.323	270.69
642.528	257.69
642.733	264.69
642.939	254.69
643.144	240.69
643.349	255.69
643.554	260.69
643.759	240.69
643.964	243.69
644.169	252.69
644.374	236.69
644.579	240.69
644.784	253.69
644.989	241.69
645.194	249.69
645.399	253.69
645.604	240.69
645.809	245.69
646.014	253.69
646.219	261.69
646.423	266.69
646.628	252.69
646.833	249.69
647.038	259.69
647.243	264.69
647.447	254.69
647.652	241.69
647.857	253.69
648.062	257.69
648.266	243.69
648.471	230.69
648.676	252.69
648.88	243.69
649.085	251.69
649.289	265.69
649.494	227.69
649.698	255.69
649.903	247.69
650.107	229.69
650.312	252.69
650.516	226.69
650.721	219.69
650.925	248.69
651.13	227.69
651.334	237.69
651.539	228.69
651.743	234.69
651.947	205.69
652.152	235.69
652.356	223.69
652.56	225.69
652.764	208.69
652.969	211.69
653.173	208.69
653.377	213.69
653.581	219.69
653.785	215.69
653.99	229.69
654.194	213.69
654.398	209.69
654.602	197.69
654.806	212.69
655.01	216.69
655.214	203.69
655.418	207.69
655.622	217.69
655.826	215.69
656.03	215.69
656.234	229.69
656.438	230.69
656.642	236.69
656.846	238.69
657.049	187.69
657.253	203.69
657.457	164.69
657.661	195.69
657.865	188.69
658.068	164.69
658.272	149.69
658.476	154.69
658.68	152.69
658.883	137.69
659.087	156.69
659.291	149.69
659.494	145.69
659.698	154.69
659.901	142.69
660.105	127.69
660.309	147.69
660.512	131.69
660.716	129.69
660.919	123.69
661.123	122.69
661.326	118.69
661.53	106.69
661.733	124.69
661.936	103.69
662.14	112.69
662.343	106.69
662.546	99.69
662.75	116.69
662.953	107.69
663.156	100.69
663.36	87.69
663.563	123.69
663.766	98.69
663.969	91.69
664.173	91.69
664.376	78.69
664.579	105.69
664.782	87.69
664.985	84.69
665.188	99.69
665.391	91.69
665.594	95.69
665.797	88.69
666	88.69
666.203	74.69
666.406	87.69
666.609	80.69
666.812	87.69
667.015	87.69
667.218	78.69
667.421	98.69
667.624	79.69
667.827	91.69
668.03	76.69
668.232	83.69
668.435	86.69
668.638	95.69
668.841	82.69
669.043	89.69
669.246	89.69
669.449	70.69
669.651	89.69
669.854	85.69
670.057	92.69
670.259	87.69
670.462	94.69
670.665	81.69
670.867	84.69
671.07	91.69
671.272	88.69
671.475	81.69
671.677	88.69
671.88	81.69
672.082	80.69
672.284	78.69
672.487	84.69
672.689	83.69
672.892	96.69
