Data from WStandard_LampEnergy5.5LIBS07252019.E.O._I.C._HRD10591_16-08-22-920.txt Node
Date: Thu Jul 25 16:08:22 EDT 2019
User: cochatt
Spectrometer: HR+D1059
Trigger mode: 1
Integration Time (sec): 1.000000E-1
Scans to average: 1
Electric dark correction enabled: true
Nonlinearity correction enabled: false
Boxcar width: 0
XAxis mode: Wavelengths
Number of Pixels in Spectrum: 2048
>>>>>Begin Spectral Data<<<<<
223.165	-14.38
223.4	-14.38
223.635	-14.38
223.869	-26.38
224.104	-25.38
224.338	8.62
224.573	-3.38
224.808	-15.38
225.042	3.62
225.277	-11.38
225.511	-0.38
225.746	10.62
225.98	9.62
226.215	5.62
226.449	8.62
226.683	15.62
226.918	12.62
227.152	21.62
227.387	31.62
227.621	37.62
227.856	38.62
228.09	50.62
228.324	37.62
228.559	51.62
228.793	127.62
229.027	368.62
229.262	368.62
229.496	392.62
229.73	383.62
229.964	438.62
230.199	434.62
230.433	450.62
230.667	481.62
230.901	514.62
231.136	466.62
231.37	458.62
231.604	438.62
231.838	450.62
232.072	475.62
232.306	424.62
232.541	449.62
232.775	551.62
233.009	610.62
233.243	580.62
233.477	521.62
233.711	510.62
233.945	562.62
234.179	564.62
234.413	563.62
234.647	616.62
234.881	589.62
235.115	551.62
235.349	554.62
235.583	558.62
235.817	565.62
236.051	539.62
236.285	570.62
236.519	574.62
236.753	675.62
236.987	697.62
237.221	635.62
237.455	710.62
237.689	715.62
237.922	664.62
238.156	656.62
238.39	666.62
238.624	710.62
238.858	724.62
239.091	746.62
239.325	758.62
239.559	877.62
239.793	930.62
240.027	1062.62
240.26	1019.62
240.494	749.62
240.728	703.62
240.961	720.62
241.195	713.62
241.429	806.62
241.662	822.62
241.896	729.62
242.13	762.62
242.363	848.62
242.597	892.62
242.83	864.62
243.064	870.62
243.298	937.62
243.531	908.62
243.765	937.62
243.998	910.62
244.232	788.62
244.465	742.62
244.699	797.62
244.932	888.62
245.166	1047.62
245.399	977.62
245.633	892.62
245.866	875.62
246.099	945.62
246.333	910.62
246.566	938.62
246.8	1040.62
247.033	1157.62
247.266	1078.62
247.5	1032.62
247.733	1041.62
247.966	1092.62
248.2	1228.62
248.433	1162.62
248.666	1215.62
248.899	1333.62
249.133	1494.62
249.366	1708.62
249.599	1414.62
249.832	1245.62
250.066	1258.62
250.299	1279.62
250.532	1188.62
250.765	1059.62
250.998	1141.62
251.231	1196.62
251.465	1213.62
251.698	1141.62
251.931	1176.62
252.164	1201.62
252.397	1239.62
252.63	1249.62
252.863	1063.62
253.096	1060.62
253.329	1102.62
253.562	1125.62
253.795	1226.62
254.028	1206.62
254.261	1158.62
254.494	1147.62
254.727	1083.62
254.96	1103.62
255.193	1238.62
255.426	1412.62
255.659	1590.62
255.892	1682.62
256.124	1353.62
256.357	1324.62
256.59	1413.62
256.823	1366.62
257.056	1386.62
257.289	1689.62
257.521	1856.62
257.754	1690.62
257.987	1532.62
258.22	1704.62
258.452	1694.62
258.685	1406.62
258.918	1365.62
259.151	1368.62
259.383	1293.62
259.616	1162.62
259.849	1225.62
260.081	1394.62
260.314	1542.62
260.547	1674.62
260.779	1693.62
261.012	1569.62
261.244	1394.62
261.477	1328.62
261.71	1395.62
261.942	1421.62
262.175	1324.62
262.407	1464.62
262.64	1374.62
262.872	1288.62
263.105	1229.62
263.337	1276.62
263.57	1286.62
263.802	1309.62
264.035	1208.62
264.267	1128.62
264.499	1109.62
264.732	1224.62
264.964	1265.62
265.197	1332.62
265.429	1364.62
265.661	1489.62
265.894	1713.62
266.126	1789.62
266.358	1576.62
266.591	1629.62
266.823	1785.62
267.055	1612.62
267.287	1536.62
267.52	1562.62
267.752	1519.62
267.984	1559.62
268.216	1600.62
268.448	1646.62
268.681	1631.62
268.913	1497.62
269.145	1400.62
269.377	1368.62
269.609	1464.62
269.841	1710.62
270.073	1981.62
270.306	2236.62
270.538	2418.62
270.77	2016.62
271.002	1701.62
271.234	1632.62
271.466	1612.62
271.698	1809.62
271.93	2122.62
272.162	2165.62
272.394	1970.62
272.626	1883.62
272.858	1688.62
273.09	1452.62
273.322	1425.62
273.553	1347.62
273.785	1391.62
274.017	1414.62
274.249	1546.62
274.481	1560.62
274.713	1420.62
274.945	1383.62
275.176	1410.62
275.408	1354.62
275.64	1373.62
275.872	1330.62
276.104	1424.62
276.335	1569.62
276.567	1863.62
276.799	1896.62
277.031	1682.62
277.262	1553.62
277.494	1607.62
277.726	1831.62
277.957	1878.62
278.189	1657.62
278.421	1500.62
278.652	1452.62
278.884	1460.62
279.115	1436.62
279.347	1488.62
279.579	1458.62
279.81	1436.62
280.042	1588.62
280.273	1752.62
280.505	1766.62
280.736	1773.62
280.968	1720.62
281.199	1473.62
281.431	1393.62
281.662	1424.62
281.894	1413.62
282.125	1486.62
282.356	1505.62
282.588	1532.62
282.819	1506.62
283.051	1630.62
283.282	1749.62
283.513	1745.62
283.745	1465.62
283.976	1379.62
284.207	1381.62
284.439	1434.62
284.67	1495.62
284.901	1494.62
285.132	1522.62
285.364	1521.62
285.595	1517.62
285.826	1456.62
286.057	1427.62
286.288	1449.62
286.52	1519.62
286.751	1644.62
286.982	1721.62
287.213	1613.62
287.444	1453.62
287.675	1421.62
287.906	1476.62
288.138	1610.62
288.369	1567.62
288.6	1501.62
288.831	1432.62
289.062	1462.62
289.293	1489.62
289.524	1512.62
289.755	1516.62
289.986	1566.62
290.217	1422.62
290.448	1446.62
290.679	1474.62
290.91	1504.62
291.141	1540.62
291.371	1602.62
291.602	1555.62
291.833	1550.62
292.064	1650.62
292.295	1600.62
292.526	1627.62
292.757	1678.62
292.987	1614.62
293.218	1520.62
293.449	1622.62
293.68	1852.62
293.91	2038.62
294.141	1852.62
294.372	1743.62
294.603	1796.62
294.833	1914.62
295.064	1770.62
295.295	1602.62
295.525	1558.62
295.756	1482.62
295.987	1438.62
296.217	1456.62
296.448	1463.62
296.679	1499.62
296.909	1478.62
297.14	1461.62
297.37	1459.62
297.601	1568.62
297.831	1699.62
298.062	1703.62
298.292	1538.62
298.523	1477.62
298.753	1490.62
298.984	1503.62
299.214	1500.62
299.445	1563.62
299.675	1592.62
299.905	1602.62
300.136	1543.62
300.366	1511.62
300.597	1445.62
300.827	1439.62
301.057	1542.62
301.288	1605.62
301.518	1576.62
301.748	1617.62
301.979	1681.62
302.209	1721.62
302.439	1822.62
302.669	1938.62
302.9	1790.62
303.13	1597.62
303.36	1620.62
303.59	1636.62
303.82	1629.62
304.051	1618.62
304.281	1566.62
304.511	1599.62
304.741	1672.62
304.971	1889.62
305.201	2016.62
305.431	1905.62
305.661	1566.62
305.891	1411.62
306.121	1437.62
306.352	1447.62
306.582	1542.62
306.812	1662.62
307.042	1814.62
307.272	1759.62
307.502	1796.62
307.731	1937.62
307.961	2133.62
308.191	1951.62
308.421	1664.62
308.651	1566.62
308.881	1511.62
309.111	1570.62
309.341	1501.62
309.571	1544.62
309.8	1504.62
310.03	1515.62
310.26	1538.62
310.49	1549.62
310.72	1577.62
310.949	1623.62
311.179	1666.62
311.409	1639.62
311.639	1615.62
311.868	1527.62
312.098	1576.62
312.328	1561.62
312.557	1580.62
312.787	1606.62
313.017	1623.62
313.246	1640.62
313.476	1606.62
313.706	1671.62
313.935	1674.62
314.165	1640.62
314.394	1722.62
314.624	1807.62
314.853	1887.62
315.083	1943.62
315.312	1994.62
315.542	1931.62
315.771	1666.62
316.001	1657.62
316.23	1751.62
316.46	1782.62
316.689	1748.62
316.919	1615.62
317.148	1560.62
317.377	1606.62
317.607	1753.62
317.836	1918.62
318.065	1998.62
318.295	1899.62
318.524	1800.62
318.753	1796.62
318.983	1768.62
319.212	1667.62
319.441	1663.62
319.67	1649.62
319.9	1700.62
320.129	1789.62
320.358	1881.62
320.587	1892.62
320.816	1893.62
321.046	1845.62
321.275	1726.62
321.504	1733.62
321.733	1895.62
321.962	1853.62
322.191	1706.62
322.42	1727.62
322.649	1729.62
322.878	1685.62
323.108	1694.62
323.337	1760.62
323.566	1735.62
323.795	1752.62
324.024	1729.62
324.253	1701.62
324.482	1752.62
324.71	1695.62
324.939	1576.62
325.168	1606.62
325.397	1657.62
325.626	1764.62
325.855	1735.62
326.084	1703.62
326.313	1668.62
326.542	1724.62
326.77	1770.62
326.999	1764.62
327.228	1676.62
327.457	1628.62
327.686	1584.62
327.914	1664.62
328.143	1717.62
328.372	1691.62
328.6	1689.62
328.829	1639.62
329.058	1680.62
329.287	1650.62
329.515	1675.62
329.744	1727.62
329.972	1785.62
330.201	1891.62
330.43	1842.62
330.658	1784.62
330.887	1827.62
331.115	1809.62
331.344	1820.62
331.572	1763.62
331.801	1784.62
332.03	1770.62
332.258	1794.62
332.486	1810.62
332.715	1807.62
332.943	1838.62
333.172	1776.62
333.4	1828.62
333.629	1852.62
333.857	1968.62
334.085	2120.62
334.314	2439.62
334.542	2700.62
334.771	2459.62
334.999	2175.62
335.227	2043.62
335.455	1945.62
335.684	1920.62
335.912	1917.62
336.14	2044.62
336.369	1939.62
336.597	1849.62
336.825	1810.62
337.053	1838.62
337.281	1952.62
337.51	2078.62
337.738	2142.62
337.966	2063.62
338.194	1820.62
338.422	1773.62
338.65	1760.62
338.878	1714.62
339.106	1721.62
339.334	1703.62
339.562	1674.62
339.79	1726.62
340.018	1802.62
340.246	1877.62
340.474	1904.62
340.702	1848.62
340.93	1871.62
341.158	1842.62
341.386	1750.62
341.614	1777.62
341.842	1778.62
342.07	1772.62
342.298	1804.62
342.526	1795.62
342.754	1753.62
342.981	1741.62
343.209	1768.62
343.437	1758.62
343.665	1758.62
343.893	1855.62
344.12	1870.62
344.348	1929.62
344.576	1808.62
344.804	1754.62
345.031	1756.62
345.259	1774.62
345.487	1698.62
345.714	1648.62
345.942	1632.62
346.17	1633.62
346.397	1699.62
346.625	1722.62
346.853	1593.62
347.08	1586.62
347.308	1597.62
347.535	1631.62
347.763	1711.62
347.99	1667.62
348.218	1596.62
348.445	1624.62
348.673	1620.62
348.9	1678.62
349.128	1717.62
349.355	1811.62
349.583	1779.62
349.81	1698.62
350.037	1541.62
350.265	1584.62
350.492	1584.62
350.72	1586.62
350.947	1650.62
351.174	1675.62
351.402	1615.62
351.629	1573.62
351.856	1546.62
352.083	1522.62
352.311	1541.62
352.538	1586.62
352.765	1670.62
352.992	1694.62
353.22	1676.62
353.447	1558.62
353.674	1626.62
353.901	1586.62
354.128	1582.62
354.355	1589.62
354.583	1663.62
354.81	1698.62
355.037	1667.62
355.264	1669.62
355.491	1648.62
355.718	1644.62
355.945	1606.62
356.172	1606.62
356.399	1568.62
356.626	1554.62
356.853	1637.62
357.08	1746.62
357.307	1920.62
357.534	1949.62
357.761	1711.62
357.988	1594.62
358.215	1565.62
358.441	1572.62
358.668	1584.62
358.895	1589.62
359.122	1627.62
359.349	1834.62
359.576	1830.62
359.802	1687.62
360.029	1571.62
360.256	1561.62
360.483	1546.62
360.709	1629.62
360.936	1692.62
361.163	1730.62
361.39	1901.62
361.616	2035.62
361.843	1970.62
362.07	1895.62
362.296	1661.62
362.523	1606.62
362.749	1623.62
362.976	1608.62
363.203	1693.62
363.429	1655.62
363.656	1552.62
363.882	1629.62
364.109	1756.62
364.335	1940.62
364.562	1816.62
364.788	1697.62
365.015	1638.62
365.241	1586.62
365.468	1655.62
365.694	1673.62
365.92	1757.62
366.147	1656.62
366.373	1600.62
366.599	1556.62
366.826	1564.62
367.052	1573.62
367.278	1598.62
367.505	1649.62
367.731	1665.62
367.957	1635.62
368.184	1666.62
368.41	1828.62
368.636	1829.62
368.862	1802.62
369.089	1878.62
369.315	1797.62
369.541	1699.62
369.767	1670.62
369.993	1577.62
370.219	1600.62
370.445	1621.62
370.672	1738.62
370.898	1825.62
371.124	1825.62
371.35	1714.62
371.576	1740.62
371.802	1816.62
372.028	1721.62
372.254	1677.62
372.48	1629.62
372.706	1637.62
372.932	1660.62
373.158	1616.62
373.384	1633.62
373.61	1696.62
373.835	1802.62
374.061	1728.62
374.287	1704.62
374.513	1664.62
374.739	1753.62
374.965	1749.62
375.191	1751.62
375.416	1752.62
375.642	1723.62
375.868	1854.62
376.094	1908.62
376.319	1823.62
376.545	1719.62
376.771	1746.62
376.997	1842.62
377.222	1816.62
377.448	1732.62
377.674	1756.62
377.899	1755.62
378.125	1878.62
378.35	1883.62
378.576	1705.62
378.802	1639.62
379.027	1634.62
379.253	1658.62
379.478	1691.62
379.704	1710.62
379.929	1689.62
380.155	1693.62
380.38	1724.62
380.606	1717.62
380.831	1728.62
381.057	1762.62
381.282	1789.62
381.507	1765.62
381.733	1868.62
381.958	1949.62
382.184	1820.62
382.409	1740.62
382.634	1749.62
382.86	1761.62
383.085	1799.62
383.31	1817.62
383.535	1926.62
383.761	2075.62
383.986	2009.62
384.211	1930.62
384.436	1914.62
384.662	1998.62
384.887	2077.62
385.112	1968.62
385.337	1966.62
385.562	1922.62
385.787	1930.62
386.013	2016.62
386.238	1978.62
386.463	1977.62
386.688	2079.62
386.913	2176.62
387.138	2184.62
387.363	1992.62
387.588	1987.62
387.813	1958.62
388.038	1997.62
388.263	2127.62
388.488	1996.62
388.713	1881.62
388.938	1895.62
389.163	1888.62
389.387	1901.62
389.612	1920.62
389.837	1954.62
390.062	1982.62
390.287	1986.62
390.512	1956.62
390.736	1940.62
390.961	1891.62
391.186	1853.62
391.411	1884.62
391.636	1932.62
391.86	1961.62
392.085	1959.62
392.31	1940.62
392.534	1944.62
392.759	1985.62
392.984	1912.62
393.208	1969.62
393.433	1978.62
393.658	2078.62
393.882	2096.62
394.107	1976.62
394.331	1966.62
394.556	1914.62
394.78	1958.62
395.005	2015.62
395.229	2098.62
395.454	2252.62
395.678	2275.62
395.903	2156.62
396.127	2068.62
396.352	2084.62
396.576	2092.62
396.801	2145.62
397.025	2104.62
397.249	2085.62
397.474	2049.62
397.698	2069.62
397.922	2149.62
398.147	2241.62
398.371	2326.62
398.595	2330.62
398.82	2210.62
399.044	2250.62
399.268	2314.62
399.492	2501.62
399.717	2593.62
399.941	2638.62
400.165	2560.62
400.389	2507.62
400.613	2442.62
400.837	2690.62
401.062	3086.62
401.286	2664.62
401.51	2467.62
401.734	2543.62
401.958	2476.62
402.182	2274.62
402.406	2209.62
402.63	2205.62
402.854	2178.62
403.078	2246.62
403.302	2247.62
403.526	2334.62
403.75	2295.62
403.974	2349.62
404.198	2309.62
404.422	2396.62
404.645	2465.62
404.869	2520.62
405.093	2276.62
405.317	2225.62
405.541	2296.62
405.765	2284.62
405.988	2322.62
406.212	2388.62
406.436	2418.62
406.66	2430.62
406.883	2515.62
407.107	2818.62
407.331	2996.62
407.555	3254.62
407.778	2980.62
408.002	2531.62
408.226	2430.62
408.449	2407.62
408.673	2312.62
408.896	2370.62
409.12	2440.62
409.344	2387.62
409.567	2281.62
409.791	2336.62
410.014	2345.62
410.238	2457.62
410.461	2570.62
410.685	2335.62
410.908	2264.62
411.132	2300.62
411.355	2294.62
411.578	2248.62
411.802	2267.62
412.025	2335.62
412.249	2232.62
412.472	2212.62
412.695	2169.62
412.919	2206.62
413.142	2175.62
413.365	2199.62
413.589	2252.62
413.812	2352.62
414.035	2470.62
414.258	2224.62
414.482	2165.62
414.705	2266.62
414.928	2160.62
415.151	2168.62
415.374	2186.62
415.597	2224.62
415.821	2236.62
416.044	2338.62
416.267	2375.62
416.49	2132.62
416.713	2086.62
416.936	2172.62
417.159	2268.62
417.382	2340.62
417.605	2165.62
417.828	2167.62
418.051	2280.62
418.274	2212.62
418.497	2103.62
418.72	2107.62
418.943	2102.62
419.166	2242.62
419.389	2366.62
419.611	2253.62
419.834	2159.62
420.057	2166.62
420.28	2121.62
420.503	2094.62
420.726	2204.62
420.948	2187.62
421.171	2104.62
421.394	2130.62
421.617	2165.62
421.839	2189.62
422.062	2128.62
422.285	2085.62
422.507	2085.62
422.73	2078.62
422.953	2045.62
423.175	2002.62
423.398	2104.62
423.621	2094.62
423.843	2134.62
424.066	2176.62
424.288	2223.62
424.511	2269.62
424.733	2223.62
424.956	2032.62
425.178	2000.62
425.401	2068.62
425.623	2066.62
425.846	2016.62
426.068	2132.62
426.291	2180.62
426.513	2165.62
426.735	2158.62
426.958	2250.62
427.18	2429.62
427.402	2248.62
427.625	2302.62
427.847	2338.62
428.069	2182.62
428.292	2088.62
428.514	2041.62
428.736	2031.62
428.958	2056.62
429.181	2081.62
429.403	2265.62
429.625	2943.62
429.847	2529.62
430.069	2121.62
430.292	2292.62
430.514	2389.62
430.736	2215.62
430.958	2324.62
431.18	2236.62
431.402	2061.62
431.624	2018.62
431.846	2008.62
432.068	2009.62
432.29	2061.62
432.512	2096.62
432.734	2084.62
432.956	2194.62
433.178	2220.62
433.4	2246.62
433.622	2202.62
433.844	2104.62
434.066	2020.62
434.287	2059.62
434.509	2142.62
434.731	2217.62
434.953	2418.62
435.175	2300.62
435.397	2128.62
435.618	2201.62
435.84	2199.62
436.062	2166.62
436.284	2149.62
436.505	2174.62
436.727	2168.62
436.949	2095.62
437.17	2110.62
437.392	2076.62
437.614	2083.62
437.835	2054.62
438.057	2149.62
438.278	2270.62
438.5	2080.62
438.721	2073.62
438.943	2107.62
439.165	2076.62
439.386	1980.62
439.608	2055.62
439.829	2040.62
440.05	2094.62
440.272	2033.62
440.493	2016.62
440.715	2057.62
440.936	2148.62
441.158	2355.62
441.379	2355.62
441.6	2246.62
441.822	2198.62
442.043	2235.62
442.264	2173.62
442.486	2008.62
442.707	2015.62
442.928	2054.62
443.149	2126.62
443.371	2223.62
443.592	2339.62
443.813	2241.62
444.034	2240.62
444.255	2213.62
444.476	2298.62
444.698	2349.62
444.919	2313.62
445.14	2378.62
445.361	2395.62
445.582	2464.62
445.803	2357.62
446.024	2272.62
446.245	2343.62
446.466	2239.62
446.687	2141.62
446.908	2137.62
447.129	2100.62
447.35	2157.62
447.571	2135.62
447.792	2029.62
448.013	1973.62
448.234	2028.62
448.455	2153.62
448.675	2178.62
448.896	1990.62
449.117	1989.62
449.338	2056.62
449.559	2110.62
449.779	2202.62
450	2457.62
450.221	2604.62
450.442	2500.62
450.662	2222.62
450.883	1969.62
451.104	1926.62
451.324	1995.62
451.545	2052.62
451.766	2000.62
451.986	1914.62
452.207	1895.62
452.428	1820.62
452.648	1839.62
452.869	1857.62
453.089	1990.62
453.31	2024.62
453.53	2066.62
453.751	2016.62
453.971	1860.62
454.192	1907.62
454.412	2014.62
454.633	1976.62
454.853	1903.62
455.073	1803.62
455.294	1786.62
455.514	1790.62
455.734	1829.62
455.955	1871.62
456.175	1858.62
456.395	1803.62
456.616	1912.62
456.836	1925.62
457.056	1867.62
457.276	1864.62
457.497	1830.62
457.717	1762.62
457.937	1809.62
458.157	1849.62
458.377	1831.62
458.598	1852.62
458.818	1865.62
459.038	1984.62
459.258	2055.62
459.478	2062.62
459.698	2023.62
459.918	2013.62
460.138	2176.62
460.358	2201.62
460.578	2199.62
460.798	2297.62
461.018	2379.62
461.238	2318.62
461.458	2210.62
461.678	2241.62
461.898	2173.62
462.118	2106.62
462.338	2206.62
462.558	2174.62
462.777	2185.62
462.997	2276.62
463.217	2462.62
463.437	2431.62
463.657	2282.62
463.876	2212.62
464.096	2169.62
464.316	2184.62
464.536	2334.62
464.755	2340.62
464.975	2297.62
465.195	2222.62
465.414	2326.62
465.634	2370.62
465.854	2177.62
466.073	2321.62
466.293	2300.62
466.512	2036.62
466.732	2038.62
466.951	2107.62
467.171	2102.62
467.391	2017.62
467.61	1966.62
467.829	1971.62
468.049	2102.62
468.268	2359.62
468.488	2245.62
468.707	2120.62
468.927	2060.62
469.146	2036.62
469.365	1956.62
469.585	1961.62
469.804	1997.62
470.023	1961.62
470.243	2044.62
470.462	2048.62
470.681	1961.62
470.901	2029.62
471.12	2007.62
471.339	1992.62
471.558	1918.62
471.777	1893.62
471.997	1975.62
472.216	1976.62
472.435	1932.62
472.654	1924.62
472.873	2015.62
473.092	2174.62
473.311	2012.62
473.53	1932.62
473.749	1900.62
473.968	2041.62
474.187	2115.62
474.406	2211.62
474.625	2060.62
474.844	2054.62
475.063	2023.62
475.282	2058.62
475.501	2048.62
475.72	1994.62
475.939	2138.62
476.158	2105.62
476.377	2037.62
476.596	2045.62
476.814	2084.62
477.033	2100.62
477.252	2209.62
477.471	2211.62
477.69	2132.62
477.908	2162.62
478.127	2231.62
478.346	2418.62
478.564	2421.62
478.783	2359.62
479.002	2448.62
479.22	2438.62
479.439	2531.62
479.658	2818.62
479.876	2878.62
480.095	2468.62
480.313	2342.62
480.532	2215.62
480.751	2245.62
480.969	2335.62
481.188	2261.62
481.406	2246.62
481.624	2174.62
481.843	2251.62
482.061	2261.62
482.28	2323.62
482.498	2369.62
482.717	2284.62
482.935	2236.62
483.153	2258.62
483.372	2221.62
483.59	2236.62
483.808	2227.62
484.027	2295.62
484.245	2392.62
484.463	2818.62
484.681	3214.62
484.9	2511.62
485.118	2287.62
485.336	2274.62
485.554	2338.62
485.772	2476.62
485.99	2437.62
486.209	2469.62
486.427	2448.62
486.645	2403.62
486.863	2411.62
487.081	2416.62
487.299	2512.62
487.517	2431.62
487.735	2344.62
487.953	2300.62
488.171	2310.62
488.389	2260.62
488.607	2358.62
488.825	2567.62
489.043	2664.62
489.261	2290.62
489.479	2458.62
489.696	2509.62
489.914	2508.62
490.132	2439.62
490.35	2343.62
490.568	2454.62
490.786	2365.62
491.003	2288.62
491.221	2320.62
491.439	2430.62
491.657	2422.62
491.874	2406.62
492.092	2425.62
492.31	2439.62
492.527	2362.62
492.745	2416.62
492.963	2365.62
493.18	2476.62
493.398	2660.62
493.615	2713.62
493.833	2515.62
494.05	2434.62
494.268	2444.62
494.485	2524.62
494.703	2504.62
494.92	2425.62
495.138	2439.62
495.355	2415.62
495.573	2466.62
495.79	2714.62
496.008	2752.62
496.225	2542.62
496.442	2530.62
496.66	2585.62
496.877	2518.62
497.094	2655.62
497.312	2709.62
497.529	2614.62
497.746	2754.62
497.963	3165.62
498.181	3569.62
498.398	3276.62
498.615	3207.62
498.832	3138.62
499.049	3106.62
499.267	3146.62
499.484	3360.62
499.701	3561.62
499.918	3557.62
500.135	3860.62
500.352	4178.62
500.569	4120.62
500.786	4317.62
501.003	4073.62
501.22	3709.62
501.437	3607.62
501.654	3586.62
501.871	3532.62
502.088	3126.62
502.305	3095.62
502.522	2995.62
502.739	2758.62
502.956	2700.62
503.172	2668.62
503.389	2647.62
503.606	2590.62
503.823	2601.62
504.04	2597.62
504.256	2598.62
504.473	2605.62
504.69	2689.62
504.907	2540.62
505.123	2434.62
505.34	2559.62
505.557	3248.62
505.773	2766.62
505.99	2375.62
506.207	2215.62
506.423	2180.62
506.64	2193.62
506.856	2223.62
507.073	2474.62
507.289	2666.62
507.506	2552.62
507.722	2227.62
507.939	2109.62
508.155	2149.62
508.372	2239.62
508.588	2078.62
508.805	2064.62
509.021	2059.62
509.238	2033.62
509.454	1981.62
509.67	2060.62
509.887	2011.62
510.103	1986.62
510.319	2005.62
510.536	2143.62
510.752	2218.62
510.968	2160.62
511.184	2304.62
511.401	2313.62
511.617	2024.62
511.833	1927.62
512.049	1946.62
512.265	1925.62
512.481	1931.62
512.698	1965.62
512.914	2157.62
513.13	2093.62
513.346	1925.62
513.562	1886.62
513.778	1991.62
513.994	2019.62
514.21	2121.62
514.426	2125.62
514.642	2390.62
514.858	2209.62
515.074	2053.62
515.29	1987.62
515.506	2055.62
515.721	2073.62
515.937	2100.62
516.153	2356.62
516.369	2249.62
516.585	2142.62
516.801	2084.62
517.016	2042.62
517.232	2103.62
517.448	2143.62
517.664	2179.62
517.879	2158.62
518.095	2299.62
518.311	2195.62
518.527	2030.62
518.742	2056.62
518.958	1972.62
519.173	1942.62
519.389	2000.62
519.605	2083.62
519.82	2063.62
520.036	2015.62
520.251	2007.62
520.467	2011.62
520.682	2136.62
520.898	2255.62
521.113	1972.62
521.329	1934.62
521.544	2125.62
521.76	2019.62
521.975	1919.62
522.19	1864.62
522.406	1864.62
522.621	2250.62
522.836	2222.62
523.052	1842.62
523.267	1891.62
523.482	1882.62
523.698	1780.62
523.913	1761.62
524.128	1813.62
524.343	1873.62
524.559	1914.62
524.774	1820.62
524.989	1801.62
525.204	1800.62
525.419	1726.62
525.634	1747.62
525.849	1772.62
526.064	1847.62
526.28	1851.62
526.495	1714.62
526.71	1728.62
526.925	1733.62
527.14	1694.62
527.355	1657.62
527.57	1674.62
527.785	1768.62
527.999	1700.62
528.214	1626.62
528.429	1609.62
528.644	1647.62
528.859	1734.62
529.074	1702.62
529.289	1706.62
529.503	1745.62
529.718	1732.62
529.933	1697.62
530.148	1624.62
530.363	1660.62
530.577	1696.62
530.792	1697.62
531.007	1750.62
531.221	1728.62
531.436	1730.62
531.651	1763.62
531.865	1852.62
532.08	1782.62
532.295	1657.62
532.509	1621.62
532.724	1636.62
532.938	1736.62
533.153	1847.62
533.367	1733.62
533.582	1729.62
533.796	1653.62
534.011	1704.62
534.225	1720.62
534.44	1628.62
534.654	1635.62
534.868	1665.62
535.083	1722.62
535.297	1737.62
535.511	1654.62
535.726	1665.62
535.94	1673.62
536.154	1657.62
536.369	1634.62
536.583	1612.62
536.797	1614.62
537.011	1686.62
537.225	1623.62
537.44	1595.62
537.654	1650.62
537.868	1595.62
538.082	1512.62
538.296	1505.62
538.51	1531.62
538.724	1545.62
538.938	1541.62
539.153	1602.62
539.367	1634.62
539.581	1598.62
539.795	1688.62
540.009	1642.62
540.222	1586.62
540.436	1598.62
540.65	1755.62
540.864	1814.62
541.078	1680.62
541.292	1603.62
541.506	1558.62
541.72	1582.62
541.934	1588.62
542.147	1568.62
542.361	1564.62
542.575	1537.62
542.789	1507.62
543.002	1468.62
543.216	1528.62
543.43	1617.62
543.644	1709.62
543.857	1698.62
544.071	1631.62
544.285	1602.62
544.498	1592.62
544.712	1575.62
544.925	1591.62
545.139	1622.62
545.352	1568.62
545.566	1480.62
545.779	1472.62
545.993	1506.62
546.206	1537.62
546.42	1501.62
546.633	1472.62
546.847	1486.62
547.06	1465.62
547.274	1473.62
547.487	1459.62
547.7	1482.62
547.914	1492.62
548.127	1538.62
548.34	1534.62
548.554	1520.62
548.767	1501.62
548.98	1514.62
549.193	1519.62
549.407	1543.62
549.62	1582.62
549.833	1552.62
550.046	1492.62
550.259	1484.62
550.473	1467.62
550.686	1494.62
550.899	1458.62
551.112	1435.62
551.325	1410.62
551.538	1489.62
551.751	1726.62
551.964	1437.62
552.177	1388.62
552.39	1463.62
552.603	1429.62
552.816	1497.62
553.029	1550.62
553.242	1546.62
553.455	1484.62
553.667	1480.62
553.88	1484.62
554.093	1445.62
554.306	1447.62
554.519	1367.62
554.732	1326.62
554.944	1379.62
555.157	1438.62
555.37	1344.62
555.583	1398.62
555.795	1342.62
556.008	1341.62
556.221	1292.62
556.433	1272.62
556.646	1300.62
556.859	1251.62
557.071	1286.62
557.284	1239.62
557.496	1282.62
557.709	1240.62
557.921	1247.62
558.134	1237.62
558.346	1265.62
558.559	1233.62
558.771	1232.62
558.984	1176.62
559.196	1167.62
559.409	1175.62
559.621	1177.62
559.833	1183.62
560.046	1234.62
560.258	1257.62
560.47	1217.62
560.683	1217.62
560.895	1241.62
561.107	1219.62
561.32	1215.62
561.532	1269.62
561.744	1198.62
561.956	1232.62
562.168	1175.62
562.381	1182.62
562.593	1176.62
562.805	1184.62
563.017	1198.62
563.229	1200.62
563.441	1202.62
563.653	1187.62
563.865	1180.62
564.077	1189.62
564.289	1180.62
564.501	1209.62
564.713	1231.62
564.925	1266.62
565.137	1372.62
565.349	1243.62
565.561	1229.62
565.773	1269.62
565.985	1271.62
566.197	1338.62
566.408	1432.62
566.62	1416.62
566.832	1437.62
567.044	1468.62
567.255	1445.62
567.467	1458.62
567.679	1502.62
567.891	1576.62
568.102	1481.62
568.314	1461.62
568.526	1391.62
568.737	1373.62
568.949	1268.62
569.161	1234.62
569.372	1193.62
569.584	1173.62
569.795	1168.62
570.007	1168.62
570.218	1111.62
570.43	1080.62
570.641	1086.62
570.853	1109.62
571.064	1092.62
571.276	1089.62
571.487	1059.62
571.698	1027.62
571.91	1017.62
572.121	1005.62
572.333	956.62
572.544	994.62
572.755	991.62
572.966	966.62
573.178	965.62
573.389	974.62
573.6	985.62
573.811	1086.62
574.023	969.62
574.234	969.62
574.445	920.62
574.656	904.62
574.867	920.62
575.078	903.62
575.289	898.62
575.501	885.62
575.712	893.62
575.923	906.62
576.134	914.62
576.345	894.62
576.556	871.62
576.767	873.62
576.978	855.62
577.188	869.62
577.399	846.62
577.61	832.62
577.821	842.62
578.032	818.62
578.243	839.62
578.454	820.62
578.665	813.62
578.875	824.62
579.086	809.62
579.297	836.62
579.508	856.62
579.718	834.62
579.929	844.62
580.14	806.62
580.35	825.62
580.561	819.62
580.772	890.62
580.982	827.62
581.193	797.62
581.403	771.62
581.614	800.62
581.825	770.62
582.035	744.62
582.246	778.62
582.456	804.62
582.667	777.62
582.877	790.62
583.087	763.62
583.298	764.62
583.508	779.62
583.719	785.62
583.929	782.62
584.139	777.62
584.35	735.62
584.56	718.62
584.77	765.62
584.981	789.62
585.191	758.62
585.401	800.62
585.611	775.62
585.821	756.62
586.032	729.62
586.242	722.62
586.452	746.62
586.662	751.62
586.872	703.62
587.082	744.62
587.292	744.62
587.502	753.62
587.713	766.62
587.923	749.62
588.133	749.62
588.343	770.62
588.553	742.62
588.762	717.62
588.972	702.62
589.182	758.62
589.392	745.62
589.602	721.62
589.812	761.62
590.022	726.62
590.232	720.62
590.441	750.62
590.651	750.62
590.861	731.62
591.071	725.62
591.281	704.62
591.49	718.62
591.7	711.62
591.91	706.62
592.119	714.62
592.329	710.62
592.539	725.62
592.748	758.62
592.958	746.62
593.167	754.62
593.377	752.62
593.587	778.62
593.796	765.62
594.006	774.62
594.215	777.62
594.424	757.62
594.634	727.62
594.843	733.62
595.053	751.62
595.262	719.62
595.472	713.62
595.681	721.62
595.89	703.62
596.1	695.62
596.309	689.62
596.518	677.62
596.727	682.62
596.937	659.62
597.146	658.62
597.355	642.62
597.564	650.62
597.774	647.62
597.983	651.62
598.192	615.62
598.401	611.62
598.61	612.62
598.819	632.62
599.028	629.62
599.237	632.62
599.446	601.62
599.655	588.62
599.864	597.62
600.073	623.62
600.282	618.62
600.491	592.62
600.7	591.62
600.909	579.62
601.118	615.62
601.327	574.62
601.536	607.62
601.745	594.62
601.953	585.62
602.162	595.62
602.371	591.62
602.58	578.62
602.789	590.62
602.997	576.62
603.206	584.62
603.415	576.62
603.623	575.62
603.832	576.62
604.041	554.62
604.249	553.62
604.458	558.62
604.666	558.62
604.875	535.62
605.084	546.62
605.292	576.62
605.501	571.62
605.709	540.62
605.918	537.62
606.126	565.62
606.334	547.62
606.543	514.62
606.751	551.62
606.96	558.62
607.168	550.62
607.376	530.62
607.585	550.62
607.793	545.62
608.001	527.62
608.21	525.62
608.418	534.62
608.626	541.62
608.834	536.62
609.043	545.62
609.251	538.62
609.459	531.62
609.667	528.62
609.875	517.62
610.083	540.62
610.291	552.62
610.499	548.62
610.707	526.62
610.916	544.62
611.124	519.62
611.332	504.62
611.54	524.62
611.748	499.62
611.955	503.62
612.163	506.62
612.371	483.62
612.579	513.62
612.787	501.62
612.995	523.62
613.203	522.62
613.411	508.62
613.618	496.62
613.826	501.62
614.034	524.62
614.242	501.62
614.449	516.62
614.657	502.62
614.865	492.62
615.072	510.62
615.28	489.62
615.488	511.62
615.695	538.62
615.903	543.62
616.111	523.62
616.318	518.62
616.526	504.62
616.733	506.62
616.941	519.62
617.148	506.62
617.356	473.62
617.563	472.62
617.771	484.62
617.978	496.62
618.185	508.62
618.393	489.62
618.6	486.62
618.807	476.62
619.015	501.62
619.222	483.62
619.429	487.62
619.637	456.62
619.844	473.62
620.051	461.62
620.258	458.62
620.466	436.62
620.673	428.62
620.88	449.62
621.087	435.62
621.294	443.62
621.501	422.62
621.708	447.62
621.915	461.62
622.122	457.62
622.329	447.62
622.536	456.62
622.743	460.62
622.95	429.62
623.157	441.62
623.364	461.62
623.571	466.62
623.778	428.62
623.985	442.62
624.192	440.62
624.399	436.62
624.606	429.62
624.812	418.62
625.019	423.62
625.226	418.62
625.433	444.62
625.639	421.62
625.846	422.62
626.053	425.62
626.259	404.62
626.466	396.62
626.673	405.62
626.879	397.62
627.086	389.62
627.293	397.62
627.499	419.62
627.706	402.62
627.912	413.62
628.119	390.62
628.325	420.62
628.532	395.62
628.738	406.62
628.945	412.62
629.151	397.62
629.357	382.62
629.564	424.62
629.77	376.62
629.976	370.62
630.183	398.62
630.389	394.62
630.595	400.62
630.802	387.62
631.008	364.62
631.214	379.62
631.42	365.62
631.627	372.62
631.833	364.62
632.039	349.62
632.245	384.62
632.451	364.62
632.657	380.62
632.863	365.62
633.069	356.62
633.275	350.62
633.481	335.62
633.688	356.62
633.893	342.62
634.099	370.62
634.305	356.62
634.511	350.62
634.717	343.62
634.923	334.62
635.129	340.62
635.335	317.62
635.541	345.62
635.747	364.62
635.952	348.62
636.158	336.62
636.364	353.62
636.57	344.62
636.775	333.62
636.981	323.62
637.187	338.62
637.392	352.62
637.598	328.62
637.804	338.62
638.009	348.62
638.215	346.62
638.421	326.62
638.626	332.62
638.832	337.62
639.037	319.62
639.243	326.62
639.448	305.62
639.654	338.62
639.859	318.62
640.065	318.62
640.27	307.62
640.475	330.62
640.681	318.62
640.886	309.62
641.091	312.62
641.297	314.62
641.502	330.62
641.707	319.62
641.913	335.62
642.118	313.62
642.323	307.62
642.528	310.62
642.733	305.62
642.939	294.62
643.144	312.62
643.349	309.62
643.554	312.62
643.759	309.62
643.964	313.62
644.169	302.62
644.374	307.62
644.579	324.62
644.784	295.62
644.989	319.62
645.194	294.62
645.399	320.62
645.604	308.62
645.809	309.62
646.014	301.62
646.219	307.62
646.423	306.62
646.628	316.62
646.833	322.62
647.038	308.62
647.243	291.62
647.447	306.62
647.652	314.62
647.857	301.62
648.062	295.62
648.266	308.62
648.471	314.62
648.676	315.62
648.88	283.62
649.085	302.62
649.289	324.62
649.494	295.62
649.698	288.62
649.903	302.62
650.107	295.62
650.312	296.62
650.516	266.62
650.721	284.62
650.925	280.62
651.13	281.62
651.334	264.62
651.539	254.62
651.743	267.62
651.947	269.62
652.152	262.62
652.356	273.62
652.56	265.62
652.764	269.62
652.969	260.62
653.173	236.62
653.377	247.62
653.581	246.62
653.785	249.62
653.99	243.62
654.194	244.62
654.398	228.62
654.602	249.62
654.806	221.62
655.01	234.62
655.214	220.62
655.418	240.62
655.622	230.62
655.826	230.62
656.03	260.62
656.234	248.62
656.438	276.62
656.642	246.62
656.846	241.62
657.049	229.62
657.253	221.62
657.457	201.62
657.661	185.62
657.865	179.62
658.068	158.62
658.272	172.62
658.476	162.62
658.68	134.62
658.883	144.62
659.087	125.62
659.291	130.62
659.494	140.62
659.698	122.62
659.901	117.62
660.105	124.62
660.309	109.62
660.512	104.62
660.716	117.62
660.919	108.62
661.123	112.62
661.326	109.62
661.53	112.62
661.733	102.62
661.936	97.62
662.14	105.62
662.343	88.62
662.546	87.62
662.75	74.62
662.953	95.62
663.156	92.62
663.36	81.62
663.563	83.62
663.766	80.62
663.969	84.62
664.173	73.62
664.376	80.62
664.579	91.62
664.782	88.62
664.985	67.62
665.188	93.62
665.391	87.62
665.594	80.62
665.797	96.62
666	78.62
666.203	89.62
666.406	76.62
666.609	89.62
666.812	82.62
667.015	75.62
667.218	68.62
667.421	73.62
667.624	75.62
667.827	86.62
668.03	89.62
668.232	86.62
668.435	78.62
668.638	78.62
668.841	81.62
669.043	71.62
669.246	67.62
669.449	83.62
669.651	82.62
669.854	88.62
670.057	92.62
670.259	83.62
670.462	84.62
670.665	84.62
670.867	86.62
671.07	73.62
671.272	82.62
671.475	85.62
671.677	90.62
671.88	93.62
672.082	82.62
672.284	88.62
672.487	84.62
672.689	89.62
672.892	79.62
