Data from WStandard_LampEnergy5.5LIBS07252019.E.O._I.C._HRD10591_16-07-23-920.txt Node
Date: Thu Jul 25 16:07:23 EDT 2019
User: cochatt
Spectrometer: HR+D1059
Trigger mode: 1
Integration Time (sec): 1.000000E-1
Scans to average: 1
Electric dark correction enabled: true
Nonlinearity correction enabled: false
Boxcar width: 0
XAxis mode: Wavelengths
Number of Pixels in Spectrum: 2048
>>>>>Begin Spectral Data<<<<<
223.165	-18.62
223.4	-18.62
223.635	-18.62
223.869	-14.62
224.104	-22.62
224.338	-15.62
224.573	-32.62
224.808	-19.62
225.042	2.38
225.277	2.38
225.511	6.38
225.746	-4.62
225.98	0.38
226.215	18.38
226.449	7.38
226.683	17.38
226.918	33.38
227.152	40.38
227.387	35.38
227.621	36.38
227.856	38.38
228.09	38.38
228.324	44.38
228.559	59.38
228.793	147.38
229.027	364.38
229.262	363.38
229.496	383.38
229.73	417.38
229.964	453.38
230.199	469.38
230.433	484.38
230.667	514.38
230.901	565.38
231.136	466.38
231.37	458.38
231.604	456.38
231.838	468.38
232.072	465.38
232.306	443.38
232.541	475.38
232.775	537.38
233.009	628.38
233.243	600.38
233.477	539.38
233.711	534.38
233.945	598.38
234.179	575.38
234.413	580.38
234.647	633.38
234.881	594.38
235.115	568.38
235.349	583.38
235.583	582.38
235.817	577.38
236.051	548.38
236.285	559.38
236.519	602.38
236.753	658.38
236.987	713.38
237.221	696.38
237.455	750.38
237.689	741.38
237.922	692.38
238.156	673.38
238.39	671.38
238.624	751.38
238.858	762.38
239.091	796.38
239.325	825.38
239.559	929.38
239.793	942.38
240.027	1079.38
240.26	1071.38
240.494	775.38
240.728	752.38
240.961	742.38
241.195	768.38
241.429	866.38
241.662	834.38
241.896	768.38
242.13	790.38
242.363	888.38
242.597	950.38
242.83	917.38
243.064	907.38
243.298	951.38
243.531	958.38
243.765	948.38
243.998	945.38
244.232	818.38
244.465	816.38
244.699	809.38
244.932	928.38
245.166	1035.38
245.399	992.38
245.633	916.38
245.866	913.38
246.099	973.38
246.333	967.38
246.566	970.38
246.8	1087.38
247.033	1193.38
247.266	1100.38
247.5	1102.38
247.733	1091.38
247.966	1139.38
248.2	1253.38
248.433	1198.38
248.666	1263.38
248.899	1364.38
249.133	1529.38
249.366	1772.38
249.599	1482.38
249.832	1281.38
250.066	1288.38
250.299	1382.38
250.532	1229.38
250.765	1098.38
250.998	1190.38
251.231	1229.38
251.465	1280.38
251.698	1190.38
251.931	1156.38
252.164	1219.38
252.397	1273.38
252.63	1286.38
252.863	1115.38
253.096	1120.38
253.329	1171.38
253.562	1222.38
253.795	1305.38
254.028	1316.38
254.261	1202.38
254.494	1186.38
254.727	1143.38
254.96	1178.38
255.193	1278.38
255.426	1460.38
255.659	1676.38
255.892	1752.38
256.124	1395.38
256.357	1383.38
256.59	1470.38
256.823	1477.38
257.056	1428.38
257.289	1752.38
257.521	1973.38
257.754	1711.38
257.987	1631.38
258.22	1812.38
258.452	1806.38
258.685	1439.38
258.918	1390.38
259.151	1438.38
259.383	1364.38
259.616	1225.38
259.849	1266.38
260.081	1408.38
260.314	1621.38
260.547	1752.38
260.779	1792.38
261.012	1661.38
261.244	1460.38
261.477	1418.38
261.71	1448.38
261.942	1461.38
262.175	1386.38
262.407	1508.38
262.64	1414.38
262.872	1319.38
263.105	1274.38
263.337	1320.38
263.57	1338.38
263.802	1351.38
264.035	1275.38
264.267	1172.38
264.499	1154.38
264.732	1266.38
264.964	1342.38
265.197	1390.38
265.429	1426.38
265.661	1612.38
265.894	1809.38
266.126	1845.38
266.358	1658.38
266.591	1680.38
266.823	1860.38
267.055	1675.38
267.287	1635.38
267.52	1631.38
267.752	1616.38
267.984	1586.38
268.216	1676.38
268.448	1705.38
268.681	1678.38
268.913	1566.38
269.145	1448.38
269.377	1433.38
269.609	1522.38
269.841	1758.38
270.073	2028.38
270.306	2344.38
270.538	2522.38
270.77	2124.38
271.002	1797.38
271.234	1674.38
271.466	1690.38
271.698	1865.38
271.93	2239.38
272.162	2262.38
272.394	2023.38
272.626	1932.38
272.858	1719.38
273.09	1483.38
273.322	1496.38
273.553	1406.38
273.785	1432.38
274.017	1465.38
274.249	1602.38
274.481	1611.38
274.713	1461.38
274.945	1426.38
275.176	1458.38
275.408	1449.38
275.64	1367.38
275.872	1363.38
276.104	1489.38
276.335	1701.38
276.567	1904.38
276.799	1985.38
277.031	1772.38
277.262	1636.38
277.494	1686.38
277.726	1918.38
277.957	1847.38
278.189	1722.38
278.421	1583.38
278.652	1542.38
278.884	1518.38
279.115	1500.38
279.347	1522.38
279.579	1491.38
279.81	1494.38
280.042	1636.38
280.273	1848.38
280.505	1834.38
280.736	1858.38
280.968	1816.38
281.199	1526.38
281.431	1492.38
281.662	1497.38
281.894	1481.38
282.125	1495.38
282.356	1561.38
282.588	1588.38
282.819	1551.38
283.051	1676.38
283.282	1851.38
283.513	1799.38
283.745	1513.38
283.976	1437.38
284.207	1458.38
284.439	1535.38
284.67	1540.38
284.901	1571.38
285.132	1597.38
285.364	1593.38
285.595	1600.38
285.826	1572.38
286.057	1535.38
286.288	1518.38
286.52	1557.38
286.751	1716.38
286.982	1778.38
287.213	1618.38
287.444	1503.38
287.675	1510.38
287.906	1572.38
288.138	1665.38
288.369	1626.38
288.6	1530.38
288.831	1488.38
289.062	1512.38
289.293	1557.38
289.524	1564.38
289.755	1574.38
289.986	1643.38
290.217	1459.38
290.448	1517.38
290.679	1538.38
290.91	1558.38
291.141	1613.38
291.371	1673.38
291.602	1647.38
291.833	1627.38
292.064	1676.38
292.295	1646.38
292.526	1665.38
292.757	1786.38
292.987	1688.38
293.218	1582.38
293.449	1694.38
293.68	1937.38
293.91	2088.38
294.141	1924.38
294.372	1803.38
294.603	1867.38
294.833	1926.38
295.064	1840.38
295.295	1671.38
295.525	1610.38
295.756	1502.38
295.987	1455.38
296.217	1494.38
296.448	1509.38
296.679	1532.38
296.909	1521.38
297.14	1504.38
297.37	1530.38
297.601	1617.38
297.831	1729.38
298.062	1802.38
298.292	1607.38
298.523	1525.38
298.753	1565.38
298.984	1578.38
299.214	1555.38
299.445	1608.38
299.675	1673.38
299.905	1620.38
300.136	1593.38
300.366	1574.38
300.597	1523.38
300.827	1521.38
301.057	1566.38
301.288	1665.38
301.518	1633.38
301.748	1675.38
301.979	1722.38
302.209	1799.38
302.439	1922.38
302.669	2001.38
302.9	1890.38
303.13	1692.38
303.36	1687.38
303.59	1726.38
303.82	1686.38
304.051	1693.38
304.281	1677.38
304.511	1655.38
304.741	1755.38
304.971	1938.38
305.201	2168.38
305.431	1973.38
305.661	1625.38
305.891	1484.38
306.121	1440.38
306.352	1492.38
306.582	1590.38
306.812	1727.38
307.042	1833.38
307.272	1868.38
307.502	1905.38
307.731	2019.38
307.961	2161.38
308.191	2036.38
308.421	1786.38
308.651	1627.38
308.881	1623.38
309.111	1608.38
309.341	1594.38
309.571	1609.38
309.8	1565.38
310.03	1595.38
310.26	1579.38
310.49	1594.38
310.72	1616.38
310.949	1669.38
311.179	1744.38
311.409	1663.38
311.639	1633.38
311.868	1603.38
312.098	1625.38
312.328	1630.38
312.557	1605.38
312.787	1634.38
313.017	1694.38
313.246	1621.38
313.476	1684.38
313.706	1738.38
313.935	1674.38
314.165	1696.38
314.394	1780.38
314.624	1843.38
314.853	1951.38
315.083	2014.38
315.312	2102.38
315.542	1968.38
315.771	1701.38
316.001	1706.38
316.23	1819.38
316.46	1861.38
316.689	1836.38
316.919	1716.38
317.148	1639.38
317.377	1680.38
317.607	1766.38
317.836	1981.38
318.065	2071.38
318.295	2047.38
318.524	1905.38
318.753	1829.38
318.983	1810.38
319.212	1758.38
319.441	1752.38
319.67	1725.38
319.9	1737.38
320.129	1825.38
320.358	1896.38
320.587	1982.38
320.816	1986.38
321.046	1914.38
321.275	1798.38
321.504	1835.38
321.733	1957.38
321.962	1939.38
322.191	1781.38
322.42	1768.38
322.649	1734.38
322.878	1720.38
323.108	1761.38
323.337	1834.38
323.566	1851.38
323.795	1828.38
324.024	1806.38
324.253	1769.38
324.482	1767.38
324.71	1740.38
324.939	1623.38
325.168	1671.38
325.397	1726.38
325.626	1838.38
325.855	1838.38
326.084	1779.38
326.313	1757.38
326.542	1808.38
326.77	1835.38
326.999	1865.38
327.228	1761.38
327.457	1687.38
327.686	1658.38
327.914	1686.38
328.143	1753.38
328.372	1770.38
328.6	1774.38
328.829	1732.38
329.058	1706.38
329.287	1710.38
329.515	1769.38
329.744	1761.38
329.972	1862.38
330.201	1952.38
330.43	1920.38
330.658	1886.38
330.887	1872.38
331.115	1849.38
331.344	1886.38
331.572	1810.38
331.801	1815.38
332.03	1847.38
332.258	1888.38
332.486	1858.38
332.715	1875.38
332.943	1877.38
333.172	1853.38
333.4	1866.38
333.629	1897.38
333.857	2011.38
334.085	2233.38
334.314	2521.38
334.542	2793.38
334.771	2581.38
334.999	2266.38
335.227	2110.38
335.455	2008.38
335.684	1979.38
335.912	2018.38
336.14	2131.38
336.369	2026.38
336.597	1909.38
336.825	1842.38
337.053	1931.38
337.281	2060.38
337.51	2123.38
337.738	2212.38
337.966	2161.38
338.194	1939.38
338.422	1843.38
338.65	1856.38
338.878	1811.38
339.106	1761.38
339.334	1740.38
339.562	1699.38
339.79	1749.38
340.018	1830.38
340.246	1941.38
340.474	1990.38
340.702	1873.38
340.93	1950.38
341.158	1910.38
341.386	1849.38
341.614	1819.38
341.842	1831.38
342.07	1826.38
342.298	1822.38
342.526	1850.38
342.754	1800.38
342.981	1801.38
343.209	1807.38
343.437	1809.38
343.665	1786.38
343.893	1864.38
344.12	1955.38
344.348	1979.38
344.576	1906.38
344.804	1843.38
345.031	1823.38
345.259	1839.38
345.487	1776.38
345.714	1719.38
345.942	1671.38
346.17	1705.38
346.397	1687.38
346.625	1728.38
346.853	1634.38
347.08	1638.38
347.308	1646.38
347.535	1737.38
347.763	1780.38
347.99	1676.38
348.218	1620.38
348.445	1638.38
348.673	1674.38
348.9	1764.38
349.128	1779.38
349.355	1853.38
349.583	1784.38
349.81	1735.38
350.037	1597.38
350.265	1557.38
350.492	1626.38
350.72	1652.38
350.947	1738.38
351.174	1755.38
351.402	1668.38
351.629	1562.38
351.856	1572.38
352.083	1555.38
352.311	1549.38
352.538	1587.38
352.765	1674.38
352.992	1731.38
353.22	1707.38
353.447	1657.38
353.674	1650.38
353.901	1704.38
354.128	1669.38
354.355	1642.38
354.583	1716.38
354.81	1792.38
355.037	1722.38
355.264	1684.38
355.491	1675.38
355.718	1689.38
355.945	1691.38
356.172	1651.38
356.399	1630.38
356.626	1620.38
356.853	1680.38
357.08	1808.38
357.307	1995.38
357.534	2006.38
357.761	1754.38
357.988	1628.38
358.215	1573.38
358.441	1588.38
358.668	1560.38
358.895	1579.38
359.122	1691.38
359.349	1884.38
359.576	1902.38
359.802	1684.38
360.029	1602.38
360.256	1604.38
360.483	1628.38
360.709	1671.38
360.936	1734.38
361.163	1778.38
361.39	1939.38
361.616	2108.38
361.843	2047.38
362.07	1984.38
362.296	1724.38
362.523	1620.38
362.749	1663.38
362.976	1718.38
363.203	1726.38
363.429	1659.38
363.656	1600.38
363.882	1689.38
364.109	1839.38
364.335	2017.38
364.562	1890.38
364.788	1790.38
365.015	1693.38
365.241	1652.38
365.468	1668.38
365.694	1757.38
365.92	1862.38
366.147	1731.38
366.373	1613.38
366.599	1595.38
366.826	1594.38
367.052	1595.38
367.278	1607.38
367.505	1635.38
367.731	1704.38
367.957	1680.38
368.184	1749.38
368.41	1844.38
368.636	1900.38
368.862	1858.38
369.089	1883.38
369.315	1831.38
369.541	1715.38
369.767	1715.38
369.993	1654.38
370.219	1624.38
370.445	1689.38
370.672	1779.38
370.898	1862.38
371.124	1846.38
371.35	1787.38
371.576	1833.38
371.802	1872.38
372.028	1783.38
372.254	1751.38
372.48	1672.38
372.706	1685.38
372.932	1694.38
373.158	1676.38
373.384	1699.38
373.61	1746.38
373.835	1859.38
374.061	1775.38
374.287	1742.38
374.513	1761.38
374.739	1764.38
374.965	1777.38
375.191	1792.38
375.416	1815.38
375.642	1795.38
375.868	1886.38
376.094	1991.38
376.319	1911.38
376.545	1777.38
376.771	1774.38
376.997	1933.38
377.222	1879.38
377.448	1801.38
377.674	1835.38
377.899	1788.38
378.125	1900.38
378.35	1911.38
378.576	1768.38
378.802	1672.38
379.027	1653.38
379.253	1724.38
379.478	1734.38
379.704	1715.38
379.929	1764.38
380.155	1736.38
380.38	1724.38
380.606	1797.38
380.831	1757.38
381.057	1809.38
381.282	1869.38
381.507	1796.38
381.733	1911.38
381.958	2024.38
382.184	1866.38
382.409	1803.38
382.634	1823.38
382.86	1824.38
383.085	1802.38
383.31	1855.38
383.535	2026.38
383.761	2130.38
383.986	2090.38
384.211	1949.38
384.436	1950.38
384.662	2040.38
384.887	2127.38
385.112	2003.38
385.337	2007.38
385.562	1996.38
385.787	1986.38
386.013	2010.38
386.238	2048.38
386.463	2024.38
386.688	2137.38
386.913	2281.38
387.138	2249.38
387.363	2046.38
387.588	2047.38
387.813	2007.38
388.038	2052.38
388.263	2167.38
388.488	2104.38
388.713	1953.38
388.938	1886.38
389.163	1901.38
389.387	1943.38
389.612	1971.38
389.837	2017.38
390.062	2007.38
390.287	2016.38
390.512	1987.38
390.736	1956.38
390.961	1920.38
391.186	1881.38
391.411	1894.38
391.636	1959.38
391.86	2002.38
392.085	1948.38
392.31	2003.38
392.534	1984.38
392.759	2009.38
392.984	1990.38
393.208	2033.38
393.433	2042.38
393.658	2139.38
393.882	2154.38
394.107	1992.38
394.331	1966.38
394.556	1953.38
394.78	2002.38
395.005	2050.38
395.229	2147.38
395.454	2283.38
395.678	2306.38
395.903	2189.38
396.127	2129.38
396.352	2144.38
396.576	2189.38
396.801	2248.38
397.025	2192.38
397.249	2196.38
397.474	2165.38
397.698	2160.38
397.922	2213.38
398.147	2317.38
398.371	2389.38
398.595	2413.38
398.82	2304.38
399.044	2260.38
399.268	2417.38
399.492	2571.38
399.717	2670.38
399.941	2683.38
400.165	2606.38
400.389	2552.38
400.613	2502.38
400.837	2716.38
401.062	3203.38
401.286	2746.38
401.51	2482.38
401.734	2583.38
401.958	2529.38
402.182	2340.38
402.406	2251.38
402.63	2231.38
402.854	2204.38
403.078	2288.38
403.302	2374.38
403.526	2356.38
403.75	2367.38
403.974	2368.38
404.198	2371.38
404.422	2460.38
404.645	2585.38
404.869	2527.38
405.093	2316.38
405.317	2340.38
405.541	2375.38
405.765	2392.38
405.988	2339.38
406.212	2498.38
406.436	2462.38
406.66	2534.38
406.883	2550.38
407.107	2839.38
407.331	3099.38
407.555	3362.38
407.778	3070.38
408.002	2603.38
408.226	2504.38
408.449	2461.38
408.673	2393.38
408.896	2442.38
409.12	2496.38
409.344	2415.38
409.567	2346.38
409.791	2390.38
410.014	2430.38
410.238	2514.38
410.461	2686.38
410.685	2480.38
410.908	2308.38
411.132	2366.38
411.355	2337.38
411.578	2291.38
411.802	2290.38
412.025	2331.38
412.249	2300.38
412.472	2252.38
412.695	2222.38
412.919	2203.38
413.142	2184.38
413.365	2264.38
413.589	2347.38
413.812	2394.38
414.035	2494.38
414.258	2313.38
414.482	2264.38
414.705	2279.38
414.928	2240.38
415.151	2260.38
415.374	2263.38
415.597	2322.38
415.821	2321.38
416.044	2403.38
416.267	2368.38
416.49	2173.38
416.713	2169.38
416.936	2174.38
417.159	2368.38
417.382	2364.38
417.605	2222.38
417.828	2249.38
418.051	2272.38
418.274	2244.38
418.497	2143.38
418.72	2127.38
418.943	2176.38
419.166	2335.38
419.389	2382.38
419.611	2277.38
419.834	2212.38
420.057	2258.38
420.28	2180.38
420.503	2154.38
420.726	2240.38
420.948	2203.38
421.171	2178.38
421.394	2208.38
421.617	2227.38
421.839	2233.38
422.062	2203.38
422.285	2144.38
422.507	2145.38
422.73	2100.38
422.953	2092.38
423.175	2054.38
423.398	2186.38
423.621	2183.38
423.843	2176.38
424.066	2235.38
424.288	2309.38
424.511	2312.38
424.733	2271.38
424.956	2089.38
425.178	2112.38
425.401	2111.38
425.623	2115.38
425.846	2083.38
426.068	2235.38
426.291	2287.38
426.513	2286.38
426.735	2232.38
426.958	2346.38
427.18	2475.38
427.402	2294.38
427.625	2363.38
427.847	2419.38
428.069	2216.38
428.292	2144.38
428.514	2083.38
428.736	2065.38
428.958	2110.38
429.181	2110.38
429.403	2418.38
429.625	3003.38
429.847	2600.38
430.069	2189.38
430.292	2377.38
430.514	2478.38
430.736	2222.38
430.958	2436.38
431.18	2290.38
431.402	2144.38
431.624	2115.38
431.846	2116.38
432.068	2055.38
432.29	2052.38
432.512	2110.38
432.734	2157.38
432.956	2204.38
433.178	2300.38
433.4	2259.38
433.622	2246.38
433.844	2122.38
434.066	2046.38
434.287	2072.38
434.509	2174.38
434.731	2233.38
434.953	2417.38
435.175	2374.38
435.397	2250.38
435.618	2259.38
435.84	2262.38
436.062	2167.38
436.284	2224.38
436.505	2193.38
436.727	2265.38
436.949	2174.38
437.17	2111.38
437.392	2089.38
437.614	2137.38
437.835	2046.38
438.057	2236.38
438.278	2290.38
438.5	2122.38
438.721	2087.38
438.943	2110.38
439.165	2122.38
439.386	2042.38
439.608	2055.38
439.829	2114.38
440.05	2032.38
440.272	2029.38
440.493	2032.38
440.715	2107.38
440.936	2250.38
441.158	2504.38
441.379	2407.38
441.6	2356.38
441.822	2273.38
442.043	2250.38
442.264	2257.38
442.486	2098.38
442.707	2104.38
442.928	2079.38
443.149	2146.38
443.371	2287.38
443.592	2331.38
443.813	2314.38
444.034	2311.38
444.255	2315.38
444.476	2363.38
444.698	2410.38
444.919	2329.38
445.14	2453.38
445.361	2428.38
445.582	2522.38
445.803	2409.38
446.024	2290.38
446.245	2420.38
446.466	2347.38
446.687	2202.38
446.908	2195.38
447.129	2143.38
447.35	2210.38
447.571	2178.38
447.792	2081.38
448.013	2065.38
448.234	2106.38
448.455	2200.38
448.675	2242.38
448.896	2030.38
449.117	2001.38
449.338	2062.38
449.559	2141.38
449.779	2270.38
450	2473.38
450.221	2692.38
450.442	2612.38
450.662	2278.38
450.883	2009.38
451.104	1954.38
451.324	2043.38
451.545	2124.38
451.766	2036.38
451.986	1952.38
452.207	1974.38
452.428	1872.38
452.648	1860.38
452.869	1947.38
453.089	2038.38
453.31	2087.38
453.53	2123.38
453.751	2049.38
453.971	1948.38
454.192	1950.38
454.412	2086.38
454.633	2015.38
454.853	1963.38
455.073	1819.38
455.294	1824.38
455.514	1846.38
455.734	1843.38
455.955	1894.38
456.175	1891.38
456.395	1912.38
456.616	1946.38
456.836	1970.38
457.056	1976.38
457.276	1932.38
457.497	1894.38
457.717	1765.38
457.937	1824.38
458.157	1906.38
458.377	1879.38
458.598	1853.38
458.818	1851.38
459.038	1994.38
459.258	2123.38
459.478	2152.38
459.698	2046.38
459.918	2147.38
460.138	2208.38
460.358	2288.38
460.578	2281.38
460.798	2382.38
461.018	2455.38
461.238	2394.38
461.458	2243.38
461.678	2265.38
461.898	2256.38
462.118	2157.38
462.338	2265.38
462.558	2286.38
462.777	2236.38
462.997	2328.38
463.217	2506.38
463.437	2458.38
463.657	2310.38
463.876	2272.38
464.096	2298.38
464.316	2220.38
464.536	2340.38
464.755	2340.38
464.975	2410.38
465.195	2294.38
465.414	2418.38
465.634	2403.38
465.854	2198.38
466.073	2384.38
466.293	2369.38
466.512	2083.38
466.732	2065.38
466.951	2152.38
467.171	2139.38
467.391	2026.38
467.61	1964.38
467.829	2048.38
468.049	2226.38
468.268	2485.38
468.488	2324.38
468.707	2179.38
468.927	2121.38
469.146	2082.38
469.365	2016.38
469.585	2117.38
469.804	2019.38
470.023	2034.38
470.243	2056.38
470.462	2076.38
470.681	2031.38
470.901	2027.38
471.12	2080.38
471.339	2024.38
471.558	1963.38
471.777	1949.38
471.997	2005.38
472.216	2034.38
472.435	1961.38
472.654	1958.38
472.873	2110.38
473.092	2195.38
473.311	2114.38
473.53	1962.38
473.749	1959.38
473.968	2027.38
474.187	2144.38
474.406	2267.38
474.625	2110.38
474.844	2066.38
475.063	2050.38
475.282	2171.38
475.501	2086.38
475.72	2104.38
475.939	2212.38
476.158	2162.38
476.377	2080.38
476.596	2104.38
476.814	2174.38
477.033	2171.38
477.252	2302.38
477.471	2296.38
477.69	2230.38
477.908	2151.38
478.127	2288.38
478.346	2502.38
478.564	2444.38
478.783	2466.38
479.002	2521.38
479.22	2484.38
479.439	2566.38
479.658	2896.38
479.876	2855.38
480.095	2510.38
480.313	2383.38
480.532	2295.38
480.751	2345.38
480.969	2402.38
481.188	2349.38
481.406	2306.38
481.624	2266.38
481.843	2296.38
482.061	2366.38
482.28	2371.38
482.498	2412.38
482.717	2452.38
482.935	2291.38
483.153	2280.38
483.372	2302.38
483.59	2282.38
483.808	2309.38
484.027	2383.38
484.245	2530.38
484.463	2910.38
484.681	3415.38
484.9	2594.38
485.118	2370.38
485.336	2339.38
485.554	2431.38
485.772	2570.38
485.99	2466.38
486.209	2516.38
486.427	2480.38
486.645	2503.38
486.863	2414.38
487.081	2503.38
487.299	2548.38
487.517	2510.38
487.735	2401.38
487.953	2347.38
488.171	2332.38
488.389	2361.38
488.607	2418.38
488.825	2694.38
489.043	2710.38
489.261	2374.38
489.479	2494.38
489.696	2555.38
489.914	2529.38
490.132	2438.38
490.35	2427.38
490.568	2537.38
490.786	2488.38
491.003	2360.38
491.221	2440.38
491.439	2539.38
491.657	2464.38
491.874	2544.38
492.092	2527.38
492.31	2520.38
492.527	2506.38
492.745	2463.38
492.963	2440.38
493.18	2533.38
493.398	2720.38
493.615	2790.38
493.833	2537.38
494.05	2455.38
494.268	2475.38
494.485	2611.38
494.703	2553.38
494.92	2457.38
495.138	2480.38
495.355	2497.38
495.573	2586.38
495.79	2788.38
496.008	2830.38
496.225	2684.38
496.442	2636.38
496.66	2684.38
496.877	2608.38
497.094	2754.38
497.312	2783.38
497.529	2718.38
497.746	2791.38
497.963	3247.38
498.181	3666.38
498.398	3357.38
498.615	3347.38
498.832	3244.38
499.049	3196.38
499.267	3156.38
499.484	3371.38
499.701	3616.38
499.918	3676.38
500.135	3960.38
500.352	4308.38
500.569	4168.38
500.786	4470.38
501.003	4232.38
501.22	3796.38
501.437	3710.38
501.654	3704.38
501.871	3571.38
502.088	3198.38
502.305	3189.38
502.522	3063.38
502.739	2846.38
502.956	2745.38
503.172	2738.38
503.389	2708.38
503.606	2588.38
503.823	2647.38
504.04	2672.38
504.256	2671.38
504.473	2676.38
504.69	2754.38
504.907	2589.38
505.123	2470.38
505.34	2580.38
505.557	3379.38
505.773	2939.38
505.99	2409.38
506.207	2290.38
506.423	2290.38
506.64	2260.38
506.856	2237.38
507.073	2587.38
507.289	2837.38
507.506	2676.38
507.722	2243.38
507.939	2160.38
508.155	2255.38
508.372	2239.38
508.588	2154.38
508.805	2118.38
509.021	2066.38
509.238	2059.38
509.454	2047.38
509.67	2046.38
509.887	2017.38
510.103	2042.38
510.319	2084.38
510.536	2180.38
510.752	2247.38
510.968	2201.38
511.184	2364.38
511.401	2345.38
511.617	2009.38
511.833	1979.38
512.049	1954.38
512.265	1984.38
512.481	1956.38
512.698	2081.38
512.914	2212.38
513.13	2132.38
513.346	2004.38
513.562	1994.38
513.778	1995.38
513.994	2108.38
514.21	2218.38
514.426	2240.38
514.642	2458.38
514.858	2286.38
515.074	2076.38
515.29	2038.38
515.506	2058.38
515.721	2127.38
515.937	2169.38
516.153	2456.38
516.369	2369.38
516.585	2212.38
516.801	2082.38
517.016	2099.38
517.232	2174.38
517.448	2231.38
517.664	2192.38
517.879	2170.38
518.095	2333.38
518.311	2229.38
518.527	2106.38
518.742	2082.38
518.958	1998.38
519.173	2009.38
519.389	2043.38
519.605	2030.38
519.82	2075.38
520.036	2106.38
520.251	2021.38
520.467	2050.38
520.682	2225.38
520.898	2360.38
521.113	2040.38
521.329	1996.38
521.544	2179.38
521.76	2071.38
521.975	1951.38
522.19	1921.38
522.406	1923.38
522.621	2367.38
522.836	2399.38
523.052	1908.38
523.267	1878.38
523.482	1884.38
523.698	1838.38
523.913	1764.38
524.128	1846.38
524.343	1988.38
524.559	1970.38
524.774	1854.38
524.989	1831.38
525.204	1842.38
525.419	1822.38
525.634	1793.38
525.849	1829.38
526.064	1849.38
526.28	1871.38
526.495	1792.38
526.71	1773.38
526.925	1789.38
527.14	1767.38
527.355	1759.38
527.57	1731.38
527.785	1783.38
527.999	1751.38
528.214	1724.38
528.429	1721.38
528.644	1708.38
528.859	1749.38
529.074	1729.38
529.289	1759.38
529.503	1797.38
529.718	1768.38
529.933	1746.38
530.148	1666.38
530.363	1705.38
530.577	1751.38
530.792	1755.38
531.007	1774.38
531.221	1742.38
531.436	1816.38
531.651	1857.38
531.865	1929.38
532.08	1803.38
532.295	1694.38
532.509	1654.38
532.724	1693.38
532.938	1759.38
533.153	1926.38
533.367	1799.38
533.582	1755.38
533.796	1705.38
534.011	1749.38
534.225	1737.38
534.44	1699.38
534.654	1718.38
534.868	1673.38
535.083	1785.38
535.297	1798.38
535.511	1721.38
535.726	1754.38
535.94	1707.38
536.154	1701.38
536.369	1655.38
536.583	1673.38
536.797	1636.38
537.011	1701.38
537.225	1646.38
537.44	1654.38
537.654	1719.38
537.868	1650.38
538.082	1559.38
538.296	1552.38
538.51	1564.38
538.724	1566.38
538.938	1614.38
539.153	1638.38
539.367	1634.38
539.581	1626.38
539.795	1702.38
540.009	1674.38
540.222	1666.38
540.436	1719.38
540.65	1834.38
540.864	1884.38
541.078	1719.38
541.292	1608.38
541.506	1609.38
541.72	1640.38
541.934	1646.38
542.147	1664.38
542.361	1637.38
542.575	1578.38
542.789	1570.38
543.002	1522.38
543.216	1571.38
543.43	1671.38
543.644	1740.38
543.857	1835.38
544.071	1697.38
544.285	1647.38
544.498	1611.38
544.712	1623.38
544.925	1680.38
545.139	1674.38
545.352	1569.38
545.566	1556.38
545.779	1508.38
545.993	1545.38
546.206	1594.38
546.42	1546.38
546.633	1505.38
546.847	1515.38
547.06	1541.38
547.274	1515.38
547.487	1519.38
547.7	1539.38
547.914	1558.38
548.127	1576.38
548.34	1563.38
548.554	1530.38
548.767	1568.38
548.98	1529.38
549.193	1507.38
549.407	1621.38
549.62	1650.38
549.833	1548.38
550.046	1529.38
550.259	1525.38
550.473	1514.38
550.686	1506.38
550.899	1482.38
551.112	1481.38
551.325	1461.38
551.538	1575.38
551.751	1817.38
551.964	1480.38
552.177	1465.38
552.39	1494.38
552.603	1511.38
552.816	1507.38
553.029	1554.38
553.242	1615.38
553.455	1534.38
553.667	1504.38
553.88	1488.38
554.093	1454.38
554.306	1437.38
554.519	1435.38
554.732	1391.38
554.944	1403.38
555.157	1487.38
555.37	1395.38
555.583	1452.38
555.795	1372.38
556.008	1362.38
556.221	1348.38
556.433	1358.38
556.646	1328.38
556.859	1314.38
557.071	1331.38
557.284	1310.38
557.496	1266.38
557.709	1284.38
557.921	1261.38
558.134	1280.38
558.346	1254.38
558.559	1284.38
558.771	1253.38
558.984	1214.38
559.196	1209.38
559.409	1200.38
559.621	1227.38
559.833	1257.38
560.046	1284.38
560.258	1292.38
560.47	1282.38
560.683	1266.38
560.895	1237.38
561.107	1259.38
561.32	1259.38
561.532	1296.38
561.744	1250.38
561.956	1251.38
562.168	1212.38
562.381	1187.38
562.593	1200.38
562.805	1202.38
563.017	1179.38
563.229	1208.38
563.441	1272.38
563.653	1224.38
563.865	1232.38
564.077	1215.38
564.289	1239.38
564.501	1213.38
564.713	1242.38
564.925	1302.38
565.137	1409.38
565.349	1308.38
565.561	1293.38
565.773	1293.38
565.985	1324.38
566.197	1395.38
566.408	1456.38
566.62	1484.38
566.832	1476.38
567.044	1490.38
567.255	1468.38
567.467	1486.38
567.679	1552.38
567.891	1571.38
568.102	1546.38
568.314	1488.38
568.526	1410.38
568.737	1356.38
568.949	1263.38
569.161	1270.38
569.372	1209.38
569.584	1231.38
569.795	1183.38
570.007	1188.38
570.218	1126.38
570.43	1098.38
570.641	1120.38
570.853	1094.38
571.064	1108.38
571.276	1088.38
571.487	1112.38
571.698	1060.38
571.91	1024.38
572.121	1024.38
572.333	1008.38
572.544	1042.38
572.755	996.38
572.966	981.38
573.178	1000.38
573.389	963.38
573.6	1027.38
573.811	1120.38
574.023	1038.38
574.234	965.38
574.445	960.38
574.656	943.38
574.867	923.38
575.078	954.38
575.289	956.38
575.501	907.38
575.712	915.38
575.923	907.38
576.134	942.38
576.345	901.38
576.556	903.38
576.767	897.38
576.978	879.38
577.188	875.38
577.399	881.38
577.61	866.38
577.821	866.38
578.032	836.38
578.243	832.38
578.454	839.38
578.665	851.38
578.875	832.38
579.086	824.38
579.297	852.38
579.508	845.38
579.718	848.38
579.929	839.38
580.14	795.38
580.35	799.38
580.561	847.38
580.772	931.38
580.982	848.38
581.193	818.38
581.403	790.38
581.614	793.38
581.825	807.38
582.035	811.38
582.246	770.38
582.456	814.38
582.667	803.38
582.877	777.38
583.087	790.38
583.298	767.38
583.508	776.38
583.719	778.38
583.929	811.38
584.139	822.38
584.35	775.38
584.56	786.38
584.77	800.38
584.981	797.38
585.191	810.38
585.401	809.38
585.611	784.38
585.821	764.38
586.032	768.38
586.242	737.38
586.452	743.38
586.662	770.38
586.872	780.38
587.082	751.38
587.292	772.38
587.502	773.38
587.713	790.38
587.923	762.38
588.133	748.38
588.343	772.38
588.553	745.38
588.762	758.38
588.972	741.38
589.182	766.38
589.392	784.38
589.602	763.38
589.812	753.38
590.022	738.38
590.232	745.38
590.441	744.38
590.651	786.38
590.861	742.38
591.071	708.38
591.281	717.38
591.49	745.38
591.7	751.38
591.91	729.38
592.119	754.38
592.329	775.38
592.539	775.38
592.748	770.38
592.958	754.38
593.167	769.38
593.377	788.38
593.587	794.38
593.796	820.38
594.006	777.38
594.215	777.38
594.424	785.38
594.634	763.38
594.843	763.38
595.053	762.38
595.262	728.38
595.472	741.38
595.681	721.38
595.89	732.38
596.1	712.38
596.309	716.38
596.518	696.38
596.727	684.38
596.937	693.38
597.146	646.38
597.355	645.38
597.564	661.38
597.774	635.38
597.983	663.38
598.192	625.38
598.401	631.38
598.61	653.38
598.819	648.38
599.028	627.38
599.237	656.38
599.446	600.38
599.655	613.38
599.864	594.38
600.073	629.38
600.282	606.38
600.491	606.38
600.7	603.38
600.909	603.38
601.118	591.38
601.327	598.38
601.536	599.38
601.745	597.38
601.953	632.38
602.162	604.38
602.371	594.38
602.58	602.38
602.789	598.38
602.997	590.38
603.206	599.38
603.415	586.38
603.623	610.38
603.832	576.38
604.041	548.38
604.249	558.38
604.458	590.38
604.666	603.38
604.875	588.38
605.084	606.38
605.292	590.38
605.501	570.38
605.709	576.38
605.918	558.38
606.126	561.38
606.334	569.38
606.543	559.38
606.751	561.38
606.96	566.38
607.168	566.38
607.376	544.38
607.585	553.38
607.793	551.38
608.001	539.38
608.21	548.38
608.418	538.38
608.626	550.38
608.834	558.38
609.043	558.38
609.251	556.38
609.459	546.38
609.667	568.38
609.875	571.38
610.083	559.38
610.291	579.38
610.499	559.38
610.707	554.38
610.916	531.38
611.124	532.38
611.332	548.38
611.54	537.38
611.748	539.38
611.955	530.38
612.163	504.38
612.371	518.38
612.579	515.38
612.787	537.38
612.995	551.38
613.203	518.38
613.411	528.38
613.618	520.38
613.826	537.38
614.034	532.38
614.242	521.38
614.449	530.38
614.657	521.38
614.865	520.38
615.072	498.38
615.28	519.38
615.488	513.38
615.695	571.38
615.903	564.38
616.111	508.38
616.318	542.38
616.526	511.38
616.733	512.38
616.941	510.38
617.148	510.38
617.356	520.38
617.563	518.38
617.771	510.38
617.978	504.38
618.185	519.38
618.393	484.38
618.6	504.38
618.807	510.38
619.015	496.38
619.222	485.38
619.429	500.38
619.637	489.38
619.844	495.38
620.051	485.38
620.258	482.38
620.466	486.38
620.673	459.38
620.88	460.38
621.087	467.38
621.294	475.38
621.501	479.38
621.708	452.38
621.915	454.38
622.122	471.38
622.329	472.38
622.536	479.38
622.743	447.38
622.95	442.38
623.157	457.38
623.364	446.38
623.571	447.38
623.778	465.38
623.985	440.38
624.192	440.38
624.399	451.38
624.606	465.38
624.812	440.38
625.019	447.38
625.226	448.38
625.433	443.38
625.639	439.38
625.846	419.38
626.053	423.38
626.259	415.38
626.466	404.38
626.673	395.38
626.879	386.38
627.086	430.38
627.293	408.38
627.499	396.38
627.706	425.38
627.912	415.38
628.119	416.38
628.325	456.38
628.532	434.38
628.738	427.38
628.945	416.38
629.151	386.38
629.357	411.38
629.564	410.38
629.77	403.38
629.976	417.38
630.183	401.38
630.389	408.38
630.595	386.38
630.802	412.38
631.008	371.38
631.214	388.38
631.42	379.38
631.627	395.38
631.833	370.38
632.039	380.38
632.245	389.38
632.451	391.38
632.657	369.38
632.863	377.38
633.069	384.38
633.275	374.38
633.481	355.38
633.688	393.38
633.893	370.38
634.099	344.38
634.305	355.38
634.511	345.38
634.717	336.38
634.923	323.38
635.129	346.38
635.335	354.38
635.541	377.38
635.747	356.38
635.952	354.38
636.158	338.38
636.364	350.38
636.57	348.38
636.775	374.38
636.981	349.38
637.187	336.38
637.392	356.38
637.598	362.38
637.804	350.38
638.009	354.38
638.215	340.38
638.421	340.38
638.626	346.38
638.832	367.38
639.037	337.38
639.243	317.38
639.448	343.38
639.654	350.38
639.859	324.38
640.065	333.38
640.27	349.38
640.475	330.38
640.681	327.38
640.886	339.38
641.091	323.38
641.297	311.38
641.502	323.38
641.707	321.38
641.913	323.38
642.118	335.38
642.323	328.38
642.528	312.38
642.733	333.38
642.939	301.38
643.144	311.38
643.349	327.38
643.554	324.38
643.759	330.38
643.964	319.38
644.169	313.38
644.374	310.38
644.579	329.38
644.784	314.38
644.989	322.38
645.194	319.38
645.399	320.38
645.604	313.38
645.809	319.38
646.014	322.38
646.219	312.38
646.423	318.38
646.628	326.38
646.833	304.38
647.038	322.38
647.243	321.38
647.447	293.38
647.652	326.38
647.857	306.38
648.062	327.38
648.266	316.38
648.471	306.38
648.676	309.38
648.88	324.38
649.085	312.38
649.289	323.38
649.494	314.38
649.698	323.38
649.903	293.38
650.107	290.38
650.312	305.38
650.516	298.38
650.721	302.38
650.925	297.38
651.13	284.38
651.334	285.38
651.539	283.38
651.743	261.38
651.947	261.38
652.152	264.38
652.356	257.38
652.56	279.38
652.764	265.38
652.969	267.38
653.173	262.38
653.377	247.38
653.581	267.38
653.785	244.38
653.99	240.38
654.194	246.38
654.398	236.38
654.602	226.38
654.806	239.38
655.01	228.38
655.214	238.38
655.418	252.38
655.622	254.38
655.826	224.38
656.03	240.38
656.234	270.38
656.438	243.38
656.642	274.38
656.846	259.38
657.049	216.38
657.253	230.38
657.457	212.38
657.661	208.38
657.865	197.38
658.068	176.38
658.272	167.38
658.476	148.38
658.68	162.38
658.883	150.38
659.087	153.38
659.291	141.38
659.494	140.38
659.698	132.38
659.901	133.38
660.105	126.38
660.309	119.38
660.512	118.38
660.716	111.38
660.919	129.38
661.123	107.38
661.326	111.38
661.53	92.38
661.733	106.38
661.936	100.38
662.14	95.38
662.343	90.38
662.546	91.38
662.75	99.38
662.953	105.38
663.156	84.38
663.36	92.38
663.563	82.38
663.766	88.38
663.969	98.38
664.173	80.38
664.376	75.38
664.579	85.38
664.782	62.38
664.985	98.38
665.188	86.38
665.391	76.38
665.594	92.38
665.797	87.38
666	68.38
666.203	79.38
666.406	88.38
666.609	74.38
666.812	95.38
667.015	74.38
667.218	92.38
667.421	85.38
667.624	80.38
667.827	78.38
668.03	81.38
668.232	65.38
668.435	77.38
668.638	85.38
668.841	85.38
669.043	82.38
669.246	78.38
669.449	76.38
669.651	91.38
669.854	80.38
670.057	79.38
670.259	83.38
670.462	88.38
670.665	83.38
670.867	79.38
671.07	69.38
671.272	107.38
671.475	90.38
671.677	85.38
671.88	80.38
672.082	92.38
672.284	79.38
672.487	91.38
672.689	87.38
672.892	73.38
