Data from WStandard_LampEnergy8_LIBS07252019.E.O._I.C._HRD10591_16-00-07-929.txt Node
Date: Thu Jul 25 16:00:07 EDT 2019
User: cochatt
Spectrometer: HR+D1059
Trigger mode: 1
Integration Time (sec): 1.000000E-1
Scans to average: 1
Electric dark correction enabled: true
Nonlinearity correction enabled: false
Boxcar width: 0
XAxis mode: Wavelengths
Number of Pixels in Spectrum: 2048
>>>>>Begin Spectral Data<<<<<
223.165	-18.31
223.4	-18.31
223.635	-18.31
223.869	-16.31
224.104	-15.31
224.338	-27.31
224.573	-24.31
224.808	-4.31
225.042	-4.31
225.277	-4.31
225.511	11.69
225.746	8.69
225.98	1.69
226.215	11.69
226.449	14.69
226.683	14.69
226.918	15.69
227.152	35.69
227.387	35.69
227.621	39.69
227.856	48.69
228.09	45.69
228.324	53.69
228.559	50.69
228.793	96.69
229.027	190.69
229.262	199.69
229.496	209.69
229.73	217.69
229.964	237.69
230.199	257.69
230.433	270.69
230.667	276.69
230.901	288.69
231.136	251.69
231.37	257.69
231.604	233.69
231.838	274.69
232.072	260.69
232.306	253.69
232.541	254.69
232.775	307.69
233.009	298.69
233.243	301.69
233.477	289.69
233.711	311.69
233.945	318.69
234.179	314.69
234.413	317.69
234.647	327.69
234.881	319.69
235.115	283.69
235.349	309.69
235.583	308.69
235.817	291.69
236.051	305.69
236.285	289.69
236.519	309.69
236.753	338.69
236.987	363.69
237.221	357.69
237.455	376.69
237.689	367.69
237.922	349.69
238.156	345.69
238.39	339.69
238.624	350.69
238.858	393.69
239.091	399.69
239.325	405.69
239.559	486.69
239.793	494.69
240.027	486.69
240.26	484.69
240.494	387.69
240.728	379.69
240.961	375.69
241.195	386.69
241.429	413.69
241.662	394.69
241.896	377.69
242.13	394.69
242.363	437.69
242.597	447.69
242.83	437.69
243.064	443.69
243.298	474.69
243.531	458.69
243.765	464.69
243.998	435.69
244.232	402.69
244.465	411.69
244.699	403.69
244.932	456.69
245.166	499.69
245.399	482.69
245.633	447.69
245.866	456.69
246.099	487.69
246.333	473.69
246.566	507.69
246.8	511.69
247.033	554.69
247.266	528.69
247.5	523.69
247.733	528.69
247.966	555.69
248.2	611.69
248.433	596.69
248.666	593.69
248.899	661.69
249.133	730.69
249.366	830.69
249.599	667.69
249.832	593.69
250.066	599.69
250.299	625.69
250.532	579.69
250.765	512.69
250.998	570.69
251.231	576.69
251.465	590.69
251.698	554.69
251.931	567.69
252.164	600.69
252.397	587.69
252.63	585.69
252.863	549.69
253.096	537.69
253.329	550.69
253.562	569.69
253.795	590.69
254.028	598.69
254.261	575.69
254.494	553.69
254.727	540.69
254.96	572.69
255.193	649.69
255.426	714.69
255.659	767.69
255.892	734.69
256.124	657.69
256.357	665.69
256.59	674.69
256.823	697.69
257.056	721.69
257.289	825.69
257.521	882.69
257.754	794.69
257.987	757.69
258.22	809.69
258.452	800.69
258.685	671.69
258.918	662.69
259.151	639.69
259.383	635.69
259.616	555.69
259.849	602.69
260.081	653.69
260.314	773.69
260.547	800.69
260.779	790.69
261.012	733.69
261.244	690.69
261.477	666.69
261.71	683.69
261.942	701.69
262.175	675.69
262.407	676.69
262.64	647.69
262.872	605.69
263.105	603.69
263.337	631.69
263.57	622.69
263.802	607.69
264.035	602.69
264.267	576.69
264.499	569.69
264.732	617.69
264.964	652.69
265.197	681.69
265.429	698.69
265.661	748.69
265.894	849.69
266.126	830.69
266.358	754.69
266.591	805.69
266.823	831.69
267.055	770.69
267.287	774.69
267.52	756.69
267.752	754.69
267.984	739.69
268.216	800.69
268.448	783.69
268.681	754.69
268.913	720.69
269.145	686.69
269.377	703.69
269.609	762.69
269.841	852.69
270.073	977.69
270.306	1065.69
270.538	1097.69
270.77	935.69
271.002	829.69
271.234	799.69
271.466	801.69
271.698	907.69
271.93	1042.69
272.162	1072.69
272.394	964.69
272.626	897.69
272.858	781.69
273.09	690.69
273.322	680.69
273.553	685.69
273.785	673.69
274.017	707.69
274.249	734.69
274.481	753.69
274.713	704.69
274.945	711.69
275.176	706.69
275.408	681.69
275.64	675.69
275.872	665.69
276.104	754.69
276.335	804.69
276.567	869.69
276.799	903.69
277.031	816.69
277.262	793.69
277.494	822.69
277.726	880.69
277.957	869.69
278.189	799.69
278.421	743.69
278.652	727.69
278.884	724.69
279.115	727.69
279.347	719.69
279.579	709.69
279.81	743.69
280.042	814.69
280.273	853.69
280.505	891.69
280.736	873.69
280.968	801.69
281.199	727.69
281.431	729.69
281.662	687.69
281.894	741.69
282.125	741.69
282.356	758.69
282.588	763.69
282.819	767.69
283.051	833.69
283.282	883.69
283.513	845.69
283.745	739.69
283.976	689.69
284.207	707.69
284.439	721.69
284.67	729.69
284.901	757.69
285.132	749.69
285.364	780.69
285.595	735.69
285.826	768.69
286.057	746.69
286.288	749.69
286.52	796.69
286.751	849.69
286.982	837.69
287.213	783.69
287.444	739.69
287.675	738.69
287.906	773.69
288.138	839.69
288.369	788.69
288.6	768.69
288.831	743.69
289.062	747.69
289.293	756.69
289.524	754.69
289.755	779.69
289.986	781.69
290.217	749.69
290.448	743.69
290.679	749.69
290.91	785.69
291.141	785.69
291.371	797.69
291.602	843.69
291.833	813.69
292.064	843.69
292.295	816.69
292.526	841.69
292.757	849.69
292.987	801.69
293.218	824.69
293.449	855.69
293.68	971.69
293.91	980.69
294.141	921.69
294.372	910.69
294.603	953.69
294.833	953.69
295.064	901.69
295.295	820.69
295.525	785.69
295.756	740.69
295.987	721.69
296.217	747.69
296.448	793.69
296.679	771.69
296.909	762.69
297.14	752.69
297.37	781.69
297.601	826.69
297.831	872.69
298.062	877.69
298.292	813.69
298.523	788.69
298.753	770.69
298.984	759.69
299.214	807.69
299.445	818.69
299.675	843.69
299.905	830.69
300.136	829.69
300.366	779.69
300.597	754.69
300.827	772.69
301.057	825.69
301.288	854.69
301.518	839.69
301.748	879.69
301.979	899.69
302.209	921.69
302.439	958.69
302.669	953.69
302.9	922.69
303.13	831.69
303.36	861.69
303.59	850.69
303.82	844.69
304.051	864.69
304.281	855.69
304.511	873.69
304.741	958.69
304.971	1005.69
305.201	1037.69
305.431	955.69
305.661	810.69
305.891	752.69
306.121	747.69
306.352	800.69
306.582	821.69
306.812	895.69
307.042	941.69
307.272	949.69
307.502	953.69
307.731	1053.69
307.961	1078.69
308.191	955.69
308.421	867.69
308.651	845.69
308.881	861.69
309.111	836.69
309.341	823.69
309.571	839.69
309.8	825.69
310.03	823.69
310.26	833.69
310.49	823.69
310.72	840.69
310.949	884.69
311.179	875.69
311.409	851.69
311.639	871.69
311.868	835.69
312.098	842.69
312.328	830.69
312.557	851.69
312.787	868.69
313.017	831.69
313.246	872.69
313.476	863.69
313.706	858.69
313.935	885.69
314.165	893.69
314.394	899.69
314.624	950.69
314.853	1008.69
315.083	1013.69
315.312	1057.69
315.542	986.69
315.771	900.69
316.001	923.69
316.23	958.69
316.46	915.69
316.689	938.69
316.919	863.69
317.148	851.69
317.377	898.69
317.607	961.69
317.836	1059.69
318.065	1081.69
318.295	986.69
318.524	966.69
318.753	910.69
318.983	959.69
319.212	929.69
319.441	894.69
319.67	926.69
319.9	935.69
320.129	981.69
320.358	1032.69
320.587	1027.69
320.816	1026.69
321.046	1010.69
321.275	938.69
321.504	959.69
321.733	1038.69
321.962	980.69
322.191	931.69
322.42	913.69
322.649	928.69
322.878	900.69
323.108	943.69
323.337	952.69
323.566	935.69
323.795	936.69
324.024	934.69
324.253	941.69
324.482	914.69
324.71	883.69
324.939	871.69
325.168	893.69
325.397	911.69
325.626	955.69
325.855	960.69
326.084	935.69
326.313	935.69
326.542	964.69
326.77	983.69
326.999	972.69
327.228	902.69
327.457	868.69
327.686	853.69
327.914	886.69
328.143	921.69
328.372	900.69
328.6	937.69
328.829	909.69
329.058	846.69
329.287	901.69
329.515	915.69
329.744	945.69
329.972	991.69
330.201	1051.69
330.43	990.69
330.658	958.69
330.887	989.69
331.115	976.69
331.344	988.69
331.572	968.69
331.801	975.69
332.03	998.69
332.258	983.69
332.486	998.69
332.715	1010.69
332.943	992.69
333.172	976.69
333.4	991.69
333.629	987.69
333.857	1067.69
334.085	1207.69
334.314	1349.69
334.542	1412.69
334.771	1281.69
334.999	1138.69
335.227	1053.69
335.455	1017.69
335.684	1037.69
335.912	1078.69
336.14	1101.69
336.369	1059.69
336.597	1014.69
336.825	1002.69
337.053	1066.69
337.281	1098.69
337.51	1135.69
337.738	1181.69
337.966	1074.69
338.194	995.69
338.422	967.69
338.65	961.69
338.878	956.69
339.106	971.69
339.334	925.69
339.562	938.69
339.79	942.69
340.018	1018.69
340.246	1076.69
340.474	1024.69
340.702	1012.69
340.93	1011.69
341.158	1014.69
341.386	979.69
341.614	980.69
341.842	966.69
342.07	970.69
342.298	972.69
342.526	971.69
342.754	992.69
342.981	948.69
343.209	980.69
343.437	976.69
343.665	969.69
343.893	1011.69
344.12	1058.69
344.348	1050.69
344.576	992.69
344.804	967.69
345.031	951.69
345.259	933.69
345.487	928.69
345.714	925.69
345.942	911.69
346.17	915.69
346.397	939.69
346.625	965.69
346.853	871.69
347.08	840.69
347.308	862.69
347.535	937.69
347.763	941.69
347.99	891.69
348.218	885.69
348.445	893.69
348.673	896.69
348.9	950.69
349.128	985.69
349.355	991.69
349.583	963.69
349.81	914.69
350.037	862.69
350.265	856.69
350.492	869.69
350.72	906.69
350.947	955.69
351.174	948.69
351.402	883.69
351.629	853.69
351.856	843.69
352.083	869.69
352.311	858.69
352.538	887.69
352.765	920.69
352.992	945.69
353.22	904.69
353.447	905.69
353.674	901.69
353.901	888.69
354.128	891.69
354.355	907.69
354.583	932.69
354.81	933.69
355.037	951.69
355.264	935.69
355.491	919.69
355.718	916.69
355.945	896.69
356.172	915.69
356.399	880.69
356.626	904.69
356.853	954.69
357.08	1040.69
357.307	1098.69
357.534	1061.69
357.761	954.69
357.988	889.69
358.215	858.69
358.441	891.69
358.668	881.69
358.895	884.69
359.122	970.69
359.349	1019.69
359.576	994.69
359.802	911.69
360.029	881.69
360.256	890.69
360.483	925.69
360.709	921.69
360.936	983.69
361.163	1015.69
361.39	1101.69
361.616	1141.69
361.843	1123.69
362.07	1027.69
362.296	952.69
362.523	897.69
362.749	920.69
362.976	947.69
363.203	958.69
363.429	912.69
363.656	921.69
363.882	939.69
364.109	1027.69
364.335	1095.69
364.562	1018.69
364.788	965.69
365.015	906.69
365.241	925.69
365.468	949.69
365.694	954.69
365.92	995.69
366.147	985.69
366.373	906.69
366.599	885.69
366.826	894.69
367.052	878.69
367.278	915.69
367.505	929.69
367.731	928.69
367.957	953.69
368.184	1026.69
368.41	1048.69
368.636	1038.69
368.862	1055.69
369.089	1071.69
369.315	994.69
369.541	965.69
369.767	932.69
369.993	945.69
370.219	927.69
370.445	959.69
370.672	1007.69
370.898	1037.69
371.124	1057.69
371.35	983.69
371.576	1017.69
371.802	1058.69
372.028	985.69
372.254	933.69
372.48	939.69
372.706	930.69
372.932	942.69
373.158	962.69
373.384	958.69
373.61	1031.69
373.835	1045.69
374.061	1001.69
374.287	1010.69
374.513	984.69
374.739	973.69
374.965	987.69
375.191	985.69
375.416	1017.69
375.642	1029.69
375.868	1075.69
376.094	1090.69
376.319	1042.69
376.545	990.69
376.771	1013.69
376.997	1045.69
377.222	1069.69
377.448	982.69
377.674	1019.69
377.899	1024.69
378.125	1050.69
378.35	1080.69
378.576	978.69
378.802	943.69
379.027	952.69
379.253	977.69
379.478	969.69
379.704	974.69
379.929	974.69
380.155	975.69
380.38	976.69
380.606	1017.69
380.831	1001.69
381.057	1059.69
381.282	1056.69
381.507	1047.69
381.733	1097.69
381.958	1160.69
382.184	1047.69
382.409	1039.69
382.634	1054.69
382.86	1038.69
383.085	1021.69
383.31	1066.69
383.535	1163.69
383.761	1212.69
383.986	1157.69
384.211	1119.69
384.436	1125.69
384.662	1152.69
384.887	1184.69
385.112	1110.69
385.337	1130.69
385.562	1137.69
385.787	1146.69
386.013	1136.69
386.238	1129.69
386.463	1142.69
386.688	1251.69
386.913	1281.69
387.138	1230.69
387.363	1165.69
387.588	1157.69
387.813	1163.69
388.038	1184.69
388.263	1208.69
388.488	1137.69
388.713	1040.69
388.938	1089.69
389.163	1083.69
389.387	1130.69
389.612	1101.69
389.837	1151.69
390.062	1095.69
390.287	1107.69
390.512	1151.69
390.736	1114.69
390.961	1095.69
391.186	1066.69
391.411	1106.69
391.636	1099.69
391.86	1139.69
392.085	1121.69
392.31	1143.69
392.534	1149.69
392.759	1122.69
392.984	1127.69
393.208	1119.69
393.433	1187.69
393.658	1215.69
393.882	1215.69
394.107	1133.69
394.331	1130.69
394.556	1123.69
394.78	1138.69
395.005	1213.69
395.229	1230.69
395.454	1289.69
395.678	1309.69
395.903	1240.69
396.127	1183.69
396.352	1200.69
396.576	1262.69
396.801	1225.69
397.025	1231.69
397.249	1268.69
397.474	1187.69
397.698	1212.69
397.922	1277.69
398.147	1320.69
398.371	1355.69
398.595	1338.69
398.82	1314.69
399.044	1321.69
399.268	1371.69
399.492	1450.69
399.717	1491.69
399.941	1521.69
400.165	1454.69
400.389	1449.69
400.613	1465.69
400.837	1636.69
401.062	1822.69
401.286	1544.69
401.51	1456.69
401.734	1457.69
401.958	1406.69
402.182	1330.69
402.406	1238.69
402.63	1253.69
402.854	1283.69
403.078	1269.69
403.302	1308.69
403.526	1336.69
403.75	1331.69
403.974	1351.69
404.198	1355.69
404.422	1438.69
404.645	1527.69
404.869	1414.69
405.093	1344.69
405.317	1313.69
405.541	1353.69
405.765	1378.69
405.988	1332.69
406.212	1388.69
406.436	1399.69
406.66	1453.69
406.883	1455.69
407.107	1678.69
407.331	1765.69
407.555	1901.69
407.778	1685.69
408.002	1418.69
408.226	1388.69
408.449	1391.69
408.673	1367.69
408.896	1405.69
409.12	1365.69
409.344	1391.69
409.567	1337.69
409.791	1374.69
410.014	1353.69
410.238	1457.69
410.461	1505.69
410.685	1355.69
410.908	1315.69
411.132	1363.69
411.355	1348.69
411.578	1327.69
411.802	1335.69
412.025	1364.69
412.249	1349.69
412.472	1331.69
412.695	1305.69
412.919	1300.69
413.142	1310.69
413.365	1302.69
413.589	1354.69
413.812	1390.69
414.035	1441.69
414.258	1331.69
414.482	1306.69
414.705	1311.69
414.928	1297.69
415.151	1267.69
415.374	1301.69
415.597	1327.69
415.821	1326.69
416.044	1349.69
416.267	1325.69
416.49	1289.69
416.713	1255.69
416.936	1318.69
417.159	1339.69
417.382	1343.69
417.605	1262.69
417.828	1304.69
418.051	1317.69
418.274	1309.69
418.497	1251.69
418.72	1294.69
418.943	1242.69
419.166	1320.69
419.389	1338.69
419.611	1291.69
419.834	1305.69
420.057	1316.69
420.28	1284.69
420.503	1296.69
420.726	1285.69
420.948	1310.69
421.171	1259.69
421.394	1280.69
421.617	1314.69
421.839	1325.69
422.062	1335.69
422.285	1264.69
422.507	1277.69
422.73	1254.69
422.953	1214.69
423.175	1224.69
423.398	1247.69
423.621	1277.69
423.843	1302.69
424.066	1341.69
424.288	1391.69
424.511	1413.69
424.733	1339.69
424.956	1231.69
425.178	1226.69
425.401	1264.69
425.623	1262.69
425.846	1270.69
426.068	1337.69
426.291	1344.69
426.513	1306.69
426.735	1325.69
426.958	1431.69
427.18	1463.69
427.402	1352.69
427.625	1373.69
427.847	1356.69
428.069	1283.69
428.292	1235.69
428.514	1202.69
428.736	1216.69
428.958	1227.69
429.181	1296.69
429.403	1441.69
429.625	1753.69
429.847	1468.69
430.069	1313.69
430.292	1446.69
430.514	1459.69
430.736	1358.69
430.958	1337.69
431.18	1300.69
431.402	1257.69
431.624	1201.69
431.846	1156.69
432.068	1124.69
432.29	1126.69
432.512	1193.69
432.734	1233.69
432.956	1277.69
433.178	1339.69
433.4	1301.69
433.622	1294.69
433.844	1247.69
434.066	1217.69
434.287	1153.69
434.509	1191.69
434.731	1236.69
434.953	1378.69
435.175	1298.69
435.397	1286.69
435.618	1252.69
435.84	1240.69
436.062	1212.69
436.284	1244.69
436.505	1288.69
436.727	1285.69
436.949	1266.69
437.17	1211.69
437.392	1217.69
437.614	1193.69
437.835	1152.69
438.057	1223.69
438.278	1256.69
438.5	1188.69
438.721	1213.69
438.943	1228.69
439.165	1226.69
439.386	1226.69
439.608	1233.69
439.829	1257.69
440.05	1247.69
440.272	1236.69
440.493	1244.69
440.715	1252.69
440.936	1349.69
441.158	1423.69
441.379	1360.69
441.6	1351.69
441.822	1332.69
442.043	1333.69
442.264	1292.69
442.486	1266.69
442.707	1265.69
442.928	1272.69
443.149	1309.69
443.371	1309.69
443.592	1383.69
443.813	1359.69
444.034	1337.69
444.255	1373.69
444.476	1363.69
444.698	1409.69
444.919	1425.69
445.14	1471.69
445.361	1446.69
445.582	1447.69
445.803	1395.69
446.024	1394.69
446.245	1423.69
446.466	1359.69
446.687	1346.69
446.908	1355.69
447.129	1292.69
447.35	1321.69
447.571	1295.69
447.792	1244.69
448.013	1216.69
448.234	1284.69
448.455	1315.69
448.675	1334.69
448.896	1188.69
449.117	1167.69
449.338	1223.69
449.559	1276.69
449.779	1325.69
450	1428.69
450.221	1461.69
450.442	1383.69
450.662	1305.69
450.883	1195.69
451.104	1149.69
451.324	1195.69
451.545	1185.69
451.766	1155.69
451.986	1129.69
452.207	1130.69
452.428	1081.69
452.648	1073.69
452.869	1119.69
453.089	1161.69
453.31	1130.69
453.53	1168.69
453.751	1111.69
453.971	1069.69
454.192	1085.69
454.412	1130.69
454.633	1141.69
454.853	1096.69
455.073	1055.69
455.294	1069.69
455.514	1049.69
455.734	1075.69
455.955	1058.69
456.175	1057.69
456.395	1062.69
456.616	1092.69
456.836	1095.69
457.056	1091.69
457.276	1059.69
457.497	1041.69
457.717	1014.69
457.937	1026.69
458.157	1048.69
458.377	1043.69
458.598	1035.69
458.818	1017.69
459.038	1101.69
459.258	1142.69
459.478	1149.69
459.698	1130.69
459.918	1153.69
460.138	1176.69
460.358	1198.69
460.578	1269.69
460.798	1291.69
461.018	1321.69
461.238	1310.69
461.458	1267.69
461.678	1255.69
461.898	1205.69
462.118	1189.69
462.338	1248.69
462.558	1283.69
462.777	1258.69
462.997	1331.69
463.217	1354.69
463.437	1319.69
463.657	1269.69
463.876	1225.69
464.096	1238.69
464.316	1246.69
464.536	1306.69
464.755	1289.69
464.975	1263.69
465.195	1249.69
465.414	1305.69
465.634	1292.69
465.854	1304.69
466.073	1376.69
466.293	1363.69
466.512	1206.69
466.732	1221.69
466.951	1258.69
467.171	1227.69
467.391	1190.69
467.61	1205.69
467.829	1193.69
468.049	1302.69
468.268	1422.69
468.488	1325.69
468.707	1257.69
468.927	1207.69
469.146	1163.69
469.365	1198.69
469.585	1213.69
469.804	1209.69
470.023	1235.69
470.243	1248.69
470.462	1255.69
470.681	1208.69
470.901	1227.69
471.12	1226.69
471.339	1248.69
471.558	1194.69
471.777	1196.69
471.997	1233.69
472.216	1186.69
472.435	1135.69
472.654	1107.69
472.873	1171.69
473.092	1227.69
473.311	1174.69
473.53	1145.69
473.749	1119.69
473.968	1170.69
474.187	1191.69
474.406	1221.69
474.625	1243.69
474.844	1209.69
475.063	1169.69
475.282	1214.69
475.501	1194.69
475.72	1199.69
475.939	1286.69
476.158	1220.69
476.377	1197.69
476.596	1227.69
476.814	1202.69
477.033	1201.69
477.252	1246.69
477.471	1331.69
477.69	1273.69
477.908	1273.69
478.127	1337.69
478.346	1427.69
478.564	1385.69
478.783	1437.69
479.002	1441.69
479.22	1410.69
479.439	1467.69
479.658	1573.69
479.876	1507.69
480.095	1382.69
480.313	1324.69
480.532	1306.69
480.751	1291.69
480.969	1293.69
481.188	1241.69
481.406	1234.69
481.624	1214.69
481.843	1234.69
482.061	1283.69
482.28	1325.69
482.498	1345.69
482.717	1297.69
482.935	1272.69
483.153	1333.69
483.372	1369.69
483.59	1365.69
483.808	1368.69
484.027	1348.69
484.245	1419.69
484.463	1721.69
484.681	1825.69
484.9	1449.69
485.118	1369.69
485.336	1341.69
485.554	1367.69
485.772	1361.69
485.99	1345.69
486.209	1400.69
486.427	1346.69
486.645	1359.69
486.863	1391.69
487.081	1451.69
487.299	1458.69
487.517	1432.69
487.735	1455.69
487.953	1474.69
488.171	1498.69
488.389	1429.69
488.607	1469.69
488.825	1547.69
489.043	1502.69
489.261	1410.69
489.479	1441.69
489.696	1476.69
489.914	1434.69
490.132	1427.69
490.35	1458.69
490.568	1542.69
490.786	1459.69
491.003	1455.69
491.221	1553.69
491.439	1580.69
491.657	1567.69
491.874	1619.69
492.092	1714.69
492.31	1678.69
492.527	1639.69
492.745	1607.69
492.963	1589.69
493.18	1571.69
493.398	1701.69
493.615	1705.69
493.833	1569.69
494.05	1549.69
494.268	1541.69
494.485	1602.69
494.703	1538.69
494.92	1496.69
495.138	1554.69
495.355	1529.69
495.573	1589.69
495.79	1651.69
496.008	1679.69
496.225	1593.69
496.442	1596.69
496.66	1585.69
496.877	1554.69
497.094	1666.69
497.312	1617.69
497.529	1613.69
497.746	1625.69
497.963	1811.69
498.181	1969.69
498.398	1877.69
498.615	1824.69
498.832	1755.69
499.049	1785.69
499.267	1803.69
499.484	1871.69
499.701	2066.69
499.918	2064.69
500.135	2187.69
500.352	2367.69
500.569	2329.69
500.786	2554.69
501.003	2303.69
501.22	2118.69
501.437	2037.69
501.654	2081.69
501.871	1977.69
502.088	1800.69
502.305	1743.69
502.522	1697.69
502.739	1629.69
502.956	1539.69
503.172	1545.69
503.389	1481.69
503.606	1497.69
503.823	1515.69
504.04	1484.69
504.256	1519.69
504.473	1490.69
504.69	1539.69
504.907	1421.69
505.123	1394.69
505.34	1535.69
505.557	2004.69
505.773	1621.69
505.99	1421.69
506.207	1317.69
506.423	1314.69
506.64	1282.69
506.856	1329.69
507.073	1494.69
507.289	1573.69
507.506	1464.69
507.722	1291.69
507.939	1241.69
508.155	1251.69
508.372	1227.69
508.588	1193.69
508.805	1172.69
509.021	1167.69
509.238	1156.69
509.454	1125.69
509.67	1187.69
509.887	1121.69
510.103	1115.69
510.319	1166.69
510.536	1176.69
510.752	1236.69
510.968	1200.69
511.184	1273.69
511.401	1207.69
511.617	1127.69
511.833	1127.69
512.049	1110.69
512.265	1090.69
512.481	1090.69
512.698	1148.69
512.914	1214.69
513.13	1169.69
513.346	1110.69
513.562	1105.69
513.778	1108.69
513.994	1172.69
514.21	1208.69
514.426	1173.69
514.642	1313.69
514.858	1219.69
515.074	1133.69
515.29	1127.69
515.506	1143.69
515.721	1153.69
515.937	1179.69
516.153	1275.69
516.369	1255.69
516.585	1168.69
516.801	1159.69
517.016	1123.69
517.232	1181.69
517.448	1225.69
517.664	1185.69
517.879	1219.69
518.095	1261.69
518.311	1193.69
518.527	1159.69
518.742	1126.69
518.958	1129.69
519.173	1140.69
519.389	1155.69
519.605	1183.69
519.82	1171.69
520.036	1168.69
520.251	1145.69
520.467	1190.69
520.682	1206.69
520.898	1253.69
521.113	1140.69
521.329	1107.69
521.544	1183.69
521.76	1144.69
521.975	1077.69
522.19	1066.69
522.406	1099.69
522.621	1395.69
522.836	1283.69
523.052	1075.69
523.267	1101.69
523.482	1122.69
523.698	1070.69
523.913	1044.69
524.128	1081.69
524.343	1104.69
524.559	1169.69
524.774	1099.69
524.989	1075.69
525.204	1058.69
525.419	1085.69
525.634	1081.69
525.849	1063.69
526.064	1043.69
526.28	1041.69
526.495	990.69
526.71	990.69
526.925	983.69
527.14	991.69
527.355	971.69
527.57	977.69
527.785	1000.69
527.999	1006.69
528.214	998.69
528.429	988.69
528.644	1024.69
528.859	1059.69
529.074	1090.69
529.289	1114.69
529.503	1087.69
529.718	1069.69
529.933	1032.69
530.148	941.69
530.363	941.69
530.577	960.69
530.792	999.69
531.007	950.69
531.221	962.69
531.436	999.69
531.651	1019.69
531.865	1063.69
532.08	986.69
532.295	967.69
532.509	917.69
532.724	963.69
532.938	998.69
533.153	1059.69
533.367	1024.69
533.582	1036.69
533.796	998.69
534.011	1007.69
534.225	997.69
534.44	961.69
534.654	957.69
534.868	977.69
535.083	990.69
535.297	1029.69
535.511	987.69
535.726	989.69
535.94	989.69
536.154	959.69
536.369	962.69
536.583	922.69
536.797	922.69
537.011	955.69
537.225	888.69
537.44	895.69
537.654	977.69
537.868	934.69
538.082	898.69
538.296	888.69
538.51	912.69
538.724	937.69
538.938	975.69
539.153	1007.69
539.367	972.69
539.581	986.69
539.795	1000.69
540.009	946.69
540.222	962.69
540.436	964.69
540.65	1042.69
540.864	1069.69
541.078	1047.69
541.292	1028.69
541.506	1094.69
541.72	1085.69
541.934	1129.69
542.147	1159.69
542.361	1097.69
542.575	1023.69
542.789	1003.69
543.002	966.69
543.216	983.69
543.43	1042.69
543.644	1049.69
543.857	1104.69
544.071	1082.69
544.285	1070.69
544.498	1082.69
544.712	1086.69
544.925	1124.69
545.139	1101.69
545.352	1059.69
545.566	1055.69
545.779	1059.69
545.993	1061.69
546.206	1111.69
546.42	1059.69
546.633	1039.69
546.847	1073.69
547.06	1060.69
547.274	1058.69
547.487	1066.69
547.7	1121.69
547.914	1063.69
548.127	1086.69
548.34	1073.69
548.554	1089.69
548.767	1061.69
548.98	1056.69
549.193	1064.69
549.407	1104.69
549.62	1094.69
549.833	1055.69
550.046	1053.69
550.259	1030.69
550.473	1021.69
550.686	1018.69
550.899	1011.69
551.112	1005.69
551.325	961.69
551.538	1035.69
551.751	1117.69
551.964	903.69
552.177	913.69
552.39	969.69
552.603	1011.69
552.816	1011.69
553.029	1046.69
553.242	1061.69
553.455	1039.69
553.667	1033.69
553.88	1044.69
554.093	1011.69
554.306	983.69
554.519	991.69
554.732	965.69
554.944	949.69
555.157	951.69
555.37	945.69
555.583	925.69
555.795	885.69
556.008	879.69
556.221	866.69
556.433	854.69
556.646	857.69
556.859	878.69
557.071	879.69
557.284	861.69
557.496	877.69
557.709	858.69
557.921	884.69
558.134	847.69
558.346	858.69
558.559	830.69
558.771	824.69
558.984	837.69
559.196	815.69
559.409	805.69
559.621	796.69
559.833	801.69
560.046	817.69
560.258	810.69
560.47	805.69
560.683	824.69
560.895	810.69
561.107	804.69
561.32	825.69
561.532	826.69
561.744	830.69
561.956	791.69
562.168	755.69
562.381	776.69
562.593	792.69
562.805	766.69
563.017	762.69
563.229	787.69
563.441	810.69
563.653	789.69
563.865	777.69
564.077	794.69
564.289	770.69
564.501	792.69
564.713	793.69
564.925	844.69
565.137	863.69
565.349	809.69
565.561	793.69
565.773	783.69
565.985	808.69
566.197	857.69
566.408	917.69
566.62	889.69
566.832	894.69
567.044	902.69
567.255	885.69
567.467	883.69
567.679	931.69
567.891	937.69
568.102	909.69
568.314	848.69
568.526	807.69
568.737	763.69
568.949	722.69
569.161	718.69
569.372	672.69
569.584	665.69
569.795	722.69
570.007	688.69
570.218	675.69
570.43	628.69
570.641	627.69
570.853	657.69
571.064	672.69
571.276	691.69
571.487	637.69
571.698	663.69
571.91	618.69
572.121	637.69
572.333	634.69
572.544	617.69
572.755	571.69
572.966	586.69
573.178	576.69
573.389	590.69
573.6	588.69
573.811	647.69
574.023	591.69
574.234	575.69
574.445	578.69
574.656	566.69
574.867	555.69
575.078	586.69
575.289	571.69
575.501	558.69
575.712	533.69
575.923	547.69
576.134	542.69
576.345	546.69
576.556	534.69
576.767	545.69
576.978	528.69
577.188	524.69
577.399	523.69
577.61	531.69
577.821	529.69
578.032	496.69
578.243	510.69
578.454	512.69
578.665	496.69
578.875	503.69
579.086	481.69
579.297	489.69
579.508	524.69
579.718	487.69
579.929	495.69
580.14	486.69
580.35	499.69
580.561	515.69
580.772	559.69
580.982	521.69
581.193	493.69
581.403	484.69
581.614	469.69
581.825	489.69
582.035	473.69
582.246	487.69
582.456	482.69
582.667	489.69
582.877	488.69
583.087	465.69
583.298	446.69
583.508	479.69
583.719	488.69
583.929	466.69
584.139	480.69
584.35	435.69
584.56	467.69
584.77	483.69
584.981	462.69
585.191	463.69
585.401	481.69
585.611	489.69
585.821	451.69
586.032	478.69
586.242	449.69
586.452	448.69
586.662	450.69
586.872	425.69
587.082	435.69
587.292	440.69
587.502	469.69
587.713	461.69
587.923	441.69
588.133	455.69
588.343	466.69
588.553	440.69
588.762	442.69
588.972	438.69
589.182	465.69
589.392	446.69
589.602	449.69
589.812	439.69
590.022	434.69
590.232	431.69
590.441	461.69
590.651	469.69
590.861	449.69
591.071	445.69
591.281	423.69
591.49	444.69
591.7	459.69
591.91	431.69
592.119	441.69
592.329	438.69
592.539	470.69
592.748	452.69
592.958	440.69
593.167	464.69
593.377	451.69
593.587	482.69
593.796	461.69
594.006	470.69
594.215	473.69
594.424	479.69
594.634	431.69
594.843	467.69
595.053	477.69
595.262	477.69
595.472	458.69
595.681	467.69
595.89	421.69
596.1	429.69
596.309	457.69
596.518	417.69
596.727	451.69
596.937	428.69
597.146	415.69
597.355	417.69
597.564	405.69
597.774	396.69
597.983	403.69
598.192	389.69
598.401	377.69
598.61	392.69
598.819	420.69
599.028	392.69
599.237	403.69
599.446	397.69
599.655	386.69
599.864	399.69
600.073	395.69
600.282	374.69
600.491	396.69
600.7	387.69
600.909	382.69
601.118	389.69
601.327	408.69
601.536	431.69
601.745	426.69
601.953	418.69
602.162	425.69
602.371	438.69
602.58	416.69
602.789	433.69
602.997	429.69
603.206	416.69
603.415	387.69
603.623	393.69
603.832	404.69
604.041	382.69
604.249	380.69
604.458	387.69
604.666	392.69
604.875	371.69
605.084	371.69
605.292	418.69
605.501	403.69
605.709	405.69
605.918	385.69
606.126	391.69
606.334	394.69
606.543	408.69
606.751	394.69
606.96	412.69
607.168	394.69
607.376	386.69
607.585	393.69
607.793	400.69
608.001	406.69
608.21	407.69
608.418	405.69
608.626	410.69
608.834	389.69
609.043	389.69
609.251	394.69
609.459	374.69
609.667	403.69
609.875	410.69
610.083	405.69
610.291	403.69
610.499	403.69
610.707	414.69
610.916	397.69
611.124	390.69
611.332	389.69
611.54	384.69
611.748	406.69
611.955	394.69
612.163	375.69
612.371	377.69
612.579	380.69
612.787	379.69
612.995	387.69
613.203	428.69
613.411	401.69
613.618	384.69
613.826	396.69
614.034	362.69
614.242	362.69
614.449	395.69
614.657	395.69
614.865	380.69
615.072	399.69
615.28	388.69
615.488	377.69
615.695	385.69
615.903	385.69
616.111	381.69
616.318	374.69
616.526	373.69
616.733	368.69
616.941	374.69
617.148	368.69
617.356	367.69
617.563	393.69
617.771	375.69
617.978	369.69
618.185	381.69
618.393	377.69
618.6	375.69
618.807	378.69
619.015	371.69
619.222	357.69
619.429	347.69
619.637	336.69
619.844	332.69
620.051	356.69
620.258	357.69
620.466	362.69
620.673	346.69
620.88	343.69
621.087	349.69
621.294	338.69
621.501	342.69
621.708	319.69
621.915	328.69
622.122	343.69
622.329	354.69
622.536	355.69
622.743	363.69
622.95	321.69
623.157	329.69
623.364	338.69
623.571	355.69
623.778	356.69
623.985	338.69
624.192	330.69
624.399	346.69
624.606	332.69
624.812	315.69
625.019	317.69
625.226	311.69
625.433	329.69
625.639	333.69
625.846	313.69
626.053	292.69
626.259	286.69
626.466	290.69
626.673	288.69
626.879	278.69
627.086	299.69
627.293	318.69
627.499	303.69
627.706	320.69
627.912	306.69
628.119	322.69
628.325	321.69
628.532	294.69
628.738	305.69
628.945	310.69
629.151	318.69
629.357	299.69
629.564	323.69
629.77	286.69
629.976	294.69
630.183	298.69
630.389	303.69
630.595	316.69
630.802	296.69
631.008	298.69
631.214	285.69
631.42	294.69
631.627	274.69
631.833	277.69
632.039	290.69
632.245	283.69
632.451	282.69
632.657	285.69
632.863	283.69
633.069	297.69
633.275	286.69
633.481	294.69
633.688	270.69
633.893	283.69
634.099	287.69
634.305	276.69
634.511	277.69
634.717	253.69
634.923	250.69
635.129	253.69
635.335	266.69
635.541	278.69
635.747	272.69
635.952	274.69
636.158	277.69
636.364	285.69
636.57	270.69
636.775	257.69
636.981	282.69
637.187	284.69
637.392	294.69
637.598	297.69
637.804	295.69
638.009	287.69
638.215	275.69
638.421	260.69
638.626	270.69
638.832	261.69
639.037	265.69
639.243	281.69
639.448	251.69
639.654	257.69
639.859	290.69
640.065	260.69
640.27	267.69
640.475	265.69
640.681	271.69
640.886	265.69
641.091	262.69
641.297	264.69
641.502	254.69
641.707	252.69
641.913	266.69
642.118	255.69
642.323	260.69
642.528	264.69
642.733	254.69
642.939	253.69
643.144	248.69
643.349	256.69
643.554	261.69
643.759	244.69
643.964	268.69
644.169	249.69
644.374	248.69
644.579	240.69
644.784	253.69
644.989	247.69
645.194	230.69
645.399	234.69
645.604	249.69
645.809	249.69
646.014	242.69
646.219	261.69
646.423	241.69
646.628	256.69
646.833	266.69
647.038	257.69
647.243	262.69
647.447	261.69
647.652	265.69
647.857	267.69
648.062	264.69
648.266	279.69
648.471	234.69
648.676	257.69
648.88	264.69
649.085	288.69
649.289	255.69
649.494	252.69
649.698	255.69
649.903	248.69
650.107	240.69
650.312	230.69
650.516	237.69
650.721	263.69
650.925	242.69
651.13	243.69
651.334	234.69
651.539	237.69
651.743	225.69
651.947	230.69
652.152	237.69
652.356	226.69
652.56	229.69
652.764	207.69
652.969	244.69
653.173	219.69
653.377	225.69
653.581	232.69
653.785	206.69
653.99	212.69
654.194	209.69
654.398	228.69
654.602	221.69
654.806	238.69
655.01	208.69
655.214	230.69
655.418	227.69
655.622	203.69
655.826	228.69
656.03	237.69
656.234	257.69
656.438	257.69
656.642	254.69
656.846	242.69
657.049	227.69
657.253	208.69
657.457	190.69
657.661	186.69
657.865	169.69
658.068	186.69
658.272	166.69
658.476	156.69
658.68	154.69
658.883	141.69
659.087	139.69
659.291	136.69
659.494	146.69
659.698	126.69
659.901	128.69
660.105	120.69
660.309	118.69
660.512	131.69
660.716	124.69
660.919	113.69
661.123	118.69
661.326	115.69
661.53	120.69
661.733	107.69
661.936	104.69
662.14	99.69
662.343	85.69
662.546	88.69
662.75	96.69
662.953	99.69
663.156	86.69
663.36	86.69
663.563	90.69
663.766	73.69
663.969	85.69
664.173	83.69
664.376	92.69
664.579	89.69
664.782	90.69
664.985	82.69
665.188	81.69
665.391	86.69
665.594	84.69
665.797	88.69
666	93.69
666.203	70.69
666.406	79.69
666.609	81.69
666.812	87.69
667.015	88.69
667.218	83.69
667.421	83.69
667.624	75.69
667.827	83.69
668.03	84.69
668.232	99.69
668.435	93.69
668.638	78.69
668.841	83.69
669.043	83.69
669.246	84.69
669.449	70.69
669.651	72.69
669.854	68.69
670.057	82.69
670.259	74.69
670.462	70.69
670.665	74.69
670.867	81.69
671.07	92.69
671.272	92.69
671.475	72.69
671.677	78.69
671.88	61.69
672.082	84.69
672.284	68.69
672.487	77.69
672.689	85.69
672.892	84.69
