Data from WStandard_LampEnergy8_LIBS07252019.E.O._I.C._HRD10591_16-00-38-934.txt Node
Date: Thu Jul 25 16:00:38 EDT 2019
User: cochatt
Spectrometer: HR+D1059
Trigger mode: 1
Integration Time (sec): 1.000000E-1
Scans to average: 1
Electric dark correction enabled: true
Nonlinearity correction enabled: false
Boxcar width: 0
XAxis mode: Wavelengths
Number of Pixels in Spectrum: 2048
>>>>>Begin Spectral Data<<<<<
223.165	-21.19
223.4	-21.19
223.635	-21.19
223.869	-1.19
224.104	-21.19
224.338	-14.19
224.573	-16.19
224.808	-0.19
225.042	-10.19
225.277	14.81
225.511	-11.19
225.746	-14.19
225.98	2.81
226.215	13.81
226.449	17.81
226.683	14.81
226.918	21.81
227.152	23.81
227.387	36.81
227.621	35.81
227.856	40.81
228.09	35.81
228.324	47.81
228.559	41.81
228.793	93.81
229.027	190.81
229.262	193.81
229.496	204.81
229.73	217.81
229.964	244.81
230.199	255.81
230.433	258.81
230.667	268.81
230.901	271.81
231.136	249.81
231.37	249.81
231.604	256.81
231.838	251.81
232.072	254.81
232.306	244.81
232.541	270.81
232.775	285.81
233.009	294.81
233.243	315.81
233.477	287.81
233.711	300.81
233.945	291.81
234.179	296.81
234.413	283.81
234.647	341.81
234.881	307.81
235.115	275.81
235.349	286.81
235.583	289.81
235.817	292.81
236.051	294.81
236.285	289.81
236.519	303.81
236.753	340.81
236.987	358.81
237.221	362.81
237.455	353.81
237.689	348.81
237.922	347.81
238.156	336.81
238.39	346.81
238.624	360.81
238.858	390.81
239.091	387.81
239.325	396.81
239.559	452.81
239.793	479.81
240.027	486.81
240.26	459.81
240.494	374.81
240.728	366.81
240.961	385.81
241.195	408.81
241.429	392.81
241.662	387.81
241.896	385.81
242.13	377.81
242.363	412.81
242.597	438.81
242.83	434.81
243.064	448.81
243.298	453.81
243.531	455.81
243.765	441.81
243.998	442.81
244.232	399.81
244.465	382.81
244.699	402.81
244.932	460.81
245.166	508.81
245.399	471.81
245.633	453.81
245.866	431.81
246.099	450.81
246.333	459.81
246.566	487.81
246.8	513.81
247.033	564.81
247.266	518.81
247.5	516.81
247.733	511.81
247.966	539.81
248.2	582.81
248.433	580.81
248.666	598.81
248.899	635.81
249.133	725.81
249.366	772.81
249.599	653.81
249.832	597.81
250.066	609.81
250.299	587.81
250.532	555.81
250.765	519.81
250.998	549.81
251.231	564.81
251.465	569.81
251.698	555.81
251.931	547.81
252.164	561.81
252.397	608.81
252.63	554.81
252.863	533.81
253.096	544.81
253.329	566.81
253.562	582.81
253.795	603.81
254.028	594.81
254.261	555.81
254.494	553.81
254.727	545.81
254.96	543.81
255.193	609.81
255.426	692.81
255.659	768.81
255.892	759.81
256.124	647.81
256.357	632.81
256.59	686.81
256.823	698.81
257.056	679.81
257.289	793.81
257.521	841.81
257.754	785.81
257.987	768.81
258.22	796.81
258.452	764.81
258.685	643.81
258.918	653.81
259.151	639.81
259.383	608.81
259.616	574.81
259.849	582.81
260.081	670.81
260.314	752.81
260.547	779.81
260.779	793.81
261.012	704.81
261.244	665.81
261.477	663.81
261.71	647.81
261.942	664.81
262.175	660.81
262.407	670.81
262.64	631.81
262.872	620.81
263.105	585.81
263.337	616.81
263.57	611.81
263.802	628.81
264.035	589.81
264.267	550.81
264.499	545.81
264.732	591.81
264.964	632.81
265.197	670.81
265.429	648.81
265.661	744.81
265.894	837.81
266.126	840.81
266.358	782.81
266.591	766.81
266.823	827.81
267.055	747.81
267.287	747.81
267.52	704.81
267.752	734.81
267.984	755.81
268.216	764.81
268.448	781.81
268.681	765.81
268.913	707.81
269.145	677.81
269.377	676.81
269.609	747.81
269.841	838.81
270.073	963.81
270.306	1063.81
270.538	1059.81
270.77	887.81
271.002	789.81
271.234	779.81
271.466	783.81
271.698	883.81
271.93	1020.81
272.162	993.81
272.394	882.81
272.626	866.81
272.858	784.81
273.09	679.81
273.322	681.81
273.553	651.81
273.785	656.81
274.017	681.81
274.249	732.81
274.481	741.81
274.713	695.81
274.945	679.81
275.176	680.81
275.408	674.81
275.64	645.81
275.872	655.81
276.104	724.81
276.335	790.81
276.567	858.81
276.799	892.81
277.031	816.81
277.262	784.81
277.494	815.81
277.726	899.81
277.957	866.81
278.189	802.81
278.421	735.81
278.652	709.81
278.884	695.81
279.115	698.81
279.347	709.81
279.579	696.81
279.81	735.81
280.042	794.81
280.273	878.81
280.505	842.81
280.736	857.81
280.968	794.81
281.199	708.81
281.431	690.81
281.662	681.81
281.894	693.81
282.125	726.81
282.356	731.81
282.588	751.81
282.819	728.81
283.051	806.81
283.282	872.81
283.513	827.81
283.745	736.81
283.976	678.81
284.207	699.81
284.439	725.81
284.67	736.81
284.901	736.81
285.132	735.81
285.364	741.81
285.595	760.81
285.826	743.81
286.057	747.81
286.288	757.81
286.52	784.81
286.751	806.81
286.982	799.81
287.213	766.81
287.444	713.81
287.675	716.81
287.906	755.81
288.138	801.81
288.369	794.81
288.6	748.81
288.831	712.81
289.062	727.81
289.293	752.81
289.524	758.81
289.755	773.81
289.986	772.81
290.217	697.81
290.448	738.81
290.679	752.81
290.91	735.81
291.141	784.81
291.371	804.81
291.602	780.81
291.833	798.81
292.064	835.81
292.295	790.81
292.526	817.81
292.757	823.81
292.987	811.81
293.218	767.81
293.449	852.81
293.68	959.81
293.91	981.81
294.141	953.81
294.372	902.81
294.603	910.81
294.833	926.81
295.064	870.81
295.295	831.81
295.525	788.81
295.756	727.81
295.987	715.81
296.217	736.81
296.448	746.81
296.679	763.81
296.909	756.81
297.14	740.81
297.37	756.81
297.601	814.81
297.831	875.81
298.062	862.81
298.292	759.81
298.523	757.81
298.753	786.81
298.984	801.81
299.214	792.81
299.445	787.81
299.675	834.81
299.905	816.81
300.136	775.81
300.366	768.81
300.597	771.81
300.827	751.81
301.057	786.81
301.288	818.81
301.518	842.81
301.748	853.81
301.979	929.81
302.209	907.81
302.439	958.81
302.669	967.81
302.9	916.81
303.13	840.81
303.36	798.81
303.59	849.81
303.82	810.81
304.051	832.81
304.281	823.81
304.511	859.81
304.741	919.81
304.971	979.81
305.201	997.81
305.431	939.81
305.661	789.81
305.891	762.81
306.121	759.81
306.352	776.81
306.582	807.81
306.812	871.81
307.042	901.81
307.272	948.81
307.502	955.81
307.731	1011.81
307.961	1053.81
308.191	939.81
308.421	857.81
308.651	822.81
308.881	816.81
309.111	829.81
309.341	802.81
309.571	819.81
309.8	805.81
310.03	836.81
310.26	826.81
310.49	788.81
310.72	834.81
310.949	889.81
311.179	849.81
311.409	833.81
311.639	830.81
311.868	829.81
312.098	840.81
312.328	850.81
312.557	831.81
312.787	830.81
313.017	836.81
313.246	845.81
313.476	851.81
313.706	837.81
313.935	883.81
314.165	864.81
314.394	874.81
314.624	949.81
314.853	991.81
315.083	994.81
315.312	1022.81
315.542	935.81
315.771	855.81
316.001	899.81
316.23	929.81
316.46	943.81
316.689	928.81
316.919	869.81
317.148	852.81
317.377	880.81
317.607	933.81
317.836	1014.81
318.065	1052.81
318.295	996.81
318.524	956.81
318.753	948.81
318.983	934.81
319.212	900.81
319.441	898.81
319.67	900.81
319.9	896.81
320.129	949.81
320.358	987.81
320.587	1006.81
320.816	987.81
321.046	948.81
321.275	903.81
321.504	951.81
321.733	1020.81
321.962	983.81
322.191	923.81
322.42	913.81
322.649	890.81
322.878	896.81
323.108	892.81
323.337	944.81
323.566	951.81
323.795	932.81
324.024	929.81
324.253	898.81
324.482	927.81
324.71	893.81
324.939	860.81
325.168	886.81
325.397	912.81
325.626	947.81
325.855	924.81
326.084	920.81
326.313	923.81
326.542	926.81
326.77	986.81
326.999	944.81
327.228	900.81
327.457	866.81
327.686	871.81
327.914	920.81
328.143	924.81
328.372	911.81
328.6	895.81
328.829	901.81
329.058	881.81
329.287	904.81
329.515	933.81
329.744	988.81
329.972	982.81
330.201	1009.81
330.43	981.81
330.658	960.81
330.887	970.81
331.115	992.81
331.344	971.81
331.572	928.81
331.801	959.81
332.03	966.81
332.258	988.81
332.486	1012.81
332.715	981.81
332.943	972.81
333.172	962.81
333.4	986.81
333.629	1030.81
333.857	1093.81
334.085	1219.81
334.314	1334.81
334.542	1393.81
334.771	1270.81
334.999	1162.81
335.227	1078.81
335.455	1031.81
335.684	1039.81
335.912	1076.81
336.14	1058.81
336.369	1044.81
336.597	978.81
336.825	990.81
337.053	1031.81
337.281	1072.81
337.51	1093.81
337.738	1125.81
337.966	1070.81
338.194	996.81
338.422	982.81
338.65	959.81
338.878	968.81
339.106	896.81
339.334	914.81
339.562	917.81
339.79	953.81
340.018	992.81
340.246	1006.81
340.474	1039.81
340.702	1003.81
340.93	1006.81
341.158	987.81
341.386	977.81
341.614	976.81
341.842	951.81
342.07	949.81
342.298	1009.81
342.526	973.81
342.754	962.81
342.981	948.81
343.209	926.81
343.437	955.81
343.665	956.81
343.893	1016.81
344.12	1068.81
344.348	1036.81
344.576	992.81
344.804	972.81
345.031	972.81
345.259	985.81
345.487	954.81
345.714	908.81
345.942	896.81
346.17	886.81
346.397	939.81
346.625	902.81
346.853	875.81
347.08	856.81
347.308	866.81
347.535	914.81
347.763	936.81
347.99	923.81
348.218	894.81
348.445	890.81
348.673	887.81
348.9	967.81
349.128	972.81
349.355	972.81
349.583	961.81
349.81	926.81
350.037	836.81
350.265	831.81
350.492	876.81
350.72	887.81
350.947	938.81
351.174	942.81
351.402	884.81
351.629	861.81
351.856	837.81
352.083	839.81
352.311	887.81
352.538	867.81
352.765	924.81
352.992	917.81
353.22	879.81
353.447	872.81
353.674	903.81
353.901	908.81
354.128	891.81
354.355	908.81
354.583	937.81
354.81	924.81
355.037	936.81
355.264	937.81
355.491	917.81
355.718	934.81
355.945	902.81
356.172	872.81
356.399	857.81
356.626	881.81
356.853	944.81
357.08	1008.81
357.307	1072.81
357.534	1032.81
357.761	932.81
357.988	875.81
358.215	875.81
358.441	881.81
358.668	870.81
358.895	901.81
359.122	959.81
359.349	995.81
359.576	980.81
359.802	912.81
360.029	903.81
360.256	862.81
360.483	887.81
360.709	918.81
360.936	932.81
361.163	1001.81
361.39	1061.81
361.616	1102.81
361.843	1122.81
362.07	1024.81
362.296	948.81
362.523	879.81
362.749	923.81
362.976	924.81
363.203	950.81
363.429	891.81
363.656	892.81
363.882	941.81
364.109	1055.81
364.335	1072.81
364.562	1007.81
364.788	946.81
365.015	926.81
365.241	897.81
365.468	929.81
365.694	980.81
365.92	975.81
366.147	932.81
366.373	875.81
366.599	897.81
366.826	899.81
367.052	898.81
367.278	931.81
367.505	948.81
367.731	958.81
367.957	927.81
368.184	979.81
368.41	1042.81
368.636	1034.81
368.862	1054.81
369.089	1043.81
369.315	978.81
369.541	961.81
369.767	930.81
369.993	918.81
370.219	902.81
370.445	966.81
370.672	1020.81
370.898	1064.81
371.124	1037.81
371.35	983.81
371.576	1035.81
371.802	1001.81
372.028	976.81
372.254	950.81
372.48	919.81
372.706	922.81
372.932	923.81
373.158	959.81
373.384	938.81
373.61	990.81
373.835	1019.81
374.061	958.81
374.287	971.81
374.513	976.81
374.739	952.81
374.965	962.81
375.191	1015.81
375.416	1006.81
375.642	1018.81
375.868	1057.81
376.094	1112.81
376.319	1032.81
376.545	979.81
376.771	1006.81
376.997	1038.81
377.222	1015.81
377.448	1022.81
377.674	1015.81
377.899	1033.81
378.125	1093.81
378.35	1035.81
378.576	1006.81
378.802	932.81
379.027	958.81
379.253	971.81
379.478	963.81
379.704	977.81
379.929	947.81
380.155	980.81
380.38	971.81
380.606	970.81
380.831	993.81
381.057	1034.81
381.282	1042.81
381.507	1020.81
381.733	1109.81
381.958	1138.81
382.184	1055.81
382.409	992.81
382.634	1039.81
382.86	1027.81
383.085	1023.81
383.31	1058.81
383.535	1173.81
383.761	1190.81
383.986	1160.81
384.211	1087.81
384.436	1095.81
384.662	1147.81
384.887	1179.81
385.112	1104.81
385.337	1119.81
385.562	1097.81
385.787	1119.81
386.013	1152.81
386.238	1130.81
386.463	1112.81
386.688	1212.81
386.913	1290.81
387.138	1235.81
387.363	1180.81
387.588	1144.81
387.813	1138.81
388.038	1152.81
388.263	1183.81
388.488	1127.81
388.713	1050.81
388.938	1081.81
389.163	1080.81
389.387	1076.81
389.612	1104.81
389.837	1132.81
390.062	1125.81
390.287	1117.81
390.512	1090.81
390.736	1095.81
390.961	1070.81
391.186	1043.81
391.411	1091.81
391.636	1079.81
391.86	1100.81
392.085	1131.81
392.31	1099.81
392.534	1100.81
392.759	1139.81
392.984	1130.81
393.208	1114.81
393.433	1171.81
393.658	1203.81
393.882	1201.81
394.107	1163.81
394.331	1113.81
394.556	1117.81
394.78	1137.81
395.005	1129.81
395.229	1230.81
395.454	1253.81
395.678	1274.81
395.903	1204.81
396.127	1165.81
396.352	1198.81
396.576	1225.81
396.801	1209.81
397.025	1247.81
397.249	1210.81
397.474	1174.81
397.698	1202.81
397.922	1246.81
398.147	1305.81
398.371	1331.81
398.595	1292.81
398.82	1316.81
399.044	1300.81
399.268	1388.81
399.492	1411.81
399.717	1458.81
399.941	1474.81
400.165	1408.81
400.389	1400.81
400.613	1458.81
400.837	1640.81
401.062	1781.81
401.286	1510.81
401.51	1410.81
401.734	1417.81
401.958	1396.81
402.182	1323.81
402.406	1295.81
402.63	1255.81
402.854	1265.81
403.078	1278.81
403.302	1270.81
403.526	1343.81
403.75	1320.81
403.974	1327.81
404.198	1336.81
404.422	1408.81
404.645	1448.81
404.869	1407.81
405.093	1276.81
405.317	1273.81
405.541	1303.81
405.765	1318.81
405.988	1337.81
406.212	1344.81
406.436	1369.81
406.66	1414.81
406.883	1503.81
407.107	1654.81
407.331	1760.81
407.555	1879.81
407.778	1682.81
408.002	1448.81
408.226	1397.81
408.449	1387.81
408.673	1377.81
408.896	1371.81
409.12	1368.81
409.344	1359.81
409.567	1306.81
409.791	1351.81
410.014	1354.81
410.238	1424.81
410.461	1474.81
410.685	1370.81
410.908	1320.81
411.132	1350.81
411.355	1317.81
411.578	1335.81
411.802	1327.81
412.025	1336.81
412.249	1327.81
412.472	1282.81
412.695	1248.81
412.919	1266.81
413.142	1293.81
413.365	1295.81
413.589	1316.81
413.812	1360.81
414.035	1428.81
414.258	1319.81
414.482	1262.81
414.705	1264.81
414.928	1291.81
415.151	1242.81
415.374	1251.81
415.597	1334.81
415.821	1290.81
416.044	1321.81
416.267	1348.81
416.49	1268.81
416.713	1240.81
416.936	1327.81
417.159	1328.81
417.382	1316.81
417.605	1248.81
417.828	1299.81
418.051	1294.81
418.274	1306.81
418.497	1244.81
418.72	1274.81
418.943	1238.81
419.166	1336.81
419.389	1348.81
419.611	1298.81
419.834	1282.81
420.057	1279.81
420.28	1267.81
420.503	1283.81
420.726	1270.81
420.948	1291.81
421.171	1238.81
421.394	1276.81
421.617	1323.81
421.839	1301.81
422.062	1281.81
422.285	1259.81
422.507	1265.81
422.73	1230.81
422.953	1191.81
423.175	1200.81
423.398	1271.81
423.621	1275.81
423.843	1269.81
424.066	1314.81
424.288	1388.81
424.511	1364.81
424.733	1358.81
424.956	1214.81
425.178	1219.81
425.401	1226.81
425.623	1233.81
425.846	1214.81
426.068	1302.81
426.291	1327.81
426.513	1291.81
426.735	1269.81
426.958	1382.81
427.18	1474.81
427.402	1346.81
427.625	1377.81
427.847	1362.81
428.069	1256.81
428.292	1226.81
428.514	1191.81
428.736	1192.81
428.958	1211.81
429.181	1256.81
429.403	1434.81
429.625	1686.81
429.847	1434.81
430.069	1274.81
430.292	1409.81
430.514	1466.81
430.736	1335.81
430.958	1315.81
431.18	1275.81
431.402	1195.81
431.624	1202.81
431.846	1161.81
432.068	1140.81
432.29	1110.81
432.512	1148.81
432.734	1249.81
432.956	1279.81
433.178	1310.81
433.4	1310.81
433.622	1258.81
433.844	1223.81
434.066	1176.81
434.287	1151.81
434.509	1210.81
434.731	1259.81
434.953	1360.81
435.175	1273.81
435.397	1235.81
435.618	1277.81
435.84	1254.81
436.062	1206.81
436.284	1228.81
436.505	1290.81
436.727	1326.81
436.949	1244.81
437.17	1190.81
437.392	1187.81
437.614	1186.81
437.835	1171.81
438.057	1214.81
438.278	1238.81
438.5	1220.81
438.721	1214.81
438.943	1224.81
439.165	1241.81
439.386	1216.81
439.608	1189.81
439.829	1204.81
440.05	1234.81
440.272	1232.81
440.493	1208.81
440.715	1262.81
440.936	1328.81
441.158	1455.81
441.379	1375.81
441.6	1351.81
441.822	1331.81
442.043	1286.81
442.264	1264.81
442.486	1252.81
442.707	1264.81
442.928	1239.81
443.149	1264.81
443.371	1336.81
443.592	1342.81
443.813	1350.81
444.034	1316.81
444.255	1311.81
444.476	1367.81
444.698	1359.81
444.919	1367.81
445.14	1460.81
445.361	1426.81
445.582	1398.81
445.803	1404.81
446.024	1358.81
446.245	1382.81
446.466	1322.81
446.687	1311.81
446.908	1316.81
447.129	1282.81
447.35	1266.81
447.571	1256.81
447.792	1224.81
448.013	1187.81
448.234	1243.81
448.455	1271.81
448.675	1254.81
448.896	1202.81
449.117	1192.81
449.338	1198.81
449.559	1271.81
449.779	1292.81
450	1388.81
450.221	1455.81
450.442	1422.81
450.662	1258.81
450.883	1144.81
451.104	1126.81
451.324	1172.81
451.545	1182.81
451.766	1168.81
451.986	1121.81
452.207	1106.81
452.428	1107.81
452.648	1083.81
452.869	1092.81
453.089	1138.81
453.31	1088.81
453.53	1143.81
453.751	1094.81
453.971	1030.81
454.192	1057.81
454.412	1125.81
454.633	1139.81
454.853	1097.81
455.073	1029.81
455.294	1027.81
455.514	1024.81
455.734	1033.81
455.955	1080.81
456.175	1034.81
456.395	1068.81
456.616	1088.81
456.836	1077.81
457.056	1067.81
457.276	1043.81
457.497	1009.81
457.717	997.81
457.937	1003.81
458.157	1057.81
458.377	1035.81
458.598	1006.81
458.818	1007.81
459.038	1101.81
459.258	1147.81
459.478	1145.81
459.698	1121.81
459.918	1130.81
460.138	1216.81
460.358	1196.81
460.578	1214.81
460.798	1302.81
461.018	1326.81
461.238	1276.81
461.458	1253.81
461.678	1242.81
461.898	1206.81
462.118	1176.81
462.338	1262.81
462.558	1270.81
462.777	1241.81
462.997	1301.81
463.217	1363.81
463.437	1320.81
463.657	1245.81
463.876	1246.81
464.096	1209.81
464.316	1247.81
464.536	1270.81
464.755	1278.81
464.975	1298.81
465.195	1260.81
465.414	1294.81
465.634	1302.81
465.854	1287.81
466.073	1354.81
466.293	1288.81
466.512	1171.81
466.732	1156.81
466.951	1237.81
467.171	1204.81
467.391	1172.81
467.61	1160.81
467.829	1198.81
468.049	1290.81
468.268	1419.81
468.488	1287.81
468.707	1237.81
468.927	1221.81
469.146	1152.81
469.365	1183.81
469.585	1194.81
469.804	1164.81
470.023	1205.81
470.243	1193.81
470.462	1224.81
470.681	1180.81
470.901	1227.81
471.12	1213.81
471.339	1206.81
471.558	1205.81
471.777	1150.81
471.997	1166.81
472.216	1158.81
472.435	1095.81
472.654	1092.81
472.873	1139.81
473.092	1210.81
473.311	1189.81
473.53	1146.81
473.749	1115.81
473.968	1172.81
474.187	1220.81
474.406	1204.81
474.625	1192.81
474.844	1188.81
475.063	1186.81
475.282	1210.81
475.501	1165.81
475.72	1183.81
475.939	1243.81
476.158	1215.81
476.377	1194.81
476.596	1167.81
476.814	1170.81
477.033	1174.81
477.252	1247.81
477.471	1284.81
477.69	1238.81
477.908	1270.81
478.127	1320.81
478.346	1390.81
478.564	1378.81
478.783	1367.81
479.002	1417.81
479.22	1376.81
479.439	1435.81
479.658	1542.81
479.876	1467.81
480.095	1356.81
480.313	1306.81
480.532	1284.81
480.751	1266.81
480.969	1284.81
481.188	1240.81
481.406	1204.81
481.624	1210.81
481.843	1254.81
482.061	1285.81
482.28	1337.81
482.498	1302.81
482.717	1286.81
482.935	1253.81
483.153	1318.81
483.372	1342.81
483.59	1336.81
483.808	1351.81
484.027	1324.81
484.245	1425.81
484.463	1709.81
484.681	1856.81
484.9	1431.81
485.118	1356.81
485.336	1300.81
485.554	1379.81
485.772	1387.81
485.99	1350.81
486.209	1386.81
486.427	1373.81
486.645	1347.81
486.863	1375.81
487.081	1433.81
487.299	1426.81
487.517	1394.81
487.735	1438.81
487.953	1477.81
488.171	1467.81
488.389	1460.81
488.607	1422.81
488.825	1576.81
489.043	1481.81
489.261	1385.81
489.479	1458.81
489.696	1458.81
489.914	1426.81
490.132	1409.81
490.35	1445.81
490.568	1523.81
490.786	1461.81
491.003	1467.81
491.221	1515.81
491.439	1569.81
491.657	1557.81
491.874	1605.81
492.092	1601.81
492.31	1668.81
492.527	1648.81
492.745	1585.81
492.963	1567.81
493.18	1553.81
493.398	1645.81
493.615	1651.81
493.833	1587.81
494.05	1502.81
494.268	1503.81
494.485	1551.81
494.703	1521.81
494.92	1507.81
495.138	1527.81
495.355	1534.81
495.573	1550.81
495.79	1655.81
496.008	1606.81
496.225	1567.81
496.442	1586.81
496.66	1594.81
496.877	1556.81
497.094	1573.81
497.312	1614.81
497.529	1588.81
497.746	1599.81
497.963	1811.81
498.181	1929.81
498.398	1838.81
498.615	1800.81
498.832	1735.81
499.049	1767.81
499.267	1747.81
499.484	1884.81
499.701	1974.81
499.918	2002.81
500.135	2211.81
500.352	2297.81
500.569	2320.81
500.786	2475.81
501.003	2261.81
501.22	2100.81
501.437	2025.81
501.654	2057.81
501.871	1960.81
502.088	1790.81
502.305	1736.81
502.522	1674.81
502.739	1562.81
502.956	1534.81
503.172	1526.81
503.389	1497.81
503.606	1448.81
503.823	1468.81
504.04	1454.81
504.256	1456.81
504.473	1484.81
504.69	1530.81
504.907	1416.81
505.123	1371.81
505.34	1528.81
505.557	1956.81
505.773	1612.81
505.99	1381.81
506.207	1307.81
506.423	1302.81
506.64	1291.81
506.856	1299.81
507.073	1442.81
507.289	1553.81
507.506	1464.81
507.722	1287.81
507.939	1229.81
508.155	1198.81
508.372	1222.81
508.588	1188.81
508.805	1201.81
509.021	1175.81
509.238	1097.81
509.454	1106.81
509.67	1129.81
509.887	1096.81
510.103	1109.81
510.319	1134.81
510.536	1162.81
510.752	1154.81
510.968	1164.81
511.184	1245.81
511.401	1224.81
511.617	1113.81
511.833	1090.81
512.049	1096.81
512.265	1066.81
512.481	1057.81
512.698	1123.81
512.914	1186.81
513.13	1160.81
513.346	1122.81
513.562	1108.81
513.778	1108.81
513.994	1142.81
514.21	1174.81
514.426	1162.81
514.642	1290.81
514.858	1176.81
515.074	1118.81
515.29	1090.81
515.506	1108.81
515.721	1144.81
515.937	1167.81
516.153	1306.81
516.369	1224.81
516.585	1139.81
516.801	1110.81
517.016	1143.81
517.232	1191.81
517.448	1179.81
517.664	1180.81
517.879	1197.81
518.095	1241.81
518.311	1199.81
518.527	1158.81
518.742	1160.81
518.958	1119.81
519.173	1114.81
519.389	1118.81
519.605	1144.81
519.82	1112.81
520.036	1173.81
520.251	1125.81
520.467	1148.81
520.682	1216.81
520.898	1217.81
521.113	1113.81
521.329	1099.81
521.544	1160.81
521.76	1143.81
521.975	1095.81
522.19	1057.81
522.406	1072.81
522.621	1334.81
522.836	1302.81
523.052	1072.81
523.267	1059.81
523.482	1095.81
523.698	1065.81
523.913	1030.81
524.128	1044.81
524.343	1128.81
524.559	1140.81
524.774	1102.81
524.989	1082.81
525.204	1052.81
525.419	1042.81
525.634	1026.81
525.849	1054.81
526.064	1012.81
526.28	1038.81
526.495	1010.81
526.71	972.81
526.925	978.81
527.14	962.81
527.355	952.81
527.57	946.81
527.785	971.81
527.999	958.81
528.214	970.81
528.429	978.81
528.644	992.81
528.859	1031.81
529.074	1052.81
529.289	1120.81
529.503	1122.81
529.718	1065.81
529.933	1007.81
530.148	974.81
530.363	952.81
530.577	963.81
530.792	978.81
531.007	986.81
531.221	966.81
531.436	975.81
531.651	1006.81
531.865	1035.81
532.08	1010.81
532.295	957.81
532.509	926.81
532.724	950.81
532.938	975.81
533.153	1040.81
533.367	1008.81
533.582	1036.81
533.796	1006.81
534.011	1001.81
534.225	989.81
534.44	968.81
534.654	940.81
534.868	942.81
535.083	995.81
535.297	1008.81
535.511	984.81
535.726	963.81
535.94	977.81
536.154	971.81
536.369	930.81
536.583	922.81
536.797	935.81
537.011	951.81
537.225	918.81
537.44	898.81
537.654	966.81
537.868	931.81
538.082	878.81
538.296	928.81
538.51	912.81
538.724	937.81
538.938	952.81
539.153	971.81
539.367	972.81
539.581	929.81
539.795	979.81
540.009	923.81
540.222	930.81
540.436	954.81
540.65	1035.81
540.864	1076.81
541.078	1036.81
541.292	998.81
541.506	1030.81
541.72	1115.81
541.934	1105.81
542.147	1146.81
542.361	1143.81
542.575	1048.81
542.789	1007.81
543.002	936.81
543.216	955.81
543.43	1018.81
543.644	1022.81
543.857	1120.81
544.071	1090.81
544.285	1074.81
544.498	1045.81
544.712	1066.81
544.925	1095.81
545.139	1106.81
545.352	1042.81
545.566	1048.81
545.779	1058.81
545.993	1051.81
546.206	1052.81
546.42	1062.81
546.633	1033.81
546.847	1040.81
547.06	1061.81
547.274	1054.81
547.487	1079.81
547.7	1074.81
547.914	1063.81
548.127	1092.81
548.34	1078.81
548.554	1047.81
548.767	1045.81
548.98	1035.81
549.193	1058.81
549.407	1078.81
549.62	1075.81
549.833	1055.81
550.046	1027.81
550.259	1074.81
550.473	1014.81
550.686	1009.81
550.899	991.81
551.112	993.81
551.325	954.81
551.538	1030.81
551.751	1099.81
551.964	894.81
552.177	900.81
552.39	946.81
552.603	987.81
552.816	993.81
553.029	1055.81
553.242	1063.81
553.455	1037.81
553.667	1010.81
553.88	1040.81
554.093	976.81
554.306	983.81
554.519	950.81
554.732	942.81
554.944	951.81
555.157	984.81
555.37	927.81
555.583	936.81
555.795	902.81
556.008	895.81
556.221	858.81
556.433	848.81
556.646	856.81
556.859	848.81
557.071	875.81
557.284	868.81
557.496	862.81
557.709	828.81
557.921	854.81
558.134	842.81
558.346	842.81
558.559	828.81
558.771	826.81
558.984	821.81
559.196	812.81
559.409	806.81
559.621	802.81
559.833	784.81
560.046	801.81
560.258	815.81
560.47	814.81
560.683	787.81
560.895	784.81
561.107	814.81
561.32	791.81
561.532	811.81
561.744	801.81
561.956	828.81
562.168	803.81
562.381	778.81
562.593	775.81
562.805	754.81
563.017	767.81
563.229	801.81
563.441	778.81
563.653	770.81
563.865	777.81
564.077	723.81
564.289	750.81
564.501	766.81
564.713	798.81
564.925	829.81
565.137	885.81
565.349	782.81
565.561	816.81
565.773	790.81
565.985	827.81
566.197	831.81
566.408	921.81
566.62	890.81
566.832	922.81
567.044	919.81
567.255	870.81
567.467	867.81
567.679	892.81
567.891	914.81
568.102	857.81
568.314	854.81
568.526	791.81
568.737	770.81
568.949	733.81
569.161	727.81
569.372	672.81
569.584	659.81
569.795	683.81
570.007	663.81
570.218	648.81
570.43	634.81
570.641	645.81
570.853	648.81
571.064	663.81
571.276	672.81
571.487	668.81
571.698	639.81
571.91	607.81
572.121	626.81
572.333	588.81
572.544	592.81
572.755	581.81
572.966	571.81
573.178	584.81
573.389	545.81
573.6	577.81
573.811	627.81
574.023	582.81
574.234	563.81
574.445	555.81
574.656	548.81
574.867	540.81
575.078	575.81
575.289	550.81
575.501	551.81
575.712	523.81
575.923	562.81
576.134	566.81
576.345	537.81
576.556	526.81
576.767	553.81
576.978	523.81
577.188	529.81
577.399	510.81
577.61	507.81
577.821	515.81
578.032	518.81
578.243	526.81
578.454	496.81
578.665	494.81
578.875	470.81
579.086	473.81
579.297	495.81
579.508	503.81
579.718	489.81
579.929	469.81
580.14	485.81
580.35	469.81
580.561	487.81
580.772	531.81
580.982	496.81
581.193	497.81
581.403	479.81
581.614	470.81
581.825	479.81
582.035	472.81
582.246	472.81
582.456	470.81
582.667	479.81
582.877	457.81
583.087	471.81
583.298	456.81
583.508	476.81
583.719	448.81
583.929	467.81
584.139	437.81
584.35	449.81
584.56	449.81
584.77	460.81
584.981	469.81
585.191	468.81
585.401	468.81
585.611	471.81
585.821	453.81
586.032	424.81
586.242	457.81
586.452	454.81
586.662	454.81
586.872	453.81
587.082	453.81
587.292	444.81
587.502	454.81
587.713	454.81
587.923	439.81
588.133	456.81
588.343	435.81
588.553	439.81
588.762	447.81
588.972	444.81
589.182	446.81
589.392	452.81
589.602	456.81
589.812	445.81
590.022	419.81
590.232	434.81
590.441	464.81
590.651	456.81
590.861	458.81
591.071	418.81
591.281	425.81
591.49	437.81
591.7	430.81
591.91	456.81
592.119	440.81
592.329	442.81
592.539	474.81
592.748	451.81
592.958	454.81
593.167	462.81
593.377	455.81
593.587	460.81
593.796	437.81
594.006	461.81
594.215	459.81
594.424	468.81
594.634	452.81
594.843	441.81
595.053	469.81
595.262	440.81
595.472	447.81
595.681	436.81
595.89	465.81
596.1	416.81
596.309	436.81
596.518	434.81
596.727	420.81
596.937	404.81
597.146	409.81
597.355	397.81
597.564	396.81
597.774	416.81
597.983	408.81
598.192	383.81
598.401	399.81
598.61	374.81
598.819	379.81
599.028	392.81
599.237	409.81
599.446	382.81
599.655	383.81
599.864	386.81
600.073	387.81
600.282	397.81
600.491	370.81
600.7	384.81
600.909	394.81
601.118	404.81
601.327	395.81
601.536	395.81
601.745	411.81
601.953	411.81
602.162	390.81
602.371	396.81
602.58	410.81
602.789	408.81
602.997	416.81
603.206	419.81
603.415	400.81
603.623	384.81
603.832	394.81
604.041	390.81
604.249	391.81
604.458	389.81
604.666	352.81
604.875	384.81
605.084	390.81
605.292	398.81
605.501	405.81
605.709	391.81
605.918	387.81
606.126	392.81
606.334	393.81
606.543	398.81
606.751	402.81
606.96	396.81
607.168	402.81
607.376	386.81
607.585	386.81
607.793	402.81
608.001	400.81
608.21	396.81
608.418	397.81
608.626	406.81
608.834	387.81
609.043	390.81
609.251	384.81
609.459	393.81
609.667	404.81
609.875	386.81
610.083	398.81
610.291	408.81
610.499	397.81
610.707	398.81
610.916	384.81
611.124	393.81
611.332	376.81
611.54	384.81
611.748	387.81
611.955	366.81
612.163	415.81
612.371	381.81
612.579	375.81
612.787	394.81
612.995	392.81
613.203	371.81
613.411	387.81
613.618	376.81
613.826	369.81
614.034	391.81
614.242	391.81
614.449	374.81
614.657	416.81
614.865	386.81
615.072	415.81
615.28	379.81
615.488	370.81
615.695	402.81
615.903	382.81
616.111	373.81
616.318	385.81
616.526	398.81
616.733	391.81
616.941	376.81
617.148	363.81
617.356	374.81
617.563	375.81
617.771	366.81
617.978	338.81
618.185	344.81
618.393	382.81
618.6	359.81
618.807	367.81
619.015	384.81
619.222	343.81
619.429	362.81
619.637	358.81
619.844	340.81
620.051	347.81
620.258	330.81
620.466	350.81
620.673	366.81
620.88	348.81
621.087	340.81
621.294	346.81
621.501	339.81
621.708	331.81
621.915	349.81
622.122	347.81
622.329	350.81
622.536	360.81
622.743	355.81
622.95	339.81
623.157	334.81
623.364	345.81
623.571	361.81
623.778	332.81
623.985	341.81
624.192	337.81
624.399	327.81
624.606	335.81
624.812	328.81
625.019	306.81
625.226	308.81
625.433	331.81
625.639	308.81
625.846	310.81
626.053	293.81
626.259	302.81
626.466	288.81
626.673	274.81
626.879	276.81
627.086	294.81
627.293	311.81
627.499	306.81
627.706	316.81
627.912	331.81
628.119	305.81
628.325	332.81
628.532	306.81
628.738	312.81
628.945	304.81
629.151	316.81
629.357	304.81
629.564	305.81
629.77	303.81
629.976	320.81
630.183	293.81
630.389	311.81
630.595	306.81
630.802	291.81
631.008	284.81
631.214	307.81
631.42	292.81
631.627	279.81
631.833	281.81
632.039	297.81
632.245	289.81
632.451	300.81
632.657	297.81
632.863	304.81
633.069	286.81
633.275	282.81
633.481	287.81
633.688	276.81
633.893	287.81
634.099	280.81
634.305	268.81
634.511	275.81
634.717	262.81
634.923	277.81
635.129	264.81
635.335	260.81
635.541	265.81
635.747	308.81
635.952	267.81
636.158	266.81
636.364	263.81
636.57	269.81
636.775	271.81
636.981	274.81
637.187	277.81
637.392	271.81
637.598	274.81
637.804	284.81
638.009	271.81
638.215	279.81
638.421	266.81
638.626	292.81
638.832	257.81
639.037	264.81
639.243	268.81
639.448	279.81
639.654	266.81
639.859	242.81
640.065	268.81
640.27	262.81
640.475	256.81
640.681	276.81
640.886	281.81
641.091	254.81
641.297	282.81
641.502	281.81
641.707	281.81
641.913	280.81
642.118	276.81
642.323	266.81
642.528	263.81
642.733	259.81
642.939	255.81
643.144	254.81
643.349	262.81
643.554	258.81
643.759	254.81
643.964	261.81
644.169	257.81
644.374	249.81
644.579	253.81
644.784	274.81
644.989	249.81
645.194	243.81
645.399	254.81
645.604	240.81
645.809	267.81
646.014	261.81
646.219	264.81
646.423	252.81
646.628	239.81
646.833	240.81
647.038	260.81
647.243	260.81
647.447	254.81
647.652	251.81
647.857	243.81
648.062	248.81
648.266	257.81
648.471	246.81
648.676	273.81
648.88	261.81
649.085	240.81
649.289	237.81
649.494	237.81
649.698	247.81
649.903	253.81
650.107	255.81
650.312	247.81
650.516	243.81
650.721	254.81
650.925	236.81
651.13	242.81
651.334	239.81
651.539	230.81
651.743	236.81
651.947	225.81
652.152	236.81
652.356	222.81
652.56	232.81
652.764	219.81
652.969	226.81
653.173	228.81
653.377	220.81
653.581	234.81
653.785	222.81
653.99	224.81
654.194	216.81
654.398	223.81
654.602	221.81
654.806	220.81
655.01	227.81
655.214	218.81
655.418	199.81
655.622	225.81
655.826	219.81
656.03	250.81
656.234	247.81
656.438	242.81
656.642	266.81
656.846	258.81
657.049	232.81
657.253	219.81
657.457	207.81
657.661	215.81
657.865	185.81
658.068	176.81
658.272	185.81
658.476	190.81
658.68	162.81
658.883	154.81
659.087	153.81
659.291	152.81
659.494	130.81
659.698	143.81
659.901	138.81
660.105	137.81
660.309	131.81
660.512	115.81
660.716	134.81
660.919	126.81
661.123	126.81
661.326	113.81
661.53	111.81
661.733	105.81
661.936	97.81
662.14	94.81
662.343	95.81
662.546	111.81
662.75	86.81
662.953	93.81
663.156	84.81
663.36	88.81
663.563	93.81
663.766	92.81
663.969	81.81
664.173	67.81
664.376	97.81
664.579	68.81
664.782	82.81
664.985	72.81
665.188	91.81
665.391	77.81
665.594	90.81
665.797	96.81
666	84.81
666.203	91.81
666.406	81.81
666.609	98.81
666.812	83.81
667.015	71.81
667.218	78.81
667.421	84.81
667.624	88.81
667.827	84.81
668.03	85.81
668.232	83.81
668.435	78.81
668.638	72.81
668.841	89.81
669.043	70.81
669.246	73.81
669.449	79.81
669.651	96.81
669.854	86.81
670.057	76.81
670.259	91.81
670.462	92.81
670.665	81.81
670.867	83.81
671.07	90.81
671.272	94.81
671.475	79.81
671.677	84.81
671.88	86.81
672.082	70.81
672.284	82.81
672.487	81.81
672.689	69.81
672.892	73.81
