Data from WStandard_LampEnergy5.5LIBS07252019.E.O._I.C._HRD10591_16-09-09-920.txt Node
Date: Thu Jul 25 16:09:09 EDT 2019
User: cochatt
Spectrometer: HR+D1059
Trigger mode: 1
Integration Time (sec): 1.000000E-1
Scans to average: 1
Electric dark correction enabled: true
Nonlinearity correction enabled: false
Boxcar width: 0
XAxis mode: Wavelengths
Number of Pixels in Spectrum: 2048
>>>>>Begin Spectral Data<<<<<
223.165	2.69
223.4	2.69
223.635	2.69
223.869	-9.31
224.104	-17.31
224.338	-29.31
224.573	-17.31
224.808	-31.31
225.042	-8.31
225.277	-20.31
225.511	16.69
225.746	2.69
225.98	1.69
226.215	8.69
226.449	15.69
226.683	30.69
226.918	30.69
227.152	23.69
227.387	22.69
227.621	29.69
227.856	37.69
228.09	44.69
228.324	55.69
228.559	56.69
228.793	126.69
229.027	355.69
229.262	346.69
229.496	377.69
229.73	382.69
229.964	410.69
230.199	442.69
230.433	453.69
230.667	472.69
230.901	536.69
231.136	466.69
231.37	443.69
231.604	449.69
231.838	443.69
232.072	480.69
232.306	449.69
232.541	445.69
232.775	549.69
233.009	620.69
233.243	552.69
233.477	528.69
233.711	531.69
233.945	546.69
234.179	543.69
234.413	560.69
234.647	635.69
234.881	586.69
235.115	525.69
235.349	514.69
235.583	549.69
235.817	534.69
236.051	504.69
236.285	532.69
236.519	589.69
236.753	640.69
236.987	652.69
237.221	653.69
237.455	721.69
237.689	695.69
237.922	647.69
238.156	635.69
238.39	645.69
238.624	692.69
238.858	752.69
239.091	743.69
239.325	770.69
239.559	894.69
239.793	918.69
240.027	1008.69
240.26	990.69
240.494	770.69
240.728	670.69
240.961	698.69
241.195	706.69
241.429	784.69
241.662	799.69
241.896	727.69
242.13	734.69
242.363	820.69
242.597	884.69
242.83	827.69
243.064	838.69
243.298	920.69
243.531	893.69
243.765	896.69
243.998	887.69
244.232	773.69
244.465	768.69
244.699	762.69
244.932	884.69
245.166	994.69
245.399	926.69
245.633	886.69
245.866	854.69
246.099	908.69
246.333	918.69
246.566	934.69
246.8	1006.69
247.033	1126.69
247.266	1007.69
247.5	976.69
247.733	1040.69
247.966	1124.69
248.2	1234.69
248.433	1124.69
248.666	1161.69
248.899	1296.69
249.133	1487.69
249.366	1689.69
249.599	1396.69
249.832	1208.69
250.066	1210.69
250.299	1254.69
250.532	1158.69
250.765	1054.69
250.998	1131.69
251.231	1157.69
251.465	1226.69
251.698	1155.69
251.931	1188.69
252.164	1175.69
252.397	1227.69
252.63	1212.69
252.863	1061.69
253.096	1050.69
253.329	1115.69
253.562	1142.69
253.795	1215.69
254.028	1234.69
254.261	1149.69
254.494	1101.69
254.727	1076.69
254.96	1138.69
255.193	1243.69
255.426	1377.69
255.659	1567.69
255.892	1607.69
256.124	1360.69
256.357	1288.69
256.59	1397.69
256.823	1402.69
257.056	1373.69
257.289	1620.69
257.521	1873.69
257.754	1647.69
257.987	1529.69
258.22	1743.69
258.452	1704.69
258.685	1373.69
258.918	1315.69
259.151	1354.69
259.383	1298.69
259.616	1171.69
259.849	1249.69
260.081	1355.69
260.314	1505.69
260.547	1652.69
260.779	1667.69
261.012	1572.69
261.244	1415.69
261.477	1300.69
261.71	1382.69
261.942	1383.69
262.175	1346.69
262.407	1394.69
262.64	1338.69
262.872	1281.69
263.105	1225.69
263.337	1266.69
263.57	1278.69
263.802	1251.69
264.035	1191.69
264.267	1137.69
264.499	1124.69
264.732	1195.69
264.964	1258.69
265.197	1327.69
265.429	1379.69
265.661	1538.69
265.894	1720.69
266.126	1770.69
266.358	1544.69
266.591	1584.69
266.823	1821.69
267.055	1611.69
267.287	1524.69
267.52	1496.69
267.752	1534.69
267.984	1503.69
268.216	1540.69
268.448	1612.69
268.681	1576.69
268.913	1494.69
269.145	1377.69
269.377	1371.69
269.609	1468.69
269.841	1686.69
270.073	1933.69
270.306	2207.69
270.538	2330.69
270.77	2014.69
271.002	1687.69
271.234	1635.69
271.466	1606.69
271.698	1758.69
271.93	2132.69
272.162	2141.69
272.394	1970.69
272.626	1862.69
272.858	1648.69
273.09	1418.69
273.322	1422.69
273.553	1369.69
273.785	1370.69
274.017	1430.69
274.249	1574.69
274.481	1550.69
274.713	1366.69
274.945	1398.69
275.176	1413.69
275.408	1391.69
275.64	1348.69
275.872	1306.69
276.104	1385.69
276.335	1601.69
276.567	1873.69
276.799	1933.69
277.031	1686.69
277.262	1594.69
277.494	1642.69
277.726	1815.69
277.957	1784.69
278.189	1635.69
278.421	1479.69
278.652	1438.69
278.884	1408.69
279.115	1437.69
279.347	1493.69
279.579	1408.69
279.81	1424.69
280.042	1571.69
280.273	1737.69
280.505	1720.69
280.736	1747.69
280.968	1694.69
281.199	1449.69
281.431	1413.69
281.662	1444.69
281.894	1415.69
282.125	1458.69
282.356	1525.69
282.588	1478.69
282.819	1490.69
283.051	1639.69
283.282	1760.69
283.513	1699.69
283.745	1481.69
283.976	1387.69
284.207	1401.69
284.439	1447.69
284.67	1503.69
284.901	1471.69
285.132	1524.69
285.364	1507.69
285.595	1524.69
285.826	1485.69
286.057	1471.69
286.288	1477.69
286.52	1552.69
286.751	1662.69
286.982	1719.69
287.213	1523.69
287.444	1379.69
287.675	1400.69
287.906	1487.69
288.138	1606.69
288.369	1598.69
288.6	1482.69
288.831	1450.69
289.062	1448.69
289.293	1515.69
289.524	1498.69
289.755	1503.69
289.986	1561.69
290.217	1409.69
290.448	1463.69
290.679	1521.69
290.91	1478.69
291.141	1570.69
291.371	1626.69
291.602	1591.69
291.833	1601.69
292.064	1590.69
292.295	1600.69
292.526	1610.69
292.757	1700.69
292.987	1593.69
293.218	1523.69
293.449	1606.69
293.68	1798.69
293.91	1977.69
294.141	1832.69
294.372	1755.69
294.603	1824.69
294.833	1863.69
295.064	1775.69
295.295	1611.69
295.525	1558.69
295.756	1452.69
295.987	1418.69
296.217	1480.69
296.448	1446.69
296.679	1473.69
296.909	1496.69
297.14	1438.69
297.37	1475.69
297.601	1577.69
297.831	1685.69
298.062	1706.69
298.292	1567.69
298.523	1477.69
298.753	1487.69
298.984	1521.69
299.214	1511.69
299.445	1583.69
299.675	1580.69
299.905	1578.69
300.136	1542.69
300.366	1511.69
300.597	1470.69
300.827	1468.69
301.057	1538.69
301.288	1598.69
301.518	1565.69
301.748	1637.69
301.979	1707.69
302.209	1762.69
302.439	1826.69
302.669	1955.69
302.9	1785.69
303.13	1572.69
303.36	1633.69
303.59	1664.69
303.82	1602.69
304.051	1643.69
304.281	1647.69
304.511	1619.69
304.741	1700.69
304.971	1860.69
305.201	2066.69
305.431	1921.69
305.661	1579.69
305.891	1416.69
306.121	1433.69
306.352	1479.69
306.582	1562.69
306.812	1625.69
307.042	1809.69
307.272	1803.69
307.502	1819.69
307.731	1952.69
307.961	2070.69
308.191	1944.69
308.421	1673.69
308.651	1606.69
308.881	1555.69
309.111	1539.69
309.341	1505.69
309.571	1552.69
309.8	1552.69
310.03	1566.69
310.26	1522.69
310.49	1519.69
310.72	1543.69
310.949	1607.69
311.179	1651.69
311.409	1636.69
311.639	1583.69
311.868	1577.69
312.098	1579.69
312.328	1586.69
312.557	1570.69
312.787	1596.69
313.017	1674.69
313.246	1666.69
313.476	1626.69
313.706	1673.69
313.935	1642.69
314.165	1661.69
314.394	1718.69
314.624	1822.69
314.853	1879.69
315.083	1991.69
315.312	2021.69
315.542	1902.69
315.771	1671.69
316.001	1705.69
316.23	1784.69
316.46	1757.69
316.689	1745.69
316.919	1658.69
317.148	1599.69
317.377	1608.69
317.607	1721.69
317.836	1932.69
318.065	1999.69
318.295	1926.69
318.524	1829.69
318.753	1755.69
318.983	1716.69
319.212	1708.69
319.441	1690.69
319.67	1670.69
319.9	1729.69
320.129	1822.69
320.358	1865.69
320.587	1933.69
320.816	1896.69
321.046	1903.69
321.275	1786.69
321.504	1753.69
321.733	1941.69
321.962	1885.69
322.191	1720.69
322.42	1703.69
322.649	1702.69
322.878	1660.69
323.108	1743.69
323.337	1786.69
323.566	1770.69
323.795	1751.69
324.024	1805.69
324.253	1730.69
324.482	1692.69
324.71	1690.69
324.939	1619.69
325.168	1637.69
325.397	1658.69
325.626	1753.69
325.855	1751.69
326.084	1710.69
326.313	1718.69
326.542	1723.69
326.77	1802.69
326.999	1804.69
327.228	1723.69
327.457	1657.69
327.686	1628.69
327.914	1675.69
328.143	1712.69
328.372	1714.69
328.6	1698.69
328.829	1682.69
329.058	1659.69
329.287	1642.69
329.515	1714.69
329.744	1754.69
329.972	1766.69
330.201	1884.69
330.43	1864.69
330.658	1843.69
330.887	1798.69
331.115	1828.69
331.344	1819.69
331.572	1809.69
331.801	1791.69
332.03	1753.69
332.258	1830.69
332.486	1777.69
332.715	1874.69
332.943	1892.69
333.172	1814.69
333.4	1857.69
333.629	1876.69
333.857	1985.69
334.085	2170.69
334.314	2398.69
334.542	2630.69
334.771	2428.69
334.999	2150.69
335.227	2068.69
335.455	1976.69
335.684	1907.69
335.912	1944.69
336.14	2027.69
336.369	1977.69
336.597	1870.69
336.825	1811.69
337.053	1875.69
337.281	1978.69
337.51	2038.69
337.738	2112.69
337.966	2076.69
338.194	1889.69
338.422	1844.69
338.65	1793.69
338.878	1816.69
339.106	1752.69
339.334	1736.69
339.562	1714.69
339.79	1722.69
340.018	1851.69
340.246	1897.69
340.474	1905.69
340.702	1848.69
340.93	1880.69
341.158	1820.69
341.386	1819.69
341.614	1830.69
341.842	1783.69
342.07	1765.69
342.298	1770.69
342.526	1808.69
342.754	1766.69
342.981	1763.69
343.209	1759.69
343.437	1733.69
343.665	1763.69
343.893	1811.69
344.12	1922.69
344.348	1936.69
344.576	1893.69
344.804	1772.69
345.031	1790.69
345.259	1811.69
345.487	1758.69
345.714	1654.69
345.942	1641.69
346.17	1627.69
346.397	1680.69
346.625	1730.69
346.853	1636.69
347.08	1610.69
347.308	1627.69
347.535	1637.69
347.763	1717.69
347.99	1710.69
348.218	1619.69
348.445	1611.69
348.673	1636.69
348.9	1678.69
349.128	1791.69
349.355	1851.69
349.583	1776.69
349.81	1671.69
350.037	1550.69
350.265	1558.69
350.492	1592.69
350.72	1586.69
350.947	1637.69
351.174	1747.69
351.402	1657.69
351.629	1563.69
351.856	1542.69
352.083	1516.69
352.311	1586.69
352.538	1618.69
352.765	1640.69
352.992	1696.69
353.22	1623.69
353.447	1624.69
353.674	1632.69
353.901	1642.69
354.128	1577.69
354.355	1600.69
354.583	1682.69
354.81	1700.69
355.037	1723.69
355.264	1698.69
355.491	1650.69
355.718	1666.69
355.945	1656.69
356.172	1630.69
356.399	1594.69
356.626	1594.69
356.853	1655.69
357.08	1761.69
357.307	1920.69
357.534	1956.69
357.761	1716.69
357.988	1618.69
358.215	1536.69
358.441	1598.69
358.668	1571.69
358.895	1577.69
359.122	1665.69
359.349	1842.69
359.576	1834.69
359.802	1688.69
360.029	1604.69
360.256	1593.69
360.483	1590.69
360.709	1621.69
360.936	1697.69
361.163	1734.69
361.39	1884.69
361.616	2054.69
361.843	2011.69
362.07	1947.69
362.296	1693.69
362.523	1634.69
362.749	1606.69
362.976	1659.69
363.203	1697.69
363.429	1635.69
363.656	1583.69
363.882	1638.69
364.109	1806.69
364.335	1942.69
364.562	1806.69
364.788	1709.69
365.015	1666.69
365.241	1594.69
365.468	1686.69
365.694	1725.69
365.92	1745.69
366.147	1716.69
366.373	1600.69
366.599	1566.69
366.826	1571.69
367.052	1625.69
367.278	1587.69
367.505	1640.69
367.731	1700.69
367.957	1682.69
368.184	1729.69
368.41	1810.69
368.636	1850.69
368.862	1827.69
369.089	1847.69
369.315	1808.69
369.541	1714.69
369.767	1670.69
369.993	1640.69
370.219	1618.69
370.445	1689.69
370.672	1788.69
370.898	1798.69
371.124	1859.69
371.35	1748.69
371.576	1803.69
371.802	1856.69
372.028	1723.69
372.254	1714.69
372.48	1688.69
372.706	1634.69
372.932	1665.69
373.158	1670.69
373.384	1695.69
373.61	1730.69
373.835	1792.69
374.061	1726.69
374.287	1692.69
374.513	1718.69
374.739	1768.69
374.965	1766.69
375.191	1760.69
375.416	1794.69
375.642	1766.69
375.868	1892.69
376.094	1909.69
376.319	1879.69
376.545	1745.69
376.771	1694.69
376.997	1822.69
377.222	1844.69
377.448	1790.69
377.674	1818.69
377.899	1808.69
378.125	1909.69
378.35	1878.69
378.576	1720.69
378.802	1687.69
379.027	1655.69
379.253	1695.69
379.478	1700.69
379.704	1738.69
379.929	1715.69
380.155	1719.69
380.38	1740.69
380.606	1747.69
380.831	1744.69
381.057	1805.69
381.282	1858.69
381.507	1802.69
381.733	1912.69
381.958	1962.69
382.184	1838.69
382.409	1774.69
382.634	1807.69
382.86	1761.69
383.085	1760.69
383.31	1869.69
383.535	1966.69
383.761	2087.69
383.986	2017.69
384.211	1948.69
384.436	1900.69
384.662	2035.69
384.887	2084.69
385.112	1965.69
385.337	2033.69
385.562	1974.69
385.787	1999.69
386.013	2031.69
386.238	2031.69
386.463	1991.69
386.688	2118.69
386.913	2257.69
387.138	2226.69
387.363	2092.69
387.588	2005.69
387.813	2011.69
388.038	2010.69
388.263	2127.69
388.488	2066.69
388.713	1898.69
388.938	1872.69
389.163	1896.69
389.387	1924.69
389.612	1946.69
389.837	2011.69
390.062	2015.69
390.287	1983.69
390.512	1979.69
390.736	1950.69
390.961	1906.69
391.186	1859.69
391.411	1920.69
391.636	1954.69
391.86	1988.69
392.085	1942.69
392.31	1954.69
392.534	1975.69
392.759	2000.69
392.984	1962.69
393.208	2007.69
393.433	2065.69
393.658	2089.69
393.882	2107.69
394.107	2004.69
394.331	1911.69
394.556	1940.69
394.78	1984.69
395.005	2034.69
395.229	2131.69
395.454	2245.69
395.678	2254.69
395.903	2185.69
396.127	2069.69
396.352	2075.69
396.576	2171.69
396.801	2174.69
397.025	2140.69
397.249	2143.69
397.474	2121.69
397.698	2129.69
397.922	2172.69
398.147	2274.69
398.371	2310.69
398.595	2314.69
398.82	2243.69
399.044	2303.69
399.268	2370.69
399.492	2584.69
399.717	2650.69
399.941	2710.69
400.165	2641.69
400.389	2526.69
400.613	2480.69
400.837	2704.69
401.062	3145.69
401.286	2704.69
401.51	2428.69
401.734	2553.69
401.958	2463.69
402.182	2293.69
402.406	2276.69
402.63	2194.69
402.854	2249.69
403.078	2290.69
403.302	2338.69
403.526	2369.69
403.75	2358.69
403.974	2382.69
404.198	2354.69
404.422	2451.69
404.645	2547.69
404.869	2501.69
405.093	2317.69
405.317	2304.69
405.541	2374.69
405.765	2363.69
405.988	2323.69
406.212	2408.69
406.436	2464.69
406.66	2517.69
406.883	2494.69
407.107	2833.69
407.331	3039.69
407.555	3297.69
407.778	3035.69
408.002	2552.69
408.226	2461.69
408.449	2459.69
408.673	2363.69
408.896	2430.69
409.12	2459.69
409.344	2386.69
409.567	2358.69
409.791	2374.69
410.014	2429.69
410.238	2536.69
410.461	2680.69
410.685	2412.69
410.908	2299.69
411.132	2312.69
411.355	2342.69
411.578	2305.69
411.802	2288.69
412.025	2347.69
412.249	2290.69
412.472	2200.69
412.695	2173.69
412.919	2243.69
413.142	2250.69
413.365	2257.69
413.589	2326.69
413.812	2390.69
414.035	2443.69
414.258	2276.69
414.482	2246.69
414.705	2279.69
414.928	2217.69
415.151	2227.69
415.374	2251.69
415.597	2325.69
415.821	2275.69
416.044	2405.69
416.267	2406.69
416.49	2163.69
416.713	2126.69
416.936	2199.69
417.159	2298.69
417.382	2346.69
417.605	2168.69
417.828	2275.69
418.051	2295.69
418.274	2237.69
418.497	2172.69
418.72	2190.69
418.943	2170.69
419.166	2315.69
419.389	2408.69
419.611	2246.69
419.834	2196.69
420.057	2263.69
420.28	2162.69
420.503	2149.69
420.726	2222.69
420.948	2201.69
421.171	2158.69
421.394	2140.69
421.617	2242.69
421.839	2210.69
422.062	2189.69
422.285	2096.69
422.507	2158.69
422.73	2090.69
422.953	2056.69
423.175	2081.69
423.398	2110.69
423.621	2161.69
423.843	2190.69
424.066	2220.69
424.288	2243.69
424.511	2307.69
424.733	2243.69
424.956	2051.69
425.178	2075.69
425.401	2067.69
425.623	2109.69
425.846	2023.69
426.068	2217.69
426.291	2243.69
426.513	2178.69
426.735	2166.69
426.958	2341.69
427.18	2480.69
427.402	2231.69
427.625	2343.69
427.847	2335.69
428.069	2152.69
428.292	2083.69
428.514	2040.69
428.736	2009.69
428.958	2094.69
429.181	2099.69
429.403	2370.69
429.625	2937.69
429.847	2546.69
430.069	2167.69
430.292	2327.69
430.514	2419.69
430.736	2249.69
430.958	2383.69
431.18	2242.69
431.402	2148.69
431.624	2079.69
431.846	2094.69
432.068	2031.69
432.29	2083.69
432.512	2098.69
432.734	2128.69
432.956	2142.69
433.178	2248.69
433.4	2228.69
433.622	2240.69
433.844	2074.69
434.066	2057.69
434.287	2030.69
434.509	2153.69
434.731	2232.69
434.953	2393.69
435.175	2295.69
435.397	2175.69
435.618	2224.69
435.84	2221.69
436.062	2198.69
436.284	2171.69
436.505	2195.69
436.727	2254.69
436.949	2204.69
437.17	2124.69
437.392	2101.69
437.614	2122.69
437.835	2054.69
438.057	2187.69
438.278	2284.69
438.5	2146.69
438.721	2055.69
438.943	2054.69
439.165	2072.69
439.386	2002.69
439.608	2024.69
439.829	2064.69
440.05	2048.69
440.272	2033.69
440.493	2031.69
440.715	2032.69
440.936	2216.69
441.158	2433.69
441.379	2363.69
441.6	2296.69
441.822	2257.69
442.043	2226.69
442.264	2215.69
442.486	2108.69
442.707	2052.69
442.928	2066.69
443.149	2142.69
443.371	2247.69
443.592	2335.69
443.813	2226.69
444.034	2233.69
444.255	2268.69
444.476	2355.69
444.698	2396.69
444.919	2291.69
445.14	2392.69
445.361	2390.69
445.582	2479.69
445.803	2403.69
446.024	2294.69
446.245	2366.69
446.466	2266.69
446.687	2151.69
446.908	2162.69
447.129	2066.69
447.35	2138.69
447.571	2152.69
447.792	2026.69
448.013	2025.69
448.234	2071.69
448.455	2132.69
448.675	2163.69
448.896	1979.69
449.117	1963.69
449.338	2016.69
449.559	2138.69
449.779	2277.69
450	2466.69
450.221	2672.69
450.442	2574.69
450.662	2231.69
450.883	1993.69
451.104	1947.69
451.324	1997.69
451.545	2076.69
451.766	2008.69
451.986	1948.69
452.207	1942.69
452.428	1908.69
452.648	1854.69
452.869	1914.69
453.089	2056.69
453.31	2020.69
453.53	2089.69
453.751	2035.69
453.971	1871.69
454.192	1968.69
454.412	2096.69
454.633	1990.69
454.853	1924.69
455.073	1828.69
455.294	1789.69
455.514	1792.69
455.734	1868.69
455.955	1914.69
456.175	1867.69
456.395	1867.69
456.616	1904.69
456.836	1953.69
457.056	1918.69
457.276	1863.69
457.497	1845.69
457.717	1804.69
457.937	1850.69
458.157	1925.69
458.377	1874.69
458.598	1854.69
458.818	1887.69
459.038	1985.69
459.258	2114.69
459.478	2120.69
459.698	2023.69
459.918	2082.69
460.138	2180.69
460.358	2236.69
460.578	2249.69
460.798	2343.69
461.018	2478.69
461.238	2298.69
461.458	2243.69
461.678	2279.69
461.898	2186.69
462.118	2196.69
462.338	2257.69
462.558	2230.69
462.777	2259.69
462.997	2310.69
463.217	2466.69
463.437	2400.69
463.657	2292.69
463.876	2256.69
464.096	2222.69
464.316	2222.69
464.536	2331.69
464.755	2310.69
464.975	2367.69
465.195	2265.69
465.414	2334.69
465.634	2364.69
465.854	2201.69
466.073	2360.69
466.293	2282.69
466.512	2072.69
466.732	2041.69
466.951	2158.69
467.171	2102.69
467.391	2041.69
467.61	1988.69
467.829	2010.69
468.049	2151.69
468.268	2408.69
468.488	2281.69
468.707	2122.69
468.927	2079.69
469.146	1978.69
469.365	1960.69
469.585	1984.69
469.804	2006.69
470.023	2034.69
470.243	2030.69
470.462	2051.69
470.681	1997.69
470.901	2086.69
471.12	2039.69
471.339	1954.69
471.558	1969.69
471.777	1959.69
471.997	1998.69
472.216	1994.69
472.435	1932.69
472.654	1974.69
472.873	2016.69
473.092	2162.69
473.311	2064.69
473.53	1945.69
473.749	1932.69
473.968	2046.69
474.187	2118.69
474.406	2230.69
474.625	2135.69
474.844	2025.69
475.063	2024.69
475.282	2140.69
475.501	2064.69
475.72	2039.69
475.939	2182.69
476.158	2122.69
476.377	2104.69
476.596	2054.69
476.814	2130.69
477.033	2141.69
477.252	2219.69
477.471	2319.69
477.69	2166.69
477.908	2171.69
478.127	2284.69
478.346	2518.69
478.564	2467.69
478.783	2429.69
479.002	2480.69
479.22	2435.69
479.439	2526.69
479.658	2858.69
479.876	2832.69
480.095	2448.69
480.313	2360.69
480.532	2266.69
480.751	2286.69
480.969	2336.69
481.188	2288.69
481.406	2308.69
481.624	2245.69
481.843	2277.69
482.061	2330.69
482.28	2374.69
482.498	2406.69
482.717	2362.69
482.935	2270.69
483.153	2267.69
483.372	2279.69
483.59	2230.69
483.808	2289.69
484.027	2304.69
484.245	2425.69
484.463	2798.69
484.681	3246.69
484.9	2543.69
485.118	2338.69
485.336	2318.69
485.554	2410.69
485.772	2520.69
485.99	2462.69
486.209	2473.69
486.427	2473.69
486.645	2450.69
486.863	2414.69
487.081	2467.69
487.299	2517.69
487.517	2517.69
487.735	2394.69
487.953	2416.69
488.171	2368.69
488.389	2346.69
488.607	2352.69
488.825	2604.69
489.043	2626.69
489.261	2402.69
489.479	2488.69
489.696	2580.69
489.914	2524.69
490.132	2450.69
490.35	2362.69
490.568	2490.69
490.786	2392.69
491.003	2360.69
491.221	2363.69
491.439	2482.69
491.657	2419.69
491.874	2474.69
492.092	2467.69
492.31	2490.69
492.527	2478.69
492.745	2443.69
492.963	2428.69
493.18	2508.69
493.398	2692.69
493.615	2784.69
493.833	2537.69
494.05	2450.69
494.268	2464.69
494.485	2574.69
494.703	2473.69
494.92	2416.69
495.138	2494.69
495.355	2508.69
495.573	2593.69
495.79	2679.69
496.008	2775.69
496.225	2594.69
496.442	2591.69
496.66	2660.69
496.877	2642.69
497.094	2710.69
497.312	2736.69
497.529	2682.69
497.746	2747.69
497.963	3161.69
498.181	3587.69
498.398	3330.69
498.615	3239.69
498.832	3130.69
499.049	3150.69
499.267	3167.69
499.484	3396.69
499.701	3702.69
499.918	3695.69
500.135	3945.69
500.352	4347.69
500.569	4221.69
500.786	4459.69
501.003	4195.69
501.22	3823.69
501.437	3700.69
501.654	3700.69
501.871	3573.69
502.088	3174.69
502.305	3166.69
502.522	3077.69
502.739	2882.69
502.956	2771.69
503.172	2710.69
503.389	2646.69
503.606	2614.69
503.823	2622.69
504.04	2650.69
504.256	2647.69
504.473	2638.69
504.69	2727.69
504.907	2576.69
505.123	2472.69
505.34	2574.69
505.557	3257.69
505.773	2782.69
505.99	2411.69
506.207	2259.69
506.423	2240.69
506.64	2250.69
506.856	2246.69
507.073	2524.69
507.289	2677.69
507.506	2644.69
507.722	2232.69
507.939	2168.69
508.155	2141.69
508.372	2155.69
508.588	2126.69
508.805	2082.69
509.021	2039.69
509.238	2053.69
509.454	2055.69
509.67	2061.69
509.887	2020.69
510.103	2014.69
510.319	2066.69
510.536	2166.69
510.752	2180.69
510.968	2202.69
511.184	2330.69
511.401	2315.69
511.617	2034.69
511.833	1941.69
512.049	1963.69
512.265	1980.69
512.481	1960.69
512.698	2050.69
512.914	2194.69
513.13	2114.69
513.346	1978.69
513.562	1950.69
513.778	1987.69
513.994	2145.69
514.21	2194.69
514.426	2163.69
514.642	2422.69
514.858	2260.69
515.074	2050.69
515.29	1968.69
515.506	2111.69
515.721	2132.69
515.937	2118.69
516.153	2405.69
516.369	2347.69
516.585	2178.69
516.801	2086.69
517.016	2054.69
517.232	2103.69
517.448	2196.69
517.664	2223.69
517.879	2203.69
518.095	2291.69
518.311	2188.69
518.527	2071.69
518.742	2091.69
518.958	2047.69
519.173	1994.69
519.389	2068.69
519.605	2036.69
519.82	2075.69
520.036	2102.69
520.251	1993.69
520.467	2038.69
520.682	2167.69
520.898	2277.69
521.113	2037.69
521.329	1959.69
521.544	2191.69
521.76	2020.69
521.975	1913.69
522.19	1895.69
522.406	1886.69
522.621	2267.69
522.836	2293.69
523.052	1896.69
523.267	1896.69
523.482	1923.69
523.698	1799.69
523.913	1794.69
524.128	1862.69
524.343	1967.69
524.559	1949.69
524.774	1824.69
524.989	1835.69
525.204	1788.69
525.419	1776.69
525.634	1781.69
525.849	1835.69
526.064	1824.69
526.28	1840.69
526.495	1778.69
526.71	1746.69
526.925	1765.69
527.14	1768.69
527.355	1761.69
527.57	1685.69
527.785	1759.69
527.999	1756.69
528.214	1728.69
528.429	1696.69
528.644	1728.69
528.859	1712.69
529.074	1710.69
529.289	1719.69
529.503	1741.69
529.718	1794.69
529.933	1737.69
530.148	1637.69
530.363	1671.69
530.577	1730.69
530.792	1741.69
531.007	1757.69
531.221	1744.69
531.436	1754.69
531.651	1810.69
531.865	1886.69
532.08	1832.69
532.295	1714.69
532.509	1665.69
532.724	1683.69
532.938	1751.69
533.153	1887.69
533.367	1781.69
533.582	1792.69
533.796	1710.69
534.011	1712.69
534.225	1727.69
534.44	1686.69
534.654	1662.69
534.868	1651.69
535.083	1745.69
535.297	1757.69
535.511	1695.69
535.726	1712.69
535.94	1678.69
536.154	1679.69
536.369	1680.69
536.583	1615.69
536.797	1642.69
537.011	1662.69
537.225	1638.69
537.44	1606.69
537.654	1701.69
537.868	1620.69
538.082	1554.69
538.296	1531.69
538.51	1571.69
538.724	1599.69
538.938	1601.69
539.153	1634.69
539.367	1634.69
539.581	1596.69
539.795	1694.69
540.009	1663.69
540.222	1631.69
540.436	1635.69
540.65	1728.69
540.864	1800.69
541.078	1716.69
541.292	1593.69
541.506	1548.69
541.72	1609.69
541.934	1611.69
542.147	1647.69
542.361	1627.69
542.575	1590.69
542.789	1562.69
543.002	1505.69
543.216	1567.69
543.43	1657.69
543.644	1728.69
543.857	1752.69
544.071	1674.69
544.285	1626.69
544.498	1633.69
544.712	1602.69
544.925	1634.69
545.139	1630.69
545.352	1570.69
545.566	1519.69
545.779	1482.69
545.993	1532.69
546.206	1555.69
546.42	1520.69
546.633	1491.69
546.847	1498.69
547.06	1518.69
547.274	1488.69
547.487	1494.69
547.7	1484.69
547.914	1523.69
548.127	1547.69
548.34	1576.69
548.554	1558.69
548.767	1555.69
548.98	1559.69
549.193	1530.69
549.407	1596.69
549.62	1602.69
549.833	1546.69
550.046	1511.69
550.259	1522.69
550.473	1479.69
550.686	1477.69
550.899	1474.69
551.112	1438.69
551.325	1442.69
551.538	1525.69
551.751	1761.69
551.964	1462.69
552.177	1414.69
552.39	1447.69
552.603	1518.69
552.816	1514.69
553.029	1552.69
553.242	1583.69
553.455	1548.69
553.667	1511.69
553.88	1500.69
554.093	1500.69
554.306	1436.69
554.519	1436.69
554.732	1403.69
554.944	1400.69
555.157	1422.69
555.37	1374.69
555.583	1437.69
555.795	1368.69
556.008	1338.69
556.221	1347.69
556.433	1351.69
556.646	1318.69
556.859	1290.69
557.071	1298.69
557.284	1303.69
557.496	1300.69
557.709	1296.69
557.921	1282.69
558.134	1280.69
558.346	1245.69
558.559	1241.69
558.771	1252.69
558.984	1236.69
559.196	1195.69
559.409	1226.69
559.621	1219.69
559.833	1241.69
560.046	1305.69
560.258	1267.69
560.47	1229.69
560.683	1218.69
560.895	1228.69
561.107	1234.69
561.32	1202.69
561.532	1238.69
561.744	1209.69
561.956	1278.69
562.168	1205.69
562.381	1200.69
562.593	1179.69
562.805	1212.69
563.017	1193.69
563.229	1198.69
563.441	1232.69
563.653	1242.69
563.865	1204.69
564.077	1220.69
564.289	1224.69
564.501	1211.69
564.713	1265.69
564.925	1277.69
565.137	1402.69
565.349	1290.69
565.561	1296.69
565.773	1296.69
565.985	1336.69
566.197	1405.69
566.408	1494.69
566.62	1488.69
566.832	1493.69
567.044	1486.69
567.255	1459.69
567.467	1504.69
567.679	1544.69
567.891	1592.69
568.102	1546.69
568.314	1474.69
568.526	1433.69
568.737	1375.69
568.949	1304.69
569.161	1232.69
569.372	1222.69
569.584	1193.69
569.795	1198.69
570.007	1216.69
570.218	1138.69
570.43	1131.69
570.641	1112.69
570.853	1130.69
571.064	1097.69
571.276	1093.69
571.487	1094.69
571.698	1069.69
571.91	1050.69
572.121	999.69
572.333	1030.69
572.544	1017.69
572.755	987.69
572.966	935.69
573.178	973.69
573.389	974.69
573.6	1003.69
573.811	1085.69
574.023	1011.69
574.234	983.69
574.445	930.69
574.656	929.69
574.867	960.69
575.078	922.69
575.289	944.69
575.501	951.69
575.712	908.69
575.923	889.69
576.134	936.69
576.345	907.69
576.556	901.69
576.767	885.69
576.978	875.69
577.188	881.69
577.399	852.69
577.61	860.69
577.821	859.69
578.032	860.69
578.243	844.69
578.454	840.69
578.665	867.69
578.875	846.69
579.086	806.69
579.297	851.69
579.508	860.69
579.718	880.69
579.929	868.69
580.14	825.69
580.35	800.69
580.561	859.69
580.772	890.69
580.982	844.69
581.193	814.69
581.403	794.69
581.614	795.69
581.825	791.69
582.035	770.69
582.246	770.69
582.456	810.69
582.667	822.69
582.877	785.69
583.087	766.69
583.298	764.69
583.508	769.69
583.719	774.69
583.929	795.69
584.139	802.69
584.35	760.69
584.56	772.69
584.77	776.69
584.981	799.69
585.191	787.69
585.401	788.69
585.611	779.69
585.821	741.69
586.032	785.69
586.242	737.69
586.452	739.69
586.662	763.69
586.872	730.69
587.082	727.69
587.292	770.69
587.502	801.69
587.713	760.69
587.923	756.69
588.133	745.69
588.343	764.69
588.553	744.69
588.762	747.69
588.972	740.69
589.182	772.69
589.392	753.69
589.602	758.69
589.812	760.69
590.022	724.69
590.232	744.69
590.441	728.69
590.651	751.69
590.861	712.69
591.071	711.69
591.281	725.69
591.49	720.69
591.7	738.69
591.91	746.69
592.119	720.69
592.329	739.69
592.539	756.69
592.748	760.69
592.958	799.69
593.167	778.69
593.377	794.69
593.587	772.69
593.796	800.69
594.006	800.69
594.215	783.69
594.424	779.69
594.634	729.69
594.843	762.69
595.053	777.69
595.262	724.69
595.472	723.69
595.681	753.69
595.89	724.69
596.1	714.69
596.309	713.69
596.518	686.69
596.727	679.69
596.937	706.69
597.146	651.69
597.355	650.69
597.564	666.69
597.774	631.69
597.983	639.69
598.192	614.69
598.401	642.69
598.61	633.69
598.819	641.69
599.028	655.69
599.237	624.69
599.446	609.69
599.655	590.69
599.864	592.69
600.073	599.69
600.282	618.69
600.491	610.69
600.7	585.69
600.909	614.69
601.118	596.69
601.327	588.69
601.536	627.69
601.745	603.69
601.953	570.69
602.162	600.69
602.371	612.69
602.58	586.69
602.789	586.69
602.997	601.69
603.206	577.69
603.415	554.69
603.623	584.69
603.832	578.69
604.041	576.69
604.249	564.69
604.458	579.69
604.666	587.69
604.875	600.69
605.084	566.69
605.292	581.69
605.501	563.69
605.709	578.69
605.918	545.69
606.126	549.69
606.334	558.69
606.543	532.69
606.751	549.69
606.96	558.69
607.168	539.69
607.376	537.69
607.585	558.69
607.793	543.69
608.001	562.69
608.21	556.69
608.418	543.69
608.626	554.69
608.834	548.69
609.043	532.69
609.251	522.69
609.459	550.69
609.667	545.69
609.875	546.69
610.083	550.69
610.291	576.69
610.499	571.69
610.707	538.69
610.916	539.69
611.124	539.69
611.332	512.69
611.54	540.69
611.748	534.69
611.955	504.69
612.163	521.69
612.371	534.69
612.579	525.69
612.787	518.69
612.995	531.69
613.203	529.69
613.411	511.69
613.618	520.69
613.826	512.69
614.034	521.69
614.242	499.69
614.449	501.69
614.657	520.69
614.865	513.69
615.072	516.69
615.28	518.69
615.488	521.69
615.695	526.69
615.903	542.69
616.111	534.69
616.318	515.69
616.526	529.69
616.733	513.69
616.941	478.69
617.148	498.69
617.356	516.69
617.563	503.69
617.771	506.69
617.978	487.69
618.185	484.69
618.393	494.69
618.6	501.69
618.807	520.69
619.015	491.69
619.222	479.69
619.429	497.69
619.637	497.69
619.844	483.69
620.051	479.69
620.258	448.69
620.466	449.69
620.673	451.69
620.88	459.69
621.087	450.69
621.294	434.69
621.501	459.69
621.708	457.69
621.915	474.69
622.122	464.69
622.329	464.69
622.536	460.69
622.743	448.69
622.95	463.69
623.157	426.69
623.364	436.69
623.571	470.69
623.778	453.69
623.985	449.69
624.192	451.69
624.399	434.69
624.606	434.69
624.812	434.69
625.019	438.69
625.226	432.69
625.433	428.69
625.639	432.69
625.846	405.69
626.053	423.69
626.259	405.69
626.466	405.69
626.673	409.69
626.879	395.69
627.086	421.69
627.293	422.69
627.499	411.69
627.706	431.69
627.912	417.69
628.119	390.69
628.325	394.69
628.532	402.69
628.738	430.69
628.945	416.69
629.151	414.69
629.357	397.69
629.564	390.69
629.77	384.69
629.976	391.69
630.183	397.69
630.389	400.69
630.595	399.69
630.802	386.69
631.008	387.69
631.214	372.69
631.42	370.69
631.627	386.69
631.833	374.69
632.039	372.69
632.245	372.69
632.451	380.69
632.657	368.69
632.863	370.69
633.069	364.69
633.275	356.69
633.481	372.69
633.688	361.69
633.893	357.69
634.099	348.69
634.305	366.69
634.511	350.69
634.717	371.69
634.923	350.69
635.129	338.69
635.335	362.69
635.541	356.69
635.747	353.69
635.952	354.69
636.158	360.69
636.364	357.69
636.57	357.69
636.775	343.69
636.981	346.69
637.187	336.69
637.392	345.69
637.598	335.69
637.804	344.69
638.009	348.69
638.215	339.69
638.421	363.69
638.626	369.69
638.832	358.69
639.037	326.69
639.243	340.69
639.448	329.69
639.654	331.69
639.859	329.69
640.065	323.69
640.27	333.69
640.475	332.69
640.681	330.69
640.886	336.69
641.091	324.69
641.297	351.69
641.502	332.69
641.707	321.69
641.913	328.69
642.118	325.69
642.323	309.69
642.528	332.69
642.733	314.69
642.939	332.69
643.144	326.69
643.349	327.69
643.554	332.69
643.759	335.69
643.964	316.69
644.169	321.69
644.374	304.69
644.579	314.69
644.784	319.69
644.989	328.69
645.194	307.69
645.399	289.69
645.604	297.69
645.809	293.69
646.014	316.69
646.219	315.69
646.423	314.69
646.628	338.69
646.833	335.69
647.038	316.69
647.243	307.69
647.447	319.69
647.652	306.69
647.857	320.69
648.062	311.69
648.266	330.69
648.471	307.69
648.676	304.69
648.88	308.69
649.085	312.69
649.289	294.69
649.494	305.69
649.698	320.69
649.903	306.69
650.107	305.69
650.312	316.69
650.516	301.69
650.721	308.69
650.925	304.69
651.13	279.69
651.334	276.69
651.539	270.69
651.743	271.69
651.947	273.69
652.152	271.69
652.356	256.69
652.56	251.69
652.764	276.69
652.969	267.69
653.173	264.69
653.377	244.69
653.581	252.69
653.785	260.69
653.99	240.69
654.194	240.69
654.398	245.69
654.602	241.69
654.806	233.69
655.01	225.69
655.214	255.69
655.418	254.69
655.622	242.69
655.826	262.69
656.03	261.69
656.234	271.69
656.438	279.69
656.642	263.69
656.846	244.69
657.049	249.69
657.253	225.69
657.457	206.69
657.661	194.69
657.865	181.69
658.068	174.69
658.272	168.69
658.476	161.69
658.68	156.69
658.883	158.69
659.087	150.69
659.291	128.69
659.494	146.69
659.698	150.69
659.901	125.69
660.105	122.69
660.309	112.69
660.512	112.69
660.716	118.69
660.919	110.69
661.123	107.69
661.326	99.69
661.53	91.69
661.733	101.69
661.936	118.69
662.14	101.69
662.343	105.69
662.546	88.69
662.75	87.69
662.953	103.69
663.156	87.69
663.36	79.69
663.563	98.69
663.766	90.69
663.969	77.69
664.173	90.69
664.376	94.69
664.579	91.69
664.782	83.69
664.985	89.69
665.188	84.69
665.391	80.69
665.594	75.69
665.797	81.69
666	88.69
666.203	81.69
666.406	80.69
666.609	76.69
666.812	85.69
667.015	73.69
667.218	90.69
667.421	88.69
667.624	80.69
667.827	83.69
668.03	86.69
668.232	85.69
668.435	87.69
668.638	83.69
668.841	83.69
669.043	89.69
669.246	83.69
669.449	73.69
669.651	79.69
669.854	98.69
670.057	73.69
670.259	78.69
670.462	73.69
670.665	73.69
670.867	81.69
671.07	73.69
671.272	75.69
671.475	78.69
671.677	84.69
671.88	87.69
672.082	93.69
672.284	70.69
672.487	76.69
672.689	82.69
672.892	83.69
