Data from WStandard_LampEnergy8_LIBS07252019.E.O._I.C._HRD10591_15-59-32-929.txt Node
Date: Thu Jul 25 15:59:32 EDT 2019
User: cochatt
Spectrometer: HR+D1059
Trigger mode: 1
Integration Time (sec): 1.000000E-1
Scans to average: 1
Electric dark correction enabled: true
Nonlinearity correction enabled: false
Boxcar width: 0
XAxis mode: Wavelengths
Number of Pixels in Spectrum: 2048
>>>>>Begin Spectral Data<<<<<
223.165	-4.31
223.4	-4.31
223.635	-4.31
223.869	-20.31
224.104	-19.31
224.338	-8.31
224.573	-15.31
224.808	-19.31
225.042	-18.31
225.277	-20.31
225.511	0.69
225.746	8.69
225.98	8.69
226.215	18.69
226.449	16.69
226.683	25.69
226.918	16.69
227.152	29.69
227.387	29.69
227.621	45.69
227.856	39.69
228.09	41.69
228.324	52.69
228.559	42.69
228.793	72.69
229.027	184.69
229.262	191.69
229.496	198.69
229.73	231.69
229.964	237.69
230.199	255.69
230.433	259.69
230.667	273.69
230.901	296.69
231.136	259.69
231.37	278.69
231.604	242.69
231.838	284.69
232.072	256.69
232.306	241.69
232.541	268.69
232.775	324.69
233.009	311.69
233.243	291.69
233.477	288.69
233.711	300.69
233.945	299.69
234.179	279.69
234.413	325.69
234.647	337.69
234.881	300.69
235.115	292.69
235.349	297.69
235.583	310.69
235.817	286.69
236.051	288.69
236.285	295.69
236.519	319.69
236.753	345.69
236.987	347.69
237.221	329.69
237.455	372.69
237.689	370.69
237.922	346.69
238.156	348.69
238.39	373.69
238.624	386.69
238.858	371.69
239.091	382.69
239.325	398.69
239.559	455.69
239.793	486.69
240.027	509.69
240.26	496.69
240.494	384.69
240.728	374.69
240.961	375.69
241.195	395.69
241.429	416.69
241.662	414.69
241.896	376.69
242.13	406.69
242.363	422.69
242.597	435.69
242.83	444.69
243.064	467.69
243.298	474.69
243.531	459.69
243.765	465.69
243.998	445.69
244.232	398.69
244.465	398.69
244.699	414.69
244.932	468.69
245.166	504.69
245.399	466.69
245.633	460.69
245.866	429.69
246.099	466.69
246.333	482.69
246.566	477.69
246.8	502.69
247.033	538.69
247.266	526.69
247.5	517.69
247.733	521.69
247.966	548.69
248.2	603.69
248.433	601.69
248.666	600.69
248.899	653.69
249.133	749.69
249.366	796.69
249.599	648.69
249.832	603.69
250.066	636.69
250.299	612.69
250.532	569.69
250.765	521.69
250.998	550.69
251.231	585.69
251.465	594.69
251.698	560.69
251.931	583.69
252.164	564.69
252.397	606.69
252.63	600.69
252.863	548.69
253.096	540.69
253.329	544.69
253.562	582.69
253.795	602.69
254.028	591.69
254.261	580.69
254.494	544.69
254.727	557.69
254.96	568.69
255.193	620.69
255.426	701.69
255.659	759.69
255.892	772.69
256.124	662.69
256.357	625.69
256.59	677.69
256.823	676.69
257.056	715.69
257.289	806.69
257.521	877.69
257.754	798.69
257.987	783.69
258.22	807.69
258.452	798.69
258.685	681.69
258.918	649.69
259.151	658.69
259.383	627.69
259.616	566.69
259.849	607.69
260.081	687.69
260.314	738.69
260.547	784.69
260.779	812.69
261.012	733.69
261.244	688.69
261.477	674.69
261.71	676.69
261.942	684.69
262.175	653.69
262.407	706.69
262.64	663.69
262.872	623.69
263.105	584.69
263.337	618.69
263.57	641.69
263.802	614.69
264.035	592.69
264.267	554.69
264.499	556.69
264.732	617.69
264.964	630.69
265.197	660.69
265.429	702.69
265.661	782.69
265.894	836.69
266.126	860.69
266.358	757.69
266.591	790.69
266.823	813.69
267.055	757.69
267.287	754.69
267.52	737.69
267.752	727.69
267.984	784.69
268.216	792.69
268.448	791.69
268.681	786.69
268.913	735.69
269.145	706.69
269.377	708.69
269.609	753.69
269.841	868.69
270.073	997.69
270.306	1070.69
270.538	1150.69
270.77	938.69
271.002	832.69
271.234	813.69
271.466	814.69
271.698	902.69
271.93	1004.69
272.162	1032.69
272.394	957.69
272.626	887.69
272.858	806.69
273.09	711.69
273.322	700.69
273.553	641.69
273.785	659.69
274.017	709.69
274.249	736.69
274.481	754.69
274.713	691.69
274.945	677.69
275.176	676.69
275.408	661.69
275.64	662.69
275.872	676.69
276.104	745.69
276.335	819.69
276.567	894.69
276.799	871.69
277.031	818.69
277.262	784.69
277.494	808.69
277.726	895.69
277.957	845.69
278.189	774.69
278.421	725.69
278.652	732.69
278.884	713.69
279.115	737.69
279.347	725.69
279.579	732.69
279.81	724.69
280.042	804.69
280.273	849.69
280.505	864.69
280.736	866.69
280.968	797.69
281.199	731.69
281.431	682.69
281.662	704.69
281.894	743.69
282.125	727.69
282.356	762.69
282.588	750.69
282.819	773.69
283.051	812.69
283.282	854.69
283.513	834.69
283.745	744.69
283.976	736.69
284.207	717.69
284.439	719.69
284.67	739.69
284.901	785.69
285.132	768.69
285.364	779.69
285.595	775.69
285.826	772.69
286.057	729.69
286.288	740.69
286.52	801.69
286.751	858.69
286.982	831.69
287.213	769.69
287.444	730.69
287.675	704.69
287.906	756.69
288.138	836.69
288.369	797.69
288.6	753.69
288.831	734.69
289.062	735.69
289.293	760.69
289.524	751.69
289.755	795.69
289.986	788.69
290.217	704.69
290.448	732.69
290.679	785.69
290.91	764.69
291.141	797.69
291.371	807.69
291.602	825.69
291.833	838.69
292.064	823.69
292.295	818.69
292.526	829.69
292.757	873.69
292.987	813.69
293.218	790.69
293.449	866.69
293.68	963.69
293.91	1000.69
294.141	926.69
294.372	853.69
294.603	904.69
294.833	952.69
295.064	892.69
295.295	818.69
295.525	810.69
295.756	765.69
295.987	729.69
296.217	717.69
296.448	746.69
296.679	759.69
296.909	744.69
297.14	752.69
297.37	778.69
297.601	825.69
297.831	848.69
298.062	880.69
298.292	823.69
298.523	752.69
298.753	782.69
298.984	782.69
299.214	804.69
299.445	826.69
299.675	823.69
299.905	830.69
300.136	809.69
300.366	773.69
300.597	762.69
300.827	763.69
301.057	792.69
301.288	840.69
301.518	849.69
301.748	865.69
301.979	891.69
302.209	920.69
302.439	943.69
302.669	1009.69
302.9	913.69
303.13	821.69
303.36	842.69
303.59	855.69
303.82	857.69
304.051	852.69
304.281	873.69
304.511	862.69
304.741	897.69
304.971	1023.69
305.201	1028.69
305.431	944.69
305.661	824.69
305.891	753.69
306.121	739.69
306.352	804.69
306.582	848.69
306.812	900.69
307.042	919.69
307.272	925.69
307.502	973.69
307.731	1060.69
307.961	1075.69
308.191	961.69
308.421	857.69
308.651	812.69
308.881	828.69
309.111	825.69
309.341	806.69
309.571	812.69
309.8	819.69
310.03	768.69
310.26	802.69
310.49	817.69
310.72	845.69
310.949	882.69
311.179	874.69
311.409	856.69
311.639	838.69
311.868	807.69
312.098	842.69
312.328	821.69
312.557	834.69
312.787	860.69
313.017	874.69
313.246	854.69
313.476	857.69
313.706	857.69
313.935	870.69
314.165	883.69
314.394	894.69
314.624	952.69
314.853	1012.69
315.083	1040.69
315.312	1078.69
315.542	962.69
315.771	910.69
316.001	918.69
316.23	936.69
316.46	952.69
316.689	924.69
316.919	872.69
317.148	839.69
317.377	860.69
317.607	944.69
317.836	1034.69
318.065	1061.69
318.295	1027.69
318.524	963.69
318.753	962.69
318.983	943.69
319.212	907.69
319.441	884.69
319.67	895.69
319.9	910.69
320.129	955.69
320.358	1020.69
320.587	1053.69
320.816	1018.69
321.046	992.69
321.275	968.69
321.504	976.69
321.733	1039.69
321.962	995.69
322.191	925.69
322.42	907.69
322.649	898.69
322.878	920.69
323.108	934.69
323.337	930.69
323.566	933.69
323.795	925.69
324.024	906.69
324.253	924.69
324.482	890.69
324.71	886.69
324.939	867.69
325.168	871.69
325.397	928.69
325.626	938.69
325.855	949.69
326.084	921.69
326.313	941.69
326.542	926.69
326.77	941.69
326.999	954.69
327.228	916.69
327.457	878.69
327.686	877.69
327.914	884.69
328.143	927.69
328.372	896.69
328.6	928.69
328.829	901.69
329.058	878.69
329.287	927.69
329.515	910.69
329.744	949.69
329.972	990.69
330.201	996.69
330.43	997.69
330.658	974.69
330.887	978.69
331.115	973.69
331.344	994.69
331.572	954.69
331.801	950.69
332.03	963.69
332.258	962.69
332.486	986.69
332.715	990.69
332.943	969.69
333.172	975.69
333.4	1018.69
333.629	1046.69
333.857	1105.69
334.085	1220.69
334.314	1364.69
334.542	1394.69
334.771	1282.69
334.999	1143.69
335.227	1060.69
335.455	1046.69
335.684	1066.69
335.912	1084.69
336.14	1056.69
336.369	1032.69
336.597	1006.69
336.825	963.69
337.053	993.69
337.281	1077.69
337.51	1102.69
337.738	1126.69
337.966	1062.69
338.194	992.69
338.422	977.69
338.65	921.69
338.878	965.69
339.106	935.69
339.334	889.69
339.562	912.69
339.79	964.69
340.018	1002.69
340.246	1026.69
340.474	1016.69
340.702	988.69
340.93	1007.69
341.158	993.69
341.386	984.69
341.614	974.69
341.842	983.69
342.07	977.69
342.298	987.69
342.526	985.69
342.754	959.69
342.981	981.69
343.209	949.69
343.437	957.69
343.665	986.69
343.893	972.69
344.12	1034.69
344.348	1006.69
344.576	986.69
344.804	967.69
345.031	961.69
345.259	961.69
345.487	946.69
345.714	885.69
345.942	889.69
346.17	884.69
346.397	919.69
346.625	928.69
346.853	871.69
347.08	864.69
347.308	878.69
347.535	904.69
347.763	916.69
347.99	898.69
348.218	885.69
348.445	888.69
348.673	927.69
348.9	977.69
349.128	966.69
349.355	980.69
349.583	970.69
349.81	934.69
350.037	870.69
350.265	866.69
350.492	873.69
350.72	887.69
350.947	944.69
351.174	927.69
351.402	868.69
351.629	824.69
351.856	854.69
352.083	842.69
352.311	888.69
352.538	885.69
352.765	935.69
352.992	941.69
353.22	892.69
353.447	898.69
353.674	888.69
353.901	904.69
354.128	869.69
354.355	903.69
354.583	918.69
354.81	957.69
355.037	956.69
355.264	937.69
355.491	924.69
355.718	908.69
355.945	921.69
356.172	876.69
356.399	855.69
356.626	866.69
356.853	931.69
357.08	1028.69
357.307	1084.69
357.534	1035.69
357.761	918.69
357.988	857.69
358.215	867.69
358.441	890.69
358.668	860.69
358.895	896.69
359.122	934.69
359.349	1014.69
359.576	988.69
359.802	918.69
360.029	867.69
360.256	872.69
360.483	862.69
360.709	917.69
360.936	953.69
361.163	1008.69
361.39	1064.69
361.616	1202.69
361.843	1135.69
362.07	1062.69
362.296	921.69
362.523	867.69
362.749	914.69
362.976	934.69
363.203	918.69
363.429	906.69
363.656	893.69
363.882	936.69
364.109	1035.69
364.335	1080.69
364.562	1006.69
364.788	943.69
365.015	901.69
365.241	874.69
365.468	914.69
365.694	951.69
365.92	1006.69
366.147	928.69
366.373	866.69
366.599	902.69
366.826	905.69
367.052	892.69
367.278	908.69
367.505	917.69
367.731	925.69
367.957	952.69
368.184	993.69
368.41	1015.69
368.636	1032.69
368.862	1036.69
369.089	1030.69
369.315	1005.69
369.541	933.69
369.767	913.69
369.993	894.69
370.219	901.69
370.445	966.69
370.672	999.69
370.898	1036.69
371.124	1006.69
371.35	969.69
371.576	1001.69
371.802	1020.69
372.028	988.69
372.254	967.69
372.48	932.69
372.706	905.69
372.932	936.69
373.158	940.69
373.384	947.69
373.61	977.69
373.835	1027.69
374.061	966.69
374.287	984.69
374.513	973.69
374.739	959.69
374.965	979.69
375.191	978.69
375.416	1007.69
375.642	1045.69
375.868	1084.69
376.094	1108.69
376.319	1026.69
376.545	1001.69
376.771	1017.69
376.997	1054.69
377.222	1032.69
377.448	990.69
377.674	1037.69
377.899	1055.69
378.125	1068.69
378.35	1022.69
378.576	966.69
378.802	945.69
379.027	922.69
379.253	943.69
379.478	954.69
379.704	989.69
379.929	975.69
380.155	973.69
380.38	952.69
380.606	990.69
380.831	1008.69
381.057	1041.69
381.282	1053.69
381.507	1027.69
381.733	1138.69
381.958	1140.69
382.184	1034.69
382.409	1006.69
382.634	1002.69
382.86	1000.69
383.085	1033.69
383.31	1062.69
383.535	1132.69
383.761	1216.69
383.986	1137.69
384.211	1093.69
384.436	1086.69
384.662	1157.69
384.887	1159.69
385.112	1141.69
385.337	1140.69
385.562	1111.69
385.787	1112.69
386.013	1117.69
386.238	1137.69
386.463	1149.69
386.688	1218.69
386.913	1266.69
387.138	1241.69
387.363	1175.69
387.588	1159.69
387.813	1144.69
388.038	1157.69
388.263	1209.69
388.488	1145.69
388.713	1094.69
388.938	1079.69
389.163	1067.69
389.387	1097.69
389.612	1083.69
389.837	1150.69
390.062	1126.69
390.287	1114.69
390.512	1101.69
390.736	1118.69
390.961	1110.69
391.186	1057.69
391.411	1088.69
391.636	1104.69
391.86	1120.69
392.085	1102.69
392.31	1093.69
392.534	1100.69
392.759	1123.69
392.984	1131.69
393.208	1140.69
393.433	1188.69
393.658	1211.69
393.882	1182.69
394.107	1137.69
394.331	1108.69
394.556	1118.69
394.78	1111.69
395.005	1150.69
395.229	1232.69
395.454	1287.69
395.678	1272.69
395.903	1193.69
396.127	1158.69
396.352	1192.69
396.576	1229.69
396.801	1255.69
397.025	1203.69
397.249	1190.69
397.474	1222.69
397.698	1212.69
397.922	1266.69
398.147	1282.69
398.371	1325.69
398.595	1328.69
398.82	1246.69
399.044	1312.69
399.268	1375.69
399.492	1454.69
399.717	1450.69
399.941	1487.69
400.165	1446.69
400.389	1426.69
400.613	1468.69
400.837	1668.69
401.062	1769.69
401.286	1519.69
401.51	1412.69
401.734	1450.69
401.958	1352.69
402.182	1317.69
402.406	1276.69
402.63	1271.69
402.854	1254.69
403.078	1298.69
403.302	1308.69
403.526	1332.69
403.75	1316.69
403.974	1347.69
404.198	1346.69
404.422	1368.69
404.645	1446.69
404.869	1392.69
405.093	1301.69
405.317	1286.69
405.541	1312.69
405.765	1379.69
405.988	1353.69
406.212	1382.69
406.436	1375.69
406.66	1446.69
406.883	1477.69
407.107	1676.69
407.331	1780.69
407.555	1881.69
407.778	1655.69
408.002	1416.69
408.226	1399.69
408.449	1368.69
408.673	1346.69
408.896	1334.69
409.12	1359.69
409.344	1361.69
409.567	1282.69
409.791	1341.69
410.014	1383.69
410.238	1460.69
410.461	1526.69
410.685	1359.69
410.908	1324.69
411.132	1335.69
411.355	1296.69
411.578	1317.69
411.802	1304.69
412.025	1321.69
412.249	1289.69
412.472	1276.69
412.695	1280.69
412.919	1271.69
413.142	1284.69
413.365	1298.69
413.589	1328.69
413.812	1413.69
414.035	1438.69
414.258	1341.69
414.482	1326.69
414.705	1296.69
414.928	1290.69
415.151	1290.69
415.374	1298.69
415.597	1328.69
415.821	1317.69
416.044	1339.69
416.267	1327.69
416.49	1241.69
416.713	1246.69
416.936	1296.69
417.159	1338.69
417.382	1332.69
417.605	1274.69
417.828	1321.69
418.051	1324.69
418.274	1287.69
418.497	1244.69
418.72	1250.69
418.943	1301.69
419.166	1346.69
419.389	1322.69
419.611	1283.69
419.834	1269.69
420.057	1284.69
420.28	1276.69
420.503	1247.69
420.726	1320.69
420.948	1268.69
421.171	1242.69
421.394	1253.69
421.617	1342.69
421.839	1299.69
422.062	1302.69
422.285	1274.69
422.507	1271.69
422.73	1192.69
422.953	1168.69
423.175	1189.69
423.398	1257.69
423.621	1240.69
423.843	1251.69
424.066	1288.69
424.288	1358.69
424.511	1391.69
424.733	1334.69
424.956	1216.69
425.178	1228.69
425.401	1234.69
425.623	1226.69
425.846	1246.69
426.068	1318.69
426.291	1311.69
426.513	1292.69
426.735	1299.69
426.958	1408.69
427.18	1476.69
427.402	1369.69
427.625	1390.69
427.847	1393.69
428.069	1251.69
428.292	1235.69
428.514	1205.69
428.736	1205.69
428.958	1217.69
429.181	1246.69
429.403	1478.69
429.625	1741.69
429.847	1452.69
430.069	1245.69
430.292	1436.69
430.514	1428.69
430.736	1333.69
430.958	1363.69
431.18	1260.69
431.402	1206.69
431.624	1172.69
431.846	1162.69
432.068	1109.69
432.29	1141.69
432.512	1204.69
432.734	1227.69
432.956	1268.69
433.178	1314.69
433.4	1296.69
433.622	1292.69
433.844	1261.69
434.066	1198.69
434.287	1186.69
434.509	1180.69
434.731	1252.69
434.953	1328.69
435.175	1319.69
435.397	1272.69
435.618	1264.69
435.84	1221.69
436.062	1216.69
436.284	1277.69
436.505	1238.69
436.727	1326.69
436.949	1278.69
437.17	1233.69
437.392	1218.69
437.614	1205.69
437.835	1134.69
438.057	1187.69
438.278	1237.69
438.5	1177.69
438.721	1225.69
438.943	1233.69
439.165	1198.69
439.386	1202.69
439.608	1245.69
439.829	1234.69
440.05	1258.69
440.272	1202.69
440.493	1242.69
440.715	1262.69
440.936	1324.69
441.158	1414.69
441.379	1358.69
441.6	1360.69
441.822	1334.69
442.043	1311.69
442.264	1292.69
442.486	1249.69
442.707	1213.69
442.928	1273.69
443.149	1264.69
443.371	1330.69
443.592	1348.69
443.813	1356.69
444.034	1371.69
444.255	1337.69
444.476	1342.69
444.698	1390.69
444.919	1344.69
445.14	1468.69
445.361	1432.69
445.582	1419.69
445.803	1369.69
446.024	1362.69
446.245	1407.69
446.466	1352.69
446.687	1300.69
446.908	1308.69
447.129	1284.69
447.35	1286.69
447.571	1298.69
447.792	1231.69
448.013	1222.69
448.234	1240.69
448.455	1313.69
448.675	1308.69
448.896	1192.69
449.117	1152.69
449.338	1221.69
449.559	1266.69
449.779	1289.69
450	1399.69
450.221	1460.69
450.442	1418.69
450.662	1258.69
450.883	1185.69
451.104	1182.69
451.324	1154.69
451.545	1196.69
451.766	1168.69
451.986	1120.69
452.207	1119.69
452.428	1105.69
452.648	1081.69
452.869	1110.69
453.089	1104.69
453.31	1152.69
453.53	1109.69
453.751	1065.69
453.971	1046.69
454.192	1079.69
454.412	1136.69
454.633	1141.69
454.853	1100.69
455.073	1052.69
455.294	1055.69
455.514	1070.69
455.734	1062.69
455.955	1068.69
456.175	1055.69
456.395	1057.69
456.616	1084.69
456.836	1068.69
457.056	1054.69
457.276	1047.69
457.497	1023.69
457.717	966.69
457.937	1058.69
458.157	1073.69
458.377	1017.69
458.598	1019.69
458.818	1032.69
459.038	1080.69
459.258	1126.69
459.478	1133.69
459.698	1086.69
459.918	1131.69
460.138	1216.69
460.358	1225.69
460.578	1210.69
460.798	1257.69
461.018	1287.69
461.238	1253.69
461.458	1234.69
461.678	1189.69
461.898	1195.69
462.118	1206.69
462.338	1245.69
462.558	1267.69
462.777	1221.69
462.997	1276.69
463.217	1364.69
463.437	1311.69
463.657	1238.69
463.876	1204.69
464.096	1224.69
464.316	1246.69
464.536	1279.69
464.755	1256.69
464.975	1288.69
465.195	1253.69
465.414	1306.69
465.634	1271.69
465.854	1254.69
466.073	1360.69
466.293	1319.69
466.512	1174.69
466.732	1216.69
466.951	1235.69
467.171	1220.69
467.391	1178.69
467.61	1153.69
467.829	1221.69
468.049	1286.69
468.268	1453.69
468.488	1325.69
468.707	1240.69
468.927	1181.69
469.146	1176.69
469.365	1184.69
469.585	1225.69
469.804	1181.69
470.023	1207.69
470.243	1255.69
470.462	1190.69
470.681	1196.69
470.901	1210.69
471.12	1221.69
471.339	1179.69
471.558	1194.69
471.777	1198.69
471.997	1184.69
472.216	1170.69
472.435	1104.69
472.654	1102.69
472.873	1147.69
473.092	1214.69
473.311	1177.69
473.53	1106.69
473.749	1107.69
473.968	1164.69
474.187	1189.69
474.406	1221.69
474.625	1193.69
474.844	1193.69
475.063	1211.69
475.282	1192.69
475.501	1152.69
475.72	1176.69
475.939	1282.69
476.158	1238.69
476.377	1174.69
476.596	1184.69
476.814	1186.69
477.033	1172.69
477.252	1244.69
477.471	1286.69
477.69	1282.69
477.908	1249.69
478.127	1272.69
478.346	1410.69
478.564	1396.69
478.783	1406.69
479.002	1427.69
479.22	1385.69
479.439	1426.69
479.658	1586.69
479.876	1500.69
480.095	1379.69
480.313	1308.69
480.532	1296.69
480.751	1295.69
480.969	1268.69
481.188	1255.69
481.406	1246.69
481.624	1217.69
481.843	1270.69
482.061	1245.69
482.28	1280.69
482.498	1302.69
482.717	1285.69
482.935	1289.69
483.153	1337.69
483.372	1358.69
483.59	1344.69
483.808	1318.69
484.027	1356.69
484.245	1411.69
484.463	1727.69
484.681	1849.69
484.9	1429.69
485.118	1353.69
485.336	1316.69
485.554	1350.69
485.772	1386.69
485.99	1318.69
486.209	1356.69
486.427	1359.69
486.645	1361.69
486.863	1376.69
487.081	1401.69
487.299	1416.69
487.517	1434.69
487.735	1404.69
487.953	1449.69
488.171	1485.69
488.389	1444.69
488.607	1429.69
488.825	1554.69
489.043	1488.69
489.261	1349.69
489.479	1474.69
489.696	1470.69
489.914	1444.69
490.132	1389.69
490.35	1431.69
490.568	1459.69
490.786	1487.69
491.003	1458.69
491.221	1516.69
491.439	1599.69
491.657	1590.69
491.874	1589.69
492.092	1636.69
492.31	1658.69
492.527	1638.69
492.745	1604.69
492.963	1594.69
493.18	1581.69
493.398	1728.69
493.615	1648.69
493.833	1528.69
494.05	1504.69
494.268	1544.69
494.485	1533.69
494.703	1568.69
494.92	1551.69
495.138	1491.69
495.355	1548.69
495.573	1608.69
495.79	1635.69
496.008	1633.69
496.225	1601.69
496.442	1556.69
496.66	1562.69
496.877	1553.69
497.094	1605.69
497.312	1619.69
497.529	1582.69
497.746	1618.69
497.963	1825.69
498.181	1931.69
498.398	1886.69
498.615	1831.69
498.832	1736.69
499.049	1720.69
499.267	1750.69
499.484	1841.69
499.701	1956.69
499.918	1991.69
500.135	2162.69
500.352	2330.69
500.569	2308.69
500.786	2484.69
501.003	2282.69
501.22	2098.69
501.437	2066.69
501.654	2041.69
501.871	1955.69
502.088	1723.69
502.305	1695.69
502.522	1620.69
502.739	1565.69
502.956	1524.69
503.172	1524.69
503.389	1496.69
503.606	1483.69
503.823	1427.69
504.04	1472.69
504.256	1454.69
504.473	1453.69
504.69	1523.69
504.907	1469.69
505.123	1381.69
505.34	1539.69
505.557	1973.69
505.773	1642.69
505.99	1384.69
506.207	1291.69
506.423	1264.69
506.64	1257.69
506.856	1288.69
507.073	1489.69
507.289	1565.69
507.506	1473.69
507.722	1267.69
507.939	1226.69
508.155	1226.69
508.372	1213.69
508.588	1198.69
508.805	1174.69
509.021	1145.69
509.238	1136.69
509.454	1121.69
509.67	1156.69
509.887	1140.69
510.103	1108.69
510.319	1108.69
510.536	1212.69
510.752	1213.69
510.968	1194.69
511.184	1241.69
511.401	1208.69
511.617	1121.69
511.833	1091.69
512.049	1082.69
512.265	1073.69
512.481	1059.69
512.698	1144.69
512.914	1173.69
513.13	1138.69
513.346	1114.69
513.562	1050.69
513.778	1114.69
513.994	1115.69
514.21	1186.69
514.426	1170.69
514.642	1304.69
514.858	1230.69
515.074	1137.69
515.29	1099.69
515.506	1119.69
515.721	1160.69
515.937	1157.69
516.153	1269.69
516.369	1206.69
516.585	1155.69
516.801	1102.69
517.016	1112.69
517.232	1173.69
517.448	1186.69
517.664	1153.69
517.879	1198.69
518.095	1240.69
518.311	1187.69
518.527	1159.69
518.742	1123.69
518.958	1092.69
519.173	1126.69
519.389	1153.69
519.605	1162.69
519.82	1143.69
520.036	1174.69
520.251	1122.69
520.467	1143.69
520.682	1250.69
520.898	1222.69
521.113	1107.69
521.329	1126.69
521.544	1174.69
521.76	1123.69
521.975	1088.69
522.19	1096.69
522.406	1100.69
522.621	1353.69
522.836	1300.69
523.052	1097.69
523.267	1080.69
523.482	1105.69
523.698	1085.69
523.913	1034.69
524.128	1074.69
524.343	1145.69
524.559	1143.69
524.774	1074.69
524.989	1060.69
525.204	1063.69
525.419	1016.69
525.634	1049.69
525.849	1032.69
526.064	1063.69
526.28	1035.69
526.495	1030.69
526.71	1017.69
526.925	1003.69
527.14	976.69
527.355	953.69
527.57	988.69
527.785	988.69
527.999	971.69
528.214	967.69
528.429	971.69
528.644	1005.69
528.859	1036.69
529.074	1054.69
529.289	1092.69
529.503	1081.69
529.718	1066.69
529.933	1015.69
530.148	960.69
530.363	927.69
530.577	987.69
530.792	957.69
531.007	932.69
531.221	958.69
531.436	986.69
531.651	1010.69
531.865	1036.69
532.08	998.69
532.295	951.69
532.509	919.69
532.724	916.69
532.938	994.69
533.153	1042.69
533.367	1006.69
533.582	1037.69
533.796	1006.69
534.011	995.69
534.225	1010.69
534.44	936.69
534.654	963.69
534.868	960.69
535.083	1020.69
535.297	1022.69
535.511	983.69
535.726	981.69
535.94	968.69
536.154	933.69
536.369	928.69
536.583	907.69
536.797	904.69
537.011	961.69
537.225	917.69
537.44	933.69
537.654	957.69
537.868	912.69
538.082	897.69
538.296	906.69
538.51	918.69
538.724	958.69
538.938	924.69
539.153	966.69
539.367	969.69
539.581	964.69
539.795	999.69
540.009	956.69
540.222	904.69
540.436	981.69
540.65	1076.69
540.864	1074.69
541.078	1039.69
541.292	1036.69
541.506	1022.69
541.72	1103.69
541.934	1121.69
542.147	1162.69
542.361	1125.69
542.575	1044.69
542.789	1014.69
543.002	978.69
543.216	969.69
543.43	1007.69
543.644	1055.69
543.857	1119.69
544.071	1109.69
544.285	1077.69
544.498	1090.69
544.712	1064.69
544.925	1096.69
545.139	1125.69
545.352	1096.69
545.566	1035.69
545.779	1037.69
545.993	1087.69
546.206	1079.69
546.42	1077.69
546.633	1035.69
546.847	1020.69
547.06	1054.69
547.274	1072.69
547.487	1074.69
547.7	1097.69
547.914	1061.69
548.127	1089.69
548.34	1082.69
548.554	1054.69
548.767	1065.69
548.98	1060.69
549.193	1050.69
549.407	1096.69
549.62	1060.69
549.833	1038.69
550.046	1024.69
550.259	1026.69
550.473	999.69
550.686	1031.69
550.899	988.69
551.112	968.69
551.325	954.69
551.538	1014.69
551.751	1108.69
551.964	917.69
552.177	884.69
552.39	940.69
552.603	972.69
552.816	983.69
553.029	1049.69
553.242	1077.69
553.455	1016.69
553.667	1048.69
553.88	1000.69
554.093	978.69
554.306	992.69
554.519	943.69
554.732	946.69
554.944	965.69
555.157	972.69
555.37	928.69
555.583	919.69
555.795	917.69
556.008	888.69
556.221	836.69
556.433	863.69
556.646	870.69
556.859	840.69
557.071	887.69
557.284	867.69
557.496	841.69
557.709	841.69
557.921	853.69
558.134	861.69
558.346	855.69
558.559	830.69
558.771	812.69
558.984	802.69
559.196	796.69
559.409	822.69
559.621	780.69
559.833	816.69
560.046	793.69
560.258	812.69
560.47	809.69
560.683	798.69
560.895	803.69
561.107	830.69
561.32	818.69
561.532	814.69
561.744	813.69
561.956	834.69
562.168	786.69
562.381	766.69
562.593	757.69
562.805	775.69
563.017	756.69
563.229	784.69
563.441	780.69
563.653	759.69
563.865	745.69
564.077	748.69
564.289	784.69
564.501	757.69
564.713	796.69
564.925	800.69
565.137	861.69
565.349	782.69
565.561	777.69
565.773	788.69
565.985	818.69
566.197	857.69
566.408	889.69
566.62	892.69
566.832	887.69
567.044	871.69
567.255	894.69
567.467	862.69
567.679	879.69
567.891	893.69
568.102	857.69
568.314	845.69
568.526	816.69
568.737	739.69
568.949	719.69
569.161	694.69
569.372	692.69
569.584	666.69
569.795	681.69
570.007	687.69
570.218	658.69
570.43	636.69
570.641	641.69
570.853	666.69
571.064	656.69
571.276	664.69
571.487	630.69
571.698	647.69
571.91	630.69
572.121	625.69
572.333	611.69
572.544	607.69
572.755	558.69
572.966	583.69
573.178	575.69
573.389	581.69
573.6	594.69
573.811	617.69
574.023	582.69
574.234	577.69
574.445	533.69
574.656	560.69
574.867	560.69
575.078	577.69
575.289	576.69
575.501	535.69
575.712	529.69
575.923	559.69
576.134	564.69
576.345	546.69
576.556	527.69
576.767	532.69
576.978	528.69
577.188	524.69
577.399	510.69
577.61	532.69
577.821	513.69
578.032	513.69
578.243	498.69
578.454	505.69
578.665	476.69
578.875	477.69
579.086	495.69
579.297	492.69
579.508	512.69
579.718	499.69
579.929	498.69
580.14	474.69
580.35	478.69
580.561	510.69
580.772	553.69
580.982	509.69
581.193	485.69
581.403	481.69
581.614	468.69
581.825	463.69
582.035	479.69
582.246	479.69
582.456	495.69
582.667	479.69
582.877	478.69
583.087	464.69
583.298	445.69
583.508	476.69
583.719	478.69
583.929	471.69
584.139	482.69
584.35	424.69
584.56	447.69
584.77	473.69
584.981	461.69
585.191	462.69
585.401	445.69
585.611	451.69
585.821	460.69
586.032	444.69
586.242	424.69
586.452	434.69
586.662	450.69
586.872	447.69
587.082	441.69
587.292	458.69
587.502	455.69
587.713	459.69
587.923	446.69
588.133	439.69
588.343	459.69
588.553	444.69
588.762	437.69
588.972	424.69
589.182	444.69
589.392	449.69
589.602	462.69
589.812	441.69
590.022	430.69
590.232	417.69
590.441	423.69
590.651	437.69
590.861	435.69
591.071	420.69
591.281	428.69
591.49	440.69
591.7	447.69
591.91	434.69
592.119	434.69
592.329	445.69
592.539	439.69
592.748	436.69
592.958	442.69
593.167	447.69
593.377	460.69
593.587	426.69
593.796	438.69
594.006	454.69
594.215	466.69
594.424	457.69
594.634	442.69
594.843	446.69
595.053	453.69
595.262	432.69
595.472	436.69
595.681	436.69
595.89	436.69
596.1	420.69
596.309	430.69
596.518	421.69
596.727	421.69
596.937	417.69
597.146	416.69
597.355	414.69
597.564	409.69
597.774	393.69
597.983	386.69
598.192	399.69
598.401	381.69
598.61	398.69
598.819	387.69
599.028	378.69
599.237	384.69
599.446	394.69
599.655	388.69
599.864	396.69
600.073	381.69
600.282	391.69
600.491	364.69
600.7	404.69
600.909	353.69
601.118	376.69
601.327	418.69
601.536	395.69
601.745	409.69
601.953	386.69
602.162	389.69
602.371	404.69
602.58	408.69
602.789	413.69
602.997	406.69
603.206	426.69
603.415	408.69
603.623	397.69
603.832	384.69
604.041	386.69
604.249	382.69
604.458	377.69
604.666	378.69
604.875	378.69
605.084	382.69
605.292	400.69
605.501	408.69
605.709	393.69
605.918	393.69
606.126	409.69
606.334	383.69
606.543	408.69
606.751	402.69
606.96	397.69
607.168	389.69
607.376	366.69
607.585	364.69
607.793	390.69
608.001	407.69
608.21	411.69
608.418	413.69
608.626	415.69
608.834	399.69
609.043	381.69
609.251	401.69
609.459	398.69
609.667	381.69
609.875	382.69
610.083	398.69
610.291	386.69
610.499	392.69
610.707	398.69
610.916	413.69
611.124	396.69
611.332	386.69
611.54	398.69
611.748	374.69
611.955	380.69
612.163	378.69
612.371	392.69
612.579	398.69
612.787	374.69
612.995	402.69
613.203	389.69
613.411	362.69
613.618	398.69
613.826	358.69
614.034	382.69
614.242	383.69
614.449	379.69
614.657	393.69
614.865	376.69
615.072	386.69
615.28	368.69
615.488	354.69
615.695	411.69
615.903	387.69
616.111	360.69
616.318	376.69
616.526	378.69
616.733	388.69
616.941	379.69
617.148	363.69
617.356	375.69
617.563	375.69
617.771	362.69
617.978	371.69
618.185	374.69
618.393	368.69
618.6	356.69
618.807	374.69
619.015	377.69
619.222	369.69
619.429	379.69
619.637	345.69
619.844	341.69
620.051	361.69
620.258	352.69
620.466	344.69
620.673	338.69
620.88	335.69
621.087	353.69
621.294	342.69
621.501	327.69
621.708	320.69
621.915	337.69
622.122	346.69
622.329	345.69
622.536	339.69
622.743	337.69
622.95	333.69
623.157	321.69
623.364	353.69
623.571	359.69
623.778	346.69
623.985	352.69
624.192	336.69
624.399	345.69
624.606	316.69
624.812	332.69
625.019	321.69
625.226	342.69
625.433	346.69
625.639	328.69
625.846	325.69
626.053	287.69
626.259	262.69
626.466	308.69
626.673	284.69
626.879	269.69
627.086	295.69
627.293	312.69
627.499	308.69
627.706	320.69
627.912	318.69
628.119	316.69
628.325	301.69
628.532	295.69
628.738	297.69
628.945	325.69
629.151	312.69
629.357	317.69
629.564	311.69
629.77	306.69
629.976	296.69
630.183	299.69
630.389	308.69
630.595	318.69
630.802	299.69
631.008	295.69
631.214	291.69
631.42	289.69
631.627	272.69
631.833	286.69
632.039	274.69
632.245	281.69
632.451	295.69
632.657	289.69
632.863	276.69
633.069	274.69
633.275	259.69
633.481	274.69
633.688	264.69
633.893	279.69
634.099	277.69
634.305	273.69
634.511	277.69
634.717	272.69
634.923	252.69
635.129	280.69
635.335	264.69
635.541	266.69
635.747	279.69
635.952	264.69
636.158	281.69
636.364	282.69
636.57	273.69
636.775	262.69
636.981	268.69
637.187	296.69
637.392	266.69
637.598	282.69
637.804	270.69
638.009	288.69
638.215	273.69
638.421	265.69
638.626	264.69
638.832	252.69
639.037	256.69
639.243	246.69
639.448	261.69
639.654	264.69
639.859	242.69
640.065	250.69
640.27	265.69
640.475	266.69
640.681	270.69
640.886	257.69
641.091	254.69
641.297	279.69
641.502	278.69
641.707	264.69
641.913	264.69
642.118	252.69
642.323	258.69
642.528	264.69
642.733	269.69
642.939	254.69
643.144	238.69
643.349	271.69
643.554	245.69
643.759	266.69
643.964	259.69
644.169	254.69
644.374	246.69
644.579	262.69
644.784	253.69
644.989	254.69
645.194	260.69
645.399	253.69
645.604	247.69
645.809	242.69
646.014	275.69
646.219	243.69
646.423	250.69
646.628	260.69
646.833	231.69
647.038	258.69
647.243	262.69
647.447	255.69
647.652	258.69
647.857	260.69
648.062	258.69
648.266	273.69
648.471	269.69
648.676	260.69
648.88	262.69
649.085	258.69
649.289	258.69
649.494	228.69
649.698	240.69
649.903	240.69
650.107	237.69
650.312	255.69
650.516	232.69
650.721	245.69
650.925	240.69
651.13	222.69
651.334	222.69
651.539	235.69
651.743	240.69
651.947	241.69
652.152	226.69
652.356	228.69
652.56	200.69
652.764	215.69
652.969	228.69
653.173	210.69
653.377	222.69
653.581	211.69
653.785	223.69
653.99	206.69
654.194	205.69
654.398	217.69
654.602	213.69
654.806	213.69
655.01	202.69
655.214	219.69
655.418	230.69
655.622	224.69
655.826	218.69
656.03	241.69
656.234	231.69
656.438	241.69
656.642	235.69
656.846	244.69
657.049	230.69
657.253	220.69
657.457	205.69
657.661	190.69
657.865	198.69
658.068	182.69
658.272	160.69
658.476	157.69
658.68	140.69
658.883	160.69
659.087	165.69
659.291	149.69
659.494	127.69
659.698	133.69
659.901	120.69
660.105	138.69
660.309	120.69
660.512	116.69
660.716	127.69
660.919	118.69
661.123	112.69
661.326	116.69
661.53	99.69
661.733	109.69
661.936	100.69
662.14	106.69
662.343	96.69
662.546	94.69
662.75	96.69
662.953	88.69
663.156	91.69
663.36	84.69
663.563	83.69
663.766	86.69
663.969	81.69
664.173	83.69
664.376	93.69
664.579	105.69
664.782	91.69
664.985	88.69
665.188	75.69
665.391	83.69
665.594	91.69
665.797	87.69
666	87.69
666.203	85.69
666.406	69.69
666.609	81.69
666.812	71.69
667.015	71.69
667.218	99.69
667.421	86.69
667.624	77.69
667.827	73.69
668.03	74.69
668.232	85.69
668.435	80.69
668.638	80.69
668.841	81.69
669.043	74.69
669.246	83.69
669.449	74.69
669.651	88.69
669.854	75.69
670.057	79.69
670.259	74.69
670.462	83.69
670.665	73.69
670.867	78.69
671.07	76.69
671.272	71.69
671.475	87.69
671.677	70.69
671.88	74.69
672.082	66.69
672.284	73.69
672.487	87.69
672.689	73.69
672.892	74.69
