Data from WStandard_LampEnergy8_LIBS07252019.E.O._I.C._HRD10591_16-00-02-929.txt Node
Date: Thu Jul 25 16:00:02 EDT 2019
User: cochatt
Spectrometer: HR+D1059
Trigger mode: 1
Integration Time (sec): 1.000000E-1
Scans to average: 1
Electric dark correction enabled: true
Nonlinearity correction enabled: false
Boxcar width: 0
XAxis mode: Wavelengths
Number of Pixels in Spectrum: 2048
>>>>>Begin Spectral Data<<<<<
223.165	-17.56
223.4	-17.56
223.635	-17.56
223.869	-16.56
224.104	-22.56
224.338	-16.56
224.573	-31.56
224.808	-22.56
225.042	-4.56
225.277	0.44
225.511	-1.56
225.746	10.44
225.98	4.44
226.215	12.44
226.449	22.44
226.683	24.44
226.918	36.44
227.152	22.44
227.387	33.44
227.621	25.44
227.856	42.44
228.09	61.44
228.324	29.44
228.559	48.44
228.793	103.44
229.027	204.44
229.262	196.44
229.496	224.44
229.73	230.44
229.964	242.44
230.199	248.44
230.433	258.44
230.667	284.44
230.901	288.44
231.136	285.44
231.37	262.44
231.604	252.44
231.838	265.44
232.072	260.44
232.306	260.44
232.541	273.44
232.775	305.44
233.009	315.44
233.243	327.44
233.477	276.44
233.711	286.44
233.945	296.44
234.179	314.44
234.413	323.44
234.647	337.44
234.881	320.44
235.115	281.44
235.349	286.44
235.583	320.44
235.817	293.44
236.051	306.44
236.285	307.44
236.519	342.44
236.753	352.44
236.987	341.44
237.221	342.44
237.455	379.44
237.689	357.44
237.922	361.44
238.156	348.44
238.39	349.44
238.624	399.44
238.858	408.44
239.091	407.44
239.325	424.44
239.559	481.44
239.793	500.44
240.027	499.44
240.26	489.44
240.494	384.44
240.728	389.44
240.961	381.44
241.195	366.44
241.429	422.44
241.662	426.44
241.896	361.44
242.13	404.44
242.363	440.44
242.597	444.44
242.83	450.44
243.064	457.44
243.298	477.44
243.531	456.44
243.765	460.44
243.998	449.44
244.232	417.44
244.465	409.44
244.699	417.44
244.932	472.44
245.166	514.44
245.399	489.44
245.633	451.44
245.866	452.44
246.099	481.44
246.333	467.44
246.566	492.44
246.8	536.44
247.033	577.44
247.266	529.44
247.5	521.44
247.733	541.44
247.966	564.44
248.2	604.44
248.433	594.44
248.666	615.44
248.899	685.44
249.133	741.44
249.366	807.44
249.599	648.44
249.832	590.44
250.066	618.44
250.299	611.44
250.532	579.44
250.765	531.44
250.998	578.44
251.231	605.44
251.465	588.44
251.698	585.44
251.931	584.44
252.164	605.44
252.397	604.44
252.63	613.44
252.863	552.44
253.096	545.44
253.329	574.44
253.562	591.44
253.795	615.44
254.028	605.44
254.261	596.44
254.494	565.44
254.727	553.44
254.96	597.44
255.193	643.44
255.426	722.44
255.659	794.44
255.892	772.44
256.124	663.44
256.357	661.44
256.59	691.44
256.823	708.44
257.056	720.44
257.289	836.44
257.521	884.44
257.754	793.44
257.987	754.44
258.22	821.44
258.452	786.44
258.685	706.44
258.918	696.44
259.151	667.44
259.383	665.44
259.616	590.44
259.849	642.44
260.081	704.44
260.314	792.44
260.547	807.44
260.779	827.44
261.012	763.44
261.244	701.44
261.477	690.44
261.71	690.44
261.942	681.44
262.175	670.44
262.407	690.44
262.64	681.44
262.872	631.44
263.105	623.44
263.337	626.44
263.57	635.44
263.802	643.44
264.035	608.44
264.267	563.44
264.499	561.44
264.732	618.44
264.964	642.44
265.197	680.44
265.429	717.44
265.661	776.44
265.894	835.44
266.126	894.44
266.358	780.44
266.591	823.44
266.823	864.44
267.055	801.44
267.287	784.44
267.52	783.44
267.752	752.44
267.984	774.44
268.216	799.44
268.448	822.44
268.681	804.44
268.913	713.44
269.145	670.44
269.377	689.44
269.609	820.44
269.841	887.44
270.073	1031.44
270.306	1105.44
270.538	1090.44
270.77	937.44
271.002	826.44
271.234	809.44
271.466	824.44
271.698	928.44
271.93	1066.44
272.162	1043.44
272.394	973.44
272.626	904.44
272.858	790.44
273.09	737.44
273.322	710.44
273.553	668.44
273.785	722.44
274.017	720.44
274.249	751.44
274.481	750.44
274.713	724.44
274.945	687.44
275.176	710.44
275.408	670.44
275.64	662.44
275.872	680.44
276.104	747.44
276.335	803.44
276.567	912.44
276.799	903.44
277.031	838.44
277.262	804.44
277.494	849.44
277.726	924.44
277.957	896.44
278.189	824.44
278.421	762.44
278.652	727.44
278.884	727.44
279.115	739.44
279.347	735.44
279.579	709.44
279.81	741.44
280.042	820.44
280.273	906.44
280.505	880.44
280.736	892.44
280.968	820.44
281.199	720.44
281.431	736.44
281.662	727.44
281.894	718.44
282.125	741.44
282.356	781.44
282.588	784.44
282.819	769.44
283.051	847.44
283.282	872.44
283.513	837.44
283.745	744.44
283.976	696.44
284.207	734.44
284.439	732.44
284.67	753.44
284.901	779.44
285.132	787.44
285.364	754.44
285.595	782.44
285.826	764.44
286.057	752.44
286.288	733.44
286.52	795.44
286.751	848.44
286.982	832.44
287.213	797.44
287.444	715.44
287.675	737.44
287.906	789.44
288.138	857.44
288.369	786.44
288.6	759.44
288.831	738.44
289.062	727.44
289.293	770.44
289.524	777.44
289.755	808.44
289.986	814.44
290.217	734.44
290.448	759.44
290.679	789.44
290.91	776.44
291.141	786.44
291.371	832.44
291.602	839.44
291.833	812.44
292.064	863.44
292.295	832.44
292.526	841.44
292.757	868.44
292.987	807.44
293.218	822.44
293.449	868.44
293.68	988.44
293.91	1007.44
294.141	953.44
294.372	914.44
294.603	982.44
294.833	963.44
295.064	911.44
295.295	818.44
295.525	789.44
295.756	748.44
295.987	725.44
296.217	769.44
296.448	753.44
296.679	759.44
296.909	790.44
297.14	788.44
297.37	793.44
297.601	846.44
297.831	901.44
298.062	885.44
298.292	826.44
298.523	782.44
298.753	791.44
298.984	793.44
299.214	809.44
299.445	818.44
299.675	864.44
299.905	848.44
300.136	821.44
300.366	774.44
300.597	760.44
300.827	767.44
301.057	828.44
301.288	864.44
301.518	830.44
301.748	894.44
301.979	912.44
302.209	935.44
302.439	1000.44
302.669	995.44
302.9	935.44
303.13	864.44
303.36	864.44
303.59	876.44
303.82	867.44
304.051	862.44
304.281	861.44
304.511	894.44
304.741	957.44
304.971	1009.44
305.201	1069.44
305.431	918.44
305.661	808.44
305.891	773.44
306.121	762.44
306.352	799.44
306.582	844.44
306.812	901.44
307.042	952.44
307.272	963.44
307.502	1006.44
307.731	1052.44
307.961	1097.44
308.191	990.44
308.421	894.44
308.651	851.44
308.881	840.44
309.111	839.44
309.341	831.44
309.571	809.44
309.8	825.44
310.03	822.44
310.26	822.44
310.49	825.44
310.72	835.44
310.949	884.44
311.179	876.44
311.409	864.44
311.639	855.44
311.868	834.44
312.098	852.44
312.328	842.44
312.557	826.44
312.787	846.44
313.017	897.44
313.246	895.44
313.476	861.44
313.706	895.44
313.935	905.44
314.165	899.44
314.394	920.44
314.624	991.44
314.853	1038.44
315.083	1040.44
315.312	1082.44
315.542	967.44
315.771	912.44
316.001	914.44
316.23	969.44
316.46	976.44
316.689	941.44
316.919	868.44
317.148	863.44
317.377	907.44
317.607	994.44
317.836	1042.44
318.065	1072.44
318.295	1057.44
318.524	1012.44
318.753	977.44
318.983	953.44
319.212	930.44
319.441	917.44
319.67	929.44
319.9	959.44
320.129	977.44
320.358	1060.44
320.587	1064.44
320.816	1017.44
321.046	989.44
321.275	954.44
321.504	981.44
321.733	1047.44
321.962	1012.44
322.191	961.44
322.42	932.44
322.649	918.44
322.878	902.44
323.108	938.44
323.337	977.44
323.566	944.44
323.795	971.44
324.024	935.44
324.253	939.44
324.482	943.44
324.71	888.44
324.939	879.44
325.168	889.44
325.397	941.44
325.626	948.44
325.855	950.44
326.084	927.44
326.313	942.44
326.542	950.44
326.77	962.44
326.999	938.44
327.228	929.44
327.457	869.44
327.686	878.44
327.914	920.44
328.143	941.44
328.372	956.44
328.6	949.44
328.829	905.44
329.058	898.44
329.287	917.44
329.515	945.44
329.744	958.44
329.972	1024.44
330.201	1053.44
330.43	1021.44
330.658	1011.44
330.887	965.44
331.115	990.44
331.344	988.44
331.572	967.44
331.801	974.44
332.03	992.44
332.258	982.44
332.486	980.44
332.715	1029.44
332.943	1024.44
333.172	997.44
333.4	1001.44
333.629	1004.44
333.857	1108.44
334.085	1228.44
334.314	1359.44
334.542	1437.44
334.771	1304.44
334.999	1141.44
335.227	1114.44
335.455	1063.44
335.684	1064.44
335.912	1060.44
336.14	1141.44
336.369	1059.44
336.597	1009.44
336.825	988.44
337.053	1048.44
337.281	1121.44
337.51	1159.44
337.738	1203.44
337.966	1104.44
338.194	993.44
338.422	1001.44
338.65	982.44
338.878	953.44
339.106	924.44
339.334	960.44
339.562	924.44
339.79	978.44
340.018	1037.44
340.246	1061.44
340.474	1011.44
340.702	1031.44
340.93	1022.44
341.158	1044.44
341.386	996.44
341.614	1025.44
341.842	970.44
342.07	974.44
342.298	993.44
342.526	1018.44
342.754	967.44
342.981	940.44
343.209	963.44
343.437	989.44
343.665	991.44
343.893	1057.44
344.12	1054.44
344.348	1090.44
344.576	1028.44
344.804	990.44
345.031	1001.44
345.259	1027.44
345.487	958.44
345.714	925.44
345.942	911.44
346.17	932.44
346.397	930.44
346.625	954.44
346.853	920.44
347.08	904.44
347.308	904.44
347.535	904.44
347.763	945.44
347.99	944.44
348.218	916.44
348.445	918.44
348.673	932.44
348.9	968.44
349.128	1021.44
349.355	1011.44
349.583	964.44
349.81	926.44
350.037	881.44
350.265	892.44
350.492	895.44
350.72	920.44
350.947	926.44
351.174	932.44
351.402	907.44
351.629	870.44
351.856	891.44
352.083	880.44
352.311	878.44
352.538	891.44
352.765	952.44
352.992	949.44
353.22	902.44
353.447	896.44
353.674	919.44
353.901	932.44
354.128	890.44
354.355	900.44
354.583	950.44
354.81	978.44
355.037	948.44
355.264	917.44
355.491	964.44
355.718	940.44
355.945	932.44
356.172	900.44
356.399	908.44
356.626	897.44
356.853	957.44
357.08	1047.44
357.307	1138.44
357.534	1068.44
357.761	971.44
357.988	896.44
358.215	871.44
358.441	878.44
358.668	886.44
358.895	921.44
359.122	936.44
359.349	1052.44
359.576	1010.44
359.802	943.44
360.029	888.44
360.256	908.44
360.483	901.44
360.709	935.44
360.936	958.44
361.163	1026.44
361.39	1132.44
361.616	1168.44
361.843	1158.44
362.07	1069.44
362.296	950.44
362.523	952.44
362.749	928.44
362.976	950.44
363.203	973.44
363.429	905.44
363.656	906.44
363.882	966.44
364.109	1065.44
364.335	1110.44
364.562	1033.44
364.788	985.44
365.015	969.44
365.241	935.44
365.468	938.44
365.694	972.44
365.92	1007.44
366.147	941.44
366.373	905.44
366.599	895.44
366.826	900.44
367.052	930.44
367.278	935.44
367.505	944.44
367.731	943.44
367.957	961.44
368.184	1009.44
368.41	1034.44
368.636	1048.44
368.862	1078.44
369.089	1063.44
369.315	1034.44
369.541	966.44
369.767	980.44
369.993	935.44
370.219	917.44
370.445	956.44
370.672	1025.44
370.898	1087.44
371.124	1037.44
371.35	999.44
371.576	1065.44
371.802	1067.44
372.028	997.44
372.254	991.44
372.48	967.44
372.706	945.44
372.932	944.44
373.158	966.44
373.384	970.44
373.61	1011.44
373.835	1059.44
374.061	985.44
374.287	968.44
374.513	967.44
374.739	993.44
374.965	1000.44
375.191	1021.44
375.416	1029.44
375.642	1022.44
375.868	1093.44
376.094	1105.44
376.319	1048.44
376.545	1007.44
376.771	1029.44
376.997	1088.44
377.222	1062.44
377.448	1034.44
377.674	1051.44
377.899	1043.44
378.125	1102.44
378.35	1050.44
378.576	1000.44
378.802	963.44
379.027	949.44
379.253	979.44
379.478	976.44
379.704	986.44
379.929	969.44
380.155	988.44
380.38	987.44
380.606	1021.44
380.831	1021.44
381.057	1048.44
381.282	1058.44
381.507	1046.44
381.733	1145.44
381.958	1162.44
382.184	1059.44
382.409	1050.44
382.634	1050.44
382.86	1034.44
383.085	1035.44
383.31	1084.44
383.535	1154.44
383.761	1212.44
383.986	1185.44
384.211	1117.44
384.436	1143.44
384.662	1214.44
384.887	1213.44
385.112	1169.44
385.337	1132.44
385.562	1112.44
385.787	1130.44
386.013	1188.44
386.238	1168.44
386.463	1145.44
386.688	1271.44
386.913	1315.44
387.138	1266.44
387.363	1190.44
387.588	1185.44
387.813	1170.44
388.038	1187.44
388.263	1234.44
388.488	1163.44
388.713	1121.44
388.938	1072.44
389.163	1090.44
389.387	1125.44
389.612	1152.44
389.837	1166.44
390.062	1144.44
390.287	1141.44
390.512	1145.44
390.736	1102.44
390.961	1107.44
391.186	1094.44
391.411	1107.44
391.636	1118.44
391.86	1152.44
392.085	1134.44
392.31	1132.44
392.534	1113.44
392.759	1156.44
392.984	1153.44
393.208	1151.44
393.433	1189.44
393.658	1244.44
393.882	1218.44
394.107	1132.44
394.331	1122.44
394.556	1121.44
394.78	1155.44
395.005	1206.44
395.229	1254.44
395.454	1328.44
395.678	1292.44
395.903	1248.44
396.127	1189.44
396.352	1197.44
396.576	1278.44
396.801	1294.44
397.025	1237.44
397.249	1273.44
397.474	1238.44
397.698	1238.44
397.922	1284.44
398.147	1364.44
398.371	1339.44
398.595	1320.44
398.82	1279.44
399.044	1332.44
399.268	1390.44
399.492	1444.44
399.717	1492.44
399.941	1506.44
400.165	1493.44
400.389	1453.44
400.613	1495.44
400.837	1666.44
401.062	1833.44
401.286	1546.44
401.51	1445.44
401.734	1480.44
401.958	1435.44
402.182	1332.44
402.406	1295.44
402.63	1292.44
402.854	1298.44
403.078	1292.44
403.302	1311.44
403.526	1373.44
403.75	1330.44
403.974	1382.44
404.198	1362.44
404.422	1457.44
404.645	1478.44
404.869	1416.44
405.093	1357.44
405.317	1284.44
405.541	1327.44
405.765	1348.44
405.988	1325.44
406.212	1391.44
406.436	1425.44
406.66	1479.44
406.883	1554.44
407.107	1660.44
407.331	1806.44
407.555	1924.44
407.778	1674.44
408.002	1458.44
408.226	1415.44
408.449	1416.44
408.673	1378.44
408.896	1388.44
409.12	1412.44
409.344	1374.44
409.567	1338.44
409.791	1366.44
410.014	1407.44
410.238	1479.44
410.461	1570.44
410.685	1408.44
410.908	1302.44
411.132	1365.44
411.355	1361.44
411.578	1310.44
411.802	1385.44
412.025	1353.44
412.249	1333.44
412.472	1305.44
412.695	1298.44
412.919	1325.44
413.142	1321.44
413.365	1348.44
413.589	1394.44
413.812	1464.44
414.035	1408.44
414.258	1339.44
414.482	1299.44
414.705	1310.44
414.928	1309.44
415.151	1253.44
415.374	1310.44
415.597	1346.44
415.821	1350.44
416.044	1352.44
416.267	1348.44
416.49	1249.44
416.713	1226.44
416.936	1315.44
417.159	1408.44
417.382	1337.44
417.605	1298.44
417.828	1350.44
418.051	1337.44
418.274	1319.44
418.497	1327.44
418.72	1290.44
418.943	1304.44
419.166	1335.44
419.389	1375.44
419.611	1305.44
419.834	1296.44
420.057	1311.44
420.28	1281.44
420.503	1306.44
420.726	1322.44
420.948	1317.44
421.171	1253.44
421.394	1273.44
421.617	1334.44
421.839	1321.44
422.062	1333.44
422.285	1250.44
422.507	1249.44
422.73	1285.44
422.953	1246.44
423.175	1245.44
423.398	1268.44
423.621	1296.44
423.843	1262.44
424.066	1345.44
424.288	1394.44
424.511	1422.44
424.733	1328.44
424.956	1260.44
425.178	1223.44
425.401	1230.44
425.623	1270.44
425.846	1301.44
426.068	1365.44
426.291	1344.44
426.513	1352.44
426.735	1317.44
426.958	1434.44
427.18	1491.44
427.402	1406.44
427.625	1433.44
427.847	1385.44
428.069	1301.44
428.292	1246.44
428.514	1250.44
428.736	1241.44
428.958	1252.44
429.181	1280.44
429.403	1495.44
429.625	1775.44
429.847	1493.44
430.069	1313.44
430.292	1481.44
430.514	1447.44
430.736	1377.44
430.958	1394.44
431.18	1356.44
431.402	1221.44
431.624	1194.44
431.846	1235.44
432.068	1136.44
432.29	1170.44
432.512	1207.44
432.734	1251.44
432.956	1326.44
433.178	1347.44
433.4	1311.44
433.622	1338.44
433.844	1255.44
434.066	1201.44
434.287	1169.44
434.509	1221.44
434.731	1274.44
434.953	1372.44
435.175	1371.44
435.397	1273.44
435.618	1278.44
435.84	1258.44
436.062	1202.44
436.284	1297.44
436.505	1284.44
436.727	1344.44
436.949	1285.44
437.17	1264.44
437.392	1205.44
437.614	1180.44
437.835	1188.44
438.057	1221.44
438.278	1274.44
438.5	1217.44
438.721	1245.44
438.943	1265.44
439.165	1252.44
439.386	1218.44
439.608	1266.44
439.829	1264.44
440.05	1258.44
440.272	1223.44
440.493	1224.44
440.715	1256.44
440.936	1345.44
441.158	1445.44
441.379	1379.44
441.6	1426.44
441.822	1354.44
442.043	1332.44
442.264	1325.44
442.486	1266.44
442.707	1263.44
442.928	1248.44
443.149	1296.44
443.371	1354.44
443.592	1405.44
443.813	1364.44
444.034	1356.44
444.255	1376.44
444.476	1378.44
444.698	1409.44
444.919	1399.44
445.14	1521.44
445.361	1441.44
445.582	1440.44
445.803	1406.44
446.024	1368.44
446.245	1404.44
446.466	1380.44
446.687	1370.44
446.908	1349.44
447.129	1287.44
447.35	1316.44
447.571	1285.44
447.792	1251.44
448.013	1266.44
448.234	1292.44
448.455	1338.44
448.675	1347.44
448.896	1203.44
449.117	1206.44
449.338	1225.44
449.559	1263.44
449.779	1316.44
450	1400.44
450.221	1482.44
450.442	1395.44
450.662	1282.44
450.883	1200.44
451.104	1170.44
451.324	1169.44
451.545	1225.44
451.766	1202.44
451.986	1160.44
452.207	1121.44
452.428	1091.44
452.648	1092.44
452.869	1144.44
453.089	1128.44
453.31	1162.44
453.53	1183.44
453.751	1112.44
453.971	1050.44
454.192	1081.44
454.412	1139.44
454.633	1134.44
454.853	1104.44
455.073	1070.44
455.294	1079.44
455.514	1063.44
455.734	1072.44
455.955	1104.44
456.175	1077.44
456.395	1058.44
456.616	1103.44
456.836	1042.44
457.056	1111.44
457.276	1087.44
457.497	1029.44
457.717	1004.44
457.937	1069.44
458.157	1065.44
458.377	1062.44
458.598	1049.44
458.818	1033.44
459.038	1096.44
459.258	1135.44
459.478	1128.44
459.698	1116.44
459.918	1142.44
460.138	1239.44
460.358	1239.44
460.578	1259.44
460.798	1279.44
461.018	1340.44
461.238	1302.44
461.458	1273.44
461.678	1262.44
461.898	1240.44
462.118	1200.44
462.338	1282.44
462.558	1250.44
462.777	1261.44
462.997	1335.44
463.217	1406.44
463.437	1365.44
463.657	1278.44
463.876	1237.44
464.096	1264.44
464.316	1264.44
464.536	1305.44
464.755	1276.44
464.975	1300.44
465.195	1303.44
465.414	1327.44
465.634	1310.44
465.854	1290.44
466.073	1364.44
466.293	1349.44
466.512	1222.44
466.732	1193.44
466.951	1224.44
467.171	1230.44
467.391	1180.44
467.61	1186.44
467.829	1221.44
468.049	1330.44
468.268	1418.44
468.488	1344.44
468.707	1264.44
468.927	1231.44
469.146	1196.44
469.365	1237.44
469.585	1260.44
469.804	1204.44
470.023	1233.44
470.243	1254.44
470.462	1200.44
470.681	1209.44
470.901	1205.44
471.12	1227.44
471.339	1225.44
471.558	1184.44
471.777	1217.44
471.997	1183.44
472.216	1167.44
472.435	1128.44
472.654	1138.44
472.873	1193.44
473.092	1239.44
473.311	1192.44
473.53	1141.44
473.749	1176.44
473.968	1171.44
474.187	1232.44
474.406	1260.44
474.625	1212.44
474.844	1215.44
475.063	1225.44
475.282	1235.44
475.501	1224.44
475.72	1217.44
475.939	1301.44
476.158	1238.44
476.377	1227.44
476.596	1233.44
476.814	1233.44
477.033	1202.44
477.252	1264.44
477.471	1324.44
477.69	1320.44
477.908	1316.44
478.127	1354.44
478.346	1452.44
478.564	1416.44
478.783	1419.44
479.002	1471.44
479.22	1417.44
479.439	1472.44
479.658	1635.44
479.876	1546.44
480.095	1408.44
480.313	1339.44
480.532	1278.44
480.751	1333.44
480.969	1312.44
481.188	1278.44
481.406	1257.44
481.624	1249.44
481.843	1268.44
482.061	1308.44
482.28	1328.44
482.498	1329.44
482.717	1341.44
482.935	1293.44
483.153	1367.44
483.372	1381.44
483.59	1365.44
483.808	1350.44
484.027	1366.44
484.245	1443.44
484.463	1744.44
484.681	1892.44
484.9	1468.44
485.118	1383.44
485.336	1364.44
485.554	1358.44
485.772	1385.44
485.99	1362.44
486.209	1370.44
486.427	1414.44
486.645	1422.44
486.863	1399.44
487.081	1465.44
487.299	1460.44
487.517	1442.44
487.735	1473.44
487.953	1500.44
488.171	1507.44
488.389	1462.44
488.607	1470.44
488.825	1630.44
489.043	1574.44
489.261	1417.44
489.479	1507.44
489.696	1484.44
489.914	1476.44
490.132	1449.44
490.35	1482.44
490.568	1541.44
490.786	1519.44
491.003	1477.44
491.221	1558.44
491.439	1588.44
491.657	1599.44
491.874	1600.44
492.092	1653.44
492.31	1696.44
492.527	1665.44
492.745	1615.44
492.963	1598.44
493.18	1592.44
493.398	1702.44
493.615	1722.44
493.833	1600.44
494.05	1550.44
494.268	1553.44
494.485	1595.44
494.703	1535.44
494.92	1571.44
495.138	1549.44
495.355	1553.44
495.573	1616.44
495.79	1710.44
496.008	1703.44
496.225	1615.44
496.442	1608.44
496.66	1621.44
496.877	1594.44
497.094	1684.44
497.312	1641.44
497.529	1632.44
497.746	1640.44
497.963	1860.44
498.181	2009.44
498.398	1888.44
498.615	1847.44
498.832	1808.44
499.049	1781.44
499.267	1765.44
499.484	1883.44
499.701	2019.44
499.918	2065.44
500.135	2256.44
500.352	2393.44
500.569	2370.44
500.786	2535.44
501.003	2303.44
501.22	2109.44
501.437	2056.44
501.654	2130.44
501.871	2025.44
502.088	1772.44
502.305	1768.44
502.522	1714.44
502.739	1605.44
502.956	1587.44
503.172	1578.44
503.389	1526.44
503.606	1496.44
503.823	1496.44
504.04	1496.44
504.256	1515.44
504.473	1478.44
504.69	1517.44
504.907	1455.44
505.123	1407.44
505.34	1535.44
505.557	2095.44
505.773	1694.44
505.99	1398.44
506.207	1304.44
506.423	1294.44
506.64	1293.44
506.856	1351.44
507.073	1562.44
507.289	1599.44
507.506	1504.44
507.722	1297.44
507.939	1240.44
508.155	1278.44
508.372	1265.44
508.588	1210.44
508.805	1208.44
509.021	1180.44
509.238	1184.44
509.454	1151.44
509.67	1154.44
509.887	1143.44
510.103	1127.44
510.319	1159.44
510.536	1178.44
510.752	1244.44
510.968	1194.44
511.184	1309.44
511.401	1251.44
511.617	1158.44
511.833	1122.44
512.049	1093.44
512.265	1102.44
512.481	1120.44
512.698	1136.44
512.914	1190.44
513.13	1185.44
513.346	1132.44
513.562	1109.44
513.778	1108.44
513.994	1162.44
514.21	1183.44
514.426	1199.44
514.642	1318.44
514.858	1242.44
515.074	1145.44
515.29	1135.44
515.506	1176.44
515.721	1184.44
515.937	1164.44
516.153	1316.44
516.369	1241.44
516.585	1180.44
516.801	1155.44
517.016	1138.44
517.232	1204.44
517.448	1225.44
517.664	1253.44
517.879	1231.44
518.095	1255.44
518.311	1220.44
518.527	1186.44
518.742	1167.44
518.958	1130.44
519.173	1140.44
519.389	1174.44
519.605	1158.44
519.82	1180.44
520.036	1184.44
520.251	1138.44
520.467	1163.44
520.682	1245.44
520.898	1276.44
521.113	1157.44
521.329	1140.44
521.544	1208.44
521.76	1154.44
521.975	1111.44
522.19	1094.44
522.406	1126.44
522.621	1393.44
522.836	1336.44
523.052	1096.44
523.267	1059.44
523.482	1098.44
523.698	1052.44
523.913	1029.44
524.128	1083.44
524.343	1147.44
524.559	1172.44
524.774	1112.44
524.989	1093.44
525.204	1061.44
525.419	1062.44
525.634	1072.44
525.849	1083.44
526.064	1061.44
526.28	1055.44
526.495	1022.44
526.71	1000.44
526.925	986.44
527.14	978.44
527.355	969.44
527.57	957.44
527.785	1010.44
527.999	1006.44
528.214	978.44
528.429	965.44
528.644	1030.44
528.859	1016.44
529.074	1058.44
529.289	1078.44
529.503	1123.44
529.718	1096.44
529.933	1055.44
530.148	984.44
530.363	985.44
530.577	998.44
530.792	1000.44
531.007	1011.44
531.221	959.44
531.436	989.44
531.651	1010.44
531.865	1098.44
532.08	1011.44
532.295	951.44
532.509	953.44
532.724	948.44
532.938	1013.44
533.153	1087.44
533.367	1036.44
533.582	1007.44
533.796	1006.44
534.011	1022.44
534.225	1039.44
534.44	982.44
534.654	990.44
534.868	974.44
535.083	1030.44
535.297	1012.44
535.511	1005.44
535.726	999.44
535.94	1010.44
536.154	956.44
536.369	959.44
536.583	955.44
536.797	944.44
537.011	969.44
537.225	950.44
537.44	940.44
537.654	974.44
537.868	968.44
538.082	925.44
538.296	914.44
538.51	936.44
538.724	948.44
538.938	980.44
539.153	989.44
539.367	978.44
539.581	978.44
539.795	988.44
540.009	959.44
540.222	916.44
540.436	985.44
540.65	1093.44
540.864	1093.44
541.078	1040.44
541.292	1040.44
541.506	1093.44
541.72	1121.44
541.934	1166.44
542.147	1188.44
542.361	1140.44
542.575	1081.44
542.789	1005.44
543.002	971.44
543.216	978.44
543.43	999.44
543.644	1066.44
543.857	1123.44
544.071	1093.44
544.285	1106.44
544.498	1071.44
544.712	1107.44
544.925	1136.44
545.139	1129.44
545.352	1099.44
545.566	1034.44
545.779	1061.44
545.993	1095.44
546.206	1106.44
546.42	1089.44
546.633	1048.44
546.847	1068.44
547.06	1057.44
547.274	1096.44
547.487	1077.44
547.7	1102.44
547.914	1104.44
548.127	1039.44
548.34	1066.44
548.554	1041.44
548.767	1043.44
548.98	1056.44
549.193	1056.44
549.407	1118.44
549.62	1110.44
549.833	1046.44
550.046	1051.44
550.259	1032.44
550.473	1010.44
550.686	1070.44
550.899	999.44
551.112	997.44
551.325	956.44
551.538	1063.44
551.751	1128.44
551.964	930.44
552.177	947.44
552.39	965.44
552.603	1026.44
552.816	994.44
553.029	1068.44
553.242	1057.44
553.455	1050.44
553.667	1014.44
553.88	1047.44
554.093	1028.44
554.306	976.44
554.519	964.44
554.732	963.44
554.944	970.44
555.157	952.44
555.37	925.44
555.583	940.44
555.795	906.44
556.008	880.44
556.221	855.44
556.433	866.44
556.646	852.44
556.859	881.44
557.071	882.44
557.284	885.44
557.496	888.44
557.709	878.44
557.921	863.44
558.134	850.44
558.346	847.44
558.559	844.44
558.771	841.44
558.984	829.44
559.196	830.44
559.409	804.44
559.621	816.44
559.833	815.44
560.046	848.44
560.258	834.44
560.47	825.44
560.683	842.44
560.895	800.44
561.107	799.44
561.32	818.44
561.532	854.44
561.744	808.44
561.956	811.44
562.168	820.44
562.381	777.44
562.593	807.44
562.805	793.44
563.017	746.44
563.229	806.44
563.441	809.44
563.653	800.44
563.865	780.44
564.077	767.44
564.289	765.44
564.501	801.44
564.713	823.44
564.925	822.44
565.137	882.44
565.349	793.44
565.561	825.44
565.773	825.44
565.985	813.44
566.197	845.44
566.408	923.44
566.62	901.44
566.832	916.44
567.044	926.44
567.255	918.44
567.467	920.44
567.679	913.44
567.891	932.44
568.102	885.44
568.314	857.44
568.526	799.44
568.737	756.44
568.949	725.44
569.161	703.44
569.372	680.44
569.584	672.44
569.795	673.44
570.007	691.44
570.218	662.44
570.43	652.44
570.641	649.44
570.853	666.44
571.064	678.44
571.276	656.44
571.487	641.44
571.698	618.44
571.91	637.44
572.121	626.44
572.333	613.44
572.544	614.44
572.755	584.44
572.966	589.44
573.178	563.44
573.389	581.44
573.6	594.44
573.811	656.44
574.023	587.44
574.234	553.44
574.445	567.44
574.656	547.44
574.867	552.44
575.078	569.44
575.289	560.44
575.501	568.44
575.712	536.44
575.923	541.44
576.134	556.44
576.345	552.44
576.556	562.44
576.767	553.44
576.978	530.44
577.188	541.44
577.399	526.44
577.61	508.44
577.821	512.44
578.032	518.44
578.243	502.44
578.454	505.44
578.665	508.44
578.875	477.44
579.086	502.44
579.297	484.44
579.508	512.44
579.718	506.44
579.929	506.44
580.14	498.44
580.35	477.44
580.561	517.44
580.772	544.44
580.982	515.44
581.193	497.44
581.403	499.44
581.614	482.44
581.825	489.44
582.035	474.44
582.246	477.44
582.456	482.44
582.667	478.44
582.877	494.44
583.087	470.44
583.298	464.44
583.508	451.44
583.719	476.44
583.929	481.44
584.139	470.44
584.35	456.44
584.56	437.44
584.77	452.44
584.981	460.44
585.191	488.44
585.401	472.44
585.611	474.44
585.821	462.44
586.032	464.44
586.242	449.44
586.452	443.44
586.662	453.44
586.872	458.44
587.082	455.44
587.292	441.44
587.502	466.44
587.713	465.44
587.923	439.44
588.133	449.44
588.343	463.44
588.553	453.44
588.762	443.44
588.972	444.44
589.182	467.44
589.392	454.44
589.602	452.44
589.812	449.44
590.022	426.44
590.232	428.44
590.441	468.44
590.651	456.44
590.861	455.44
591.071	432.44
591.281	433.44
591.49	431.44
591.7	432.44
591.91	442.44
592.119	454.44
592.329	445.44
592.539	473.44
592.748	465.44
592.958	447.44
593.167	483.44
593.377	458.44
593.587	453.44
593.796	466.44
594.006	476.44
594.215	481.44
594.424	452.44
594.634	451.44
594.843	462.44
595.053	481.44
595.262	453.44
595.472	424.44
595.681	447.44
595.89	412.44
596.1	445.44
596.309	445.44
596.518	431.44
596.727	457.44
596.937	428.44
597.146	412.44
597.355	412.44
597.564	418.44
597.774	407.44
597.983	394.44
598.192	398.44
598.401	391.44
598.61	402.44
598.819	401.44
599.028	398.44
599.237	417.44
599.446	382.44
599.655	393.44
599.864	393.44
600.073	400.44
600.282	378.44
600.491	372.44
600.7	385.44
600.909	378.44
601.118	398.44
601.327	398.44
601.536	409.44
601.745	414.44
601.953	403.44
602.162	412.44
602.371	412.44
602.58	428.44
602.789	408.44
602.997	394.44
603.206	404.44
603.415	409.44
603.623	408.44
603.832	407.44
604.041	383.44
604.249	378.44
604.458	382.44
604.666	376.44
604.875	384.44
605.084	382.44
605.292	412.44
605.501	410.44
605.709	407.44
605.918	427.44
606.126	389.44
606.334	412.44
606.543	386.44
606.751	408.44
606.96	413.44
607.168	412.44
607.376	395.44
607.585	400.44
607.793	391.44
608.001	403.44
608.21	397.44
608.418	413.44
608.626	393.44
608.834	409.44
609.043	399.44
609.251	407.44
609.459	403.44
609.667	404.44
609.875	393.44
610.083	428.44
610.291	395.44
610.499	398.44
610.707	400.44
610.916	404.44
611.124	398.44
611.332	399.44
611.54	413.44
611.748	407.44
611.955	400.44
612.163	407.44
612.371	397.44
612.579	380.44
612.787	419.44
612.995	394.44
613.203	381.44
613.411	375.44
613.618	383.44
613.826	394.44
614.034	391.44
614.242	381.44
614.449	399.44
614.657	374.44
614.865	385.44
615.072	388.44
615.28	365.44
615.488	381.44
615.695	409.44
615.903	388.44
616.111	380.44
616.318	357.44
616.526	372.44
616.733	388.44
616.941	383.44
617.148	347.44
617.356	370.44
617.563	368.44
617.771	373.44
617.978	372.44
618.185	353.44
618.393	369.44
618.6	395.44
618.807	384.44
619.015	379.44
619.222	350.44
619.429	359.44
619.637	361.44
619.844	354.44
620.051	353.44
620.258	350.44
620.466	348.44
620.673	342.44
620.88	341.44
621.087	340.44
621.294	360.44
621.501	345.44
621.708	341.44
621.915	339.44
622.122	336.44
622.329	345.44
622.536	369.44
622.743	359.44
622.95	333.44
623.157	346.44
623.364	341.44
623.571	341.44
623.778	358.44
623.985	349.44
624.192	351.44
624.399	335.44
624.606	344.44
624.812	318.44
625.019	330.44
625.226	318.44
625.433	327.44
625.639	328.44
625.846	323.44
626.053	306.44
626.259	296.44
626.466	290.44
626.673	280.44
626.879	262.44
627.086	313.44
627.293	331.44
627.499	311.44
627.706	302.44
627.912	331.44
628.119	306.44
628.325	333.44
628.532	322.44
628.738	324.44
628.945	312.44
629.151	323.44
629.357	312.44
629.564	297.44
629.77	296.44
629.976	296.44
630.183	304.44
630.389	304.44
630.595	306.44
630.802	272.44
631.008	298.44
631.214	304.44
631.42	310.44
631.627	284.44
631.833	302.44
632.039	285.44
632.245	300.44
632.451	293.44
632.657	295.44
632.863	279.44
633.069	301.44
633.275	288.44
633.481	269.44
633.688	279.44
633.893	281.44
634.099	287.44
634.305	271.44
634.511	295.44
634.717	282.44
634.923	265.44
635.129	256.44
635.335	266.44
635.541	258.44
635.747	274.44
635.952	266.44
636.158	271.44
636.364	274.44
636.57	278.44
636.775	290.44
636.981	262.44
637.187	284.44
637.392	274.44
637.598	268.44
637.804	291.44
638.009	286.44
638.215	264.44
638.421	257.44
638.626	277.44
638.832	257.44
639.037	279.44
639.243	259.44
639.448	280.44
639.654	280.44
639.859	270.44
640.065	284.44
640.27	270.44
640.475	268.44
640.681	247.44
640.886	244.44
641.091	257.44
641.297	264.44
641.502	273.44
641.707	266.44
641.913	261.44
642.118	258.44
642.323	251.44
642.528	274.44
642.733	254.44
642.939	267.44
643.144	256.44
643.349	266.44
643.554	263.44
643.759	277.44
643.964	241.44
644.169	257.44
644.374	250.44
644.579	262.44
644.784	276.44
644.989	260.44
645.194	263.44
645.399	266.44
645.604	248.44
645.809	251.44
646.014	274.44
646.219	254.44
646.423	262.44
646.628	245.44
646.833	244.44
647.038	245.44
647.243	237.44
647.447	248.44
647.652	254.44
647.857	253.44
648.062	252.44
648.266	258.44
648.471	258.44
648.676	270.44
648.88	270.44
649.085	257.44
649.289	256.44
649.494	239.44
649.698	243.44
649.903	245.44
650.107	262.44
650.312	256.44
650.516	252.44
650.721	238.44
650.925	230.44
651.13	244.44
651.334	224.44
651.539	239.44
651.743	235.44
651.947	236.44
652.152	226.44
652.356	234.44
652.56	233.44
652.764	231.44
652.969	229.44
653.173	237.44
653.377	229.44
653.581	231.44
653.785	234.44
653.99	218.44
654.194	216.44
654.398	223.44
654.602	208.44
654.806	216.44
655.01	212.44
655.214	208.44
655.418	210.44
655.622	212.44
655.826	234.44
656.03	243.44
656.234	247.44
656.438	259.44
656.642	254.44
656.846	231.44
657.049	239.44
657.253	212.44
657.457	216.44
657.661	181.44
657.865	177.44
658.068	168.44
658.272	161.44
658.476	164.44
658.68	158.44
658.883	146.44
659.087	159.44
659.291	136.44
659.494	134.44
659.698	126.44
659.901	132.44
660.105	125.44
660.309	117.44
660.512	127.44
660.716	122.44
660.919	106.44
661.123	106.44
661.326	115.44
661.53	109.44
661.733	103.44
661.936	99.44
662.14	87.44
662.343	102.44
662.546	94.44
662.75	91.44
662.953	92.44
663.156	82.44
663.36	98.44
663.563	74.44
663.766	89.44
663.969	86.44
664.173	87.44
664.376	80.44
664.579	83.44
664.782	85.44
664.985	71.44
665.188	74.44
665.391	84.44
665.594	76.44
665.797	74.44
666	75.44
666.203	84.44
666.406	77.44
666.609	78.44
666.812	80.44
667.015	85.44
667.218	59.44
667.421	73.44
667.624	82.44
667.827	74.44
668.03	71.44
668.232	78.44
668.435	87.44
668.638	79.44
668.841	71.44
669.043	81.44
669.246	77.44
669.449	77.44
669.651	91.44
669.854	82.44
670.057	92.44
670.259	78.44
670.462	77.44
670.665	79.44
670.867	71.44
671.07	83.44
671.272	80.44
671.475	88.44
671.677	84.44
671.88	80.44
672.082	94.44
672.284	78.44
672.487	78.44
672.689	77.44
672.892	61.44
