Data from WStandard_LampEnergy8_LIBS07252019.E.O._I.C._HRD10591_16-00-26-930.txt Node
Date: Thu Jul 25 16:00:26 EDT 2019
User: cochatt
Spectrometer: HR+D1059
Trigger mode: 1
Integration Time (sec): 1.000000E-1
Scans to average: 1
Electric dark correction enabled: true
Nonlinearity correction enabled: false
Boxcar width: 0
XAxis mode: Wavelengths
Number of Pixels in Spectrum: 2048
>>>>>Begin Spectral Data<<<<<
223.165	-7.12
223.4	-7.12
223.635	-7.12
223.869	-18.12
224.104	-19.12
224.338	-13.12
224.573	-16.12
224.808	-15.12
225.042	-14.12
225.277	-11.12
225.511	12.88
225.746	1.88
225.98	6.88
226.215	0.88
226.449	7.88
226.683	22.88
226.918	33.88
227.152	26.88
227.387	31.88
227.621	34.88
227.856	39.88
228.09	44.88
228.324	50.88
228.559	54.88
228.793	98.88
229.027	191.88
229.262	188.88
229.496	210.88
229.73	231.88
229.964	252.88
230.199	229.88
230.433	245.88
230.667	256.88
230.901	267.88
231.136	246.88
231.37	241.88
231.604	247.88
231.838	252.88
232.072	273.88
232.306	281.88
232.541	274.88
232.775	302.88
233.009	319.88
233.243	308.88
233.477	279.88
233.711	287.88
233.945	289.88
234.179	283.88
234.413	299.88
234.647	330.88
234.881	327.88
235.115	286.88
235.349	289.88
235.583	298.88
235.817	281.88
236.051	280.88
236.285	291.88
236.519	305.88
236.753	348.88
236.987	337.88
237.221	329.88
237.455	358.88
237.689	342.88
237.922	348.88
238.156	326.88
238.39	332.88
238.624	356.88
238.858	361.88
239.091	377.88
239.325	404.88
239.559	456.88
239.793	471.88
240.027	506.88
240.26	473.88
240.494	374.88
240.728	359.88
240.961	370.88
241.195	372.88
241.429	401.88
241.662	419.88
241.896	388.88
242.13	395.88
242.363	423.88
242.597	468.88
242.83	442.88
243.064	438.88
243.298	434.88
243.531	451.88
243.765	463.88
243.998	441.88
244.232	415.88
244.465	387.88
244.699	426.88
244.932	448.88
245.166	496.88
245.399	457.88
245.633	424.88
245.866	455.88
246.099	448.88
246.333	485.88
246.566	482.88
246.8	518.88
247.033	559.88
247.266	512.88
247.5	494.88
247.733	505.88
247.966	523.88
248.2	612.88
248.433	586.88
248.666	614.88
248.899	631.88
249.133	720.88
249.366	768.88
249.599	662.88
249.832	578.88
250.066	579.88
250.299	602.88
250.532	575.88
250.765	530.88
250.998	564.88
251.231	567.88
251.465	583.88
251.698	535.88
251.931	553.88
252.164	598.88
252.397	606.88
252.63	575.88
252.863	550.88
253.096	532.88
253.329	547.88
253.562	585.88
253.795	625.88
254.028	596.88
254.261	558.88
254.494	568.88
254.727	550.88
254.96	575.88
255.193	609.88
255.426	676.88
255.659	743.88
255.892	767.88
256.124	646.88
256.357	636.88
256.59	659.88
256.823	675.88
257.056	684.88
257.289	806.88
257.521	866.88
257.754	816.88
257.987	740.88
258.22	819.88
258.452	767.88
258.685	650.88
258.918	611.88
259.151	647.88
259.383	631.88
259.616	551.88
259.849	606.88
260.081	667.88
260.314	725.88
260.547	791.88
260.779	800.88
261.012	739.88
261.244	670.88
261.477	655.88
261.71	681.88
261.942	654.88
262.175	634.88
262.407	688.88
262.64	648.88
262.872	623.88
263.105	594.88
263.337	609.88
263.57	623.88
263.802	602.88
264.035	570.88
264.267	568.88
264.499	542.88
264.732	583.88
264.964	633.88
265.197	646.88
265.429	673.88
265.661	738.88
265.894	822.88
266.126	851.88
266.358	738.88
266.591	788.88
266.823	806.88
267.055	766.88
267.287	742.88
267.52	758.88
267.752	733.88
267.984	729.88
268.216	774.88
268.448	783.88
268.681	747.88
268.913	713.88
269.145	670.88
269.377	684.88
269.609	743.88
269.841	838.88
270.073	942.88
270.306	1068.88
270.538	1054.88
270.77	917.88
271.002	849.88
271.234	784.88
271.466	788.88
271.698	885.88
271.93	1024.88
272.162	991.88
272.394	909.88
272.626	879.88
272.858	783.88
273.09	679.88
273.322	668.88
273.553	656.88
273.785	659.88
274.017	681.88
274.249	731.88
274.481	720.88
274.713	674.88
274.945	688.88
275.176	679.88
275.408	669.88
275.64	682.88
275.872	682.88
276.104	740.88
276.335	793.88
276.567	884.88
276.799	897.88
277.031	803.88
277.262	806.88
277.494	823.88
277.726	873.88
277.957	852.88
278.189	789.88
278.421	776.88
278.652	713.88
278.884	724.88
279.115	733.88
279.347	733.88
279.579	709.88
279.81	708.88
280.042	784.88
280.273	833.88
280.505	833.88
280.736	831.88
280.968	811.88
281.199	720.88
281.431	696.88
281.662	686.88
281.894	707.88
282.125	714.88
282.356	763.88
282.588	752.88
282.819	741.88
283.051	805.88
283.282	834.88
283.513	833.88
283.745	730.88
283.976	696.88
284.207	715.88
284.439	729.88
284.67	745.88
284.901	751.88
285.132	762.88
285.364	731.88
285.595	727.88
285.826	738.88
286.057	695.88
286.288	734.88
286.52	766.88
286.751	810.88
286.982	843.88
287.213	768.88
287.444	709.88
287.675	720.88
287.906	774.88
288.138	795.88
288.369	763.88
288.6	719.88
288.831	743.88
289.062	732.88
289.293	747.88
289.524	750.88
289.755	763.88
289.986	730.88
290.217	742.88
290.448	763.88
290.679	766.88
290.91	769.88
291.141	779.88
291.371	817.88
291.602	804.88
291.833	794.88
292.064	836.88
292.295	803.88
292.526	827.88
292.757	881.88
292.987	813.88
293.218	793.88
293.449	838.88
293.68	952.88
293.91	982.88
294.141	928.88
294.372	871.88
294.603	926.88
294.833	965.88
295.064	881.88
295.295	821.88
295.525	780.88
295.756	735.88
295.987	711.88
296.217	718.88
296.448	749.88
296.679	759.88
296.909	758.88
297.14	752.88
297.37	763.88
297.601	798.88
297.831	839.88
298.062	853.88
298.292	809.88
298.523	778.88
298.753	752.88
298.984	758.88
299.214	795.88
299.445	785.88
299.675	807.88
299.905	808.88
300.136	796.88
300.366	778.88
300.597	734.88
300.827	770.88
301.057	786.88
301.288	843.88
301.518	820.88
301.748	852.88
301.979	906.88
302.209	912.88
302.439	953.88
302.669	986.88
302.9	921.88
303.13	832.88
303.36	832.88
303.59	860.88
303.82	828.88
304.051	828.88
304.281	847.88
304.511	844.88
304.741	940.88
304.971	986.88
305.201	1046.88
305.431	905.88
305.661	792.88
305.891	737.88
306.121	755.88
306.352	788.88
306.582	818.88
306.812	895.88
307.042	920.88
307.272	937.88
307.502	969.88
307.731	1019.88
307.961	1030.88
308.191	924.88
308.421	871.88
308.651	818.88
308.881	819.88
309.111	822.88
309.341	826.88
309.571	819.88
309.8	819.88
310.03	810.88
310.26	827.88
310.49	825.88
310.72	857.88
310.949	851.88
311.179	850.88
311.409	830.88
311.639	818.88
311.868	838.88
312.098	869.88
312.328	811.88
312.557	778.88
312.787	849.88
313.017	878.88
313.246	850.88
313.476	853.88
313.706	846.88
313.935	879.88
314.165	892.88
314.394	917.88
314.624	965.88
314.853	983.88
315.083	1044.88
315.312	1052.88
315.542	943.88
315.771	901.88
316.001	910.88
316.23	910.88
316.46	928.88
316.689	884.88
316.919	882.88
317.148	862.88
317.377	875.88
317.607	962.88
317.836	1034.88
318.065	1064.88
318.295	990.88
318.524	996.88
318.753	944.88
318.983	898.88
319.212	897.88
319.441	890.88
319.67	908.88
319.9	905.88
320.129	934.88
320.358	999.88
320.587	1018.88
320.816	994.88
321.046	966.88
321.275	954.88
321.504	990.88
321.733	1012.88
321.962	979.88
322.191	922.88
322.42	919.88
322.649	895.88
322.878	923.88
323.108	898.88
323.337	966.88
323.566	927.88
323.795	920.88
324.024	924.88
324.253	929.88
324.482	907.88
324.71	871.88
324.939	848.88
325.168	891.88
325.397	918.88
325.626	971.88
325.855	962.88
326.084	914.88
326.313	914.88
326.542	934.88
326.77	958.88
326.999	960.88
327.228	905.88
327.457	859.88
327.686	857.88
327.914	866.88
328.143	918.88
328.372	886.88
328.6	907.88
328.829	883.88
329.058	883.88
329.287	934.88
329.515	937.88
329.744	931.88
329.972	975.88
330.201	1033.88
330.43	992.88
330.658	937.88
330.887	950.88
331.115	976.88
331.344	975.88
331.572	962.88
331.801	948.88
332.03	957.88
332.258	952.88
332.486	962.88
332.715	1000.88
332.943	986.88
333.172	962.88
333.4	973.88
333.629	1000.88
333.857	1083.88
334.085	1218.88
334.314	1330.88
334.542	1398.88
334.771	1241.88
334.999	1153.88
335.227	1047.88
335.455	1014.88
335.684	1039.88
335.912	1056.88
336.14	1091.88
336.369	1022.88
336.597	964.88
336.825	990.88
337.053	1011.88
337.281	1086.88
337.51	1130.88
337.738	1156.88
337.966	1064.88
338.194	968.88
338.422	975.88
338.65	942.88
338.878	947.88
339.106	913.88
339.334	914.88
339.562	909.88
339.79	965.88
340.018	992.88
340.246	1006.88
340.474	1001.88
340.702	1036.88
340.93	1036.88
341.158	1003.88
341.386	991.88
341.614	985.88
341.842	991.88
342.07	979.88
342.298	985.88
342.526	950.88
342.754	960.88
342.981	965.88
343.209	969.88
343.437	953.88
343.665	947.88
343.893	980.88
344.12	1015.88
344.348	1067.88
344.576	981.88
344.804	972.88
345.031	967.88
345.259	955.88
345.487	915.88
345.714	880.88
345.942	869.88
346.17	893.88
346.397	916.88
346.625	908.88
346.853	893.88
347.08	855.88
347.308	892.88
347.535	928.88
347.763	947.88
347.99	896.88
348.218	878.88
348.445	903.88
348.673	916.88
348.9	963.88
349.128	959.88
349.355	981.88
349.583	944.88
349.81	924.88
350.037	875.88
350.265	841.88
350.492	876.88
350.72	924.88
350.947	924.88
351.174	923.88
351.402	869.88
351.629	836.88
351.856	851.88
352.083	818.88
352.311	870.88
352.538	908.88
352.765	913.88
352.992	933.88
353.22	901.88
353.447	880.88
353.674	911.88
353.901	899.88
354.128	890.88
354.355	915.88
354.583	939.88
354.81	952.88
355.037	967.88
355.264	916.88
355.491	931.88
355.718	922.88
355.945	912.88
356.172	918.88
356.399	860.88
356.626	870.88
356.853	926.88
357.08	983.88
357.307	1095.88
357.534	1044.88
357.761	923.88
357.988	888.88
358.215	868.88
358.441	873.88
358.668	854.88
358.895	876.88
359.122	950.88
359.349	1010.88
359.576	955.88
359.802	884.88
360.029	880.88
360.256	881.88
360.483	932.88
360.709	931.88
360.936	965.88
361.163	990.88
361.39	1089.88
361.616	1121.88
361.843	1130.88
362.07	1014.88
362.296	910.88
362.523	887.88
362.749	913.88
362.976	938.88
363.203	946.88
363.429	899.88
363.656	884.88
363.882	947.88
364.109	1014.88
364.335	1090.88
364.562	992.88
364.788	952.88
365.015	915.88
365.241	915.88
365.468	907.88
365.694	985.88
365.92	999.88
366.147	937.88
366.373	916.88
366.599	880.88
366.826	898.88
367.052	892.88
367.278	913.88
367.505	931.88
367.731	942.88
367.957	933.88
368.184	991.88
368.41	1024.88
368.636	1005.88
368.862	1057.88
369.089	1052.88
369.315	1036.88
369.541	963.88
369.767	921.88
369.993	890.88
370.219	921.88
370.445	956.88
370.672	1032.88
370.898	1055.88
371.124	974.88
371.35	971.88
371.576	996.88
371.802	1041.88
372.028	998.88
372.254	950.88
372.48	948.88
372.706	939.88
372.932	952.88
373.158	931.88
373.384	958.88
373.61	995.88
373.835	1026.88
374.061	989.88
374.287	967.88
374.513	954.88
374.739	985.88
374.965	982.88
375.191	976.88
375.416	1047.88
375.642	1010.88
375.868	1047.88
376.094	1091.88
376.319	1034.88
376.545	941.88
376.771	1020.88
376.997	1082.88
377.222	1060.88
377.448	1016.88
377.674	1052.88
377.899	1051.88
378.125	1099.88
378.35	1083.88
378.576	983.88
378.802	961.88
379.027	944.88
379.253	975.88
379.478	962.88
379.704	987.88
379.929	970.88
380.155	942.88
380.38	995.88
380.606	986.88
380.831	994.88
381.057	1069.88
381.282	1074.88
381.507	1054.88
381.733	1077.88
381.958	1150.88
382.184	1054.88
382.409	995.88
382.634	1028.88
382.86	1010.88
383.085	994.88
383.31	1062.88
383.535	1138.88
383.761	1205.88
383.986	1147.88
384.211	1077.88
384.436	1109.88
384.662	1147.88
384.887	1183.88
385.112	1123.88
385.337	1127.88
385.562	1120.88
385.787	1129.88
386.013	1145.88
386.238	1129.88
386.463	1113.88
386.688	1222.88
386.913	1291.88
387.138	1248.88
387.363	1143.88
387.588	1176.88
387.813	1141.88
388.038	1168.88
388.263	1181.88
388.488	1156.88
388.713	1048.88
388.938	1075.88
389.163	1069.88
389.387	1099.88
389.612	1097.88
389.837	1094.88
390.062	1088.88
390.287	1123.88
390.512	1086.88
390.736	1086.88
390.961	1054.88
391.186	1029.88
391.411	1098.88
391.636	1099.88
391.86	1125.88
392.085	1138.88
392.31	1108.88
392.534	1136.88
392.759	1125.88
392.984	1116.88
393.208	1121.88
393.433	1222.88
393.658	1200.88
393.882	1214.88
394.107	1129.88
394.331	1118.88
394.556	1110.88
394.78	1118.88
395.005	1178.88
395.229	1219.88
395.454	1305.88
395.678	1293.88
395.903	1210.88
396.127	1180.88
396.352	1193.88
396.576	1232.88
396.801	1226.88
397.025	1199.88
397.249	1214.88
397.474	1218.88
397.698	1193.88
397.922	1235.88
398.147	1296.88
398.371	1351.88
398.595	1328.88
398.82	1265.88
399.044	1305.88
399.268	1354.88
399.492	1425.88
399.717	1442.88
399.941	1491.88
400.165	1463.88
400.389	1384.88
400.613	1432.88
400.837	1652.88
401.062	1753.88
401.286	1522.88
401.51	1408.88
401.734	1438.88
401.958	1390.88
402.182	1303.88
402.406	1286.88
402.63	1242.88
402.854	1277.88
403.078	1291.88
403.302	1254.88
403.526	1322.88
403.75	1300.88
403.974	1371.88
404.198	1334.88
404.422	1398.88
404.645	1505.88
404.869	1402.88
405.093	1308.88
405.317	1292.88
405.541	1324.88
405.765	1335.88
405.988	1310.88
406.212	1344.88
406.436	1385.88
406.66	1446.88
406.883	1470.88
407.107	1637.88
407.331	1763.88
407.555	1877.88
407.778	1667.88
408.002	1390.88
408.226	1390.88
408.449	1406.88
408.673	1339.88
408.896	1340.88
409.12	1421.88
409.344	1336.88
409.567	1311.88
409.791	1320.88
410.014	1386.88
410.238	1431.88
410.461	1536.88
410.685	1396.88
410.908	1320.88
411.132	1356.88
411.355	1321.88
411.578	1322.88
411.802	1318.88
412.025	1350.88
412.249	1302.88
412.472	1283.88
412.695	1286.88
412.919	1295.88
413.142	1268.88
413.365	1307.88
413.589	1313.88
413.812	1409.88
414.035	1416.88
414.258	1299.88
414.482	1330.88
414.705	1308.88
414.928	1267.88
415.151	1271.88
415.374	1295.88
415.597	1318.88
415.821	1310.88
416.044	1321.88
416.267	1319.88
416.49	1262.88
416.713	1244.88
416.936	1317.88
417.159	1375.88
417.382	1362.88
417.605	1277.88
417.828	1303.88
418.051	1318.88
418.274	1267.88
418.497	1263.88
418.72	1266.88
418.943	1237.88
419.166	1333.88
419.389	1330.88
419.611	1278.88
419.834	1253.88
420.057	1304.88
420.28	1295.88
420.503	1277.88
420.726	1286.88
420.948	1318.88
421.171	1259.88
421.394	1282.88
421.617	1316.88
421.839	1336.88
422.062	1298.88
422.285	1259.88
422.507	1257.88
422.73	1212.88
422.953	1205.88
423.175	1213.88
423.398	1252.88
423.621	1246.88
423.843	1283.88
424.066	1326.88
424.288	1343.88
424.511	1385.88
424.733	1344.88
424.956	1207.88
425.178	1246.88
425.401	1232.88
425.623	1238.88
425.846	1230.88
426.068	1327.88
426.291	1262.88
426.513	1276.88
426.735	1299.88
426.958	1361.88
427.18	1458.88
427.402	1337.88
427.625	1372.88
427.847	1366.88
428.069	1267.88
428.292	1267.88
428.514	1207.88
428.736	1242.88
428.958	1207.88
429.181	1254.88
429.403	1449.88
429.625	1723.88
429.847	1416.88
430.069	1312.88
430.292	1408.88
430.514	1408.88
430.736	1364.88
430.958	1339.88
431.18	1303.88
431.402	1204.88
431.624	1209.88
431.846	1162.88
432.068	1122.88
432.29	1114.88
432.512	1162.88
432.734	1235.88
432.956	1239.88
433.178	1321.88
433.4	1272.88
433.622	1309.88
433.844	1258.88
434.066	1202.88
434.287	1190.88
434.509	1208.88
434.731	1222.88
434.953	1362.88
435.175	1318.88
435.397	1252.88
435.618	1235.88
435.84	1228.88
436.062	1201.88
436.284	1280.88
436.505	1272.88
436.727	1280.88
436.949	1219.88
437.17	1210.88
437.392	1206.88
437.614	1184.88
437.835	1143.88
438.057	1194.88
438.278	1194.88
438.5	1161.88
438.721	1177.88
438.943	1232.88
439.165	1200.88
439.386	1220.88
439.608	1225.88
439.829	1224.88
440.05	1232.88
440.272	1226.88
440.493	1227.88
440.715	1292.88
440.936	1337.88
441.158	1387.88
441.379	1380.88
441.6	1345.88
441.822	1330.88
442.043	1301.88
442.264	1306.88
442.486	1256.88
442.707	1236.88
442.928	1272.88
443.149	1255.88
443.371	1326.88
443.592	1368.88
443.813	1353.88
444.034	1321.88
444.255	1333.88
444.476	1355.88
444.698	1396.88
444.919	1364.88
445.14	1482.88
445.361	1403.88
445.582	1451.88
445.803	1328.88
446.024	1346.88
446.245	1366.88
446.466	1359.88
446.687	1297.88
446.908	1296.88
447.129	1291.88
447.35	1299.88
447.571	1292.88
447.792	1226.88
448.013	1211.88
448.234	1275.88
448.455	1268.88
448.675	1277.88
448.896	1182.88
449.117	1171.88
449.338	1194.88
449.559	1235.88
449.779	1300.88
450	1383.88
450.221	1470.88
450.442	1432.88
450.662	1282.88
450.883	1146.88
451.104	1171.88
451.324	1178.88
451.545	1189.88
451.766	1156.88
451.986	1159.88
452.207	1096.88
452.428	1108.88
452.648	1072.88
452.869	1092.88
453.089	1132.88
453.31	1144.88
453.53	1116.88
453.751	1056.88
453.971	1056.88
454.192	1084.88
454.412	1135.88
454.633	1118.88
454.853	1088.88
455.073	1066.88
455.294	1058.88
455.514	1059.88
455.734	1056.88
455.955	1087.88
456.175	1049.88
456.395	1032.88
456.616	1060.88
456.836	1076.88
457.056	1049.88
457.276	1056.88
457.497	994.88
457.717	988.88
457.937	1058.88
458.157	1064.88
458.377	1015.88
458.598	996.88
458.818	1016.88
459.038	1090.88
459.258	1123.88
459.478	1103.88
459.698	1076.88
459.918	1127.88
460.138	1169.88
460.358	1241.88
460.578	1239.88
460.798	1256.88
461.018	1293.88
461.238	1280.88
461.458	1286.88
461.678	1238.88
461.898	1210.88
462.118	1204.88
462.338	1249.88
462.558	1248.88
462.777	1250.88
462.997	1311.88
463.217	1318.88
463.437	1330.88
463.657	1259.88
463.876	1238.88
464.096	1247.88
464.316	1262.88
464.536	1292.88
464.755	1313.88
464.975	1280.88
465.195	1264.88
465.414	1284.88
465.634	1244.88
465.854	1278.88
466.073	1385.88
466.293	1337.88
466.512	1171.88
466.732	1182.88
466.951	1234.88
467.171	1204.88
467.391	1146.88
467.61	1163.88
467.829	1189.88
468.049	1335.88
468.268	1448.88
468.488	1292.88
468.707	1236.88
468.927	1224.88
469.146	1182.88
469.365	1184.88
469.585	1218.88
469.804	1193.88
470.023	1189.88
470.243	1246.88
470.462	1198.88
470.681	1182.88
470.901	1230.88
471.12	1218.88
471.339	1242.88
471.558	1188.88
471.777	1173.88
471.997	1185.88
472.216	1162.88
472.435	1097.88
472.654	1091.88
472.873	1162.88
473.092	1216.88
473.311	1163.88
473.53	1127.88
473.749	1157.88
473.968	1150.88
474.187	1177.88
474.406	1199.88
474.625	1210.88
474.844	1175.88
475.063	1192.88
475.282	1214.88
475.501	1187.88
475.72	1212.88
475.939	1279.88
476.158	1214.88
476.377	1189.88
476.596	1196.88
476.814	1187.88
477.033	1178.88
477.252	1271.88
477.471	1312.88
477.69	1268.88
477.908	1264.88
478.127	1337.88
478.346	1404.88
478.564	1400.88
478.783	1386.88
479.002	1402.88
479.22	1381.88
479.439	1438.88
479.658	1577.88
479.876	1495.88
480.095	1354.88
480.313	1330.88
480.532	1278.88
480.751	1282.88
480.969	1287.88
481.188	1208.88
481.406	1223.88
481.624	1198.88
481.843	1235.88
482.061	1278.88
482.28	1280.88
482.498	1319.88
482.717	1263.88
482.935	1282.88
483.153	1311.88
483.372	1355.88
483.59	1347.88
483.808	1309.88
484.027	1345.88
484.245	1438.88
484.463	1686.88
484.681	1835.88
484.9	1459.88
485.118	1366.88
485.336	1350.88
485.554	1340.88
485.772	1379.88
485.99	1355.88
486.209	1367.88
486.427	1379.88
486.645	1402.88
486.863	1392.88
487.081	1435.88
487.299	1393.88
487.517	1426.88
487.735	1450.88
487.953	1479.88
488.171	1498.88
488.389	1436.88
488.607	1445.88
488.825	1588.88
489.043	1512.88
489.261	1369.88
489.479	1436.88
489.696	1466.88
489.914	1471.88
490.132	1418.88
490.35	1420.88
490.568	1523.88
490.786	1487.88
491.003	1473.88
491.221	1519.88
491.439	1560.88
491.657	1572.88
491.874	1605.88
492.092	1625.88
492.31	1701.88
492.527	1627.88
492.745	1594.88
492.963	1577.88
493.18	1583.88
493.398	1666.88
493.615	1664.88
493.833	1554.88
494.05	1522.88
494.268	1507.88
494.485	1494.88
494.703	1545.88
494.92	1519.88
495.138	1538.88
495.355	1518.88
495.573	1585.88
495.79	1655.88
496.008	1630.88
496.225	1552.88
496.442	1570.88
496.66	1592.88
496.877	1570.88
497.094	1617.88
497.312	1626.88
497.529	1571.88
497.746	1622.88
497.963	1794.88
498.181	1946.88
498.398	1843.88
498.615	1791.88
498.832	1734.88
499.049	1755.88
499.267	1769.88
499.484	1881.88
499.701	1988.88
499.918	2000.88
500.135	2166.88
500.352	2286.88
500.569	2337.88
500.786	2475.88
501.003	2285.88
501.22	2098.88
501.437	2056.88
501.654	2052.88
501.871	1963.88
502.088	1739.88
502.305	1710.88
502.522	1642.88
502.739	1569.88
502.956	1563.88
503.172	1525.88
503.389	1475.88
503.606	1471.88
503.823	1478.88
504.04	1475.88
504.256	1472.88
504.473	1479.88
504.69	1479.88
504.907	1467.88
505.123	1414.88
505.34	1544.88
505.557	1993.88
505.773	1613.88
505.99	1374.88
506.207	1301.88
506.423	1271.88
506.64	1287.88
506.856	1284.88
507.073	1487.88
507.289	1540.88
507.506	1475.88
507.722	1275.88
507.939	1219.88
508.155	1213.88
508.372	1240.88
508.588	1184.88
508.805	1139.88
509.021	1157.88
509.238	1159.88
509.454	1140.88
509.67	1121.88
509.887	1120.88
510.103	1107.88
510.319	1130.88
510.536	1200.88
510.752	1206.88
510.968	1170.88
511.184	1231.88
511.401	1226.88
511.617	1097.88
511.833	1075.88
512.049	1108.88
512.265	1097.88
512.481	1090.88
512.698	1155.88
512.914	1202.88
513.13	1144.88
513.346	1146.88
513.562	1051.88
513.778	1098.88
513.994	1146.88
514.21	1173.88
514.426	1190.88
514.642	1283.88
514.858	1206.88
515.074	1126.88
515.29	1108.88
515.506	1127.88
515.721	1149.88
515.937	1144.88
516.153	1295.88
516.369	1235.88
516.585	1165.88
516.801	1148.88
517.016	1128.88
517.232	1175.88
517.448	1199.88
517.664	1214.88
517.879	1168.88
518.095	1238.88
518.311	1199.88
518.527	1162.88
518.742	1130.88
518.958	1107.88
519.173	1100.88
519.389	1144.88
519.605	1143.88
519.82	1152.88
520.036	1146.88
520.251	1108.88
520.467	1174.88
520.682	1235.88
520.898	1233.88
521.113	1098.88
521.329	1114.88
521.544	1181.88
521.76	1121.88
521.975	1078.88
522.19	1063.88
522.406	1097.88
522.621	1347.88
522.836	1282.88
523.052	1074.88
523.267	1077.88
523.482	1071.88
523.698	1036.88
523.913	1051.88
524.128	1071.88
524.343	1139.88
524.559	1145.88
524.774	1073.88
524.989	1054.88
525.204	1042.88
525.419	1042.88
525.634	1048.88
525.849	1075.88
526.064	1045.88
526.28	1052.88
526.495	994.88
526.71	1011.88
526.925	981.88
527.14	976.88
527.355	945.88
527.57	982.88
527.785	994.88
527.999	958.88
528.214	991.88
528.429	985.88
528.644	1002.88
528.859	1022.88
529.074	1050.88
529.289	1115.88
529.503	1123.88
529.718	1073.88
529.933	1009.88
530.148	982.88
530.363	955.88
530.577	959.88
530.792	961.88
531.007	973.88
531.221	967.88
531.436	977.88
531.651	1024.88
531.865	1029.88
532.08	1016.88
532.295	943.88
532.509	907.88
532.724	939.88
532.938	1015.88
533.153	1064.88
533.367	1035.88
533.582	1023.88
533.796	999.88
534.011	1030.88
534.225	960.88
534.44	939.88
534.654	955.88
534.868	983.88
535.083	1003.88
535.297	1040.88
535.511	1014.88
535.726	990.88
535.94	969.88
536.154	959.88
536.369	935.88
536.583	928.88
536.797	903.88
537.011	944.88
537.225	902.88
537.44	931.88
537.654	973.88
537.868	921.88
538.082	875.88
538.296	899.88
538.51	918.88
538.724	886.88
538.938	939.88
539.153	1001.88
539.367	999.88
539.581	962.88
539.795	964.88
540.009	944.88
540.222	961.88
540.436	939.88
540.65	1035.88
540.864	1051.88
541.078	1073.88
541.292	1036.88
541.506	1038.88
541.72	1104.88
541.934	1145.88
542.147	1144.88
542.361	1148.88
542.575	1058.88
542.789	980.88
543.002	960.88
543.216	960.88
543.43	989.88
543.644	1034.88
543.857	1068.88
544.071	1088.88
544.285	1088.88
544.498	1077.88
544.712	1100.88
544.925	1074.88
545.139	1103.88
545.352	1054.88
545.566	1036.88
545.779	1058.88
545.993	1070.88
546.206	1078.88
546.42	1066.88
546.633	1034.88
546.847	1062.88
547.06	1066.88
547.274	1056.88
547.487	1058.88
547.7	1112.88
547.914	1079.88
548.127	1063.88
548.34	1074.88
548.554	1042.88
548.767	1031.88
548.98	1102.88
549.193	1072.88
549.407	1067.88
549.62	1060.88
549.833	1062.88
550.046	1037.88
550.259	1042.88
550.473	1017.88
550.686	1015.88
550.899	1009.88
551.112	994.88
551.325	966.88
551.538	1032.88
551.751	1099.88
551.964	930.88
552.177	906.88
552.39	950.88
552.603	967.88
552.816	1003.88
553.029	1037.88
553.242	1064.88
553.455	1044.88
553.667	1031.88
553.88	1008.88
554.093	987.88
554.306	946.88
554.519	950.88
554.732	947.88
554.944	951.88
555.157	934.88
555.37	959.88
555.583	935.88
555.795	918.88
556.008	922.88
556.221	866.88
556.433	859.88
556.646	868.88
556.859	879.88
557.071	882.88
557.284	848.88
557.496	883.88
557.709	830.88
557.921	863.88
558.134	866.88
558.346	841.88
558.559	842.88
558.771	800.88
558.984	846.88
559.196	799.88
559.409	814.88
559.621	786.88
559.833	825.88
560.046	817.88
560.258	824.88
560.47	837.88
560.683	801.88
560.895	814.88
561.107	805.88
561.32	793.88
561.532	819.88
561.744	816.88
561.956	810.88
562.168	760.88
562.381	750.88
562.593	728.88
562.805	777.88
563.017	760.88
563.229	792.88
563.441	787.88
563.653	765.88
563.865	776.88
564.077	755.88
564.289	777.88
564.501	778.88
564.713	809.88
564.925	841.88
565.137	873.88
565.349	800.88
565.561	786.88
565.773	795.88
565.985	823.88
566.197	856.88
566.408	886.88
566.62	902.88
566.832	895.88
567.044	896.88
567.255	872.88
567.467	858.88
567.679	914.88
567.891	920.88
568.102	881.88
568.314	852.88
568.526	784.88
568.737	771.88
568.949	734.88
569.161	680.88
569.372	693.88
569.584	699.88
569.795	696.88
570.007	662.88
570.218	653.88
570.43	654.88
570.641	655.88
570.853	643.88
571.064	670.88
571.276	638.88
571.487	642.88
571.698	637.88
571.91	602.88
572.121	610.88
572.333	610.88
572.544	596.88
572.755	592.88
572.966	571.88
573.178	592.88
573.389	594.88
573.6	585.88
573.811	622.88
574.023	598.88
574.234	576.88
574.445	564.88
574.656	545.88
574.867	574.88
575.078	582.88
575.289	559.88
575.501	546.88
575.712	562.88
575.923	542.88
576.134	570.88
576.345	545.88
576.556	558.88
576.767	547.88
576.978	539.88
577.188	511.88
577.399	528.88
577.61	520.88
577.821	500.88
578.032	519.88
578.243	499.88
578.454	506.88
578.665	513.88
578.875	487.88
579.086	497.88
579.297	512.88
579.508	519.88
579.718	501.88
579.929	488.88
580.14	482.88
580.35	488.88
580.561	494.88
580.772	545.88
580.982	520.88
581.193	508.88
581.403	484.88
581.614	483.88
581.825	482.88
582.035	475.88
582.246	460.88
582.456	483.88
582.667	487.88
582.877	479.88
583.087	472.88
583.298	482.88
583.508	465.88
583.719	466.88
583.929	473.88
584.139	458.88
584.35	453.88
584.56	461.88
584.77	459.88
584.981	463.88
585.191	473.88
585.401	477.88
585.611	473.88
585.821	466.88
586.032	481.88
586.242	457.88
586.452	427.88
586.662	454.88
586.872	444.88
587.082	424.88
587.292	447.88
587.502	458.88
587.713	460.88
587.923	459.88
588.133	445.88
588.343	467.88
588.553	443.88
588.762	446.88
588.972	435.88
589.182	423.88
589.392	441.88
589.602	446.88
589.812	449.88
590.022	446.88
590.232	452.88
590.441	457.88
590.651	434.88
590.861	420.88
591.071	424.88
591.281	424.88
591.49	432.88
591.7	442.88
591.91	424.88
592.119	440.88
592.329	440.88
592.539	442.88
592.748	469.88
592.958	455.88
593.167	436.88
593.377	446.88
593.587	465.88
593.796	463.88
594.006	481.88
594.215	451.88
594.424	446.88
594.634	458.88
594.843	470.88
595.053	457.88
595.262	443.88
595.472	457.88
595.681	433.88
595.89	440.88
596.1	425.88
596.309	412.88
596.518	433.88
596.727	440.88
596.937	443.88
597.146	398.88
597.355	404.88
597.564	413.88
597.774	384.88
597.983	398.88
598.192	387.88
598.401	375.88
598.61	393.88
598.819	391.88
599.028	393.88
599.237	391.88
599.446	388.88
599.655	382.88
599.864	366.88
600.073	379.88
600.282	377.88
600.491	405.88
600.7	386.88
600.909	360.88
601.118	373.88
601.327	394.88
601.536	404.88
601.745	398.88
601.953	411.88
602.162	414.88
602.371	431.88
602.58	415.88
602.789	431.88
602.997	398.88
603.206	427.88
603.415	400.88
603.623	406.88
603.832	400.88
604.041	397.88
604.249	384.88
604.458	384.88
604.666	356.88
604.875	385.88
605.084	372.88
605.292	408.88
605.501	396.88
605.709	397.88
605.918	413.88
606.126	399.88
606.334	395.88
606.543	418.88
606.751	390.88
606.96	410.88
607.168	395.88
607.376	367.88
607.585	392.88
607.793	387.88
608.001	409.88
608.21	377.88
608.418	399.88
608.626	411.88
608.834	390.88
609.043	386.88
609.251	376.88
609.459	383.88
609.667	391.88
609.875	401.88
610.083	411.88
610.291	402.88
610.499	392.88
610.707	409.88
610.916	384.88
611.124	404.88
611.332	392.88
611.54	400.88
611.748	402.88
611.955	389.88
612.163	405.88
612.371	385.88
612.579	387.88
612.787	392.88
612.995	396.88
613.203	401.88
613.411	377.88
613.618	379.88
613.826	396.88
614.034	389.88
614.242	389.88
614.449	385.88
614.657	401.88
614.865	376.88
615.072	390.88
615.28	368.88
615.488	390.88
615.695	410.88
615.903	384.88
616.111	391.88
616.318	374.88
616.526	375.88
616.733	378.88
616.941	380.88
617.148	380.88
617.356	376.88
617.563	370.88
617.771	368.88
617.978	346.88
618.185	361.88
618.393	376.88
618.6	366.88
618.807	338.88
619.015	372.88
619.222	363.88
619.429	372.88
619.637	354.88
619.844	339.88
620.051	347.88
620.258	349.88
620.466	335.88
620.673	350.88
620.88	345.88
621.087	331.88
621.294	340.88
621.501	350.88
621.708	343.88
621.915	366.88
622.122	355.88
622.329	361.88
622.536	332.88
622.743	337.88
622.95	363.88
623.157	355.88
623.364	358.88
623.571	336.88
623.778	349.88
623.985	344.88
624.192	340.88
624.399	334.88
624.606	323.88
624.812	314.88
625.019	330.88
625.226	322.88
625.433	314.88
625.639	315.88
625.846	325.88
626.053	298.88
626.259	298.88
626.466	287.88
626.673	279.88
626.879	279.88
627.086	312.88
627.293	302.88
627.499	308.88
627.706	320.88
627.912	319.88
628.119	319.88
628.325	318.88
628.532	311.88
628.738	310.88
628.945	314.88
629.151	306.88
629.357	322.88
629.564	317.88
629.77	314.88
629.976	309.88
630.183	286.88
630.389	288.88
630.595	305.88
630.802	308.88
631.008	307.88
631.214	290.88
631.42	276.88
631.627	278.88
631.833	287.88
632.039	290.88
632.245	302.88
632.451	291.88
632.657	281.88
632.863	270.88
633.069	277.88
633.275	285.88
633.481	286.88
633.688	290.88
633.893	272.88
634.099	266.88
634.305	283.88
634.511	267.88
634.717	260.88
634.923	242.88
635.129	266.88
635.335	267.88
635.541	267.88
635.747	267.88
635.952	267.88
636.158	265.88
636.364	272.88
636.57	261.88
636.775	290.88
636.981	273.88
637.187	284.88
637.392	273.88
637.598	278.88
637.804	297.88
638.009	280.88
638.215	276.88
638.421	281.88
638.626	270.88
638.832	265.88
639.037	273.88
639.243	268.88
639.448	259.88
639.654	251.88
639.859	266.88
640.065	268.88
640.27	288.88
640.475	260.88
640.681	269.88
640.886	267.88
641.091	270.88
641.297	278.88
641.502	258.88
641.707	259.88
641.913	271.88
642.118	264.88
642.323	249.88
642.528	245.88
642.733	246.88
642.939	252.88
643.144	242.88
643.349	252.88
643.554	248.88
643.759	272.88
643.964	262.88
644.169	269.88
644.374	244.88
644.579	260.88
644.784	264.88
644.989	241.88
645.194	266.88
645.399	266.88
645.604	256.88
645.809	244.88
646.014	240.88
646.219	230.88
646.423	255.88
646.628	253.88
646.833	235.88
647.038	251.88
647.243	276.88
647.447	272.88
647.652	261.88
647.857	261.88
648.062	258.88
648.266	262.88
648.471	258.88
648.676	247.88
648.88	271.88
649.085	243.88
649.289	248.88
649.494	249.88
649.698	262.88
649.903	250.88
650.107	232.88
650.312	255.88
650.516	256.88
650.721	244.88
650.925	232.88
651.13	239.88
651.334	252.88
651.539	239.88
651.743	238.88
651.947	242.88
652.152	230.88
652.356	231.88
652.56	227.88
652.764	240.88
652.969	231.88
653.173	215.88
653.377	204.88
653.581	219.88
653.785	230.88
653.99	206.88
654.194	214.88
654.398	222.88
654.602	216.88
654.806	223.88
655.01	203.88
655.214	226.88
655.418	224.88
655.622	211.88
655.826	236.88
656.03	242.88
656.234	233.88
656.438	267.88
656.642	252.88
656.846	233.88
657.049	219.88
657.253	209.88
657.457	201.88
657.661	194.88
657.865	184.88
658.068	170.88
658.272	161.88
658.476	158.88
658.68	149.88
658.883	124.88
659.087	137.88
659.291	138.88
659.494	133.88
659.698	149.88
659.901	128.88
660.105	136.88
660.309	137.88
660.512	123.88
660.716	122.88
660.919	115.88
661.123	122.88
661.326	114.88
661.53	113.88
661.733	122.88
661.936	111.88
662.14	112.88
662.343	87.88
662.546	80.88
662.75	90.88
662.953	100.88
663.156	95.88
663.36	86.88
663.563	87.88
663.766	66.88
663.969	94.88
664.173	81.88
664.376	84.88
664.579	83.88
664.782	77.88
664.985	73.88
665.188	74.88
665.391	78.88
665.594	75.88
665.797	69.88
666	82.88
666.203	78.88
666.406	79.88
666.609	75.88
666.812	91.88
667.015	72.88
667.218	76.88
667.421	83.88
667.624	70.88
667.827	74.88
668.03	85.88
668.232	84.88
668.435	80.88
668.638	80.88
668.841	86.88
669.043	73.88
669.246	97.88
669.449	84.88
669.651	69.88
669.854	69.88
670.057	76.88
670.259	83.88
670.462	88.88
670.665	71.88
670.867	75.88
671.07	97.88
671.272	80.88
671.475	86.88
671.677	75.88
671.88	90.88
672.082	95.88
672.284	77.88
672.487	75.88
672.689	71.88
672.892	75.88
