Data from WStandard_LampEnergy8_LIBS07252019.E.O._I.C._HRD10591_15-57-58-929.txt Node
Date: Thu Jul 25 15:57:58 EDT 2019
User: cochatt
Spectrometer: HR+D1059
Trigger mode: 1
Integration Time (sec): 1.000000E-1
Scans to average: 1
Electric dark correction enabled: true
Nonlinearity correction enabled: false
Boxcar width: 0
XAxis mode: Wavelengths
Number of Pixels in Spectrum: 2048
>>>>>Begin Spectral Data<<<<<
223.165	-13.56
223.4	-13.56
223.635	-13.56
223.869	-14.56
224.104	-26.56
224.338	-16.56
224.573	-13.56
224.808	-18.56
225.042	-20.56
225.277	-6.56
225.511	5.44
225.746	12.44
225.98	6.44
226.215	1.44
226.449	16.44
226.683	28.44
226.918	28.44
227.152	31.44
227.387	48.44
227.621	39.44
227.856	42.44
228.09	55.44
228.324	54.44
228.559	56.44
228.793	102.44
229.027	207.44
229.262	209.44
229.496	221.44
229.73	223.44
229.964	232.44
230.199	237.44
230.433	256.44
230.667	281.44
230.901	301.44
231.136	285.44
231.37	265.44
231.604	275.44
231.838	249.44
232.072	275.44
232.306	269.44
232.541	286.44
232.775	317.44
233.009	331.44
233.243	316.44
233.477	291.44
233.711	307.44
233.945	315.44
234.179	307.44
234.413	336.44
234.647	328.44
234.881	311.44
235.115	294.44
235.349	320.44
235.583	319.44
235.817	297.44
236.051	317.44
236.285	307.44
236.519	336.44
236.753	371.44
236.987	366.44
237.221	369.44
237.455	403.44
237.689	386.44
237.922	380.44
238.156	344.44
238.39	353.44
238.624	383.44
238.858	413.44
239.091	420.44
239.325	429.44
239.559	496.44
239.793	514.44
240.027	534.44
240.26	503.44
240.494	406.44
240.728	388.44
240.961	386.44
241.195	402.44
241.429	437.44
241.662	420.44
241.896	401.44
242.13	408.44
242.363	462.44
242.597	470.44
242.83	476.44
243.064	467.44
243.298	484.44
243.531	470.44
243.765	485.44
243.998	465.44
244.232	396.44
244.465	433.44
244.699	422.44
244.932	471.44
245.166	536.44
245.399	499.44
245.633	473.44
245.866	485.44
246.099	464.44
246.333	507.44
246.566	487.44
246.8	558.44
247.033	624.44
247.266	555.44
247.5	563.44
247.733	541.44
247.966	575.44
248.2	615.44
248.433	622.44
248.666	639.44
248.899	670.44
249.133	783.44
249.366	833.44
249.599	726.44
249.832	614.44
250.066	634.44
250.299	640.44
250.532	610.44
250.765	563.44
250.998	600.44
251.231	613.44
251.465	622.44
251.698	600.44
251.931	589.44
252.164	599.44
252.397	651.44
252.63	619.44
252.863	559.44
253.096	561.44
253.329	593.44
253.562	614.44
253.795	663.44
254.028	652.44
254.261	610.44
254.494	588.44
254.727	553.44
254.96	595.44
255.193	669.44
255.426	734.44
255.659	789.44
255.892	795.44
256.124	686.44
256.357	666.44
256.59	721.44
256.823	754.44
257.056	740.44
257.289	861.44
257.521	893.44
257.754	847.44
257.987	805.44
258.22	869.44
258.452	831.44
258.685	719.44
258.918	705.44
259.151	709.44
259.383	652.44
259.616	612.44
259.849	640.44
260.081	729.44
260.314	801.44
260.547	829.44
260.779	831.44
261.012	796.44
261.244	720.44
261.477	691.44
261.71	726.44
261.942	699.44
262.175	712.44
262.407	742.44
262.64	677.44
262.872	651.44
263.105	637.44
263.337	633.44
263.57	657.44
263.802	643.44
264.035	636.44
264.267	602.44
264.499	577.44
264.732	633.44
264.964	682.44
265.197	701.44
265.429	731.44
265.661	780.44
265.894	870.44
266.126	881.44
266.358	813.44
266.591	831.44
266.823	858.44
267.055	801.44
267.287	809.44
267.52	768.44
267.752	780.44
267.984	792.44
268.216	819.44
268.448	846.44
268.681	801.44
268.913	763.44
269.145	719.44
269.377	722.44
269.609	823.44
269.841	903.44
270.073	1037.44
270.306	1136.44
270.538	1149.44
270.77	982.44
271.002	865.44
271.234	821.44
271.466	835.44
271.698	936.44
271.93	1116.44
272.162	1096.44
272.394	989.44
272.626	940.44
272.858	833.44
273.09	747.44
273.322	728.44
273.553	700.44
273.785	731.44
274.017	753.44
274.249	794.44
274.481	795.44
274.713	745.44
274.945	715.44
275.176	740.44
275.408	707.44
275.64	716.44
275.872	701.44
276.104	765.44
276.335	844.44
276.567	934.44
276.799	925.44
277.031	870.44
277.262	854.44
277.494	865.44
277.726	961.44
277.957	917.44
278.189	849.44
278.421	776.44
278.652	773.44
278.884	757.44
279.115	764.44
279.347	767.44
279.579	772.44
279.81	761.44
280.042	830.44
280.273	906.44
280.505	931.44
280.736	920.44
280.968	819.44
281.199	779.44
281.431	749.44
281.662	716.44
281.894	745.44
282.125	767.44
282.356	774.44
282.588	819.44
282.819	823.44
283.051	860.44
283.282	922.44
283.513	874.44
283.745	761.44
283.976	749.44
284.207	737.44
284.439	769.44
284.67	760.44
284.901	786.44
285.132	825.44
285.364	821.44
285.595	804.44
285.826	772.44
286.057	757.44
286.288	763.44
286.52	830.44
286.751	882.44
286.982	888.44
287.213	840.44
287.444	745.44
287.675	773.44
287.906	830.44
288.138	874.44
288.369	825.44
288.6	802.44
288.831	752.44
289.062	767.44
289.293	789.44
289.524	802.44
289.755	839.44
289.986	809.44
290.217	737.44
290.448	768.44
290.679	785.44
290.91	809.44
291.141	831.44
291.371	846.44
291.602	852.44
291.833	840.44
292.064	879.44
292.295	858.44
292.526	839.44
292.757	901.44
292.987	836.44
293.218	850.44
293.449	903.44
293.68	999.44
293.91	1036.44
294.141	989.44
294.372	917.44
294.603	972.44
294.833	950.44
295.064	908.44
295.295	859.44
295.525	807.44
295.756	774.44
295.987	739.44
296.217	753.44
296.448	798.44
296.679	790.44
296.909	817.44
297.14	791.44
297.37	821.44
297.601	887.44
297.831	911.44
298.062	894.44
298.292	841.44
298.523	782.44
298.753	822.44
298.984	835.44
299.214	817.44
299.445	851.44
299.675	881.44
299.905	847.44
300.136	815.44
300.366	825.44
300.597	795.44
300.827	785.44
301.057	837.44
301.288	859.44
301.518	875.44
301.748	890.44
301.979	943.44
302.209	976.44
302.439	1019.44
302.669	1036.44
302.9	973.44
303.13	866.44
303.36	881.44
303.59	887.44
303.82	893.44
304.051	856.44
304.281	913.44
304.511	919.44
304.741	979.44
304.971	1081.44
305.201	1112.44
305.431	1003.44
305.661	830.44
305.891	767.44
306.121	785.44
306.352	826.44
306.582	863.44
306.812	926.44
307.042	993.44
307.272	954.44
307.502	1022.44
307.731	1096.44
307.961	1137.44
308.191	992.44
308.421	864.44
308.651	871.44
308.881	865.44
309.111	848.44
309.341	850.44
309.571	850.44
309.8	851.44
310.03	842.44
310.26	854.44
310.49	846.44
310.72	879.44
310.949	923.44
311.179	895.44
311.409	878.44
311.639	895.44
311.868	858.44
312.098	891.44
312.328	859.44
312.557	864.44
312.787	861.44
313.017	913.44
313.246	910.44
313.476	918.44
313.706	934.44
313.935	906.44
314.165	907.44
314.394	945.44
314.624	1028.44
314.853	1072.44
315.083	1070.44
315.312	1117.44
315.542	1022.44
315.771	943.44
316.001	888.44
316.23	971.44
316.46	967.44
316.689	927.44
316.919	907.44
317.148	895.44
317.377	919.44
317.607	983.44
317.836	1105.44
318.065	1147.44
318.295	1069.44
318.524	1012.44
318.753	964.44
318.983	961.44
319.212	962.44
319.441	913.44
319.67	948.44
319.9	949.44
320.129	1023.44
320.358	1058.44
320.587	1079.44
320.816	1051.44
321.046	1038.44
321.275	993.44
321.504	1039.44
321.733	1094.44
321.962	1030.44
322.191	983.44
322.42	967.44
322.649	970.44
322.878	936.44
323.108	976.44
323.337	989.44
323.566	985.44
323.795	974.44
324.024	978.44
324.253	961.44
324.482	975.44
324.71	914.44
324.939	886.44
325.168	919.44
325.397	964.44
325.626	984.44
325.855	970.44
326.084	966.44
326.313	958.44
326.542	957.44
326.77	974.44
326.999	996.44
327.228	918.44
327.457	895.44
327.686	903.44
327.914	918.44
328.143	957.44
328.372	954.44
328.6	932.44
328.829	961.44
329.058	960.44
329.287	929.44
329.515	971.44
329.744	998.44
329.972	1063.44
330.201	1091.44
330.43	1043.44
330.658	1023.44
330.887	1007.44
331.115	1002.44
331.344	1017.44
331.572	984.44
331.801	978.44
332.03	1010.44
332.258	1032.44
332.486	1045.44
332.715	1031.44
332.943	1010.44
333.172	1022.44
333.4	1044.44
333.629	1077.44
333.857	1123.44
334.085	1269.44
334.314	1420.44
334.542	1463.44
334.771	1305.44
334.999	1199.44
335.227	1129.44
335.455	1095.44
335.684	1082.44
335.912	1097.44
336.14	1121.44
336.369	1081.44
336.597	1007.44
336.825	1039.44
337.053	1077.44
337.281	1135.44
337.51	1203.44
337.738	1209.44
337.966	1123.44
338.194	1021.44
338.422	1035.44
338.65	1026.44
338.878	996.44
339.106	988.44
339.334	932.44
339.562	947.44
339.79	963.44
340.018	1039.44
340.246	1077.44
340.474	1077.44
340.702	1059.44
340.93	1047.44
341.158	1044.44
341.386	1063.44
341.614	1033.44
341.842	1028.44
342.07	1009.44
342.298	1007.44
342.526	1050.44
342.754	1027.44
342.981	986.44
343.209	996.44
343.437	994.44
343.665	998.44
343.893	1058.44
344.12	1079.44
344.348	1082.44
344.576	1011.44
344.804	1008.44
345.031	1001.44
345.259	1017.44
345.487	955.44
345.714	954.44
345.942	934.44
346.17	963.44
346.397	965.44
346.625	971.44
346.853	931.44
347.08	894.44
347.308	944.44
347.535	957.44
347.763	944.44
347.99	943.44
348.218	925.44
348.445	926.44
348.673	946.44
348.9	990.44
349.128	1017.44
349.355	1021.44
349.583	989.44
349.81	949.44
350.037	890.44
350.265	898.44
350.492	905.44
350.72	910.44
350.947	934.44
351.174	953.44
351.402	909.44
351.629	881.44
351.856	884.44
352.083	882.44
352.311	902.44
352.538	907.44
352.765	953.44
352.992	952.44
353.22	928.44
353.447	911.44
353.674	964.44
353.901	939.44
354.128	916.44
354.355	920.44
354.583	972.44
354.81	1007.44
355.037	981.44
355.264	963.44
355.491	930.44
355.718	961.44
355.945	942.44
356.172	934.44
356.399	912.44
356.626	922.44
356.853	977.44
357.08	1054.44
357.307	1137.44
357.534	1107.44
357.761	959.44
357.988	898.44
358.215	904.44
358.441	904.44
358.668	908.44
358.895	937.44
359.122	993.44
359.349	1095.44
359.576	1005.44
359.802	939.44
360.029	891.44
360.256	904.44
360.483	922.44
360.709	981.44
360.936	999.44
361.163	1036.44
361.39	1145.44
361.616	1181.44
361.843	1164.44
362.07	1060.44
362.296	956.44
362.523	919.44
362.749	957.44
362.976	949.44
363.203	960.44
363.429	951.44
363.656	905.44
363.882	970.44
364.109	1049.44
364.335	1098.44
364.562	1041.44
364.788	986.44
365.015	953.44
365.241	935.44
365.468	947.44
365.694	982.44
365.92	1027.44
366.147	973.44
366.373	913.44
366.599	897.44
366.826	908.44
367.052	921.44
367.278	918.44
367.505	957.44
367.731	994.44
367.957	974.44
368.184	1021.44
368.41	1065.44
368.636	1067.44
368.862	1062.44
369.089	1066.44
369.315	1051.44
369.541	1010.44
369.767	942.44
369.993	962.44
370.219	938.44
370.445	1000.44
370.672	1064.44
370.898	1107.44
371.124	1062.44
371.35	1013.44
371.576	1060.44
371.802	1079.44
372.028	1041.44
372.254	968.44
372.48	930.44
372.706	933.44
372.932	978.44
373.158	955.44
373.384	985.44
373.61	1036.44
373.835	1064.44
374.061	1056.44
374.287	1006.44
374.513	1011.44
374.739	1025.44
374.965	999.44
375.191	1026.44
375.416	1029.44
375.642	1045.44
375.868	1120.44
376.094	1109.44
376.319	1073.44
376.545	983.44
376.771	1053.44
376.997	1087.44
377.222	1045.44
377.448	1059.44
377.674	1045.44
377.899	1068.44
378.125	1160.44
378.35	1110.44
378.576	1015.44
378.802	968.44
379.027	976.44
379.253	1009.44
379.478	1009.44
379.704	995.44
379.929	973.44
380.155	1034.44
380.38	1014.44
380.606	1027.44
380.831	1053.44
381.057	1085.44
381.282	1097.44
381.507	1056.44
381.733	1150.44
381.958	1187.44
382.184	1091.44
382.409	1046.44
382.634	1085.44
382.86	1083.44
383.085	1086.44
383.31	1082.44
383.535	1206.44
383.761	1237.44
383.986	1143.44
384.211	1133.44
384.436	1143.44
384.662	1185.44
384.887	1211.44
385.112	1147.44
385.337	1173.44
385.562	1150.44
385.787	1125.44
386.013	1172.44
386.238	1193.44
386.463	1216.44
386.688	1275.44
386.913	1343.44
387.138	1279.44
387.363	1232.44
387.588	1227.44
387.813	1212.44
388.038	1207.44
388.263	1236.44
388.488	1182.44
388.713	1115.44
388.938	1122.44
389.163	1122.44
389.387	1128.44
389.612	1126.44
389.837	1174.44
390.062	1190.44
390.287	1146.44
390.512	1134.44
390.736	1123.44
390.961	1112.44
391.186	1089.44
391.411	1118.44
391.636	1121.44
391.86	1149.44
392.085	1130.44
392.31	1127.44
392.534	1147.44
392.759	1197.44
392.984	1161.44
393.208	1175.44
393.433	1214.44
393.658	1218.44
393.882	1242.44
394.107	1172.44
394.331	1143.44
394.556	1167.44
394.78	1172.44
395.005	1214.44
395.229	1271.44
395.454	1361.44
395.678	1323.44
395.903	1264.44
396.127	1237.44
396.352	1239.44
396.576	1295.44
396.801	1269.44
397.025	1296.44
397.249	1247.44
397.474	1229.44
397.698	1263.44
397.922	1283.44
398.147	1337.44
398.371	1399.44
398.595	1389.44
398.82	1295.44
399.044	1338.44
399.268	1414.44
399.492	1463.44
399.717	1483.44
399.941	1536.44
400.165	1485.44
400.389	1444.44
400.613	1475.44
400.837	1683.44
401.062	1843.44
401.286	1561.44
401.51	1473.44
401.734	1504.44
401.958	1438.44
402.182	1314.44
402.406	1328.44
402.63	1298.44
402.854	1301.44
403.078	1326.44
403.302	1337.44
403.526	1364.44
403.75	1385.44
403.974	1385.44
404.198	1399.44
404.422	1443.44
404.645	1504.44
404.869	1462.44
405.093	1347.44
405.317	1325.44
405.541	1378.44
405.765	1397.44
405.988	1387.44
406.212	1429.44
406.436	1441.44
406.66	1455.44
406.883	1522.44
407.107	1731.44
407.331	1856.44
407.555	1973.44
407.778	1733.44
408.002	1497.44
408.226	1430.44
408.449	1415.44
408.673	1383.44
408.896	1412.44
409.12	1426.44
409.344	1415.44
409.567	1355.44
409.791	1398.44
410.014	1415.44
410.238	1543.44
410.461	1533.44
410.685	1411.44
410.908	1333.44
411.132	1370.44
411.355	1379.44
411.578	1342.44
411.802	1382.44
412.025	1380.44
412.249	1350.44
412.472	1329.44
412.695	1319.44
412.919	1359.44
413.142	1332.44
413.365	1351.44
413.589	1398.44
413.812	1452.44
414.035	1479.44
414.258	1344.44
414.482	1368.44
414.705	1333.44
414.928	1315.44
415.151	1317.44
415.374	1322.44
415.597	1368.44
415.821	1367.44
416.044	1378.44
416.267	1367.44
416.49	1293.44
416.713	1293.44
416.936	1330.44
417.159	1389.44
417.382	1341.44
417.605	1328.44
417.828	1342.44
418.051	1327.44
418.274	1339.44
418.497	1296.44
418.72	1298.44
418.943	1299.44
419.166	1341.44
419.389	1386.44
419.611	1317.44
419.834	1309.44
420.057	1298.44
420.28	1288.44
420.503	1303.44
420.726	1348.44
420.948	1314.44
421.171	1277.44
421.394	1275.44
421.617	1355.44
421.839	1360.44
422.062	1348.44
422.285	1300.44
422.507	1318.44
422.73	1239.44
422.953	1267.44
423.175	1246.44
423.398	1279.44
423.621	1312.44
423.843	1303.44
424.066	1348.44
424.288	1407.44
424.511	1423.44
424.733	1380.44
424.956	1255.44
425.178	1254.44
425.401	1277.44
425.623	1325.44
425.846	1298.44
426.068	1364.44
426.291	1354.44
426.513	1347.44
426.735	1367.44
426.958	1442.44
427.18	1505.44
427.402	1381.44
427.625	1483.44
427.847	1416.44
428.069	1317.44
428.292	1293.44
428.514	1269.44
428.736	1262.44
428.958	1281.44
429.181	1302.44
429.403	1473.44
429.625	1804.44
429.847	1510.44
430.069	1323.44
430.292	1467.44
430.514	1476.44
430.736	1374.44
430.958	1395.44
431.18	1317.44
431.402	1253.44
431.624	1235.44
431.846	1203.44
432.068	1164.44
432.29	1145.44
432.512	1232.44
432.734	1279.44
432.956	1309.44
433.178	1354.44
433.4	1301.44
433.622	1333.44
433.844	1253.44
434.066	1223.44
434.287	1241.44
434.509	1220.44
434.731	1294.44
434.953	1386.44
435.175	1357.44
435.397	1301.44
435.618	1288.44
435.84	1267.44
436.062	1254.44
436.284	1277.44
436.505	1309.44
436.727	1369.44
436.949	1284.44
437.17	1239.44
437.392	1229.44
437.614	1225.44
437.835	1184.44
438.057	1244.44
438.278	1297.44
438.5	1244.44
438.721	1243.44
438.943	1269.44
439.165	1262.44
439.386	1255.44
439.608	1313.44
439.829	1267.44
440.05	1254.44
440.272	1256.44
440.493	1304.44
440.715	1291.44
440.936	1370.44
441.158	1498.44
441.379	1386.44
441.6	1420.44
441.822	1406.44
442.043	1385.44
442.264	1325.44
442.486	1283.44
442.707	1261.44
442.928	1259.44
443.149	1320.44
443.371	1374.44
443.592	1429.44
443.813	1377.44
444.034	1399.44
444.255	1383.44
444.476	1415.44
444.698	1454.44
444.919	1397.44
445.14	1507.44
445.361	1450.44
445.582	1457.44
445.803	1413.44
446.024	1404.44
446.245	1446.44
446.466	1405.44
446.687	1332.44
446.908	1378.44
447.129	1337.44
447.35	1333.44
447.571	1328.44
447.792	1291.44
448.013	1252.44
448.234	1274.44
448.455	1339.44
448.675	1329.44
448.896	1232.44
449.117	1217.44
449.338	1262.44
449.559	1314.44
449.779	1366.44
450	1467.44
450.221	1541.44
450.442	1463.44
450.662	1300.44
450.883	1197.44
451.104	1194.44
451.324	1238.44
451.545	1199.44
451.766	1212.44
451.986	1141.44
452.207	1122.44
452.428	1099.44
452.648	1103.44
452.869	1139.44
453.089	1169.44
453.31	1181.44
453.53	1175.44
453.751	1135.44
453.971	1089.44
454.192	1094.44
454.412	1170.44
454.633	1171.44
454.853	1117.44
455.073	1098.44
455.294	1085.44
455.514	1089.44
455.734	1102.44
455.955	1080.44
456.175	1086.44
456.395	1093.44
456.616	1113.44
456.836	1077.44
457.056	1124.44
457.276	1109.44
457.497	1081.44
457.717	1044.44
457.937	1057.44
458.157	1097.44
458.377	1087.44
458.598	1058.44
458.818	1065.44
459.038	1108.44
459.258	1153.44
459.478	1176.44
459.698	1157.44
459.918	1177.44
460.138	1238.44
460.358	1280.44
460.578	1278.44
460.798	1340.44
461.018	1393.44
461.238	1313.44
461.458	1252.44
461.678	1306.44
461.898	1227.44
462.118	1217.44
462.338	1325.44
462.558	1319.44
462.777	1295.44
462.997	1311.44
463.217	1369.44
463.437	1354.44
463.657	1313.44
463.876	1241.44
464.096	1267.44
464.316	1317.44
464.536	1304.44
464.755	1327.44
464.975	1291.44
465.195	1275.44
465.414	1372.44
465.634	1311.44
465.854	1301.44
466.073	1428.44
466.293	1378.44
466.512	1207.44
466.732	1211.44
466.951	1253.44
467.171	1241.44
467.391	1218.44
467.61	1217.44
467.829	1244.44
468.049	1357.44
468.268	1518.44
468.488	1367.44
468.707	1301.44
468.927	1247.44
469.146	1213.44
469.365	1245.44
469.585	1272.44
469.804	1245.44
470.023	1274.44
470.243	1261.44
470.462	1250.44
470.681	1265.44
470.901	1251.44
471.12	1240.44
471.339	1252.44
471.558	1216.44
471.777	1213.44
471.997	1225.44
472.216	1171.44
472.435	1145.44
472.654	1163.44
472.873	1212.44
473.092	1249.44
473.311	1231.44
473.53	1162.44
473.749	1167.44
473.968	1226.44
474.187	1221.44
474.406	1249.44
474.625	1213.44
474.844	1232.44
475.063	1202.44
475.282	1252.44
475.501	1229.44
475.72	1235.44
475.939	1325.44
476.158	1277.44
476.377	1228.44
476.596	1240.44
476.814	1247.44
477.033	1241.44
477.252	1279.44
477.471	1351.44
477.69	1295.44
477.908	1305.44
478.127	1375.44
478.346	1446.44
478.564	1425.44
478.783	1435.44
479.002	1459.44
479.22	1439.44
479.439	1481.44
479.658	1574.44
479.876	1537.44
480.095	1429.44
480.313	1362.44
480.532	1318.44
480.751	1312.44
480.969	1323.44
481.188	1269.44
481.406	1293.44
481.624	1229.44
481.843	1262.44
482.061	1326.44
482.28	1346.44
482.498	1383.44
482.717	1330.44
482.935	1329.44
483.153	1345.44
483.372	1423.44
483.59	1393.44
483.808	1389.44
484.027	1368.44
484.245	1474.44
484.463	1779.44
484.681	1946.44
484.9	1511.44
485.118	1391.44
485.336	1342.44
485.554	1397.44
485.772	1433.44
485.99	1402.44
486.209	1408.44
486.427	1361.44
486.645	1413.44
486.863	1405.44
487.081	1450.44
487.299	1456.44
487.517	1489.44
487.735	1491.44
487.953	1510.44
488.171	1506.44
488.389	1497.44
488.607	1489.44
488.825	1648.44
489.043	1557.44
489.261	1389.44
489.479	1505.44
489.696	1526.44
489.914	1493.44
490.132	1483.44
490.35	1444.44
490.568	1568.44
490.786	1524.44
491.003	1467.44
491.221	1553.44
491.439	1618.44
491.657	1594.44
491.874	1669.44
492.092	1674.44
492.31	1718.44
492.527	1694.44
492.745	1671.44
492.963	1630.44
493.18	1635.44
493.398	1735.44
493.615	1715.44
493.833	1602.44
494.05	1576.44
494.268	1568.44
494.485	1574.44
494.703	1571.44
494.92	1554.44
495.138	1572.44
495.355	1570.44
495.573	1640.44
495.79	1689.44
496.008	1748.44
496.225	1627.44
496.442	1647.44
496.66	1642.44
496.877	1648.44
497.094	1665.44
497.312	1670.44
497.529	1636.44
497.746	1675.44
497.963	1900.44
498.181	1993.44
498.398	1944.44
498.615	1874.44
498.832	1772.44
499.049	1775.44
499.267	1818.44
499.484	1934.44
499.701	2071.44
499.918	2071.44
500.135	2260.44
500.352	2353.44
500.569	2365.44
500.786	2592.44
501.003	2309.44
501.22	2131.44
501.437	2061.44
501.654	2131.44
501.871	2015.44
502.088	1773.44
502.305	1804.44
502.522	1683.44
502.739	1647.44
502.956	1593.44
503.172	1553.44
503.389	1562.44
503.606	1459.44
503.823	1495.44
504.04	1520.44
504.256	1523.44
504.473	1510.44
504.69	1567.44
504.907	1482.44
505.123	1399.44
505.34	1573.44
505.557	2071.44
505.773	1696.44
505.99	1391.44
506.207	1370.44
506.423	1329.44
506.64	1294.44
506.856	1372.44
507.073	1527.44
507.289	1620.44
507.506	1534.44
507.722	1318.44
507.939	1271.44
508.155	1306.44
508.372	1294.44
508.588	1249.44
508.805	1199.44
509.021	1186.44
509.238	1176.44
509.454	1168.44
509.67	1172.44
509.887	1145.44
510.103	1153.44
510.319	1187.44
510.536	1236.44
510.752	1219.44
510.968	1254.44
511.184	1332.44
511.401	1281.44
511.617	1151.44
511.833	1125.44
512.049	1102.44
512.265	1081.44
512.481	1141.44
512.698	1177.44
512.914	1199.44
513.13	1205.44
513.346	1158.44
513.562	1101.44
513.778	1141.44
513.994	1212.44
514.21	1201.44
514.426	1232.44
514.642	1306.44
514.858	1243.44
515.074	1127.44
515.29	1151.44
515.506	1169.44
515.721	1192.44
515.937	1184.44
516.153	1307.44
516.369	1242.44
516.585	1199.44
516.801	1167.44
517.016	1163.44
517.232	1197.44
517.448	1229.44
517.664	1251.44
517.879	1231.44
518.095	1294.44
518.311	1234.44
518.527	1207.44
518.742	1171.44
518.958	1153.44
519.173	1139.44
519.389	1164.44
519.605	1169.44
519.82	1202.44
520.036	1193.44
520.251	1145.44
520.467	1183.44
520.682	1280.44
520.898	1273.44
521.113	1141.44
521.329	1139.44
521.544	1248.44
521.76	1142.44
521.975	1107.44
522.19	1100.44
522.406	1139.44
522.621	1376.44
522.836	1342.44
523.052	1086.44
523.267	1119.44
523.482	1104.44
523.698	1076.44
523.913	1049.44
524.128	1105.44
524.343	1165.44
524.559	1194.44
524.774	1128.44
524.989	1079.44
525.204	1086.44
525.419	1038.44
525.634	1058.44
525.849	1085.44
526.064	1072.44
526.28	1073.44
526.495	1030.44
526.71	1002.44
526.925	1033.44
527.14	1043.44
527.355	1033.44
527.57	1009.44
527.785	1044.44
527.999	1007.44
528.214	1015.44
528.429	1006.44
528.644	1063.44
528.859	1063.44
529.074	1069.44
529.289	1143.44
529.503	1127.44
529.718	1108.44
529.933	1016.44
530.148	1007.44
530.363	989.44
530.577	1029.44
530.792	1044.44
531.007	997.44
531.221	1021.44
531.436	1005.44
531.651	1019.44
531.865	1079.44
532.08	1049.44
532.295	1011.44
532.509	947.44
532.724	991.44
532.938	1027.44
533.153	1039.44
533.367	1051.44
533.582	1048.44
533.796	1019.44
534.011	997.44
534.225	991.44
534.44	978.44
534.654	980.44
534.868	1008.44
535.083	1014.44
535.297	1071.44
535.511	1040.44
535.726	1030.44
535.94	1028.44
536.154	989.44
536.369	987.44
536.583	921.44
536.797	945.44
537.011	986.44
537.225	941.44
537.44	939.44
537.654	1009.44
537.868	969.44
538.082	901.44
538.296	924.44
538.51	913.44
538.724	951.44
538.938	969.44
539.153	1019.44
539.367	997.44
539.581	997.44
539.795	1025.44
540.009	975.44
540.222	957.44
540.436	967.44
540.65	1056.44
540.864	1150.44
541.078	1081.44
541.292	1057.44
541.506	1065.44
541.72	1136.44
541.934	1159.44
542.147	1201.44
542.361	1166.44
542.575	1095.44
542.789	1045.44
543.002	974.44
543.216	970.44
543.43	1024.44
543.644	1079.44
543.857	1099.44
544.071	1114.44
544.285	1116.44
544.498	1096.44
544.712	1118.44
544.925	1146.44
545.139	1133.44
545.352	1084.44
545.566	1058.44
545.779	1078.44
545.993	1087.44
546.206	1106.44
546.42	1095.44
546.633	1093.44
546.847	1070.44
547.06	1063.44
547.274	1075.44
547.487	1106.44
547.7	1108.44
547.914	1095.44
548.127	1096.44
548.34	1093.44
548.554	1097.44
548.767	1097.44
548.98	1053.44
549.193	1072.44
549.407	1121.44
549.62	1134.44
549.833	1062.44
550.046	1057.44
550.259	1063.44
550.473	1040.44
550.686	1071.44
550.899	1029.44
551.112	1006.44
551.325	983.44
551.538	1065.44
551.751	1181.44
551.964	917.44
552.177	904.44
552.39	979.44
552.603	987.44
552.816	1023.44
553.029	1074.44
553.242	1085.44
553.455	1039.44
553.667	1039.44
553.88	1042.44
554.093	1013.44
554.306	994.44
554.519	1007.44
554.732	974.44
554.944	992.44
555.157	981.44
555.37	965.44
555.583	962.44
555.795	959.44
556.008	901.44
556.221	877.44
556.433	906.44
556.646	881.44
556.859	875.44
557.071	869.44
557.284	866.44
557.496	872.44
557.709	855.44
557.921	875.44
558.134	867.44
558.346	877.44
558.559	866.44
558.771	843.44
558.984	849.44
559.196	817.44
559.409	824.44
559.621	817.44
559.833	802.44
560.046	879.44
560.258	854.44
560.47	835.44
560.683	847.44
560.895	827.44
561.107	815.44
561.32	834.44
561.532	841.44
561.744	850.44
561.956	838.44
562.168	800.44
562.381	801.44
562.593	800.44
562.805	818.44
563.017	792.44
563.229	774.44
563.441	801.44
563.653	791.44
563.865	783.44
564.077	788.44
564.289	794.44
564.501	787.44
564.713	822.44
564.925	870.44
565.137	893.44
565.349	817.44
565.561	817.44
565.773	829.44
565.985	830.44
566.197	861.44
566.408	909.44
566.62	909.44
566.832	904.44
567.044	910.44
567.255	885.44
567.467	901.44
567.679	935.44
567.891	936.44
568.102	912.44
568.314	838.44
568.526	808.44
568.737	785.44
568.949	744.44
569.161	701.44
569.372	685.44
569.584	706.44
569.795	671.44
570.007	679.44
570.218	649.44
570.43	649.44
570.641	657.44
570.853	682.44
571.064	651.44
571.276	689.44
571.487	664.44
571.698	649.44
571.91	649.44
572.121	643.44
572.333	658.44
572.544	619.44
572.755	605.44
572.966	586.44
573.178	608.44
573.389	579.44
573.6	614.44
573.811	651.44
574.023	600.44
574.234	581.44
574.445	586.44
574.656	559.44
574.867	565.44
575.078	567.44
575.289	553.44
575.501	566.44
575.712	563.44
575.923	553.44
576.134	567.44
576.345	541.44
576.556	549.44
576.767	520.44
576.978	561.44
577.188	522.44
577.399	553.44
577.61	507.44
577.821	506.44
578.032	516.44
578.243	540.44
578.454	528.44
578.665	510.44
578.875	488.44
579.086	507.44
579.297	501.44
579.508	509.44
579.718	510.44
579.929	522.44
580.14	504.44
580.35	490.44
580.561	522.44
580.772	571.44
580.982	521.44
581.193	492.44
581.403	480.44
581.614	469.44
581.825	489.44
582.035	483.44
582.246	474.44
582.456	497.44
582.667	490.44
582.877	486.44
583.087	475.44
583.298	484.44
583.508	471.44
583.719	506.44
583.929	472.44
584.139	464.44
584.35	452.44
584.56	467.44
584.77	479.44
584.981	481.44
585.191	467.44
585.401	482.44
585.611	480.44
585.821	480.44
586.032	465.44
586.242	483.44
586.452	442.44
586.662	473.44
586.872	462.44
587.082	431.44
587.292	457.44
587.502	458.44
587.713	459.44
587.923	461.44
588.133	482.44
588.343	462.44
588.553	445.44
588.762	461.44
588.972	449.44
589.182	462.44
589.392	438.44
589.602	454.44
589.812	454.44
590.022	415.44
590.232	434.44
590.441	462.44
590.651	450.44
590.861	454.44
591.071	441.44
591.281	460.44
591.49	447.44
591.7	445.44
591.91	454.44
592.119	454.44
592.329	448.44
592.539	467.44
592.748	458.44
592.958	441.44
593.167	458.44
593.377	480.44
593.587	462.44
593.796	472.44
594.006	488.44
594.215	458.44
594.424	493.44
594.634	462.44
594.843	453.44
595.053	477.44
595.262	470.44
595.472	441.44
595.681	465.44
595.89	445.44
596.1	435.44
596.309	423.44
596.518	437.44
596.727	445.44
596.937	429.44
597.146	437.44
597.355	404.44
597.564	421.44
597.774	396.44
597.983	413.44
598.192	392.44
598.401	385.44
598.61	395.44
598.819	403.44
599.028	402.44
599.237	400.44
599.446	392.44
599.655	403.44
599.864	397.44
600.073	392.44
600.282	393.44
600.491	391.44
600.7	390.44
600.909	376.44
601.118	402.44
601.327	406.44
601.536	424.44
601.745	398.44
601.953	414.44
602.162	416.44
602.371	426.44
602.58	417.44
602.789	392.44
602.997	408.44
603.206	433.44
603.415	418.44
603.623	394.44
603.832	419.44
604.041	405.44
604.249	415.44
604.458	374.44
604.666	395.44
604.875	386.44
605.084	401.44
605.292	399.44
605.501	401.44
605.709	414.44
605.918	407.44
606.126	384.44
606.334	401.44
606.543	421.44
606.751	420.44
606.96	416.44
607.168	408.44
607.376	393.44
607.585	426.44
607.793	405.44
608.001	407.44
608.21	401.44
608.418	412.44
608.626	410.44
608.834	417.44
609.043	413.44
609.251	402.44
609.459	393.44
609.667	409.44
609.875	417.44
610.083	413.44
610.291	410.44
610.499	417.44
610.707	383.44
610.916	404.44
611.124	417.44
611.332	390.44
611.54	390.44
611.748	393.44
611.955	393.44
612.163	375.44
612.371	387.44
612.579	372.44
612.787	395.44
612.995	387.44
613.203	410.44
613.411	403.44
613.618	404.44
613.826	381.44
614.034	396.44
614.242	399.44
614.449	401.44
614.657	390.44
614.865	391.44
615.072	379.44
615.28	392.44
615.488	381.44
615.695	395.44
615.903	410.44
616.111	375.44
616.318	385.44
616.526	377.44
616.733	396.44
616.941	371.44
617.148	391.44
617.356	365.44
617.563	396.44
617.771	355.44
617.978	355.44
618.185	389.44
618.393	376.44
618.6	370.44
618.807	379.44
619.015	400.44
619.222	373.44
619.429	367.44
619.637	363.44
619.844	345.44
620.051	357.44
620.258	351.44
620.466	362.44
620.673	344.44
620.88	338.44
621.087	353.44
621.294	345.44
621.501	334.44
621.708	351.44
621.915	361.44
622.122	365.44
622.329	377.44
622.536	365.44
622.743	356.44
622.95	352.44
623.157	350.44
623.364	339.44
623.571	359.44
623.778	347.44
623.985	342.44
624.192	353.44
624.399	346.44
624.606	341.44
624.812	343.44
625.019	346.44
625.226	337.44
625.433	337.44
625.639	312.44
625.846	314.44
626.053	308.44
626.259	307.44
626.466	290.44
626.673	314.44
626.879	296.44
627.086	306.44
627.293	321.44
627.499	327.44
627.706	311.44
627.912	332.44
628.119	337.44
628.325	317.44
628.532	328.44
628.738	323.44
628.945	323.44
629.151	318.44
629.357	315.44
629.564	320.44
629.77	309.44
629.976	311.44
630.183	311.44
630.389	299.44
630.595	330.44
630.802	314.44
631.008	315.44
631.214	298.44
631.42	302.44
631.627	291.44
631.833	301.44
632.039	278.44
632.245	287.44
632.451	283.44
632.657	298.44
632.863	291.44
633.069	284.44
633.275	300.44
633.481	294.44
633.688	290.44
633.893	283.44
634.099	288.44
634.305	298.44
634.511	267.44
634.717	276.44
634.923	267.44
635.129	270.44
635.335	263.44
635.541	273.44
635.747	261.44
635.952	285.44
636.158	272.44
636.364	267.44
636.57	290.44
636.775	270.44
636.981	274.44
637.187	286.44
637.392	287.44
637.598	282.44
637.804	273.44
638.009	282.44
638.215	280.44
638.421	282.44
638.626	291.44
638.832	281.44
639.037	291.44
639.243	257.44
639.448	285.44
639.654	272.44
639.859	273.44
640.065	264.44
640.27	277.44
640.475	273.44
640.681	286.44
640.886	265.44
641.091	264.44
641.297	284.44
641.502	274.44
641.707	254.44
641.913	281.44
642.118	280.44
642.323	261.44
642.528	271.44
642.733	264.44
642.939	253.44
643.144	258.44
643.349	267.44
643.554	264.44
643.759	249.44
643.964	244.44
644.169	253.44
644.374	267.44
644.579	246.44
644.784	278.44
644.989	281.44
645.194	248.44
645.399	270.44
645.604	240.44
645.809	264.44
646.014	266.44
646.219	260.44
646.423	265.44
646.628	264.44
646.833	253.44
647.038	258.44
647.243	266.44
647.447	277.44
647.652	259.44
647.857	271.44
648.062	245.44
648.266	271.44
648.471	267.44
648.676	259.44
648.88	263.44
649.085	259.44
649.289	265.44
649.494	258.44
649.698	253.44
649.903	241.44
650.107	230.44
650.312	259.44
650.516	245.44
650.721	246.44
650.925	234.44
651.13	253.44
651.334	249.44
651.539	233.44
651.743	241.44
651.947	245.44
652.152	245.44
652.356	232.44
652.56	224.44
652.764	210.44
652.969	213.44
653.173	234.44
653.377	239.44
653.581	232.44
653.785	218.44
653.99	223.44
654.194	211.44
654.398	239.44
654.602	224.44
654.806	210.44
655.01	220.44
655.214	214.44
655.418	217.44
655.622	216.44
655.826	223.44
656.03	234.44
656.234	237.44
656.438	265.44
656.642	256.44
656.846	249.44
657.049	218.44
657.253	217.44
657.457	201.44
657.661	186.44
657.865	190.44
658.068	167.44
658.272	169.44
658.476	170.44
658.68	160.44
658.883	143.44
659.087	149.44
659.291	140.44
659.494	136.44
659.698	137.44
659.901	125.44
660.105	135.44
660.309	123.44
660.512	130.44
660.716	118.44
660.919	113.44
661.123	113.44
661.326	106.44
661.53	105.44
661.733	116.44
661.936	91.44
662.14	90.44
662.343	100.44
662.546	102.44
662.75	94.44
662.953	94.44
663.156	88.44
663.36	99.44
663.563	94.44
663.766	80.44
663.969	92.44
664.173	87.44
664.376	83.44
664.579	80.44
664.782	88.44
664.985	81.44
665.188	91.44
665.391	90.44
665.594	76.44
665.797	68.44
666	78.44
666.203	79.44
666.406	87.44
666.609	72.44
666.812	72.44
667.015	96.44
667.218	81.44
667.421	74.44
667.624	81.44
667.827	81.44
668.03	63.44
668.232	83.44
668.435	85.44
668.638	82.44
668.841	85.44
669.043	81.44
669.246	83.44
669.449	92.44
669.651	75.44
669.854	89.44
670.057	73.44
670.259	88.44
670.462	71.44
670.665	86.44
670.867	76.44
671.07	94.44
671.272	85.44
671.475	90.44
671.677	93.44
671.88	79.44
672.082	80.44
672.284	84.44
672.487	75.44
672.689	82.44
672.892	79.44
