Data from WStandard_LampEnergy8_LIBS07252019.E.O._I.C._HRD10591_16-00-49-930.txt Node
Date: Thu Jul 25 16:00:49 EDT 2019
User: cochatt
Spectrometer: HR+D1059
Trigger mode: 1
Integration Time (sec): 1.000000E-1
Scans to average: 1
Electric dark correction enabled: true
Nonlinearity correction enabled: false
Boxcar width: 0
XAxis mode: Wavelengths
Number of Pixels in Spectrum: 2048
>>>>>Begin Spectral Data<<<<<
223.165	-11.56
223.4	-11.56
223.635	-11.56
223.869	-13.56
224.104	-15.56
224.338	-11.56
224.573	-4.56
224.808	-10.56
225.042	-18.56
225.277	-10.56
225.511	-0.56
225.746	-3.56
225.98	-5.56
226.215	17.44
226.449	8.44
226.683	15.44
226.918	28.44
227.152	36.44
227.387	48.44
227.621	51.44
227.856	54.44
228.09	40.44
228.324	54.44
228.559	53.44
228.793	94.44
229.027	185.44
229.262	186.44
229.496	204.44
229.73	210.44
229.964	223.44
230.199	226.44
230.433	264.44
230.667	266.44
230.901	275.44
231.136	233.44
231.37	238.44
231.604	253.44
231.838	261.44
232.072	271.44
232.306	234.44
232.541	258.44
232.775	289.44
233.009	297.44
233.243	294.44
233.477	260.44
233.711	287.44
233.945	293.44
234.179	312.44
234.413	314.44
234.647	295.44
234.881	290.44
235.115	284.44
235.349	284.44
235.583	284.44
235.817	291.44
236.051	284.44
236.285	290.44
236.519	294.44
236.753	337.44
236.987	335.44
237.221	336.44
237.455	357.44
237.689	355.44
237.922	323.44
238.156	331.44
238.39	335.44
238.624	336.44
238.858	363.44
239.091	372.44
239.325	410.44
239.559	432.44
239.793	470.44
240.027	477.44
240.26	467.44
240.494	373.44
240.728	364.44
240.961	338.44
241.195	376.44
241.429	408.44
241.662	392.44
241.896	391.44
242.13	391.44
242.363	424.44
242.597	420.44
242.83	413.44
243.064	463.44
243.298	453.44
243.531	452.44
243.765	446.44
243.998	442.44
244.232	404.44
244.465	395.44
244.699	394.44
244.932	442.44
245.166	500.44
245.399	465.44
245.633	443.44
245.866	431.44
246.099	434.44
246.333	453.44
246.566	456.44
246.8	510.44
247.033	542.44
247.266	496.44
247.5	493.44
247.733	515.44
247.966	544.44
248.2	577.44
248.433	559.44
248.666	569.44
248.899	627.44
249.133	707.44
249.366	759.44
249.599	670.44
249.832	569.44
250.066	582.44
250.299	575.44
250.532	543.44
250.765	505.44
250.998	520.44
251.231	570.44
251.465	591.44
251.698	547.44
251.931	554.44
252.164	568.44
252.397	568.44
252.63	584.44
252.863	501.44
253.096	475.44
253.329	533.44
253.562	552.44
253.795	574.44
254.028	588.44
254.261	542.44
254.494	548.44
254.727	532.44
254.96	575.44
255.193	597.44
255.426	667.44
255.659	764.44
255.892	734.44
256.124	664.44
256.357	623.44
256.59	642.44
256.823	682.44
257.056	677.44
257.289	775.44
257.521	827.44
257.754	776.44
257.987	738.44
258.22	796.44
258.452	758.44
258.685	640.44
258.918	636.44
259.151	641.44
259.383	620.44
259.616	555.44
259.849	602.44
260.081	630.44
260.314	723.44
260.547	758.44
260.779	755.44
261.012	715.44
261.244	644.44
261.477	620.44
261.71	677.44
261.942	653.44
262.175	608.44
262.407	669.44
262.64	642.44
262.872	597.44
263.105	596.44
263.337	614.44
263.57	588.44
263.802	610.44
264.035	569.44
264.267	546.44
264.499	540.44
264.732	584.44
264.964	614.44
265.197	624.44
265.429	648.44
265.661	732.44
265.894	787.44
266.126	802.44
266.358	756.44
266.591	778.44
266.823	812.44
267.055	720.44
267.287	725.44
267.52	702.44
267.752	720.44
267.984	712.44
268.216	736.44
268.448	756.44
268.681	762.44
268.913	676.44
269.145	676.44
269.377	670.44
269.609	722.44
269.841	843.44
270.073	951.44
270.306	1028.44
270.538	1018.44
270.77	879.44
271.002	778.44
271.234	773.44
271.466	773.44
271.698	844.44
271.93	985.44
272.162	958.44
272.394	875.44
272.626	854.44
272.858	720.44
273.09	657.44
273.322	648.44
273.553	621.44
273.785	658.44
274.017	692.44
274.249	713.44
274.481	711.44
274.713	662.44
274.945	642.44
275.176	642.44
275.408	652.44
275.64	631.44
275.872	650.44
276.104	710.44
276.335	788.44
276.567	871.44
276.799	868.44
277.031	789.44
277.262	754.44
277.494	783.44
277.726	857.44
277.957	837.44
278.189	760.44
278.421	704.44
278.652	680.44
278.884	714.44
279.115	709.44
279.347	717.44
279.579	702.44
279.81	726.44
280.042	744.44
280.273	839.44
280.505	840.44
280.736	847.44
280.968	800.44
281.199	700.44
281.431	671.44
281.662	691.44
281.894	666.44
282.125	717.44
282.356	707.44
282.588	732.44
282.819	739.44
283.051	818.44
283.282	795.44
283.513	814.44
283.745	733.44
283.976	680.44
284.207	691.44
284.439	730.44
284.67	696.44
284.901	733.44
285.132	719.44
285.364	743.44
285.595	733.44
285.826	724.44
286.057	735.44
286.288	713.44
286.52	762.44
286.751	829.44
286.982	812.44
287.213	751.44
287.444	690.44
287.675	696.44
287.906	787.44
288.138	796.44
288.369	746.44
288.6	727.44
288.831	726.44
289.062	690.44
289.293	716.44
289.524	725.44
289.755	752.44
289.986	745.44
290.217	697.44
290.448	706.44
290.679	728.44
290.91	743.44
291.141	780.44
291.371	780.44
291.602	782.44
291.833	763.44
292.064	832.44
292.295	771.44
292.526	809.44
292.757	826.44
292.987	776.44
293.218	776.44
293.449	835.44
293.68	924.44
293.91	950.44
294.141	893.44
294.372	855.44
294.603	885.44
294.833	920.44
295.064	880.44
295.295	815.44
295.525	771.44
295.756	717.44
295.987	700.44
296.217	715.44
296.448	730.44
296.679	730.44
296.909	749.44
297.14	729.44
297.37	740.44
297.601	789.44
297.831	848.44
298.062	843.44
298.292	770.44
298.523	740.44
298.753	741.44
298.984	767.44
299.214	780.44
299.445	787.44
299.675	818.44
299.905	794.44
300.136	778.44
300.366	738.44
300.597	723.44
300.827	758.44
301.057	784.44
301.288	808.44
301.518	787.44
301.748	813.44
301.979	869.44
302.209	897.44
302.439	946.44
302.669	950.44
302.9	895.44
303.13	816.44
303.36	812.44
303.59	821.44
303.82	818.44
304.051	815.44
304.281	822.44
304.511	858.44
304.741	920.44
304.971	962.44
305.201	1003.44
305.431	910.44
305.661	774.44
305.891	747.44
306.121	735.44
306.352	773.44
306.582	809.44
306.812	849.44
307.042	908.44
307.272	902.44
307.502	933.44
307.731	1000.44
307.961	1013.44
308.191	948.44
308.421	856.44
308.651	813.44
308.881	810.44
309.111	831.44
309.341	806.44
309.571	811.44
309.8	761.44
310.03	815.44
310.26	790.44
310.49	778.44
310.72	815.44
310.949	850.44
311.179	842.44
311.409	836.44
311.639	836.44
311.868	805.44
312.098	820.44
312.328	814.44
312.557	811.44
312.787	845.44
313.017	850.44
313.246	861.44
313.476	852.44
313.706	867.44
313.935	814.44
314.165	826.44
314.394	897.44
314.624	958.44
314.853	988.44
315.083	1014.44
315.312	1012.44
315.542	947.44
315.771	887.44
316.001	891.44
316.23	898.44
316.46	892.44
316.689	894.44
316.919	839.44
317.148	818.44
317.377	840.44
317.607	930.44
317.836	992.44
318.065	1008.44
318.295	982.44
318.524	957.44
318.753	916.44
318.983	889.44
319.212	882.44
319.441	856.44
319.67	876.44
319.9	898.44
320.129	918.44
320.358	997.44
320.587	972.44
320.816	960.44
321.046	955.44
321.275	918.44
321.504	950.44
321.733	1010.44
321.962	963.44
322.191	911.44
322.42	893.44
322.649	862.44
322.878	875.44
323.108	898.44
323.337	946.44
323.566	902.44
323.795	892.44
324.024	896.44
324.253	872.44
324.482	898.44
324.71	878.44
324.939	856.44
325.168	875.44
325.397	898.44
325.626	904.44
325.855	904.44
326.084	920.44
326.313	902.44
326.542	924.44
326.77	898.44
326.999	928.44
327.228	891.44
327.457	839.44
327.686	851.44
327.914	874.44
328.143	878.44
328.372	891.44
328.6	892.44
328.829	882.44
329.058	888.44
329.287	888.44
329.515	909.44
329.744	907.44
329.972	980.44
330.201	990.44
330.43	948.44
330.658	949.44
330.887	938.44
331.115	974.44
331.344	967.44
331.572	925.44
331.801	953.44
332.03	936.44
332.258	961.44
332.486	952.44
332.715	953.44
332.943	957.44
333.172	962.44
333.4	975.44
333.629	997.44
333.857	1066.44
334.085	1154.44
334.314	1299.44
334.542	1348.44
334.771	1221.44
334.999	1082.44
335.227	1035.44
335.455	1016.44
335.684	1043.44
335.912	1045.44
336.14	1038.44
336.369	975.44
336.597	996.44
336.825	929.44
337.053	988.44
337.281	1051.44
337.51	1089.44
337.738	1119.44
337.966	1041.44
338.194	945.44
338.422	943.44
338.65	943.44
338.878	902.44
339.106	902.44
339.334	908.44
339.562	897.44
339.79	916.44
340.018	959.44
340.246	998.44
340.474	991.44
340.702	1006.44
340.93	964.44
341.158	993.44
341.386	938.44
341.614	940.44
341.842	930.44
342.07	935.44
342.298	947.44
342.526	944.44
342.754	941.44
342.981	946.44
343.209	936.44
343.437	924.44
343.665	930.44
343.893	984.44
344.12	1029.44
344.348	986.44
344.576	948.44
344.804	921.44
345.031	916.44
345.259	918.44
345.487	908.44
345.714	880.44
345.942	883.44
346.17	883.44
346.397	911.44
346.625	931.44
346.853	837.44
347.08	844.44
347.308	875.44
347.535	868.44
347.763	905.44
347.99	884.44
348.218	888.44
348.445	893.44
348.673	908.44
348.9	912.44
349.128	931.44
349.355	927.44
349.583	954.44
349.81	879.44
350.037	836.44
350.265	824.44
350.492	853.44
350.72	867.44
350.947	891.44
351.174	888.44
351.402	839.44
351.629	820.44
351.856	820.44
352.083	810.44
352.311	824.44
352.538	858.44
352.765	899.44
352.992	923.44
353.22	875.44
353.447	863.44
353.674	887.44
353.901	859.44
354.128	847.44
354.355	859.44
354.583	907.44
354.81	922.44
355.037	922.44
355.264	910.44
355.491	865.44
355.718	868.44
355.945	879.44
356.172	875.44
356.399	878.44
356.626	882.44
356.853	904.44
357.08	968.44
357.307	1071.44
357.534	989.44
357.761	918.44
357.988	870.44
358.215	841.44
358.441	854.44
358.668	843.44
358.895	840.44
359.122	918.44
359.349	985.44
359.576	982.44
359.802	877.44
360.029	843.44
360.256	859.44
360.483	853.44
360.709	876.44
360.936	918.44
361.163	992.44
361.39	1030.44
361.616	1109.44
361.843	1075.44
362.07	1003.44
362.296	881.44
362.523	854.44
362.749	866.44
362.976	895.44
363.203	939.44
363.429	911.44
363.656	855.44
363.882	943.44
364.109	1039.44
364.335	1038.44
364.562	1001.44
364.788	957.44
365.015	885.44
365.241	877.44
365.468	907.44
365.694	935.44
365.92	942.44
366.147	922.44
366.373	873.44
366.599	888.44
366.826	870.44
367.052	871.44
367.278	889.44
367.505	890.44
367.731	940.44
367.957	954.44
368.184	945.44
368.41	984.44
368.636	1032.44
368.862	987.44
369.089	1023.44
369.315	975.44
369.541	948.44
369.767	910.44
369.993	890.44
370.219	895.44
370.445	933.44
370.672	981.44
370.898	1040.44
371.124	986.44
371.35	950.44
371.576	983.44
371.802	1000.44
372.028	961.44
372.254	934.44
372.48	910.44
372.706	895.44
372.932	905.44
373.158	926.44
373.384	947.44
373.61	982.44
373.835	967.44
374.061	949.44
374.287	952.44
374.513	951.44
374.739	967.44
374.965	986.44
375.191	965.44
375.416	979.44
375.642	973.44
375.868	1099.44
376.094	1083.44
376.319	981.44
376.545	960.44
376.771	973.44
376.997	1032.44
377.222	1028.44
377.448	978.44
377.674	997.44
377.899	993.44
378.125	1070.44
378.35	1019.44
378.576	935.44
378.802	898.44
379.027	920.44
379.253	954.44
379.478	952.44
379.704	932.44
379.929	962.44
380.155	974.44
380.38	986.44
380.606	997.44
380.831	981.44
381.057	1003.44
381.282	1056.44
381.507	1012.44
381.733	1102.44
381.958	1092.44
382.184	1016.44
382.409	986.44
382.634	1014.44
382.86	967.44
383.085	981.44
383.31	1043.44
383.535	1132.44
383.761	1150.44
383.986	1115.44
384.211	1059.44
384.436	1076.44
384.662	1097.44
384.887	1144.44
385.112	1101.44
385.337	1106.44
385.562	1066.44
385.787	1067.44
386.013	1134.44
386.238	1123.44
386.463	1141.44
386.688	1184.44
386.913	1246.44
387.138	1209.44
387.363	1104.44
387.588	1115.44
387.813	1122.44
388.038	1132.44
388.263	1180.44
388.488	1114.44
388.713	1046.44
388.938	1050.44
389.163	1047.44
389.387	1096.44
389.612	1088.44
389.837	1089.44
390.062	1126.44
390.287	1098.44
390.512	1091.44
390.736	1070.44
390.961	1050.44
391.186	1055.44
391.411	1074.44
391.636	1068.44
391.86	1083.44
392.085	1098.44
392.31	1074.44
392.534	1100.44
392.759	1111.44
392.984	1105.44
393.208	1097.44
393.433	1149.44
393.658	1170.44
393.882	1192.44
394.107	1122.44
394.331	1088.44
394.556	1114.44
394.78	1092.44
395.005	1170.44
395.229	1166.44
395.454	1273.44
395.678	1246.44
395.903	1178.44
396.127	1147.44
396.352	1176.44
396.576	1198.44
396.801	1228.44
397.025	1210.44
397.249	1226.44
397.474	1182.44
397.698	1136.44
397.922	1236.44
398.147	1276.44
398.371	1310.44
398.595	1266.44
398.82	1235.44
399.044	1284.44
399.268	1351.44
399.492	1379.44
399.717	1419.44
399.941	1431.44
400.165	1405.44
400.389	1391.44
400.613	1394.44
400.837	1556.44
401.062	1749.44
401.286	1471.44
401.51	1372.44
401.734	1396.44
401.958	1343.44
402.182	1271.44
402.406	1247.44
402.63	1228.44
402.854	1237.44
403.078	1274.44
403.302	1276.44
403.526	1292.44
403.75	1273.44
403.974	1309.44
404.198	1322.44
404.422	1351.44
404.645	1390.44
404.869	1365.44
405.093	1267.44
405.317	1252.44
405.541	1267.44
405.765	1326.44
405.988	1282.44
406.212	1319.44
406.436	1362.44
406.66	1412.44
406.883	1418.44
407.107	1613.44
407.331	1705.44
407.555	1838.44
407.778	1626.44
408.002	1396.44
408.226	1379.44
408.449	1371.44
408.673	1345.44
408.896	1359.44
409.12	1357.44
409.344	1335.44
409.567	1300.44
409.791	1290.44
410.014	1325.44
410.238	1428.44
410.461	1460.44
410.685	1323.44
410.908	1262.44
411.132	1317.44
411.355	1293.44
411.578	1257.44
411.802	1306.44
412.025	1309.44
412.249	1278.44
412.472	1270.44
412.695	1262.44
412.919	1260.44
413.142	1224.44
413.365	1277.44
413.589	1306.44
413.812	1349.44
414.035	1368.44
414.258	1284.44
414.482	1262.44
414.705	1212.44
414.928	1256.44
415.151	1296.44
415.374	1273.44
415.597	1275.44
415.821	1292.44
416.044	1330.44
416.267	1267.44
416.49	1246.44
416.713	1209.44
416.936	1274.44
417.159	1322.44
417.382	1293.44
417.605	1249.44
417.828	1260.44
418.051	1293.44
418.274	1278.44
418.497	1228.44
418.72	1216.44
418.943	1202.44
419.166	1273.44
419.389	1325.44
419.611	1274.44
419.834	1224.44
420.057	1252.44
420.28	1238.44
420.503	1242.44
420.726	1289.44
420.948	1239.44
421.171	1222.44
421.394	1233.44
421.617	1252.44
421.839	1284.44
422.062	1290.44
422.285	1239.44
422.507	1242.44
422.73	1200.44
422.953	1184.44
423.175	1180.44
423.398	1180.44
423.621	1199.44
423.843	1240.44
424.066	1260.44
424.288	1327.44
424.511	1383.44
424.733	1289.44
424.956	1195.44
425.178	1233.44
425.401	1223.44
425.623	1242.44
425.846	1203.44
426.068	1317.44
426.291	1288.44
426.513	1255.44
426.735	1250.44
426.958	1356.44
427.18	1446.44
427.402	1316.44
427.625	1360.44
427.847	1313.44
428.069	1213.44
428.292	1190.44
428.514	1204.44
428.736	1197.44
428.958	1212.44
429.181	1227.44
429.403	1410.44
429.625	1669.44
429.847	1405.44
430.069	1262.44
430.292	1397.44
430.514	1385.44
430.736	1313.44
430.958	1310.44
431.18	1244.44
431.402	1155.44
431.624	1174.44
431.846	1135.44
432.068	1088.44
432.29	1120.44
432.512	1146.44
432.734	1208.44
432.956	1226.44
433.178	1299.44
433.4	1270.44
433.622	1225.44
433.844	1216.44
434.066	1161.44
434.287	1143.44
434.509	1148.44
434.731	1183.44
434.953	1302.44
435.175	1272.44
435.397	1247.44
435.618	1232.44
435.84	1186.44
436.062	1143.44
436.284	1208.44
436.505	1228.44
436.727	1295.44
436.949	1214.44
437.17	1166.44
437.392	1174.44
437.614	1171.44
437.835	1136.44
438.057	1178.44
438.278	1195.44
438.5	1176.44
438.721	1194.44
438.943	1180.44
439.165	1212.44
439.386	1203.44
439.608	1180.44
439.829	1156.44
440.05	1217.44
440.272	1215.44
440.493	1186.44
440.715	1252.44
440.936	1288.44
441.158	1386.44
441.379	1340.44
441.6	1332.44
441.822	1290.44
442.043	1302.44
442.264	1283.44
442.486	1206.44
442.707	1218.44
442.928	1212.44
443.149	1229.44
443.371	1304.44
443.592	1327.44
443.813	1307.44
444.034	1296.44
444.255	1318.44
444.476	1318.44
444.698	1356.44
444.919	1296.44
445.14	1418.44
445.361	1394.44
445.582	1396.44
445.803	1362.44
446.024	1294.44
446.245	1368.44
446.466	1313.44
446.687	1272.44
446.908	1316.44
447.129	1260.44
447.35	1246.44
447.571	1246.44
447.792	1218.44
448.013	1162.44
448.234	1192.44
448.455	1241.44
448.675	1270.44
448.896	1168.44
449.117	1146.44
449.338	1188.44
449.559	1230.44
449.779	1250.44
450	1363.44
450.221	1412.44
450.442	1372.44
450.662	1237.44
450.883	1120.44
451.104	1115.44
451.324	1156.44
451.545	1158.44
451.766	1146.44
451.986	1107.44
452.207	1098.44
452.428	1043.44
452.648	1040.44
452.869	1086.44
453.089	1099.44
453.31	1094.44
453.53	1129.44
453.751	1064.44
453.971	1020.44
454.192	1031.44
454.412	1096.44
454.633	1102.44
454.853	1094.44
455.073	1026.44
455.294	1016.44
455.514	1033.44
455.734	1011.44
455.955	1032.44
456.175	1056.44
456.395	1018.44
456.616	1006.44
456.836	1042.44
457.056	1034.44
457.276	1021.44
457.497	995.44
457.717	994.44
457.937	1015.44
458.157	1034.44
458.377	1010.44
458.598	990.44
458.818	1016.44
459.038	1076.44
459.258	1107.44
459.478	1114.44
459.698	1093.44
459.918	1090.44
460.138	1167.44
460.358	1184.44
460.578	1203.44
460.798	1262.44
461.018	1255.44
461.238	1257.44
461.458	1219.44
461.678	1187.44
461.898	1159.44
462.118	1128.44
462.338	1202.44
462.558	1236.44
462.777	1207.44
462.997	1239.44
463.217	1319.44
463.437	1295.44
463.657	1215.44
463.876	1174.44
464.096	1196.44
464.316	1191.44
464.536	1234.44
464.755	1238.44
464.975	1240.44
465.195	1208.44
465.414	1282.44
465.634	1237.44
465.854	1221.44
466.073	1332.44
466.293	1309.44
466.512	1140.44
466.732	1142.44
466.951	1195.44
467.171	1181.44
467.391	1147.44
467.61	1142.44
467.829	1199.44
468.049	1273.44
468.268	1374.44
468.488	1278.44
468.707	1242.44
468.927	1204.44
469.146	1180.44
469.365	1176.44
469.585	1180.44
469.804	1193.44
470.023	1196.44
470.243	1214.44
470.462	1214.44
470.681	1184.44
470.901	1188.44
471.12	1206.44
471.339	1167.44
471.558	1164.44
471.777	1142.44
471.997	1138.44
472.216	1112.44
472.435	1082.44
472.654	1091.44
472.873	1127.44
473.092	1189.44
473.311	1154.44
473.53	1101.44
473.749	1077.44
473.968	1167.44
474.187	1188.44
474.406	1202.44
474.625	1151.44
474.844	1172.44
475.063	1175.44
475.282	1149.44
475.501	1151.44
475.72	1147.44
475.939	1198.44
476.158	1188.44
476.377	1148.44
476.596	1165.44
476.814	1179.44
477.033	1194.44
477.252	1198.44
477.471	1274.44
477.69	1220.44
477.908	1239.44
478.127	1307.44
478.346	1380.44
478.564	1350.44
478.783	1341.44
479.002	1373.44
479.22	1377.44
479.439	1387.44
479.658	1491.44
479.876	1436.44
480.095	1284.44
480.313	1263.44
480.532	1242.44
480.751	1267.44
480.969	1230.44
481.188	1232.44
481.406	1224.44
481.624	1198.44
481.843	1206.44
482.061	1229.44
482.28	1286.44
482.498	1280.44
482.717	1255.44
482.935	1270.44
483.153	1291.44
483.372	1316.44
483.59	1314.44
483.808	1276.44
484.027	1310.44
484.245	1401.44
484.463	1640.44
484.681	1811.44
484.9	1422.44
485.118	1353.44
485.336	1302.44
485.554	1348.44
485.772	1362.44
485.99	1302.44
486.209	1346.44
486.427	1314.44
486.645	1354.44
486.863	1377.44
487.081	1408.44
487.299	1413.44
487.517	1395.44
487.735	1397.44
487.953	1462.44
488.171	1432.44
488.389	1366.44
488.607	1404.44
488.825	1550.44
489.043	1490.44
489.261	1334.44
489.479	1412.44
489.696	1438.44
489.914	1402.44
490.132	1359.44
490.35	1404.44
490.568	1477.44
490.786	1444.44
491.003	1416.44
491.221	1476.44
491.439	1516.44
491.657	1525.44
491.874	1538.44
492.092	1580.44
492.31	1643.44
492.527	1569.44
492.745	1589.44
492.963	1515.44
493.18	1548.44
493.398	1628.44
493.615	1654.44
493.833	1515.44
494.05	1523.44
494.268	1522.44
494.485	1553.44
494.703	1538.44
494.92	1486.44
495.138	1506.44
495.355	1488.44
495.573	1525.44
495.79	1598.44
496.008	1604.44
496.225	1550.44
496.442	1533.44
496.66	1561.44
496.877	1553.44
497.094	1563.44
497.312	1529.44
497.529	1563.44
497.746	1575.44
497.963	1748.44
498.181	1865.44
498.398	1821.44
498.615	1778.44
498.832	1724.44
499.049	1686.44
499.267	1708.44
499.484	1811.44
499.701	1913.44
499.918	1995.44
500.135	2127.44
500.352	2248.44
500.569	2247.44
500.786	2423.44
501.003	2184.44
501.22	2002.44
501.437	1990.44
501.654	2045.44
501.871	1867.44
502.088	1690.44
502.305	1692.44
502.522	1588.44
502.739	1508.44
502.956	1473.44
503.172	1506.44
503.389	1415.44
503.606	1440.44
503.823	1428.44
504.04	1434.44
504.256	1397.44
504.473	1417.44
504.69	1476.44
504.907	1387.44
505.123	1352.44
505.34	1488.44
505.557	1871.44
505.773	1535.44
505.99	1363.44
506.207	1276.44
506.423	1213.44
506.64	1212.44
506.856	1276.44
507.073	1445.44
507.289	1496.44
507.506	1482.44
507.722	1215.44
507.939	1202.44
508.155	1197.44
508.372	1201.44
508.588	1144.44
508.805	1148.44
509.021	1111.44
509.238	1116.44
509.454	1097.44
509.67	1125.44
509.887	1081.44
510.103	1070.44
510.319	1113.44
510.536	1176.44
510.752	1185.44
510.968	1180.44
511.184	1244.44
511.401	1190.44
511.617	1060.44
511.833	1071.44
512.049	1072.44
512.265	1041.44
512.481	1091.44
512.698	1095.44
512.914	1162.44
513.13	1134.44
513.346	1098.44
513.562	1063.44
513.778	1095.44
513.994	1134.44
514.21	1128.44
514.426	1158.44
514.642	1262.44
514.858	1151.44
515.074	1096.44
515.29	1056.44
515.506	1134.44
515.721	1102.44
515.937	1135.44
516.153	1260.44
516.369	1186.44
516.585	1151.44
516.801	1079.44
517.016	1128.44
517.232	1148.44
517.448	1202.44
517.664	1180.44
517.879	1193.44
518.095	1226.44
518.311	1166.44
518.527	1117.44
518.742	1124.44
518.958	1141.44
519.173	1093.44
519.389	1148.44
519.605	1132.44
519.82	1122.44
520.036	1150.44
520.251	1103.44
520.467	1118.44
520.682	1200.44
520.898	1204.44
521.113	1116.44
521.329	1068.44
521.544	1126.44
521.76	1076.44
521.975	1084.44
522.19	1065.44
522.406	1053.44
522.621	1335.44
522.836	1220.44
523.052	1040.44
523.267	1070.44
523.482	1059.44
523.698	999.44
523.913	1018.44
524.128	1062.44
524.343	1093.44
524.559	1122.44
524.774	1057.44
524.989	1020.44
525.204	1039.44
525.419	1004.44
525.634	1058.44
525.849	1042.44
526.064	1016.44
526.28	1017.44
526.495	966.44
526.71	975.44
526.925	982.44
527.14	943.44
527.355	944.44
527.57	949.44
527.785	977.44
527.999	958.44
528.214	948.44
528.429	956.44
528.644	1013.44
528.859	1032.44
529.074	1048.44
529.289	1072.44
529.503	1072.44
529.718	1058.44
529.933	970.44
530.148	968.44
530.363	934.44
530.577	931.44
530.792	951.44
531.007	941.44
531.221	943.44
531.436	956.44
531.651	984.44
531.865	1025.44
532.08	978.44
532.295	941.44
532.509	918.44
532.724	948.44
532.938	969.44
533.153	1003.44
533.367	986.44
533.582	994.44
533.796	967.44
534.011	966.44
534.225	953.44
534.44	932.44
534.654	941.44
534.868	949.44
535.083	992.44
535.297	977.44
535.511	942.44
535.726	943.44
535.94	955.44
536.154	930.44
536.369	914.44
536.583	891.44
536.797	903.44
537.011	940.44
537.225	890.44
537.44	893.44
537.654	926.44
537.868	893.44
538.082	890.44
538.296	869.44
538.51	894.44
538.724	915.44
538.938	942.44
539.153	964.44
539.367	964.44
539.581	945.44
539.795	975.44
540.009	917.44
540.222	902.44
540.436	931.44
540.65	1039.44
540.864	1041.44
541.078	1030.44
541.292	1018.44
541.506	1005.44
541.72	1054.44
541.934	1110.44
542.147	1158.44
542.361	1120.44
542.575	1030.44
542.789	992.44
543.002	926.44
543.216	932.44
543.43	975.44
543.644	995.44
543.857	1080.44
544.071	1072.44
544.285	1083.44
544.498	1069.44
544.712	1059.44
544.925	1079.44
545.139	1102.44
545.352	1060.44
545.566	1041.44
545.779	999.44
545.993	1018.44
546.206	1106.44
546.42	1055.44
546.633	1016.44
546.847	1020.44
547.06	1031.44
547.274	1049.44
547.487	1067.44
547.7	1064.44
547.914	1033.44
548.127	1068.44
548.34	1065.44
548.554	1007.44
548.767	993.44
548.98	1019.44
549.193	1001.44
549.407	1060.44
549.62	1033.44
549.833	1022.44
550.046	1004.44
550.259	996.44
550.473	1000.44
550.686	1006.44
550.899	976.44
551.112	954.44
551.325	952.44
551.538	1008.44
551.751	1107.44
551.964	883.44
552.177	882.44
552.39	934.44
552.603	963.44
552.816	996.44
553.029	1021.44
553.242	1068.44
553.455	1031.44
553.667	989.44
553.88	1000.44
554.093	970.44
554.306	952.44
554.519	945.44
554.732	936.44
554.944	932.44
555.157	927.44
555.37	931.44
555.583	917.44
555.795	902.44
556.008	884.44
556.221	839.44
556.433	848.44
556.646	849.44
556.859	865.44
557.071	870.44
557.284	843.44
557.496	847.44
557.709	858.44
557.921	854.44
558.134	831.44
558.346	856.44
558.559	810.44
558.771	831.44
558.984	814.44
559.196	782.44
559.409	790.44
559.621	796.44
559.833	791.44
560.046	832.44
560.258	801.44
560.47	802.44
560.683	805.44
560.895	815.44
561.107	815.44
561.32	805.44
561.532	813.44
561.744	778.44
561.956	804.44
562.168	780.44
562.381	765.44
562.593	773.44
562.805	764.44
563.017	752.44
563.229	784.44
563.441	784.44
563.653	749.44
563.865	770.44
564.077	770.44
564.289	739.44
564.501	744.44
564.713	783.44
564.925	794.44
565.137	848.44
565.349	800.44
565.561	814.44
565.773	771.44
565.985	772.44
566.197	840.44
566.408	877.44
566.62	859.44
566.832	848.44
567.044	866.44
567.255	876.44
567.467	891.44
567.679	886.44
567.891	909.44
568.102	883.44
568.314	821.44
568.526	792.44
568.737	751.44
568.949	690.44
569.161	696.44
569.372	657.44
569.584	670.44
569.795	666.44
570.007	653.44
570.218	628.44
570.43	621.44
570.641	616.44
570.853	632.44
571.064	648.44
571.276	636.44
571.487	624.44
571.698	642.44
571.91	592.44
572.121	604.44
572.333	598.44
572.544	588.44
572.755	568.44
572.966	549.44
573.178	558.44
573.389	558.44
573.6	587.44
573.811	639.44
574.023	595.44
574.234	560.44
574.445	528.44
574.656	536.44
574.867	536.44
575.078	539.44
575.289	569.44
575.501	539.44
575.712	534.44
575.923	536.44
576.134	570.44
576.345	536.44
576.556	524.44
576.767	518.44
576.978	545.44
577.188	526.44
577.399	520.44
577.61	521.44
577.821	510.44
578.032	492.44
578.243	501.44
578.454	504.44
578.665	497.44
578.875	471.44
579.086	479.44
579.297	479.44
579.508	487.44
579.718	490.44
579.929	475.44
580.14	469.44
580.35	476.44
580.561	500.44
580.772	541.44
580.982	486.44
581.193	462.44
581.403	464.44
581.614	478.44
581.825	460.44
582.035	448.44
582.246	470.44
582.456	489.44
582.667	461.44
582.877	466.44
583.087	469.44
583.298	471.44
583.508	471.44
583.719	464.44
583.929	458.44
584.139	472.44
584.35	444.44
584.56	441.44
584.77	441.44
584.981	451.44
585.191	445.44
585.401	464.44
585.611	447.44
585.821	450.44
586.032	418.44
586.242	444.44
586.452	428.44
586.662	444.44
586.872	440.44
587.082	451.44
587.292	443.44
587.502	436.44
587.713	448.44
587.923	429.44
588.133	443.44
588.343	450.44
588.553	438.44
588.762	418.44
588.972	428.44
589.182	439.44
589.392	426.44
589.602	423.44
589.812	424.44
590.022	415.44
590.232	436.44
590.441	440.44
590.651	438.44
590.861	443.44
591.071	434.44
591.281	433.44
591.49	415.44
591.7	434.44
591.91	420.44
592.119	444.44
592.329	435.44
592.539	454.44
592.748	456.44
592.958	449.44
593.167	454.44
593.377	463.44
593.587	455.44
593.796	432.44
594.006	444.44
594.215	456.44
594.424	450.44
594.634	465.44
594.843	450.44
595.053	482.44
595.262	459.44
595.472	434.44
595.681	423.44
595.89	424.44
596.1	400.44
596.309	426.44
596.518	423.44
596.727	434.44
596.937	412.44
597.146	406.44
597.355	402.44
597.564	399.44
597.774	386.44
597.983	382.44
598.192	379.44
598.401	391.44
598.61	373.44
598.819	387.44
599.028	392.44
599.237	398.44
599.446	372.44
599.655	382.44
599.864	364.44
600.073	360.44
600.282	367.44
600.491	383.44
600.7	380.44
600.909	380.44
601.118	392.44
601.327	402.44
601.536	415.44
601.745	391.44
601.953	398.44
602.162	403.44
602.371	399.44
602.58	414.44
602.789	422.44
602.997	392.44
603.206	422.44
603.415	384.44
603.623	396.44
603.832	411.44
604.041	391.44
604.249	375.44
604.458	361.44
604.666	374.44
604.875	376.44
605.084	383.44
605.292	373.44
605.501	387.44
605.709	379.44
605.918	395.44
606.126	406.44
606.334	390.44
606.543	395.44
606.751	393.44
606.96	401.44
607.168	379.44
607.376	368.44
607.585	380.44
607.793	371.44
608.001	394.44
608.21	392.44
608.418	388.44
608.626	380.44
608.834	378.44
609.043	371.44
609.251	382.44
609.459	380.44
609.667	397.44
609.875	406.44
610.083	421.44
610.291	394.44
610.499	380.44
610.707	405.44
610.916	396.44
611.124	377.44
611.332	386.44
611.54	386.44
611.748	387.44
611.955	377.44
612.163	386.44
612.371	382.44
612.579	367.44
612.787	359.44
612.995	378.44
613.203	376.44
613.411	387.44
613.618	398.44
613.826	387.44
614.034	392.44
614.242	376.44
614.449	395.44
614.657	353.44
614.865	390.44
615.072	370.44
615.28	372.44
615.488	377.44
615.695	380.44
615.903	397.44
616.111	381.44
616.318	372.44
616.526	374.44
616.733	367.44
616.941	367.44
617.148	380.44
617.356	370.44
617.563	376.44
617.771	366.44
617.978	363.44
618.185	380.44
618.393	372.44
618.6	371.44
618.807	362.44
619.015	368.44
619.222	352.44
619.429	344.44
619.637	342.44
619.844	329.44
620.051	349.44
620.258	346.44
620.466	340.44
620.673	340.44
620.88	341.44
621.087	332.44
621.294	322.44
621.501	312.44
621.708	326.44
621.915	349.44
622.122	345.44
622.329	373.44
622.536	363.44
622.743	359.44
622.95	355.44
623.157	339.44
623.364	325.44
623.571	336.44
623.778	358.44
623.985	347.44
624.192	339.44
624.399	337.44
624.606	331.44
624.812	314.44
625.019	326.44
625.226	312.44
625.433	316.44
625.639	307.44
625.846	299.44
626.053	313.44
626.259	290.44
626.466	288.44
626.673	258.44
626.879	264.44
627.086	295.44
627.293	304.44
627.499	314.44
627.706	316.44
627.912	313.44
628.119	306.44
628.325	334.44
628.532	324.44
628.738	338.44
628.945	321.44
629.151	299.44
629.357	304.44
629.564	315.44
629.77	307.44
629.976	291.44
630.183	292.44
630.389	287.44
630.595	297.44
630.802	306.44
631.008	294.44
631.214	288.44
631.42	275.44
631.627	286.44
631.833	272.44
632.039	283.44
632.245	295.44
632.451	280.44
632.657	279.44
632.863	281.44
633.069	284.44
633.275	282.44
633.481	271.44
633.688	276.44
633.893	271.44
634.099	276.44
634.305	271.44
634.511	296.44
634.717	282.44
634.923	267.44
635.129	265.44
635.335	279.44
635.541	254.44
635.747	269.44
635.952	264.44
636.158	270.44
636.364	270.44
636.57	278.44
636.775	286.44
636.981	267.44
637.187	284.44
637.392	278.44
637.598	294.44
637.804	267.44
638.009	254.44
638.215	265.44
638.421	250.44
638.626	264.44
638.832	253.44
639.037	272.44
639.243	254.44
639.448	269.44
639.654	274.44
639.859	248.44
640.065	266.44
640.27	261.44
640.475	273.44
640.681	266.44
640.886	261.44
641.091	259.44
641.297	264.44
641.502	269.44
641.707	271.44
641.913	273.44
642.118	271.44
642.323	245.44
642.528	248.44
642.733	269.44
642.939	246.44
643.144	255.44
643.349	252.44
643.554	245.44
643.759	230.44
643.964	243.44
644.169	255.44
644.374	241.44
644.579	261.44
644.784	263.44
644.989	230.44
645.194	235.44
645.399	246.44
645.604	254.44
645.809	267.44
646.014	251.44
646.219	237.44
646.423	243.44
646.628	258.44
646.833	236.44
647.038	233.44
647.243	278.44
647.447	244.44
647.652	278.44
647.857	259.44
648.062	257.44
648.266	264.44
648.471	242.44
648.676	241.44
648.88	262.44
649.085	254.44
649.289	231.44
649.494	242.44
649.698	246.44
649.903	250.44
650.107	242.44
650.312	238.44
650.516	253.44
650.721	246.44
650.925	238.44
651.13	237.44
651.334	248.44
651.539	233.44
651.743	214.44
651.947	218.44
652.152	238.44
652.356	218.44
652.56	221.44
652.764	227.44
652.969	200.44
653.173	216.44
653.377	222.44
653.581	221.44
653.785	206.44
653.99	230.44
654.194	223.44
654.398	217.44
654.602	215.44
654.806	212.44
655.01	218.44
655.214	211.44
655.418	212.44
655.622	228.44
655.826	225.44
656.03	227.44
656.234	248.44
656.438	270.44
656.642	260.44
656.846	247.44
657.049	244.44
657.253	211.44
657.457	201.44
657.661	179.44
657.865	187.44
658.068	181.44
658.272	157.44
658.476	161.44
658.68	164.44
658.883	151.44
659.087	144.44
659.291	139.44
659.494	150.44
659.698	132.44
659.901	134.44
660.105	134.44
660.309	143.44
660.512	124.44
660.716	136.44
660.919	124.44
661.123	118.44
661.326	122.44
661.53	109.44
661.733	110.44
661.936	107.44
662.14	95.44
662.343	106.44
662.546	113.44
662.75	98.44
662.953	94.44
663.156	86.44
663.36	85.44
663.563	92.44
663.766	79.44
663.969	100.44
664.173	93.44
664.376	76.44
664.579	95.44
664.782	89.44
664.985	80.44
665.188	95.44
665.391	103.44
665.594	76.44
665.797	94.44
666	80.44
666.203	74.44
666.406	87.44
666.609	81.44
666.812	79.44
667.015	73.44
667.218	107.44
667.421	83.44
667.624	76.44
667.827	88.44
668.03	92.44
668.232	83.44
668.435	98.44
668.638	94.44
668.841	83.44
669.043	76.44
669.246	86.44
669.449	83.44
669.651	90.44
669.854	93.44
670.057	87.44
670.259	88.44
670.462	89.44
670.665	82.44
670.867	81.44
671.07	94.44
671.272	98.44
671.475	94.44
671.677	82.44
671.88	84.44
672.082	91.44
672.284	76.44
672.487	83.44
672.689	86.44
672.892	85.44
