Data from WStandard_LampEnergy10_LIBS07252019.E.O._I.C._HRD10591_15-54-19-928.txt Node
Date: Thu Jul 25 15:54:19 EDT 2019
User: cochatt
Spectrometer: HR+D1059
Trigger mode: 1
Integration Time (sec): 1.000000E-1
Scans to average: 1
Electric dark correction enabled: true
Nonlinearity correction enabled: false
Boxcar width: 0
XAxis mode: Wavelengths
Number of Pixels in Spectrum: 2048
>>>>>Begin Spectral Data<<<<<
223.165	-5.31
223.4	-5.31
223.635	-5.31
223.869	-20.31
224.104	-18.31
224.338	-11.31
224.573	-14.31
224.808	-14.31
225.042	-5.31
225.277	-8.31
225.511	-11.31
225.746	8.69
225.98	5.69
226.215	0.69
226.449	12.69
226.683	21.69
226.918	24.69
227.152	34.69
227.387	20.69
227.621	42.69
227.856	43.69
228.09	39.69
228.324	60.69
228.559	57.69
228.793	91.69
229.027	139.69
229.262	141.69
229.496	145.69
229.73	141.69
229.964	173.69
230.199	160.69
230.433	164.69
230.667	181.69
230.901	183.69
231.136	170.69
231.37	187.69
231.604	181.69
231.838	165.69
232.072	168.69
232.306	179.69
232.541	202.69
232.775	196.69
233.009	216.69
233.243	203.69
233.477	185.69
233.711	187.69
233.945	204.69
234.179	198.69
234.413	211.69
234.647	213.69
234.881	185.69
235.115	211.69
235.349	201.69
235.583	201.69
235.817	211.69
236.051	197.69
236.285	188.69
236.519	218.69
236.753	212.69
236.987	229.69
237.221	231.69
237.455	220.69
237.689	227.69
237.922	210.69
238.156	228.69
238.39	213.69
238.624	224.69
238.858	231.69
239.091	259.69
239.325	233.69
239.559	285.69
239.793	278.69
240.027	310.69
240.26	291.69
240.494	229.69
240.728	243.69
240.961	250.69
241.195	236.69
241.429	259.69
241.662	248.69
241.896	244.69
242.13	248.69
242.363	266.69
242.597	290.69
242.83	266.69
243.064	276.69
243.298	293.69
243.531	282.69
243.765	277.69
243.998	271.69
244.232	248.69
244.465	242.69
244.699	261.69
244.932	281.69
245.166	321.69
245.399	289.69
245.633	299.69
245.866	266.69
246.099	297.69
246.333	305.69
246.566	317.69
246.8	315.69
247.033	350.69
247.266	323.69
247.5	305.69
247.733	316.69
247.966	319.69
248.2	375.69
248.433	354.69
248.666	358.69
248.899	384.69
249.133	438.69
249.366	478.69
249.599	377.69
249.832	370.69
250.066	354.69
250.299	373.69
250.532	341.69
250.765	314.69
250.998	346.69
251.231	338.69
251.465	354.69
251.698	333.69
251.931	352.69
252.164	344.69
252.397	363.69
252.63	348.69
252.863	320.69
253.096	332.69
253.329	336.69
253.562	344.69
253.795	384.69
254.028	342.69
254.261	339.69
254.494	335.69
254.727	338.69
254.96	384.69
255.193	373.69
255.426	419.69
255.659	442.69
255.892	439.69
256.124	407.69
256.357	368.69
256.59	405.69
256.823	389.69
257.056	431.69
257.289	473.69
257.521	490.69
257.754	461.69
257.987	467.69
258.22	497.69
258.452	441.69
258.685	394.69
258.918	388.69
259.151	394.69
259.383	384.69
259.616	368.69
259.849	365.69
260.081	409.69
260.314	452.69
260.547	489.69
260.779	472.69
261.012	435.69
261.244	402.69
261.477	393.69
261.71	391.69
261.942	414.69
262.175	401.69
262.407	395.69
262.64	373.69
262.872	373.69
263.105	358.69
263.337	378.69
263.57	378.69
263.802	377.69
264.035	359.69
264.267	357.69
264.499	354.69
264.732	373.69
264.964	373.69
265.197	410.69
265.429	415.69
265.661	441.69
265.894	495.69
266.126	492.69
266.358	470.69
266.591	464.69
266.823	493.69
267.055	443.69
267.287	440.69
267.52	451.69
267.752	447.69
267.984	445.69
268.216	452.69
268.448	457.69
268.681	454.69
268.913	418.69
269.145	410.69
269.377	423.69
269.609	426.69
269.841	495.69
270.073	570.69
270.306	605.69
270.538	621.69
270.77	530.69
271.002	467.69
271.234	460.69
271.466	476.69
271.698	537.69
271.93	606.69
272.162	589.69
272.394	541.69
272.626	517.69
272.858	453.69
273.09	429.69
273.322	443.69
273.553	397.69
273.785	405.69
274.017	409.69
274.249	450.69
274.481	439.69
274.713	423.69
274.945	437.69
275.176	419.69
275.408	401.69
275.64	400.69
275.872	406.69
276.104	434.69
276.335	463.69
276.567	535.69
276.799	531.69
277.031	485.69
277.262	469.69
277.494	483.69
277.726	527.69
277.957	530.69
278.189	470.69
278.421	457.69
278.652	419.69
278.884	418.69
279.115	434.69
279.347	454.69
279.579	436.69
279.81	448.69
280.042	472.69
280.273	511.69
280.505	492.69
280.736	511.69
280.968	460.69
281.199	433.69
281.431	443.69
281.662	424.69
281.894	419.69
282.125	421.69
282.356	468.69
282.588	453.69
282.819	451.69
283.051	491.69
283.282	520.69
283.513	484.69
283.745	448.69
283.976	421.69
284.207	422.69
284.439	428.69
284.67	438.69
284.901	445.69
285.132	460.69
285.364	453.69
285.595	458.69
285.826	452.69
286.057	445.69
286.288	452.69
286.52	463.69
286.751	496.69
286.982	509.69
287.213	450.69
287.444	434.69
287.675	448.69
287.906	484.69
288.138	513.69
288.369	471.69
288.6	457.69
288.831	455.69
289.062	440.69
289.293	451.69
289.524	451.69
289.755	445.69
289.986	461.69
290.217	438.69
290.448	459.69
290.679	459.69
290.91	473.69
291.141	475.69
291.371	497.69
291.602	472.69
291.833	497.69
292.064	474.69
292.295	514.69
292.526	509.69
292.757	533.69
292.987	513.69
293.218	479.69
293.449	536.69
293.68	584.69
293.91	586.69
294.141	539.69
294.372	521.69
294.603	544.69
294.833	578.69
295.064	533.69
295.295	497.69
295.525	470.69
295.756	456.69
295.987	436.69
296.217	451.69
296.448	477.69
296.679	443.69
296.909	478.69
297.14	449.69
297.37	471.69
297.601	501.69
297.831	538.69
298.062	514.69
298.292	481.69
298.523	480.69
298.753	473.69
298.984	480.69
299.214	492.69
299.445	497.69
299.675	491.69
299.905	493.69
300.136	481.69
300.366	477.69
300.597	463.69
300.827	497.69
301.057	518.69
301.288	524.69
301.518	509.69
301.748	502.69
301.979	549.69
302.209	550.69
302.439	572.69
302.669	597.69
302.9	565.69
303.13	504.69
303.36	513.69
303.59	545.69
303.82	522.69
304.051	523.69
304.281	529.69
304.511	532.69
304.741	570.69
304.971	607.69
305.201	632.69
305.431	547.69
305.661	490.69
305.891	460.69
306.121	451.69
306.352	490.69
306.582	509.69
306.812	539.69
307.042	581.69
307.272	579.69
307.502	611.69
307.731	625.69
307.961	647.69
308.191	569.69
308.421	530.69
308.651	525.69
308.881	512.69
309.111	506.69
309.341	498.69
309.571	509.69
309.8	505.69
310.03	491.69
310.26	499.69
310.49	513.69
310.72	507.69
310.949	531.69
311.179	512.69
311.409	533.69
311.639	524.69
311.868	531.69
312.098	535.69
312.328	491.69
312.557	512.69
312.787	519.69
313.017	518.69
313.246	509.69
313.476	526.69
313.706	518.69
313.935	529.69
314.165	554.69
314.394	568.69
314.624	593.69
314.853	618.69
315.083	623.69
315.312	609.69
315.542	575.69
315.771	553.69
316.001	519.69
316.23	584.69
316.46	568.69
316.689	547.69
316.919	513.69
317.148	536.69
317.377	518.69
317.607	586.69
317.836	621.69
318.065	643.69
318.295	633.69
318.524	586.69
318.753	581.69
318.983	576.69
319.212	584.69
319.441	543.69
319.67	542.69
319.9	573.69
320.129	613.69
320.358	605.69
320.587	645.69
320.816	608.69
321.046	601.69
321.275	592.69
321.504	597.69
321.733	637.69
321.962	600.69
322.191	573.69
322.42	551.69
322.649	557.69
322.878	539.69
323.108	563.69
323.337	580.69
323.566	596.69
323.795	604.69
324.024	564.69
324.253	574.69
324.482	568.69
324.71	544.69
324.939	525.69
325.168	527.69
325.397	586.69
325.626	596.69
325.855	584.69
326.084	581.69
326.313	554.69
326.542	559.69
326.77	596.69
326.999	569.69
327.228	550.69
327.457	553.69
327.686	530.69
327.914	541.69
328.143	551.69
328.372	547.69
328.6	562.69
328.829	557.69
329.058	547.69
329.287	555.69
329.515	569.69
329.744	603.69
329.972	616.69
330.201	625.69
330.43	625.69
330.658	593.69
330.887	634.69
331.115	603.69
331.344	607.69
331.572	592.69
331.801	569.69
332.03	587.69
332.258	615.69
332.486	634.69
332.715	617.69
332.943	597.69
333.172	597.69
333.4	615.69
333.629	648.69
333.857	671.69
334.085	761.69
334.314	827.69
334.542	844.69
334.771	760.69
334.999	682.69
335.227	670.69
335.455	623.69
335.684	643.69
335.912	674.69
336.14	648.69
336.369	657.69
336.597	613.69
336.825	609.69
337.053	642.69
337.281	681.69
337.51	680.69
337.738	680.69
337.966	668.69
338.194	634.69
338.422	600.69
338.65	588.69
338.878	585.69
339.106	570.69
339.334	554.69
339.562	553.69
339.79	589.69
340.018	630.69
340.246	629.69
340.474	640.69
340.702	617.69
340.93	641.69
341.158	623.69
341.386	597.69
341.614	613.69
341.842	578.69
342.07	599.69
342.298	599.69
342.526	615.69
342.754	600.69
342.981	611.69
343.209	580.69
343.437	587.69
343.665	594.69
343.893	613.69
344.12	645.69
344.348	657.69
344.576	597.69
344.804	591.69
345.031	609.69
345.259	598.69
345.487	570.69
345.714	550.69
345.942	544.69
346.17	578.69
346.397	577.69
346.625	575.69
346.853	546.69
347.08	531.69
347.308	557.69
347.535	577.69
347.763	582.69
347.99	567.69
348.218	580.69
348.445	556.69
348.673	542.69
348.9	600.69
349.128	586.69
349.355	609.69
349.583	581.69
349.81	554.69
350.037	539.69
350.265	533.69
350.492	538.69
350.72	544.69
350.947	597.69
351.174	575.69
351.402	565.69
351.629	533.69
351.856	521.69
352.083	520.69
352.311	535.69
352.538	548.69
352.765	561.69
352.992	575.69
353.22	559.69
353.447	563.69
353.674	561.69
353.901	590.69
354.128	550.69
354.355	570.69
354.583	573.69
354.81	582.69
355.037	596.69
355.264	588.69
355.491	577.69
355.718	561.69
355.945	575.69
356.172	554.69
356.399	547.69
356.626	560.69
356.853	600.69
357.08	639.69
357.307	689.69
357.534	645.69
357.761	576.69
357.988	581.69
358.215	573.69
358.441	544.69
358.668	551.69
358.895	569.69
359.122	618.69
359.349	615.69
359.576	622.69
359.802	593.69
360.029	556.69
360.256	538.69
360.483	569.69
360.709	598.69
360.936	611.69
361.163	631.69
361.39	691.69
361.616	714.69
361.843	710.69
362.07	641.69
362.296	567.69
362.523	590.69
362.749	579.69
362.976	581.69
363.203	602.69
363.429	563.69
363.656	586.69
363.882	616.69
364.109	648.69
364.335	655.69
364.562	651.69
364.788	593.69
365.015	571.69
365.241	577.69
365.468	593.69
365.694	607.69
365.92	620.69
366.147	576.69
366.373	562.69
366.599	569.69
366.826	563.69
367.052	556.69
367.278	561.69
367.505	575.69
367.731	603.69
367.957	600.69
368.184	630.69
368.41	682.69
368.636	661.69
368.862	682.69
369.089	661.69
369.315	637.69
369.541	628.69
369.767	618.69
369.993	597.69
370.219	600.69
370.445	614.69
370.672	670.69
370.898	673.69
371.124	661.69
371.35	647.69
371.576	672.69
371.802	678.69
372.028	647.69
372.254	639.69
372.48	614.69
372.706	600.69
372.932	578.69
373.158	603.69
373.384	647.69
373.61	655.69
373.835	664.69
374.061	641.69
374.287	648.69
374.513	645.69
374.739	638.69
374.965	645.69
375.191	644.69
375.416	635.69
375.642	675.69
375.868	705.69
376.094	708.69
376.319	671.69
376.545	656.69
376.771	691.69
376.997	722.69
377.222	692.69
377.448	654.69
377.674	665.69
377.899	687.69
378.125	699.69
378.35	693.69
378.576	647.69
378.802	618.69
379.027	602.69
379.253	645.69
379.478	673.69
379.704	631.69
379.929	635.69
380.155	623.69
380.38	653.69
380.606	651.69
380.831	649.69
381.057	722.69
381.282	704.69
381.507	687.69
381.733	719.69
381.958	744.69
382.184	689.69
382.409	683.69
382.634	676.69
382.86	671.69
383.085	673.69
383.31	727.69
383.535	781.69
383.761	791.69
383.986	760.69
384.211	742.69
384.436	753.69
384.662	782.69
384.887	764.69
385.112	739.69
385.337	739.69
385.562	716.69
385.787	751.69
386.013	751.69
386.238	758.69
386.463	792.69
386.688	826.69
386.913	874.69
387.138	812.69
387.363	794.69
387.588	753.69
387.813	756.69
388.038	807.69
388.263	796.69
388.488	744.69
388.713	716.69
388.938	724.69
389.163	724.69
389.387	756.69
389.612	748.69
389.837	761.69
390.062	785.69
390.287	780.69
390.512	767.69
390.736	707.69
390.961	724.69
391.186	737.69
391.411	736.69
391.636	756.69
391.86	751.69
392.085	773.69
392.31	785.69
392.534	773.69
392.759	753.69
392.984	756.69
393.208	765.69
393.433	797.69
393.658	828.69
393.882	818.69
394.107	783.69
394.331	755.69
394.556	812.69
394.78	781.69
395.005	821.69
395.229	830.69
395.454	897.69
395.678	853.69
395.903	836.69
396.127	827.69
396.352	835.69
396.576	843.69
396.801	853.69
397.025	833.69
397.249	844.69
397.474	792.69
397.698	831.69
397.922	857.69
398.147	872.69
398.371	929.69
398.595	938.69
398.82	889.69
399.044	890.69
399.268	936.69
399.492	951.69
399.717	995.69
399.941	974.69
400.165	983.69
400.389	953.69
400.613	986.69
400.837	1139.69
401.062	1237.69
401.286	1044.69
401.51	1000.69
401.734	987.69
401.958	967.69
402.182	909.69
402.406	868.69
402.63	907.69
402.854	879.69
403.078	866.69
403.302	909.69
403.526	938.69
403.75	940.69
403.974	930.69
404.198	945.69
404.422	992.69
404.645	1003.69
404.869	955.69
405.093	936.69
405.317	908.69
405.541	938.69
405.765	935.69
405.988	923.69
406.212	941.69
406.436	975.69
406.66	985.69
406.883	1016.69
407.107	1150.69
407.331	1204.69
407.555	1273.69
407.778	1127.69
408.002	1009.69
408.226	970.69
408.449	989.69
408.673	963.69
408.896	953.69
409.12	963.69
409.344	978.69
409.567	928.69
409.791	955.69
410.014	1007.69
410.238	1056.69
410.461	1062.69
410.685	986.69
410.908	945.69
411.132	945.69
411.355	944.69
411.578	940.69
411.802	949.69
412.025	938.69
412.249	927.69
412.472	919.69
412.695	937.69
412.919	908.69
413.142	889.69
413.365	912.69
413.589	959.69
413.812	1001.69
414.035	1006.69
414.258	967.69
414.482	934.69
414.705	920.69
414.928	912.69
415.151	922.69
415.374	916.69
415.597	938.69
415.821	960.69
416.044	963.69
416.267	951.69
416.49	916.69
416.713	921.69
416.936	949.69
417.159	972.69
417.382	968.69
417.605	925.69
417.828	925.69
418.051	974.69
418.274	952.69
418.497	949.69
418.72	917.69
418.943	932.69
419.166	949.69
419.389	978.69
419.611	958.69
419.834	960.69
420.057	946.69
420.28	928.69
420.503	949.69
420.726	932.69
420.948	931.69
421.171	930.69
421.394	962.69
421.617	992.69
421.839	983.69
422.062	979.69
422.285	943.69
422.507	920.69
422.73	903.69
422.953	895.69
423.175	903.69
423.398	944.69
423.621	925.69
423.843	948.69
424.066	992.69
424.288	1044.69
424.511	1026.69
424.733	1011.69
424.956	933.69
425.178	921.69
425.401	928.69
425.623	935.69
425.846	929.69
426.068	969.69
426.291	973.69
426.513	940.69
426.735	947.69
426.958	1041.69
427.18	1083.69
427.402	1000.69
427.625	1020.69
427.847	1004.69
428.069	922.69
428.292	936.69
428.514	896.69
428.736	897.69
428.958	927.69
429.181	920.69
429.403	1091.69
429.625	1235.69
429.847	1050.69
430.069	964.69
430.292	1017.69
430.514	1011.69
430.736	982.69
430.958	987.69
431.18	928.69
431.402	884.69
431.624	875.69
431.846	805.69
432.068	748.69
432.29	752.69
432.512	820.69
432.734	902.69
432.956	943.69
433.178	985.69
433.4	957.69
433.622	947.69
433.844	908.69
434.066	853.69
434.287	828.69
434.509	797.69
434.731	821.69
434.953	911.69
435.175	922.69
435.397	907.69
435.618	907.69
435.84	851.69
436.062	836.69
436.284	915.69
436.505	919.69
436.727	947.69
436.949	937.69
437.17	910.69
437.392	899.69
437.614	852.69
437.835	801.69
438.057	838.69
438.278	864.69
438.5	854.69
438.721	914.69
438.943	930.69
439.165	925.69
439.386	906.69
439.608	972.69
439.829	970.69
440.05	959.69
440.272	969.69
440.493	964.69
440.715	965.69
440.936	1029.69
441.158	1040.69
441.379	1095.69
441.6	1025.69
441.822	1042.69
442.043	1035.69
442.264	993.69
442.486	969.69
442.707	983.69
442.928	940.69
443.149	975.69
443.371	993.69
443.592	1017.69
443.813	1029.69
444.034	1012.69
444.255	1031.69
444.476	1046.69
444.698	1033.69
444.919	1060.69
445.14	1176.69
445.361	1115.69
445.582	1091.69
445.803	1073.69
446.024	1043.69
446.245	1086.69
446.466	1095.69
446.687	1063.69
446.908	1064.69
447.129	1052.69
447.35	972.69
447.571	1000.69
447.792	960.69
448.013	968.69
448.234	969.69
448.455	967.69
448.675	979.69
448.896	913.69
449.117	918.69
449.338	933.69
449.559	943.69
449.779	973.69
450	1037.69
450.221	1072.69
450.442	1028.69
450.662	931.69
450.883	860.69
451.104	897.69
451.324	895.69
451.545	892.69
451.766	893.69
451.986	857.69
452.207	836.69
452.428	809.69
452.648	789.69
452.869	777.69
453.089	780.69
453.31	780.69
453.53	787.69
453.751	730.69
453.971	721.69
454.192	714.69
454.412	780.69
454.633	793.69
454.853	773.69
455.073	761.69
455.294	779.69
455.514	787.69
455.734	753.69
455.955	756.69
456.175	757.69
456.395	742.69
456.616	751.69
456.836	745.69
457.056	766.69
457.276	743.69
457.497	697.69
457.717	705.69
457.937	715.69
458.157	710.69
458.377	708.69
458.598	705.69
458.818	659.69
459.038	712.69
459.258	703.69
459.478	717.69
459.698	734.69
459.918	755.69
460.138	785.69
460.358	817.69
460.578	843.69
460.798	856.69
461.018	909.69
461.238	875.69
461.458	856.69
461.678	869.69
461.898	858.69
462.118	829.69
462.338	845.69
462.558	841.69
462.777	863.69
462.997	874.69
463.217	918.69
463.437	874.69
463.657	823.69
463.876	836.69
464.096	835.69
464.316	840.69
464.536	869.69
464.755	861.69
464.975	880.69
465.195	869.69
465.414	882.69
465.634	884.69
465.854	901.69
466.073	981.69
466.293	948.69
466.512	882.69
466.732	882.69
466.951	923.69
467.171	907.69
467.391	906.69
467.61	897.69
467.829	908.69
468.049	1002.69
468.268	1044.69
468.488	961.69
468.707	910.69
468.927	915.69
469.146	920.69
469.365	919.69
469.585	937.69
469.804	921.69
470.023	936.69
470.243	955.69
470.462	938.69
470.681	945.69
470.901	939.69
471.12	922.69
471.339	948.69
471.558	931.69
471.777	895.69
471.997	913.69
472.216	842.69
472.435	777.69
472.654	781.69
472.873	772.69
473.092	855.69
473.311	824.69
473.53	812.69
473.749	819.69
473.968	847.69
474.187	860.69
474.406	837.69
474.625	848.69
474.844	872.69
475.063	872.69
475.282	880.69
475.501	844.69
475.72	887.69
475.939	936.69
476.158	897.69
476.377	859.69
476.596	850.69
476.814	874.69
477.033	815.69
477.252	853.69
477.471	915.69
477.69	907.69
477.908	942.69
478.127	1000.69
478.346	1023.69
478.564	1023.69
478.783	1018.69
479.002	1048.69
479.22	1000.69
479.439	1045.69
479.658	1067.69
479.876	1013.69
480.095	910.69
480.313	917.69
480.532	876.69
480.751	881.69
480.969	829.69
481.188	802.69
481.406	807.69
481.624	804.69
481.843	778.69
482.061	835.69
482.28	897.69
482.498	916.69
482.717	890.69
482.935	920.69
483.153	963.69
483.372	1035.69
483.59	1006.69
483.808	977.69
484.027	964.69
484.245	1003.69
484.463	1198.69
484.681	1301.69
484.9	1005.69
485.118	988.69
485.336	935.69
485.554	910.69
485.772	897.69
485.99	882.69
486.209	899.69
486.427	906.69
486.645	951.69
486.863	1026.69
487.081	1028.69
487.299	1004.69
487.517	1037.69
487.735	1114.69
487.953	1203.69
488.171	1213.69
488.389	1126.69
488.607	1079.69
488.825	1157.69
489.043	1071.69
489.261	981.69
489.479	1053.69
489.696	1076.69
489.914	1069.69
490.132	1041.69
490.35	1118.69
490.568	1189.69
490.786	1175.69
491.003	1213.69
491.221	1248.69
491.439	1310.69
491.657	1344.69
491.874	1349.69
492.092	1460.69
492.31	1501.69
492.527	1467.69
492.745	1386.69
492.963	1320.69
493.18	1317.69
493.398	1355.69
493.615	1327.69
493.833	1231.69
494.05	1240.69
494.268	1228.69
494.485	1267.69
494.703	1250.69
494.92	1247.69
495.138	1227.69
495.355	1242.69
495.573	1292.69
495.79	1315.69
496.008	1305.69
496.225	1245.69
496.442	1264.69
496.66	1279.69
496.877	1226.69
497.094	1233.69
497.312	1238.69
497.529	1189.69
497.746	1199.69
497.963	1267.69
498.181	1343.69
498.398	1284.69
498.615	1249.69
498.832	1155.69
499.049	1153.69
499.267	1187.69
499.484	1268.69
499.701	1367.69
499.918	1442.69
500.135	1480.69
500.352	1592.69
500.569	1606.69
500.786	1705.69
501.003	1569.69
501.22	1436.69
501.437	1395.69
501.654	1430.69
501.871	1366.69
502.088	1211.69
502.305	1187.69
502.522	1173.69
502.739	1140.69
502.956	1080.69
503.172	1071.69
503.389	1031.69
503.606	1014.69
503.823	1024.69
504.04	1004.69
504.256	996.69
504.473	977.69
504.69	1022.69
504.907	1000.69
505.123	1010.69
505.34	1075.69
505.557	1378.69
505.773	1115.69
505.99	985.69
506.207	900.69
506.423	897.69
506.64	889.69
506.856	914.69
507.073	1036.69
507.289	1096.69
507.506	1023.69
507.722	885.69
507.939	860.69
508.155	852.69
508.372	872.69
508.588	831.69
508.805	836.69
509.021	787.69
509.238	785.69
509.454	754.69
509.67	765.69
509.887	760.69
510.103	735.69
510.319	735.69
510.536	770.69
510.752	802.69
510.968	778.69
511.184	820.69
511.401	784.69
511.617	699.69
511.833	716.69
512.049	704.69
512.265	716.69
512.481	717.69
512.698	748.69
512.914	775.69
513.13	770.69
513.346	744.69
513.562	694.69
513.778	712.69
513.994	747.69
514.21	753.69
514.426	781.69
514.642	816.69
514.858	769.69
515.074	753.69
515.29	717.69
515.506	734.69
515.721	734.69
515.937	770.69
516.153	798.69
516.369	811.69
516.585	763.69
516.801	725.69
517.016	761.69
517.232	781.69
517.448	778.69
517.664	791.69
517.879	812.69
518.095	808.69
518.311	788.69
518.527	745.69
518.742	759.69
518.958	748.69
519.173	771.69
519.389	785.69
519.605	803.69
519.82	803.69
520.036	795.69
520.251	748.69
520.467	789.69
520.682	840.69
520.898	799.69
521.113	732.69
521.329	716.69
521.544	754.69
521.76	759.69
521.975	733.69
522.19	711.69
522.406	731.69
522.621	954.69
522.836	880.69
523.052	741.69
523.267	747.69
523.482	753.69
523.698	725.69
523.913	740.69
524.128	769.69
524.343	828.69
524.559	831.69
524.774	795.69
524.989	772.69
525.204	762.69
525.419	722.69
525.634	740.69
525.849	727.69
526.064	736.69
526.28	743.69
526.495	664.69
526.71	648.69
526.925	649.69
527.14	641.69
527.355	640.69
527.57	648.69
527.785	669.69
527.999	657.69
528.214	674.69
528.429	713.69
528.644	757.69
528.859	789.69
529.074	829.69
529.289	871.69
529.503	877.69
529.718	820.69
529.933	735.69
530.148	680.69
530.363	654.69
530.577	661.69
530.792	646.69
531.007	645.69
531.221	617.69
531.436	649.69
531.651	648.69
531.865	688.69
532.08	649.69
532.295	627.69
532.509	620.69
532.724	618.69
532.938	644.69
533.153	711.69
533.367	729.69
533.582	748.69
533.796	734.69
534.011	720.69
534.225	682.69
534.44	649.69
534.654	647.69
534.868	646.69
535.083	709.69
535.297	712.69
535.511	668.69
535.726	696.69
535.94	689.69
536.154	642.69
536.369	611.69
536.583	623.69
536.797	619.69
537.011	634.69
537.225	611.69
537.44	589.69
537.654	673.69
537.868	642.69
538.082	615.69
538.296	598.69
538.51	639.69
538.724	681.69
538.938	724.69
539.153	725.69
539.367	717.69
539.581	689.69
539.795	687.69
540.009	664.69
540.222	655.69
540.436	674.69
540.65	717.69
540.864	782.69
541.078	833.69
541.292	857.69
541.506	907.69
541.72	984.69
541.934	1011.69
542.147	1046.69
542.361	1028.69
542.575	919.69
542.789	863.69
543.002	805.69
543.216	759.69
543.43	785.69
543.644	798.69
543.857	882.69
544.071	957.69
544.285	933.69
544.498	917.69
544.712	919.69
544.925	934.69
545.139	979.69
545.352	966.69
545.566	929.69
545.779	910.69
545.993	949.69
546.206	978.69
546.42	982.69
546.633	975.69
546.847	957.69
547.06	948.69
547.274	956.69
547.487	997.69
547.7	998.69
547.914	969.69
548.127	984.69
548.34	970.69
548.554	941.69
548.767	928.69
548.98	945.69
549.193	930.69
549.407	967.69
549.62	971.69
549.833	931.69
550.046	929.69
550.259	918.69
550.473	899.69
550.686	894.69
550.899	859.69
551.112	866.69
551.325	824.69
551.538	859.69
551.751	887.69
551.964	728.69
552.177	753.69
552.39	796.69
552.603	853.69
552.816	857.69
553.029	915.69
553.242	951.69
553.455	935.69
553.667	921.69
553.88	895.69
554.093	872.69
554.306	852.69
554.519	833.69
554.732	859.69
554.944	837.69
555.157	828.69
555.37	820.69
555.583	809.69
555.795	781.69
556.008	739.69
556.221	723.69
556.433	716.69
556.646	738.69
556.859	722.69
557.071	735.69
557.284	759.69
557.496	763.69
557.709	753.69
557.921	737.69
558.134	747.69
558.346	737.69
558.559	715.69
558.771	719.69
558.984	716.69
559.196	684.69
559.409	688.69
559.621	682.69
559.833	669.69
560.046	692.69
560.258	699.69
560.47	689.69
560.683	691.69
560.895	683.69
561.107	700.69
561.32	677.69
561.532	676.69
561.744	697.69
561.956	685.69
562.168	683.69
562.381	671.69
562.593	653.69
562.805	653.69
563.017	647.69
563.229	623.69
563.441	635.69
563.653	639.69
563.865	630.69
564.077	601.69
564.289	618.69
564.501	628.69
564.713	657.69
564.925	676.69
565.137	676.69
565.349	625.69
565.561	615.69
565.773	648.69
565.985	639.69
566.197	644.69
566.408	696.69
566.62	680.69
566.832	654.69
567.044	673.69
567.255	667.69
567.467	663.69
567.679	656.69
567.891	683.69
568.102	613.69
568.314	605.69
568.526	536.69
568.737	526.69
568.949	499.69
569.161	468.69
569.372	449.69
569.584	463.69
569.795	451.69
570.007	467.69
570.218	448.69
570.43	428.69
570.641	450.69
570.853	460.69
571.064	473.69
571.276	509.69
571.487	489.69
571.698	475.69
571.91	472.69
572.121	479.69
572.333	450.69
572.544	448.69
572.755	436.69
572.966	398.69
573.178	405.69
573.389	396.69
573.6	395.69
573.811	448.69
574.023	396.69
574.234	380.69
574.445	393.69
574.656	379.69
574.867	398.69
575.078	412.69
575.289	408.69
575.501	398.69
575.712	411.69
575.923	397.69
576.134	416.69
576.345	394.69
576.556	409.69
576.767	399.69
576.978	398.69
577.188	396.69
577.399	387.69
577.61	390.69
577.821	368.69
578.032	358.69
578.243	368.69
578.454	360.69
578.665	351.69
578.875	356.69
579.086	349.69
579.297	346.69
579.508	376.69
579.718	346.69
579.929	346.69
580.14	354.69
580.35	333.69
580.561	347.69
580.772	377.69
580.982	359.69
581.193	341.69
581.403	347.69
581.614	351.69
581.825	346.69
582.035	354.69
582.246	360.69
582.456	339.69
582.667	359.69
582.877	343.69
583.087	348.69
583.298	328.69
583.508	348.69
583.719	336.69
583.929	330.69
584.139	315.69
584.35	310.69
584.56	307.69
584.77	328.69
584.981	332.69
585.191	350.69
585.401	345.69
585.611	337.69
585.821	316.69
586.032	321.69
586.242	315.69
586.452	327.69
586.662	329.69
586.872	321.69
587.082	297.69
587.292	317.69
587.502	306.69
587.713	318.69
587.923	322.69
588.133	332.69
588.343	308.69
588.553	328.69
588.762	316.69
588.972	313.69
589.182	320.69
589.392	304.69
589.602	313.69
589.812	325.69
590.022	305.69
590.232	330.69
590.441	309.69
590.651	329.69
590.861	316.69
591.071	309.69
591.281	328.69
591.49	315.69
591.7	307.69
591.91	311.69
592.119	320.69
592.329	322.69
592.539	322.69
592.748	339.69
592.958	317.69
593.167	306.69
593.377	333.69
593.587	340.69
593.796	315.69
594.006	348.69
594.215	328.69
594.424	330.69
594.634	344.69
594.843	359.69
595.053	357.69
595.262	333.69
595.472	313.69
595.681	321.69
595.89	326.69
596.1	306.69
596.309	326.69
596.518	329.69
596.727	331.69
596.937	344.69
597.146	324.69
597.355	315.69
597.564	307.69
597.774	295.69
597.983	291.69
598.192	275.69
598.401	289.69
598.61	304.69
598.819	284.69
599.028	313.69
599.237	304.69
599.446	298.69
599.655	306.69
599.864	290.69
600.073	287.69
600.282	294.69
600.491	293.69
600.7	296.69
600.909	298.69
601.118	316.69
601.327	337.69
601.536	348.69
601.745	339.69
601.953	334.69
602.162	352.69
602.371	371.69
602.58	353.69
602.789	355.69
602.997	359.69
603.206	351.69
603.415	354.69
603.623	344.69
603.832	368.69
604.041	346.69
604.249	315.69
604.458	305.69
604.666	307.69
604.875	306.69
605.084	319.69
605.292	343.69
605.501	349.69
605.709	352.69
605.918	400.69
606.126	371.69
606.334	369.69
606.543	381.69
606.751	366.69
606.96	367.69
607.168	352.69
607.376	354.69
607.585	360.69
607.793	352.69
608.001	360.69
608.21	367.69
608.418	359.69
608.626	375.69
608.834	355.69
609.043	375.69
609.251	357.69
609.459	345.69
609.667	372.69
609.875	369.69
610.083	376.69
610.291	377.69
610.499	379.69
610.707	369.69
610.916	365.69
611.124	359.69
611.332	356.69
611.54	367.69
611.748	365.69
611.955	359.69
612.163	367.69
612.371	385.69
612.579	376.69
612.787	375.69
612.995	376.69
613.203	370.69
613.411	371.69
613.618	375.69
613.826	375.69
614.034	358.69
614.242	362.69
614.449	365.69
614.657	365.69
614.865	376.69
615.072	367.69
615.28	379.69
615.488	360.69
615.695	376.69
615.903	358.69
616.111	350.69
616.318	368.69
616.526	383.69
616.733	355.69
616.941	355.69
617.148	346.69
617.356	341.69
617.563	352.69
617.771	338.69
617.978	337.69
618.185	348.69
618.393	352.69
618.6	344.69
618.807	333.69
619.015	336.69
619.222	343.69
619.429	324.69
619.637	328.69
619.844	294.69
620.051	310.69
620.258	298.69
620.466	322.69
620.673	319.69
620.88	310.69
621.087	307.69
621.294	311.69
621.501	284.69
621.708	293.69
621.915	317.69
622.122	312.69
622.329	328.69
622.536	312.69
622.743	319.69
622.95	324.69
623.157	314.69
623.364	332.69
623.571	339.69
623.778	325.69
623.985	330.69
624.192	323.69
624.399	315.69
624.606	324.69
624.812	317.69
625.019	312.69
625.226	282.69
625.433	283.69
625.639	271.69
625.846	256.69
626.053	251.69
626.259	236.69
626.466	249.69
626.673	251.69
626.879	243.69
627.086	250.69
627.293	262.69
627.499	303.69
627.706	306.69
627.912	312.69
628.119	318.69
628.325	291.69
628.532	310.69
628.738	301.69
628.945	288.69
629.151	260.69
629.357	292.69
629.564	280.69
629.77	309.69
629.976	297.69
630.183	290.69
630.389	250.69
630.595	290.69
630.802	273.69
631.008	289.69
631.214	283.69
631.42	283.69
631.627	265.69
631.833	262.69
632.039	255.69
632.245	278.69
632.451	292.69
632.657	274.69
632.863	259.69
633.069	274.69
633.275	259.69
633.481	260.69
633.688	255.69
633.893	247.69
634.099	257.69
634.305	253.69
634.511	251.69
634.717	229.69
634.923	237.69
635.129	231.69
635.335	233.69
635.541	244.69
635.747	245.69
635.952	252.69
636.158	275.69
636.364	258.69
636.57	255.69
636.775	274.69
636.981	271.69
637.187	277.69
637.392	273.69
637.598	280.69
637.804	248.69
638.009	266.69
638.215	279.69
638.421	240.69
638.626	247.69
638.832	259.69
639.037	246.69
639.243	249.69
639.448	233.69
639.654	244.69
639.859	226.69
640.065	255.69
640.27	255.69
640.475	245.69
640.681	242.69
640.886	245.69
641.091	235.69
641.297	244.69
641.502	263.69
641.707	254.69
641.913	255.69
642.118	255.69
642.323	261.69
642.528	228.69
642.733	251.69
642.939	234.69
643.144	246.69
643.349	250.69
643.554	243.69
643.759	236.69
643.964	249.69
644.169	257.69
644.374	247.69
644.579	265.69
644.784	255.69
644.989	252.69
645.194	244.69
645.399	230.69
645.604	241.69
645.809	245.69
646.014	263.69
646.219	250.69
646.423	250.69
646.628	239.69
646.833	236.69
647.038	258.69
647.243	239.69
647.447	234.69
647.652	239.69
647.857	239.69
648.062	243.69
648.266	243.69
648.471	244.69
648.676	251.69
648.88	252.69
649.085	229.69
649.289	241.69
649.494	239.69
649.698	236.69
649.903	225.69
650.107	241.69
650.312	242.69
650.516	249.69
650.721	236.69
650.925	233.69
651.13	213.69
651.334	232.69
651.539	221.69
651.743	211.69
651.947	229.69
652.152	209.69
652.356	224.69
652.56	208.69
652.764	229.69
652.969	224.69
653.173	212.69
653.377	222.69
653.581	198.69
653.785	208.69
653.99	212.69
654.194	193.69
654.398	211.69
654.602	207.69
654.806	198.69
655.01	192.69
655.214	195.69
655.418	220.69
655.622	203.69
655.826	209.69
656.03	214.69
656.234	233.69
656.438	224.69
656.642	232.69
656.846	208.69
657.049	210.69
657.253	204.69
657.457	194.69
657.661	191.69
657.865	169.69
658.068	169.69
658.272	172.69
658.476	163.69
658.68	140.69
658.883	162.69
659.087	143.69
659.291	131.69
659.494	120.69
659.698	135.69
659.901	109.69
660.105	126.69
660.309	123.69
660.512	136.69
660.716	127.69
660.919	120.69
661.123	117.69
661.326	131.69
661.53	111.69
661.733	91.69
661.936	91.69
662.14	102.69
662.343	102.69
662.546	100.69
662.75	94.69
662.953	92.69
663.156	97.69
663.36	93.69
663.563	86.69
663.766	97.69
663.969	99.69
664.173	91.69
664.376	101.69
664.579	98.69
664.782	87.69
664.985	82.69
665.188	83.69
665.391	76.69
665.594	90.69
665.797	94.69
666	88.69
666.203	80.69
666.406	92.69
666.609	67.69
666.812	84.69
667.015	79.69
667.218	88.69
667.421	98.69
667.624	88.69
667.827	89.69
668.03	76.69
668.232	88.69
668.435	77.69
668.638	99.69
668.841	73.69
669.043	83.69
669.246	93.69
669.449	78.69
669.651	91.69
669.854	84.69
670.057	82.69
670.259	80.69
670.462	91.69
670.665	73.69
670.867	92.69
671.07	64.69
671.272	83.69
671.475	86.69
671.677	75.69
671.88	79.69
672.082	77.69
672.284	72.69
672.487	77.69
672.689	74.69
672.892	85.69
