Data from WStandard_LampEnergy5.5LIBS07252019.E.O._I.C._HRD10591_16-07-13-923.txt Node
Date: Thu Jul 25 16:07:13 EDT 2019
User: cochatt
Spectrometer: HR+D1059
Trigger mode: 1
Integration Time (sec): 1.000000E-1
Scans to average: 1
Electric dark correction enabled: true
Nonlinearity correction enabled: false
Boxcar width: 0
XAxis mode: Wavelengths
Number of Pixels in Spectrum: 2048
>>>>>Begin Spectral Data<<<<<
223.165	-11.31
223.4	-11.31
223.635	-11.31
223.869	-23.31
224.104	-10.31
224.338	-27.31
224.573	-23.31
224.808	-9.31
225.042	-14.31
225.277	6.69
225.511	8.69
225.746	5.69
225.98	5.69
226.215	8.69
226.449	7.69
226.683	14.69
226.918	25.69
227.152	35.69
227.387	18.69
227.621	32.69
227.856	37.69
228.09	42.69
228.324	42.69
228.559	34.69
228.793	138.69
229.027	377.69
229.262	371.69
229.496	401.69
229.73	415.69
229.964	471.69
230.199	486.69
230.433	506.69
230.667	497.69
230.901	571.69
231.136	506.69
231.37	473.69
231.604	458.69
231.838	494.69
232.072	481.69
232.306	465.69
232.541	496.69
232.775	577.69
233.009	630.69
233.243	595.69
233.477	554.69
233.711	564.69
233.945	597.69
234.179	580.69
234.413	616.69
234.647	657.69
234.881	653.69
235.115	566.69
235.349	561.69
235.583	576.69
235.817	582.69
236.051	565.69
236.285	574.69
236.519	600.69
236.753	698.69
236.987	709.69
237.221	701.69
237.455	789.69
237.689	767.69
237.922	719.69
238.156	734.69
238.39	690.69
238.624	715.69
238.858	773.69
239.091	805.69
239.325	833.69
239.559	949.69
239.793	1021.69
240.027	1111.69
240.26	1073.69
240.494	807.69
240.728	758.69
240.961	761.69
241.195	771.69
241.429	836.69
241.662	865.69
241.896	775.69
242.13	798.69
242.363	887.69
242.597	943.69
242.83	918.69
243.064	925.69
243.298	1023.69
243.531	961.69
243.765	948.69
243.998	981.69
244.232	847.69
244.465	790.69
244.699	819.69
244.932	926.69
245.166	1053.69
245.399	1009.69
245.633	933.69
245.866	913.69
246.099	970.69
246.333	997.69
246.566	1010.69
246.8	1097.69
247.033	1221.69
247.266	1131.69
247.5	1108.69
247.733	1114.69
247.966	1150.69
248.2	1304.69
248.433	1252.69
248.666	1271.69
248.899	1404.69
249.133	1603.69
249.366	1858.69
249.599	1475.69
249.832	1286.69
250.066	1314.69
250.299	1384.69
250.532	1283.69
250.765	1131.69
250.998	1211.69
251.231	1263.69
251.465	1292.69
251.698	1257.69
251.931	1207.69
252.164	1226.69
252.397	1304.69
252.63	1279.69
252.863	1146.69
253.096	1120.69
253.329	1228.69
253.562	1251.69
253.795	1341.69
254.028	1325.69
254.261	1262.69
254.494	1221.69
254.727	1155.69
254.96	1183.69
255.193	1291.69
255.426	1465.69
255.659	1700.69
255.892	1762.69
256.124	1423.69
256.357	1356.69
256.59	1473.69
256.823	1502.69
257.056	1458.69
257.289	1782.69
257.521	1995.69
257.754	1803.69
257.987	1665.69
258.22	1874.69
258.452	1811.69
258.685	1449.69
258.918	1440.69
259.151	1457.69
259.383	1352.69
259.616	1212.69
259.849	1315.69
260.081	1467.69
260.314	1653.69
260.547	1725.69
260.779	1807.69
261.012	1701.69
261.244	1507.69
261.477	1414.69
261.71	1494.69
261.942	1458.69
262.175	1428.69
262.407	1496.69
262.64	1455.69
262.872	1333.69
263.105	1336.69
263.337	1309.69
263.57	1373.69
263.802	1330.69
264.035	1273.69
264.267	1177.69
264.499	1146.69
264.732	1276.69
264.964	1315.69
265.197	1400.69
265.429	1448.69
265.661	1633.69
265.894	1816.69
266.126	1906.69
266.358	1635.69
266.591	1747.69
266.823	1881.69
267.055	1713.69
267.287	1640.69
267.52	1647.69
267.752	1657.69
267.984	1609.69
268.216	1654.69
268.448	1759.69
268.681	1735.69
268.913	1605.69
269.145	1499.69
269.377	1443.69
269.609	1557.69
269.841	1791.69
270.073	2120.69
270.306	2351.69
270.538	2558.69
270.77	2124.69
271.002	1794.69
271.234	1736.69
271.466	1696.69
271.698	1885.69
271.93	2299.69
272.162	2337.69
272.394	2067.69
272.626	1971.69
272.858	1781.69
273.09	1504.69
273.322	1502.69
273.553	1414.69
273.785	1459.69
274.017	1530.69
274.249	1617.69
274.481	1657.69
274.713	1498.69
274.945	1466.69
275.176	1497.69
275.408	1434.69
275.64	1438.69
275.872	1421.69
276.104	1547.69
276.335	1679.69
276.567	1938.69
276.799	1985.69
277.031	1842.69
277.262	1681.69
277.494	1709.69
277.726	1897.69
277.957	1899.69
278.189	1736.69
278.421	1629.69
278.652	1561.69
278.884	1551.69
279.115	1506.69
279.347	1569.69
279.579	1510.69
279.81	1495.69
280.042	1659.69
280.273	1841.69
280.505	1826.69
280.736	1895.69
280.968	1803.69
281.199	1583.69
281.431	1485.69
281.662	1487.69
281.894	1509.69
282.125	1564.69
282.356	1596.69
282.588	1589.69
282.819	1606.69
283.051	1722.69
283.282	1871.69
283.513	1851.69
283.745	1551.69
283.976	1449.69
284.207	1467.69
284.439	1537.69
284.67	1511.69
284.901	1567.69
285.132	1603.69
285.364	1602.69
285.595	1605.69
285.826	1554.69
286.057	1544.69
286.288	1540.69
286.52	1594.69
286.751	1753.69
286.982	1831.69
287.213	1665.69
287.444	1496.69
287.675	1526.69
287.906	1592.69
288.138	1669.69
288.369	1634.69
288.6	1578.69
288.831	1512.69
289.062	1495.69
289.293	1540.69
289.524	1533.69
289.755	1597.69
289.986	1626.69
290.217	1498.69
290.448	1544.69
290.679	1574.69
290.91	1581.69
291.141	1589.69
291.371	1698.69
291.602	1683.69
291.833	1646.69
292.064	1713.69
292.295	1667.69
292.526	1680.69
292.757	1811.69
292.987	1694.69
293.218	1611.69
293.449	1701.69
293.68	1931.69
293.91	2105.69
294.141	1966.69
294.372	1837.69
294.603	1891.69
294.833	2001.69
295.064	1823.69
295.295	1692.69
295.525	1649.69
295.756	1547.69
295.987	1438.69
296.217	1457.69
296.448	1534.69
296.679	1551.69
296.909	1558.69
297.14	1555.69
297.37	1513.69
297.601	1647.69
297.831	1800.69
298.062	1801.69
298.292	1619.69
298.523	1529.69
298.753	1545.69
298.984	1610.69
299.214	1548.69
299.445	1651.69
299.675	1665.69
299.905	1638.69
300.136	1640.69
300.366	1573.69
300.597	1508.69
300.827	1486.69
301.057	1567.69
301.288	1667.69
301.518	1666.69
301.748	1677.69
301.979	1753.69
302.209	1790.69
302.439	1935.69
302.669	2045.69
302.9	1866.69
303.13	1679.69
303.36	1679.69
303.59	1774.69
303.82	1725.69
304.051	1651.69
304.281	1651.69
304.511	1691.69
304.741	1727.69
304.971	1940.69
305.201	2186.69
305.431	2004.69
305.661	1674.69
305.891	1448.69
306.121	1476.69
306.352	1544.69
306.582	1614.69
306.812	1709.69
307.042	1861.69
307.272	1875.69
307.502	1894.69
307.731	2067.69
307.961	2239.69
308.191	2091.69
308.421	1797.69
308.651	1642.69
308.881	1639.69
309.111	1592.69
309.341	1597.69
309.571	1581.69
309.8	1608.69
310.03	1597.69
310.26	1636.69
310.49	1595.69
310.72	1631.69
310.949	1669.69
311.179	1741.69
311.409	1719.69
311.639	1678.69
311.868	1606.69
312.098	1637.69
312.328	1630.69
312.557	1605.69
312.787	1656.69
313.017	1688.69
313.246	1704.69
313.476	1690.69
313.706	1767.69
313.935	1740.69
314.165	1717.69
314.394	1754.69
314.624	1862.69
314.853	1943.69
315.083	2073.69
315.312	2180.69
315.542	1994.69
315.771	1722.69
316.001	1747.69
316.23	1827.69
316.46	1843.69
316.689	1864.69
316.919	1715.69
317.148	1653.69
317.377	1647.69
317.607	1806.69
317.836	2057.69
318.065	2123.69
318.295	2003.69
318.524	1943.69
318.753	1815.69
318.983	1847.69
319.212	1805.69
319.441	1770.69
319.67	1756.69
319.9	1760.69
320.129	1912.69
320.358	1962.69
320.587	2018.69
320.816	1986.69
321.046	1954.69
321.275	1801.69
321.504	1817.69
321.733	2050.69
321.962	2001.69
322.191	1765.69
322.42	1764.69
322.649	1768.69
322.878	1730.69
323.108	1803.69
323.337	1798.69
323.566	1831.69
323.795	1808.69
324.024	1831.69
324.253	1757.69
324.482	1809.69
324.71	1811.69
324.939	1705.69
325.168	1713.69
325.397	1763.69
325.626	1808.69
325.855	1857.69
326.084	1770.69
326.313	1781.69
326.542	1793.69
326.77	1850.69
326.999	1887.69
327.228	1767.69
327.457	1701.69
327.686	1654.69
327.914	1683.69
328.143	1765.69
328.372	1753.69
328.6	1767.69
328.829	1773.69
329.058	1717.69
329.287	1732.69
329.515	1751.69
329.744	1769.69
329.972	1861.69
330.201	1960.69
330.43	1924.69
330.658	1875.69
330.887	1864.69
331.115	1892.69
331.344	1906.69
331.572	1873.69
331.801	1864.69
332.03	1853.69
332.258	1885.69
332.486	1913.69
332.715	1921.69
332.943	1926.69
333.172	1862.69
333.4	1883.69
333.629	1915.69
333.857	2090.69
334.085	2240.69
334.314	2560.69
334.542	2866.69
334.771	2591.69
334.999	2249.69
335.227	2161.69
335.455	2021.69
335.684	1999.69
335.912	1983.69
336.14	2131.69
336.369	2039.69
336.597	1909.69
336.825	1854.69
337.053	1937.69
337.281	2049.69
337.51	2149.69
337.738	2253.69
337.966	2141.69
338.194	1983.69
338.422	1891.69
338.65	1857.69
338.878	1847.69
339.106	1822.69
339.334	1730.69
339.562	1707.69
339.79	1771.69
340.018	1900.69
340.246	1969.69
340.474	1975.69
340.702	1889.69
340.93	1965.69
341.158	1912.69
341.386	1862.69
341.614	1823.69
341.842	1814.69
342.07	1817.69
342.298	1862.69
342.526	1850.69
342.754	1806.69
342.981	1800.69
343.209	1793.69
343.437	1814.69
343.665	1815.69
343.893	1850.69
344.12	1945.69
344.348	2005.69
344.576	1920.69
344.804	1820.69
345.031	1843.69
345.259	1842.69
345.487	1820.69
345.714	1739.69
345.942	1661.69
346.17	1680.69
346.397	1741.69
346.625	1774.69
346.853	1629.69
347.08	1637.69
347.308	1622.69
347.535	1661.69
347.763	1776.69
347.99	1737.69
348.218	1640.69
348.445	1703.69
348.673	1706.69
348.9	1770.69
349.128	1806.69
349.355	1863.69
349.583	1813.69
349.81	1718.69
350.037	1586.69
350.265	1591.69
350.492	1600.69
350.72	1657.69
350.947	1700.69
351.174	1735.69
351.402	1651.69
351.629	1619.69
351.856	1589.69
352.083	1542.69
352.311	1541.69
352.538	1643.69
352.765	1713.69
352.992	1753.69
353.22	1690.69
353.447	1657.69
353.674	1647.69
353.901	1692.69
354.128	1601.69
354.355	1653.69
354.583	1725.69
354.81	1757.69
355.037	1746.69
355.264	1755.69
355.491	1685.69
355.718	1722.69
355.945	1714.69
356.172	1667.69
356.399	1617.69
356.626	1618.69
356.853	1684.69
357.08	1843.69
357.307	1983.69
357.534	2044.69
357.761	1803.69
357.988	1645.69
358.215	1575.69
358.441	1621.69
358.668	1626.69
358.895	1631.69
359.122	1706.69
359.349	1923.69
359.576	1874.69
359.802	1713.69
360.029	1616.69
360.256	1579.69
360.483	1625.69
360.709	1675.69
360.936	1768.69
361.163	1826.69
361.39	1984.69
361.616	2143.69
361.843	2101.69
362.07	1960.69
362.296	1665.69
362.523	1683.69
362.749	1670.69
362.976	1728.69
363.203	1746.69
363.429	1676.69
363.656	1640.69
363.882	1674.69
364.109	1895.69
364.335	2054.69
364.562	1912.69
364.788	1788.69
365.015	1740.69
365.241	1640.69
365.468	1701.69
365.694	1790.69
365.92	1867.69
366.147	1789.69
366.373	1640.69
366.599	1552.69
366.826	1603.69
367.052	1616.69
367.278	1635.69
367.505	1672.69
367.731	1691.69
367.957	1715.69
368.184	1745.69
368.41	1827.69
368.636	1893.69
368.862	1856.69
369.089	1892.69
369.315	1821.69
369.541	1784.69
369.767	1709.69
369.993	1664.69
370.219	1648.69
370.445	1722.69
370.672	1782.69
370.898	1897.69
371.124	1929.69
371.35	1807.69
371.576	1822.69
371.802	1923.69
372.028	1797.69
372.254	1731.69
372.48	1730.69
372.706	1661.69
372.932	1657.69
373.158	1672.69
373.384	1749.69
373.61	1760.69
373.835	1877.69
374.061	1780.69
374.287	1738.69
374.513	1767.69
374.739	1789.69
374.965	1801.69
375.191	1799.69
375.416	1804.69
375.642	1807.69
375.868	1890.69
376.094	1962.69
376.319	1898.69
376.545	1757.69
376.771	1802.69
376.997	1870.69
377.222	1869.69
377.448	1838.69
377.674	1844.69
377.899	1846.69
378.125	1956.69
378.35	1937.69
378.576	1746.69
378.802	1711.69
379.027	1657.69
379.253	1743.69
379.478	1773.69
379.704	1733.69
379.929	1760.69
380.155	1761.69
380.38	1765.69
380.606	1801.69
380.831	1775.69
381.057	1813.69
381.282	1891.69
381.507	1849.69
381.733	1929.69
381.958	2089.69
382.184	1896.69
382.409	1798.69
382.634	1855.69
382.86	1840.69
383.085	1802.69
383.31	1872.69
383.535	2012.69
383.761	2135.69
383.986	2088.69
384.211	2019.69
384.436	1976.69
384.662	2070.69
384.887	2149.69
385.112	2010.69
385.337	2013.69
385.562	1978.69
385.787	1997.69
386.013	2061.69
386.238	2093.69
386.463	2017.69
386.688	2206.69
386.913	2298.69
387.138	2249.69
387.363	2085.69
387.588	2081.69
387.813	2043.69
388.038	2087.69
388.263	2194.69
388.488	2049.69
388.713	1945.69
388.938	1932.69
389.163	1907.69
389.387	1956.69
389.612	1955.69
389.837	2048.69
390.062	2065.69
390.287	2017.69
390.512	2023.69
390.736	1987.69
390.961	1925.69
391.186	1918.69
391.411	1940.69
391.636	1997.69
391.86	2031.69
392.085	1975.69
392.31	1981.69
392.534	1985.69
392.759	2033.69
392.984	1987.69
393.208	2039.69
393.433	2082.69
393.658	2139.69
393.882	2124.69
394.107	2040.69
394.331	2007.69
394.556	1957.69
394.78	2006.69
395.005	2103.69
395.229	2144.69
395.454	2299.69
395.678	2335.69
395.903	2234.69
396.127	2137.69
396.352	2148.69
396.576	2178.69
396.801	2240.69
397.025	2188.69
397.249	2206.69
397.474	2157.69
397.698	2117.69
397.922	2252.69
398.147	2329.69
398.371	2431.69
398.595	2428.69
398.82	2349.69
399.044	2350.69
399.268	2449.69
399.492	2601.69
399.717	2659.69
399.941	2700.69
400.165	2654.69
400.389	2543.69
400.613	2545.69
400.837	2765.69
401.062	3196.69
401.286	2799.69
401.51	2500.69
401.734	2641.69
401.958	2551.69
402.182	2327.69
402.406	2309.69
402.63	2250.69
402.854	2267.69
403.078	2298.69
403.302	2351.69
403.526	2379.69
403.75	2372.69
403.974	2385.69
404.198	2397.69
404.422	2466.69
404.645	2577.69
404.869	2527.69
405.093	2325.69
405.317	2292.69
405.541	2387.69
405.765	2403.69
405.988	2373.69
406.212	2427.69
406.436	2495.69
406.66	2563.69
406.883	2563.69
407.107	2858.69
407.331	3145.69
407.555	3379.69
407.778	3125.69
408.002	2631.69
408.226	2511.69
408.449	2545.69
408.673	2395.69
408.896	2481.69
409.12	2479.69
409.344	2458.69
409.567	2332.69
409.791	2399.69
410.014	2428.69
410.238	2520.69
410.461	2695.69
410.685	2462.69
410.908	2379.69
411.132	2362.69
411.355	2380.69
411.578	2335.69
411.802	2311.69
412.025	2379.69
412.249	2345.69
412.472	2263.69
412.695	2210.69
412.919	2300.69
413.142	2262.69
413.365	2312.69
413.589	2355.69
413.812	2426.69
414.035	2514.69
414.258	2329.69
414.482	2314.69
414.705	2308.69
414.928	2276.69
415.151	2239.69
415.374	2257.69
415.597	2315.69
415.821	2322.69
416.044	2402.69
416.267	2457.69
416.49	2201.69
416.713	2162.69
416.936	2210.69
417.159	2347.69
417.382	2370.69
417.605	2237.69
417.828	2337.69
418.051	2339.69
418.274	2311.69
418.497	2211.69
418.72	2196.69
418.943	2197.69
419.166	2360.69
419.389	2452.69
419.611	2321.69
419.834	2221.69
420.057	2282.69
420.28	2181.69
420.503	2169.69
420.726	2263.69
420.948	2229.69
421.171	2146.69
421.394	2216.69
421.617	2308.69
421.839	2290.69
422.062	2221.69
422.285	2148.69
422.507	2197.69
422.73	2161.69
422.953	2066.69
423.175	2111.69
423.398	2178.69
423.621	2177.69
423.843	2186.69
424.066	2210.69
424.288	2294.69
424.511	2345.69
424.733	2323.69
424.956	2095.69
425.178	2070.69
425.401	2121.69
425.623	2129.69
425.846	2099.69
426.068	2215.69
426.291	2301.69
426.513	2254.69
426.735	2299.69
426.958	2390.69
427.18	2507.69
427.402	2321.69
427.625	2369.69
427.847	2393.69
428.069	2251.69
428.292	2169.69
428.514	2092.69
428.736	2093.69
428.958	2135.69
429.181	2157.69
429.403	2385.69
429.625	2961.69
429.847	2617.69
430.069	2207.69
430.292	2405.69
430.514	2533.69
430.736	2335.69
430.958	2462.69
431.18	2285.69
431.402	2145.69
431.624	2093.69
431.846	2128.69
432.068	2071.69
432.29	2116.69
432.512	2151.69
432.734	2187.69
432.956	2207.69
433.178	2319.69
433.4	2332.69
433.622	2280.69
433.844	2191.69
434.066	2101.69
434.287	2095.69
434.509	2199.69
434.731	2306.69
434.953	2509.69
435.175	2380.69
435.397	2277.69
435.618	2228.69
435.84	2266.69
436.062	2215.69
436.284	2257.69
436.505	2274.69
436.727	2247.69
436.949	2221.69
437.17	2186.69
437.392	2169.69
437.614	2173.69
437.835	2030.69
438.057	2231.69
438.278	2337.69
438.5	2205.69
438.721	2131.69
438.943	2130.69
439.165	2133.69
439.386	2078.69
439.608	2071.69
439.829	2113.69
440.05	2109.69
440.272	2072.69
440.493	2074.69
440.715	2116.69
440.936	2211.69
441.158	2461.69
441.379	2442.69
441.6	2363.69
441.822	2313.69
442.043	2304.69
442.264	2222.69
442.486	2104.69
442.707	2103.69
442.928	2082.69
443.149	2186.69
443.371	2359.69
443.592	2381.69
443.813	2333.69
444.034	2317.69
444.255	2354.69
444.476	2344.69
444.698	2417.69
444.919	2372.69
445.14	2477.69
445.361	2494.69
445.582	2557.69
445.803	2452.69
446.024	2368.69
446.245	2488.69
446.466	2340.69
446.687	2221.69
446.908	2242.69
447.129	2145.69
447.35	2229.69
447.571	2156.69
447.792	2073.69
448.013	2073.69
448.234	2144.69
448.455	2282.69
448.675	2228.69
448.896	2023.69
449.117	1992.69
449.338	2075.69
449.559	2193.69
449.779	2264.69
450	2507.69
450.221	2786.69
450.442	2648.69
450.662	2291.69
450.883	2033.69
451.104	1996.69
451.324	1994.69
451.545	2140.69
451.766	2106.69
451.986	2021.69
452.207	1942.69
452.428	1921.69
452.648	1879.69
452.869	1962.69
453.089	2074.69
453.31	2086.69
453.53	2133.69
453.751	2089.69
453.971	1943.69
454.192	1975.69
454.412	2125.69
454.633	2035.69
454.853	1958.69
455.073	1848.69
455.294	1823.69
455.514	1842.69
455.734	1867.69
455.955	1909.69
456.175	1888.69
456.395	1937.69
456.616	2024.69
456.836	1994.69
457.056	1977.69
457.276	1901.69
457.497	1902.69
457.717	1810.69
457.937	1814.69
458.157	1876.69
458.377	1879.69
458.598	1866.69
458.818	1895.69
459.038	2057.69
459.258	2162.69
459.478	2154.69
459.698	2107.69
459.918	2125.69
460.138	2269.69
460.358	2268.69
460.578	2294.69
460.798	2406.69
461.018	2503.69
461.238	2391.69
461.458	2287.69
461.678	2312.69
461.898	2225.69
462.118	2167.69
462.338	2307.69
462.558	2283.69
462.777	2279.69
462.997	2357.69
463.217	2504.69
463.437	2521.69
463.657	2322.69
463.876	2268.69
464.096	2276.69
464.316	2277.69
464.536	2358.69
464.755	2389.69
464.975	2393.69
465.195	2313.69
465.414	2405.69
465.634	2429.69
465.854	2246.69
466.073	2417.69
466.293	2451.69
466.512	2091.69
466.732	2073.69
466.951	2183.69
467.171	2146.69
467.391	2064.69
467.61	2031.69
467.829	2076.69
468.049	2207.69
468.268	2502.69
468.488	2359.69
468.707	2217.69
468.927	2095.69
469.146	2081.69
469.365	2012.69
469.585	2066.69
469.804	2043.69
470.023	2086.69
470.243	2095.69
470.462	2103.69
470.681	2033.69
470.901	2095.69
471.12	2091.69
471.339	2082.69
471.558	2004.69
471.777	1993.69
471.997	2056.69
472.216	2049.69
472.435	1958.69
472.654	1986.69
472.873	2118.69
473.092	2200.69
473.311	2111.69
473.53	1987.69
473.749	1942.69
473.968	2112.69
474.187	2163.69
474.406	2290.69
474.625	2166.69
474.844	2077.69
475.063	2061.69
475.282	2173.69
475.501	2058.69
475.72	2105.69
475.939	2263.69
476.158	2146.69
476.377	2136.69
476.596	2153.69
476.814	2199.69
477.033	2139.69
477.252	2283.69
477.471	2370.69
477.69	2202.69
477.908	2179.69
478.127	2329.69
478.346	2483.69
478.564	2506.69
478.783	2493.69
479.002	2565.69
479.22	2493.69
479.439	2557.69
479.658	2969.69
479.876	2937.69
480.095	2510.69
480.313	2447.69
480.532	2319.69
480.751	2385.69
480.969	2441.69
481.188	2342.69
481.406	2360.69
481.624	2222.69
481.843	2323.69
482.061	2385.69
482.28	2393.69
482.498	2498.69
482.717	2393.69
482.935	2329.69
483.153	2302.69
483.372	2289.69
483.59	2273.69
483.808	2314.69
484.027	2326.69
484.245	2529.69
484.463	2954.69
484.681	3399.69
484.9	2588.69
485.118	2406.69
485.336	2329.69
485.554	2415.69
485.772	2595.69
485.99	2539.69
486.209	2583.69
486.427	2503.69
486.645	2503.69
486.863	2466.69
487.081	2501.69
487.299	2575.69
487.517	2503.69
487.735	2466.69
487.953	2370.69
488.171	2391.69
488.389	2368.69
488.607	2383.69
488.825	2693.69
489.043	2725.69
489.261	2418.69
489.479	2570.69
489.696	2681.69
489.914	2601.69
490.132	2499.69
490.35	2439.69
490.568	2527.69
490.786	2461.69
491.003	2360.69
491.221	2425.69
491.439	2541.69
491.657	2476.69
491.874	2513.69
492.092	2544.69
492.31	2527.69
492.527	2466.69
492.745	2459.69
492.963	2522.69
493.18	2564.69
493.398	2784.69
493.615	2853.69
493.833	2581.69
494.05	2503.69
494.268	2542.69
494.485	2619.69
494.703	2504.69
494.92	2446.69
495.138	2511.69
495.355	2546.69
495.573	2654.69
495.79	2781.69
496.008	2837.69
496.225	2651.69
496.442	2624.69
496.66	2733.69
496.877	2620.69
497.094	2791.69
497.312	2787.69
497.529	2710.69
497.746	2758.69
497.963	3294.69
498.181	3767.69
498.398	3434.69
498.615	3355.69
498.832	3295.69
499.049	3237.69
499.267	3222.69
499.484	3431.69
499.701	3723.69
499.918	3746.69
500.135	4019.69
500.352	4302.69
500.569	4262.69
500.786	4553.69
501.003	4285.69
501.22	3809.69
501.437	3743.69
501.654	3717.69
501.871	3687.69
502.088	3217.69
502.305	3231.69
502.522	3112.69
502.739	2885.69
502.956	2778.69
503.172	2792.69
503.389	2712.69
503.606	2667.69
503.823	2673.69
504.04	2688.69
504.256	2671.69
504.473	2719.69
504.69	2806.69
504.907	2663.69
505.123	2503.69
505.34	2597.69
505.557	3438.69
505.773	2953.69
505.99	2419.69
506.207	2290.69
506.423	2244.69
506.64	2237.69
506.856	2273.69
507.073	2578.69
507.289	2845.69
507.506	2694.69
507.722	2305.69
507.939	2154.69
508.155	2183.69
508.372	2221.69
508.588	2171.69
508.805	2095.69
509.021	2106.69
509.238	2081.69
509.454	2068.69
509.67	2090.69
509.887	2051.69
510.103	2072.69
510.319	2058.69
510.536	2225.69
510.752	2257.69
510.968	2271.69
511.184	2448.69
511.401	2392.69
511.617	2067.69
511.833	2021.69
512.049	2017.69
512.265	2033.69
512.481	1998.69
512.698	2103.69
512.914	2229.69
513.13	2167.69
513.346	2048.69
513.562	2010.69
513.778	2020.69
513.994	2163.69
514.21	2196.69
514.426	2198.69
514.642	2450.69
514.858	2296.69
515.074	2105.69
515.29	2048.69
515.506	2130.69
515.721	2170.69
515.937	2149.69
516.153	2494.69
516.369	2331.69
516.585	2241.69
516.801	2119.69
517.016	2142.69
517.232	2157.69
517.448	2216.69
517.664	2232.69
517.879	2289.69
518.095	2370.69
518.311	2239.69
518.527	2138.69
518.742	2108.69
518.958	2045.69
519.173	2063.69
519.389	2085.69
519.605	2080.69
519.82	2079.69
520.036	2141.69
520.251	2059.69
520.467	2096.69
520.682	2278.69
520.898	2377.69
521.113	2089.69
521.329	2042.69
521.544	2198.69
521.76	2088.69
521.975	1967.69
522.19	1920.69
522.406	1911.69
522.621	2344.69
522.836	2393.69
523.052	1953.69
523.267	1974.69
523.482	1942.69
523.698	1842.69
523.913	1790.69
524.128	1872.69
524.343	1970.69
524.559	2059.69
524.774	1911.69
524.989	1864.69
525.204	1821.69
525.419	1820.69
525.634	1794.69
525.849	1843.69
526.064	1856.69
526.28	1910.69
526.495	1783.69
526.71	1800.69
526.925	1828.69
527.14	1786.69
527.355	1765.69
527.57	1780.69
527.785	1778.69
527.999	1770.69
528.214	1757.69
528.429	1678.69
528.644	1711.69
528.859	1751.69
529.074	1761.69
529.289	1757.69
529.503	1795.69
529.718	1767.69
529.933	1725.69
530.148	1680.69
530.363	1713.69
530.577	1762.69
530.792	1794.69
531.007	1738.69
531.221	1731.69
531.436	1799.69
531.651	1844.69
531.865	1970.69
532.08	1827.69
532.295	1698.69
532.509	1647.69
532.724	1727.69
532.938	1804.69
533.153	1874.69
533.367	1816.69
533.582	1738.69
533.796	1703.69
534.011	1747.69
534.225	1771.69
534.44	1735.69
534.654	1667.69
534.868	1685.69
535.083	1813.69
535.297	1783.69
535.511	1718.69
535.726	1722.69
535.94	1700.69
536.154	1713.69
536.369	1685.69
536.583	1671.69
536.797	1665.69
537.011	1738.69
537.225	1651.69
537.44	1642.69
537.654	1741.69
537.868	1669.69
538.082	1553.69
538.296	1587.69
538.51	1578.69
538.724	1572.69
538.938	1599.69
539.153	1643.69
539.367	1647.69
539.581	1635.69
539.795	1721.69
540.009	1750.69
540.222	1629.69
540.436	1709.69
540.65	1823.69
540.864	1851.69
541.078	1755.69
541.292	1615.69
541.506	1604.69
541.72	1638.69
541.934	1637.69
542.147	1681.69
542.361	1653.69
542.575	1629.69
542.789	1529.69
543.002	1527.69
543.216	1554.69
543.43	1705.69
543.644	1745.69
543.857	1790.69
544.071	1715.69
544.285	1706.69
544.498	1650.69
544.712	1632.69
544.925	1657.69
545.139	1741.69
545.352	1585.69
545.566	1525.69
545.779	1521.69
545.993	1570.69
546.206	1622.69
546.42	1547.69
546.633	1505.69
546.847	1491.69
547.06	1517.69
547.274	1555.69
547.487	1488.69
547.7	1542.69
547.914	1567.69
548.127	1566.69
548.34	1607.69
548.554	1568.69
548.767	1565.69
548.98	1541.69
549.193	1537.69
549.407	1631.69
549.62	1671.69
549.833	1584.69
550.046	1526.69
550.259	1559.69
550.473	1538.69
550.686	1529.69
550.899	1473.69
551.112	1454.69
551.325	1479.69
551.538	1559.69
551.751	1884.69
551.964	1492.69
552.177	1444.69
552.39	1475.69
552.603	1553.69
552.816	1534.69
553.029	1576.69
553.242	1632.69
553.455	1554.69
553.667	1578.69
553.88	1538.69
554.093	1507.69
554.306	1441.69
554.519	1416.69
554.732	1398.69
554.944	1434.69
555.157	1451.69
555.37	1459.69
555.583	1438.69
555.795	1393.69
556.008	1356.69
556.221	1343.69
556.433	1320.69
556.646	1317.69
556.859	1332.69
557.071	1331.69
557.284	1288.69
557.496	1290.69
557.709	1298.69
557.921	1301.69
558.134	1303.69
558.346	1304.69
558.559	1285.69
558.771	1270.69
558.984	1229.69
559.196	1247.69
559.409	1218.69
559.621	1240.69
559.833	1250.69
560.046	1304.69
560.258	1290.69
560.47	1254.69
560.683	1293.69
560.895	1277.69
561.107	1259.69
561.32	1280.69
561.532	1311.69
561.744	1245.69
561.956	1262.69
562.168	1247.69
562.381	1221.69
562.593	1219.69
562.805	1244.69
563.017	1217.69
563.229	1254.69
563.441	1271.69
563.653	1209.69
563.865	1241.69
564.077	1240.69
564.289	1231.69
564.501	1234.69
564.713	1276.69
564.925	1345.69
565.137	1392.69
565.349	1313.69
565.561	1278.69
565.773	1306.69
565.985	1335.69
566.197	1416.69
566.408	1475.69
566.62	1483.69
566.832	1512.69
567.044	1512.69
567.255	1451.69
567.467	1475.69
567.679	1555.69
567.891	1594.69
568.102	1514.69
568.314	1499.69
568.526	1399.69
568.737	1329.69
568.949	1319.69
569.161	1271.69
569.372	1178.69
569.584	1229.69
569.795	1155.69
570.007	1186.69
570.218	1128.69
570.43	1125.69
570.641	1133.69
570.853	1118.69
571.064	1144.69
571.276	1091.69
571.487	1077.69
571.698	1042.69
571.91	1037.69
572.121	1062.69
572.333	1035.69
572.544	1050.69
572.755	996.69
572.966	978.69
573.178	976.69
573.389	997.69
573.6	1031.69
573.811	1104.69
574.023	1011.69
574.234	998.69
574.445	980.69
574.656	953.69
574.867	948.69
575.078	929.69
575.289	969.69
575.501	943.69
575.712	922.69
575.923	950.69
576.134	935.69
576.345	897.69
576.556	921.69
576.767	886.69
576.978	894.69
577.188	882.69
577.399	899.69
577.61	867.69
577.821	873.69
578.032	864.69
578.243	867.69
578.454	872.69
578.665	864.69
578.875	839.69
579.086	795.69
579.297	842.69
579.508	897.69
579.718	886.69
579.929	836.69
580.14	823.69
580.35	809.69
580.561	831.69
580.772	934.69
580.982	858.69
581.193	827.69
581.403	835.69
581.614	829.69
581.825	804.69
582.035	810.69
582.246	786.69
582.456	806.69
582.667	816.69
582.877	801.69
583.087	807.69
583.298	795.69
583.508	807.69
583.719	805.69
583.929	800.69
584.139	815.69
584.35	766.69
584.56	757.69
584.77	771.69
584.981	784.69
585.191	798.69
585.401	827.69
585.611	780.69
585.821	801.69
586.032	765.69
586.242	749.69
586.452	746.69
586.662	765.69
586.872	755.69
587.082	761.69
587.292	788.69
587.502	782.69
587.713	786.69
587.923	752.69
588.133	776.69
588.343	793.69
588.553	746.69
588.762	763.69
588.972	750.69
589.182	757.69
589.392	755.69
589.602	773.69
589.812	755.69
590.022	714.69
590.232	735.69
590.441	763.69
590.651	733.69
590.861	761.69
591.071	728.69
591.281	718.69
591.49	716.69
591.7	750.69
591.91	703.69
592.119	719.69
592.329	743.69
592.539	766.69
592.748	771.69
592.958	763.69
593.167	792.69
593.377	771.69
593.587	790.69
593.796	777.69
594.006	784.69
594.215	793.69
594.424	774.69
594.634	726.69
594.843	754.69
595.053	785.69
595.262	755.69
595.472	728.69
595.681	739.69
595.89	730.69
596.1	715.69
596.309	713.69
596.518	707.69
596.727	705.69
596.937	693.69
597.146	656.69
597.355	651.69
597.564	668.69
597.774	671.69
597.983	643.69
598.192	657.69
598.401	641.69
598.61	636.69
598.819	650.69
599.028	624.69
599.237	629.69
599.446	631.69
599.655	614.69
599.864	610.69
600.073	614.69
600.282	609.69
600.491	574.69
600.7	611.69
600.909	605.69
601.118	607.69
601.327	629.69
601.536	625.69
601.745	625.69
601.953	591.69
602.162	607.69
602.371	618.69
602.58	587.69
602.789	591.69
602.997	594.69
603.206	625.69
603.415	601.69
603.623	593.69
603.832	594.69
604.041	582.69
604.249	574.69
604.458	589.69
604.666	607.69
604.875	584.69
605.084	606.69
605.292	610.69
605.501	572.69
605.709	566.69
605.918	554.69
606.126	569.69
606.334	574.69
606.543	583.69
606.751	561.69
606.96	579.69
607.168	567.69
607.376	553.69
607.585	567.69
607.793	553.69
608.001	568.69
608.21	567.69
608.418	573.69
608.626	559.69
608.834	577.69
609.043	566.69
609.251	551.69
609.459	556.69
609.667	539.69
609.875	550.69
610.083	561.69
610.291	549.69
610.499	582.69
610.707	528.69
610.916	535.69
611.124	544.69
611.332	530.69
611.54	549.69
611.748	510.69
611.955	516.69
612.163	526.69
612.371	493.69
612.579	532.69
612.787	517.69
612.995	502.69
613.203	539.69
613.411	503.69
613.618	515.69
613.826	527.69
614.034	527.69
614.242	527.69
614.449	529.69
614.657	528.69
614.865	518.69
615.072	507.69
615.28	535.69
615.488	554.69
615.695	551.69
615.903	524.69
616.111	531.69
616.318	535.69
616.526	540.69
616.733	524.69
616.941	519.69
617.148	522.69
617.356	498.69
617.563	497.69
617.771	506.69
617.978	489.69
618.185	498.69
618.393	488.69
618.6	487.69
618.807	498.69
619.015	509.69
619.222	505.69
619.429	503.69
619.637	507.69
619.844	493.69
620.051	459.69
620.258	479.69
620.466	480.69
620.673	471.69
620.88	462.69
621.087	451.69
621.294	444.69
621.501	461.69
621.708	473.69
621.915	463.69
622.122	458.69
622.329	469.69
622.536	461.69
622.743	467.69
622.95	466.69
623.157	453.69
623.364	465.69
623.571	469.69
623.778	443.69
623.985	470.69
624.192	445.69
624.399	433.69
624.606	444.69
624.812	440.69
625.019	433.69
625.226	431.69
625.433	434.69
625.639	439.69
625.846	443.69
626.053	420.69
626.259	439.69
626.466	407.69
626.673	390.69
626.879	414.69
627.086	402.69
627.293	414.69
627.499	413.69
627.706	417.69
627.912	418.69
628.119	413.69
628.325	421.69
628.532	422.69
628.738	427.69
628.945	427.69
629.151	413.69
629.357	426.69
629.564	405.69
629.77	397.69
629.976	410.69
630.183	407.69
630.389	406.69
630.595	416.69
630.802	387.69
631.008	388.69
631.214	381.69
631.42	391.69
631.627	373.69
631.833	391.69
632.039	392.69
632.245	393.69
632.451	379.69
632.657	393.69
632.863	391.69
633.069	389.69
633.275	365.69
633.481	354.69
633.688	357.69
633.893	376.69
634.099	352.69
634.305	381.69
634.511	343.69
634.717	359.69
634.923	339.69
635.129	346.69
635.335	353.69
635.541	365.69
635.747	362.69
635.952	374.69
636.158	339.69
636.364	352.69
636.57	344.69
636.775	373.69
636.981	360.69
637.187	360.69
637.392	344.69
637.598	347.69
637.804	357.69
638.009	339.69
638.215	337.69
638.421	351.69
638.626	353.69
638.832	327.69
639.037	339.69
639.243	328.69
639.448	340.69
639.654	338.69
639.859	331.69
640.065	321.69
640.27	334.69
640.475	319.69
640.681	347.69
640.886	353.69
641.091	342.69
641.297	331.69
641.502	325.69
641.707	338.69
641.913	351.69
642.118	317.69
642.323	313.69
642.528	327.69
642.733	314.69
642.939	346.69
643.144	340.69
643.349	320.69
643.554	311.69
643.759	320.69
643.964	325.69
644.169	317.69
644.374	330.69
644.579	343.69
644.784	301.69
644.989	300.69
645.194	297.69
645.399	315.69
645.604	325.69
645.809	311.69
646.014	324.69
646.219	322.69
646.423	320.69
646.628	329.69
646.833	312.69
647.038	313.69
647.243	308.69
647.447	324.69
647.652	313.69
647.857	314.69
648.062	313.69
648.266	325.69
648.471	329.69
648.676	295.69
648.88	313.69
649.085	327.69
649.289	313.69
649.494	330.69
649.698	301.69
649.903	289.69
650.107	285.69
650.312	301.69
650.516	288.69
650.721	290.69
650.925	276.69
651.13	284.69
651.334	287.69
651.539	279.69
651.743	279.69
651.947	274.69
652.152	282.69
652.356	265.69
652.56	268.69
652.764	261.69
652.969	260.69
653.173	257.69
653.377	247.69
653.581	263.69
653.785	263.69
653.99	260.69
654.194	246.69
654.398	240.69
654.602	229.69
654.806	258.69
655.01	244.69
655.214	248.69
655.418	241.69
655.622	242.69
655.826	241.69
656.03	244.69
656.234	256.69
656.438	263.69
656.642	272.69
656.846	267.69
657.049	230.69
657.253	215.69
657.457	190.69
657.661	194.69
657.865	184.69
658.068	155.69
658.272	169.69
658.476	158.69
658.68	153.69
658.883	161.69
659.087	149.69
659.291	134.69
659.494	130.69
659.698	135.69
659.901	132.69
660.105	117.69
660.309	129.69
660.512	122.69
660.716	119.69
660.919	118.69
661.123	113.69
661.326	96.69
661.53	124.69
661.733	100.69
661.936	111.69
662.14	86.69
662.343	85.69
662.546	103.69
662.75	100.69
662.953	93.69
663.156	86.69
663.36	91.69
663.563	79.69
663.766	77.69
663.969	89.69
664.173	99.69
664.376	81.69
664.579	77.69
664.782	83.69
664.985	78.69
665.188	79.69
665.391	79.69
665.594	90.69
665.797	75.69
666	88.69
666.203	86.69
666.406	72.69
666.609	93.69
666.812	74.69
667.015	59.69
667.218	81.69
667.421	93.69
667.624	88.69
667.827	63.69
668.03	73.69
668.232	80.69
668.435	88.69
668.638	84.69
668.841	83.69
669.043	96.69
669.246	79.69
669.449	75.69
669.651	88.69
669.854	75.69
670.057	80.69
670.259	83.69
670.462	80.69
670.665	75.69
670.867	77.69
671.07	84.69
671.272	83.69
671.475	85.69
671.677	85.69
671.88	79.69
672.082	86.69
672.284	78.69
672.487	86.69
672.689	84.69
672.892	89.69
