Data from WStandard_LampEnergy8_LIBS07252019.E.O._I.C._HRD10591_16-00-33-930.txt Node
Date: Thu Jul 25 16:00:33 EDT 2019
User: cochatt
Spectrometer: HR+D1059
Trigger mode: 1
Integration Time (sec): 1.000000E-1
Scans to average: 1
Electric dark correction enabled: true
Nonlinearity correction enabled: false
Boxcar width: 0
XAxis mode: Wavelengths
Number of Pixels in Spectrum: 2048
>>>>>Begin Spectral Data<<<<<
223.165	-10.12
223.4	-10.12
223.635	-10.12
223.869	-22.12
224.104	-21.12
224.338	2.88
224.573	-20.12
224.808	-32.12
225.042	-1.12
225.277	-1.12
225.511	-7.12
225.746	-4.12
225.98	3.88
226.215	17.88
226.449	29.88
226.683	18.88
226.918	18.88
227.152	26.88
227.387	23.88
227.621	47.88
227.856	41.88
228.09	25.88
228.324	44.88
228.559	51.88
228.793	93.88
229.027	182.88
229.262	191.88
229.496	208.88
229.73	202.88
229.964	235.88
230.199	238.88
230.433	254.88
230.667	266.88
230.901	290.88
231.136	251.88
231.37	240.88
231.604	255.88
231.838	267.88
232.072	252.88
232.306	258.88
232.541	266.88
232.775	286.88
233.009	323.88
233.243	312.88
233.477	284.88
233.711	273.88
233.945	284.88
234.179	293.88
234.413	306.88
234.647	331.88
234.881	313.88
235.115	294.88
235.349	298.88
235.583	309.88
235.817	290.88
236.051	302.88
236.285	295.88
236.519	311.88
236.753	318.88
236.987	347.88
237.221	353.88
237.455	359.88
237.689	366.88
237.922	361.88
238.156	340.88
238.39	338.88
238.624	373.88
238.858	369.88
239.091	395.88
239.325	401.88
239.559	438.88
239.793	452.88
240.027	476.88
240.26	476.88
240.494	373.88
240.728	350.88
240.961	372.88
241.195	370.88
241.429	399.88
241.662	401.88
241.896	374.88
242.13	396.88
242.363	422.88
242.597	440.88
242.83	438.88
243.064	438.88
243.298	471.88
243.531	454.88
243.765	444.88
243.998	424.88
244.232	405.88
244.465	397.88
244.699	403.88
244.932	464.88
245.166	467.88
245.399	476.88
245.633	457.88
245.866	442.88
246.099	448.88
246.333	478.88
246.566	476.88
246.8	520.88
247.033	540.88
247.266	517.88
247.5	503.88
247.733	531.88
247.966	565.88
248.2	588.88
248.433	588.88
248.666	614.88
248.899	662.88
249.133	719.88
249.366	776.88
249.599	654.88
249.832	604.88
250.066	596.88
250.299	606.88
250.532	552.88
250.765	534.88
250.998	582.88
251.231	571.88
251.465	558.88
251.698	545.88
251.931	560.88
252.164	584.88
252.397	609.88
252.63	560.88
252.863	520.88
253.096	540.88
253.329	531.88
253.562	550.88
253.795	589.88
254.028	582.88
254.261	565.88
254.494	545.88
254.727	538.88
254.96	550.88
255.193	602.88
255.426	668.88
255.659	768.88
255.892	738.88
256.124	638.88
256.357	611.88
256.59	686.88
256.823	683.88
257.056	698.88
257.289	802.88
257.521	864.88
257.754	814.88
257.987	744.88
258.22	806.88
258.452	794.88
258.685	649.88
258.918	637.88
259.151	664.88
259.383	625.88
259.616	563.88
259.849	605.88
260.081	680.88
260.314	750.88
260.547	775.88
260.779	773.88
261.012	728.88
261.244	672.88
261.477	640.88
261.71	652.88
261.942	668.88
262.175	642.88
262.407	688.88
262.64	650.88
262.872	631.88
263.105	573.88
263.337	611.88
263.57	616.88
263.802	614.88
264.035	584.88
264.267	560.88
264.499	544.88
264.732	576.88
264.964	630.88
265.197	640.88
265.429	652.88
265.661	789.88
265.894	842.88
266.126	809.88
266.358	767.88
266.591	810.88
266.823	822.88
267.055	781.88
267.287	746.88
267.52	754.88
267.752	741.88
267.984	737.88
268.216	743.88
268.448	752.88
268.681	770.88
268.913	689.88
269.145	675.88
269.377	680.88
269.609	706.88
269.841	849.88
270.073	976.88
270.306	1015.88
270.538	1093.88
270.77	910.88
271.002	819.88
271.234	772.88
271.466	788.88
271.698	907.88
271.93	1019.88
272.162	991.88
272.394	916.88
272.626	854.88
272.858	769.88
273.09	696.88
273.322	683.88
273.553	653.88
273.785	664.88
274.017	691.88
274.249	712.88
274.481	758.88
274.713	705.88
274.945	697.88
275.176	675.88
275.408	679.88
275.64	650.88
275.872	654.88
276.104	730.88
276.335	790.88
276.567	886.88
276.799	888.88
277.031	827.88
277.262	774.88
277.494	820.88
277.726	858.88
277.957	831.88
278.189	811.88
278.421	712.88
278.652	680.88
278.884	707.88
279.115	713.88
279.347	726.88
279.579	705.88
279.81	746.88
280.042	786.88
280.273	848.88
280.505	831.88
280.736	861.88
280.968	790.88
281.199	708.88
281.431	676.88
281.662	692.88
281.894	728.88
282.125	729.88
282.356	742.88
282.588	773.88
282.819	766.88
283.051	804.88
283.282	864.88
283.513	822.88
283.745	738.88
283.976	712.88
284.207	688.88
284.439	719.88
284.67	736.88
284.901	731.88
285.132	777.88
285.364	762.88
285.595	748.88
285.826	730.88
286.057	750.88
286.288	766.88
286.52	758.88
286.751	828.88
286.982	810.88
287.213	747.88
287.444	726.88
287.675	706.88
287.906	768.88
288.138	811.88
288.369	790.88
288.6	736.88
288.831	716.88
289.062	726.88
289.293	765.88
289.524	741.88
289.755	774.88
289.986	759.88
290.217	710.88
290.448	706.88
290.679	746.88
290.91	742.88
291.141	768.88
291.371	776.88
291.602	806.88
291.833	808.88
292.064	822.88
292.295	816.88
292.526	841.88
292.757	864.88
292.987	803.88
293.218	792.88
293.449	871.88
293.68	945.88
293.91	987.88
294.141	898.88
294.372	896.88
294.603	922.88
294.833	952.88
295.064	925.88
295.295	808.88
295.525	796.88
295.756	754.88
295.987	696.88
296.217	734.88
296.448	754.88
296.679	756.88
296.909	744.88
297.14	736.88
297.37	786.88
297.601	814.88
297.831	854.88
298.062	839.88
298.292	789.88
298.523	766.88
298.753	774.88
298.984	771.88
299.214	773.88
299.445	811.88
299.675	818.88
299.905	839.88
300.136	796.88
300.366	759.88
300.597	761.88
300.827	751.88
301.057	815.88
301.288	799.88
301.518	832.88
301.748	849.88
301.979	896.88
302.209	884.88
302.439	954.88
302.669	940.88
302.9	921.88
303.13	849.88
303.36	839.88
303.59	852.88
303.82	824.88
304.051	832.88
304.281	814.88
304.511	869.88
304.741	948.88
304.971	1024.88
305.201	1008.88
305.431	926.88
305.661	809.88
305.891	739.88
306.121	746.88
306.352	744.88
306.582	841.88
306.812	849.88
307.042	940.88
307.272	901.88
307.502	978.88
307.731	1032.88
307.961	1052.88
308.191	968.88
308.421	872.88
308.651	802.88
308.881	801.88
309.111	810.88
309.341	811.88
309.571	800.88
309.8	789.88
310.03	807.88
310.26	770.88
310.49	777.88
310.72	827.88
310.949	865.88
311.179	858.88
311.409	845.88
311.639	861.88
311.868	838.88
312.098	840.88
312.328	816.88
312.557	815.88
312.787	817.88
313.017	864.88
313.246	861.88
313.476	855.88
313.706	875.88
313.935	840.88
314.165	884.88
314.394	898.88
314.624	938.88
314.853	984.88
315.083	1034.88
315.312	1035.88
315.542	927.88
315.771	884.88
316.001	909.88
316.23	923.88
316.46	919.88
316.689	898.88
316.919	869.88
317.148	864.88
317.377	871.88
317.607	947.88
317.836	1050.88
318.065	1054.88
318.295	1025.88
318.524	953.88
318.753	938.88
318.983	903.88
319.212	900.88
319.441	898.88
319.67	874.88
319.9	928.88
320.129	962.88
320.358	976.88
320.587	1016.88
320.816	985.88
321.046	979.88
321.275	958.88
321.504	984.88
321.733	989.88
321.962	979.88
322.191	922.88
322.42	910.88
322.649	891.88
322.878	864.88
323.108	894.88
323.337	937.88
323.566	914.88
323.795	933.88
324.024	954.88
324.253	898.88
324.482	916.88
324.71	854.88
324.939	846.88
325.168	878.88
325.397	895.88
325.626	936.88
325.855	910.88
326.084	880.88
326.313	904.88
326.542	930.88
326.77	945.88
326.999	932.88
327.228	902.88
327.457	851.88
327.686	843.88
327.914	887.88
328.143	912.88
328.372	907.88
328.6	912.88
328.829	904.88
329.058	891.88
329.287	911.88
329.515	924.88
329.744	928.88
329.972	976.88
330.201	1011.88
330.43	974.88
330.658	955.88
330.887	952.88
331.115	973.88
331.344	1002.88
331.572	944.88
331.801	913.88
332.03	954.88
332.258	958.88
332.486	948.88
332.715	1004.88
332.943	978.88
333.172	959.88
333.4	983.88
333.629	1001.88
333.857	1086.88
334.085	1179.88
334.314	1320.88
334.542	1368.88
334.771	1263.88
334.999	1130.88
335.227	1076.88
335.455	1018.88
335.684	1032.88
335.912	1054.88
336.14	1072.88
336.369	1032.88
336.597	984.88
336.825	967.88
337.053	1026.88
337.281	1095.88
337.51	1121.88
337.738	1166.88
337.966	1054.88
338.194	978.88
338.422	961.88
338.65	956.88
338.878	946.88
339.106	922.88
339.334	921.88
339.562	928.88
339.79	938.88
340.018	969.88
340.246	1019.88
340.474	990.88
340.702	999.88
340.93	992.88
341.158	988.88
341.386	954.88
341.614	963.88
341.842	961.88
342.07	962.88
342.298	989.88
342.526	953.88
342.754	964.88
342.981	938.88
343.209	967.88
343.437	925.88
343.665	950.88
343.893	1000.88
344.12	1054.88
344.348	1020.88
344.576	975.88
344.804	963.88
345.031	958.88
345.259	958.88
345.487	912.88
345.714	878.88
345.942	896.88
346.17	884.88
346.397	916.88
346.625	918.88
346.853	869.88
347.08	863.88
347.308	890.88
347.535	894.88
347.763	932.88
347.99	884.88
348.218	891.88
348.445	871.88
348.673	914.88
348.9	958.88
349.128	966.88
349.355	956.88
349.583	945.88
349.81	928.88
350.037	866.88
350.265	850.88
350.492	880.88
350.72	899.88
350.947	939.88
351.174	952.88
351.402	870.88
351.629	859.88
351.856	820.88
352.083	826.88
352.311	843.88
352.538	855.88
352.765	921.88
352.992	916.88
353.22	913.88
353.447	858.88
353.674	870.88
353.901	888.88
354.128	873.88
354.355	861.88
354.583	943.88
354.81	925.88
355.037	929.88
355.264	917.88
355.491	904.88
355.718	892.88
355.945	933.88
356.172	886.88
356.399	890.88
356.626	872.88
356.853	911.88
357.08	1013.88
357.307	1092.88
357.534	1041.88
357.761	949.88
357.988	886.88
358.215	855.88
358.441	882.88
358.668	862.88
358.895	893.88
359.122	937.88
359.349	994.88
359.576	970.88
359.802	900.88
360.029	868.88
360.256	880.88
360.483	884.88
360.709	934.88
360.936	974.88
361.163	998.88
361.39	1054.88
361.616	1117.88
361.843	1122.88
362.07	1034.88
362.296	894.88
362.523	873.88
362.749	890.88
362.976	902.88
363.203	929.88
363.429	912.88
363.656	894.88
363.882	948.88
364.109	1020.88
364.335	1050.88
364.562	967.88
364.788	942.88
365.015	893.88
365.241	896.88
365.468	921.88
365.694	964.88
365.92	997.88
366.147	931.88
366.373	895.88
366.599	864.88
366.826	887.88
367.052	881.88
367.278	904.88
367.505	912.88
367.731	947.88
367.957	916.88
368.184	982.88
368.41	1004.88
368.636	1026.88
368.862	1076.88
369.089	1010.88
369.315	998.88
369.541	956.88
369.767	907.88
369.993	900.88
370.219	909.88
370.445	932.88
370.672	978.88
370.898	1024.88
371.124	1012.88
371.35	931.88
371.576	991.88
371.802	1008.88
372.028	970.88
372.254	971.88
372.48	912.88
372.706	902.88
372.932	916.88
373.158	933.88
373.384	944.88
373.61	989.88
373.835	986.88
374.061	965.88
374.287	978.88
374.513	997.88
374.739	967.88
374.965	973.88
375.191	989.88
375.416	973.88
375.642	989.88
375.868	1067.88
376.094	1086.88
376.319	1043.88
376.545	977.88
376.771	991.88
376.997	1067.88
377.222	1042.88
377.448	1032.88
377.674	995.88
377.899	1027.88
378.125	1117.88
378.35	1052.88
378.576	948.88
378.802	947.88
379.027	927.88
379.253	964.88
379.478	970.88
379.704	984.88
379.929	974.88
380.155	949.88
380.38	1027.88
380.606	1011.88
380.831	1015.88
381.057	1022.88
381.282	1042.88
381.507	996.88
381.733	1062.88
381.958	1119.88
382.184	1030.88
382.409	998.88
382.634	1017.88
382.86	995.88
383.085	1024.88
383.31	1109.88
383.535	1176.88
383.761	1173.88
383.986	1100.88
384.211	1078.88
384.436	1090.88
384.662	1151.88
384.887	1164.88
385.112	1118.88
385.337	1114.88
385.562	1083.88
385.787	1094.88
386.013	1120.88
386.238	1129.88
386.463	1128.88
386.688	1201.88
386.913	1264.88
387.138	1208.88
387.363	1126.88
387.588	1149.88
387.813	1152.88
388.038	1159.88
388.263	1194.88
388.488	1106.88
388.713	1043.88
388.938	1042.88
389.163	1070.88
389.387	1086.88
389.612	1076.88
389.837	1080.88
390.062	1094.88
390.287	1100.88
390.512	1112.88
390.736	1069.88
390.961	1041.88
391.186	1055.88
391.411	1079.88
391.636	1088.88
391.86	1106.88
392.085	1099.88
392.31	1096.88
392.534	1111.88
392.759	1129.88
392.984	1088.88
393.208	1117.88
393.433	1155.88
393.658	1222.88
393.882	1202.88
394.107	1146.88
394.331	1072.88
394.556	1076.88
394.78	1143.88
395.005	1168.88
395.229	1217.88
395.454	1295.88
395.678	1278.88
395.903	1186.88
396.127	1169.88
396.352	1160.88
396.576	1207.88
396.801	1231.88
397.025	1214.88
397.249	1241.88
397.474	1181.88
397.698	1214.88
397.922	1249.88
398.147	1318.88
398.371	1332.88
398.595	1312.88
398.82	1268.88
399.044	1306.88
399.268	1391.88
399.492	1404.88
399.717	1438.88
399.941	1445.88
400.165	1448.88
400.389	1386.88
400.613	1389.88
400.837	1624.88
401.062	1785.88
401.286	1513.88
401.51	1417.88
401.734	1449.88
401.958	1409.88
402.182	1289.88
402.406	1246.88
402.63	1249.88
402.854	1242.88
403.078	1249.88
403.302	1283.88
403.526	1287.88
403.75	1294.88
403.974	1327.88
404.198	1320.88
404.422	1343.88
404.645	1450.88
404.869	1410.88
405.093	1305.88
405.317	1306.88
405.541	1312.88
405.765	1303.88
405.988	1297.88
406.212	1360.88
406.436	1346.88
406.66	1400.88
406.883	1426.88
407.107	1632.88
407.331	1762.88
407.555	1838.88
407.778	1646.88
408.002	1414.88
408.226	1396.88
408.449	1363.88
408.673	1350.88
408.896	1351.88
409.12	1358.88
409.344	1343.88
409.567	1296.88
409.791	1363.88
410.014	1345.88
410.238	1441.88
410.461	1502.88
410.685	1357.88
410.908	1309.88
411.132	1337.88
411.355	1336.88
411.578	1329.88
411.802	1308.88
412.025	1300.88
412.249	1312.88
412.472	1262.88
412.695	1239.88
412.919	1257.88
413.142	1251.88
413.365	1278.88
413.589	1330.88
413.812	1402.88
414.035	1408.88
414.258	1303.88
414.482	1292.88
414.705	1304.88
414.928	1276.88
415.151	1260.88
415.374	1276.88
415.597	1321.88
415.821	1350.88
416.044	1304.88
416.267	1325.88
416.49	1247.88
416.713	1246.88
416.936	1340.88
417.159	1379.88
417.382	1361.88
417.605	1299.88
417.828	1306.88
418.051	1302.88
418.274	1301.88
418.497	1262.88
418.72	1259.88
418.943	1232.88
419.166	1323.88
419.389	1315.88
419.611	1297.88
419.834	1267.88
420.057	1298.88
420.28	1266.88
420.503	1252.88
420.726	1289.88
420.948	1255.88
421.171	1264.88
421.394	1255.88
421.617	1287.88
421.839	1290.88
422.062	1304.88
422.285	1216.88
422.507	1231.88
422.73	1206.88
422.953	1198.88
423.175	1231.88
423.398	1255.88
423.621	1255.88
423.843	1293.88
424.066	1292.88
424.288	1338.88
424.511	1366.88
424.733	1340.88
424.956	1223.88
425.178	1232.88
425.401	1226.88
425.623	1235.88
425.846	1227.88
426.068	1323.88
426.291	1280.88
426.513	1305.88
426.735	1280.88
426.958	1384.88
427.18	1440.88
427.402	1350.88
427.625	1373.88
427.847	1337.88
428.069	1265.88
428.292	1241.88
428.514	1165.88
428.736	1191.88
428.958	1228.88
429.181	1240.88
429.403	1426.88
429.625	1714.88
429.847	1432.88
430.069	1291.88
430.292	1399.88
430.514	1424.88
430.736	1350.88
430.958	1323.88
431.18	1287.88
431.402	1172.88
431.624	1179.88
431.846	1155.88
432.068	1103.88
432.29	1115.88
432.512	1156.88
432.734	1210.88
432.956	1230.88
433.178	1305.88
433.4	1288.88
433.622	1308.88
433.844	1224.88
434.066	1180.88
434.287	1186.88
434.509	1210.88
434.731	1248.88
434.953	1322.88
435.175	1295.88
435.397	1252.88
435.618	1225.88
435.84	1199.88
436.062	1194.88
436.284	1234.88
436.505	1264.88
436.727	1275.88
436.949	1250.88
437.17	1192.88
437.392	1180.88
437.614	1163.88
437.835	1158.88
438.057	1220.88
438.278	1237.88
438.5	1203.88
438.721	1194.88
438.943	1200.88
439.165	1204.88
439.386	1196.88
439.608	1214.88
439.829	1224.88
440.05	1273.88
440.272	1218.88
440.493	1203.88
440.715	1248.88
440.936	1308.88
441.158	1399.88
441.379	1370.88
441.6	1360.88
441.822	1319.88
442.043	1346.88
442.264	1275.88
442.486	1268.88
442.707	1267.88
442.928	1232.88
443.149	1294.88
443.371	1358.88
443.592	1356.88
443.813	1324.88
444.034	1296.88
444.255	1335.88
444.476	1366.88
444.698	1388.88
444.919	1331.88
445.14	1430.88
445.361	1387.88
445.582	1440.88
445.803	1372.88
446.024	1314.88
446.245	1357.88
446.466	1338.88
446.687	1292.88
446.908	1324.88
447.129	1279.88
447.35	1257.88
447.571	1262.88
447.792	1223.88
448.013	1221.88
448.234	1242.88
448.455	1302.88
448.675	1292.88
448.896	1176.88
449.117	1152.88
449.338	1194.88
449.559	1252.88
449.779	1314.88
450	1363.88
450.221	1420.88
450.442	1389.88
450.662	1291.88
450.883	1159.88
451.104	1147.88
451.324	1143.88
451.545	1184.88
451.766	1158.88
451.986	1127.88
452.207	1121.88
452.428	1103.88
452.648	1070.88
452.869	1057.88
453.089	1135.88
453.31	1130.88
453.53	1150.88
453.751	1122.88
453.971	1030.88
454.192	1043.88
454.412	1139.88
454.633	1104.88
454.853	1092.88
455.073	1025.88
455.294	1024.88
455.514	1047.88
455.734	1064.88
455.955	1059.88
456.175	1037.88
456.395	1045.88
456.616	1073.88
456.836	1056.88
457.056	1056.88
457.276	1057.88
457.497	1032.88
457.717	1003.88
457.937	1050.88
458.157	1042.88
458.377	1005.88
458.598	1034.88
458.818	1023.88
459.038	1067.88
459.258	1087.88
459.478	1126.88
459.698	1078.88
459.918	1138.88
460.138	1187.88
460.358	1204.88
460.578	1187.88
460.798	1240.88
461.018	1296.88
461.238	1262.88
461.458	1237.88
461.678	1239.88
461.898	1212.88
462.118	1167.88
462.338	1223.88
462.558	1244.88
462.777	1236.88
462.997	1314.88
463.217	1366.88
463.437	1304.88
463.657	1242.88
463.876	1207.88
464.096	1184.88
464.316	1242.88
464.536	1259.88
464.755	1269.88
464.975	1310.88
465.195	1275.88
465.414	1287.88
465.634	1244.88
465.854	1231.88
466.073	1339.88
466.293	1304.88
466.512	1186.88
466.732	1177.88
466.951	1219.88
467.171	1200.88
467.391	1166.88
467.61	1178.88
467.829	1161.88
468.049	1263.88
468.268	1412.88
468.488	1316.88
468.707	1210.88
468.927	1204.88
469.146	1196.88
469.365	1170.88
469.585	1230.88
469.804	1219.88
470.023	1213.88
470.243	1224.88
470.462	1223.88
470.681	1202.88
470.901	1208.88
471.12	1198.88
471.339	1181.88
471.558	1172.88
471.777	1177.88
471.997	1196.88
472.216	1152.88
472.435	1071.88
472.654	1114.88
472.873	1131.88
473.092	1185.88
473.311	1170.88
473.53	1104.88
473.749	1129.88
473.968	1160.88
474.187	1187.88
474.406	1205.88
474.625	1200.88
474.844	1185.88
475.063	1159.88
475.282	1180.88
475.501	1179.88
475.72	1156.88
475.939	1268.88
476.158	1231.88
476.377	1226.88
476.596	1158.88
476.814	1183.88
477.033	1174.88
477.252	1211.88
477.471	1252.88
477.69	1249.88
477.908	1275.88
478.127	1346.88
478.346	1378.88
478.564	1368.88
478.783	1363.88
479.002	1429.88
479.22	1377.88
479.439	1435.88
479.658	1550.88
479.876	1462.88
480.095	1364.88
480.313	1299.88
480.532	1251.88
480.751	1266.88
480.969	1274.88
481.188	1217.88
481.406	1234.88
481.624	1205.88
481.843	1198.88
482.061	1250.88
482.28	1320.88
482.498	1290.88
482.717	1271.88
482.935	1255.88
483.153	1303.88
483.372	1327.88
483.59	1320.88
483.808	1320.88
484.027	1327.88
484.245	1432.88
484.463	1690.88
484.681	1850.88
484.9	1422.88
485.118	1365.88
485.336	1278.88
485.554	1360.88
485.772	1356.88
485.99	1366.88
486.209	1358.88
486.427	1334.88
486.645	1351.88
486.863	1396.88
487.081	1444.88
487.299	1407.88
487.517	1418.88
487.735	1434.88
487.953	1465.88
488.171	1462.88
488.389	1491.88
488.607	1440.88
488.825	1550.88
489.043	1530.88
489.261	1387.88
489.479	1438.88
489.696	1444.88
489.914	1406.88
490.132	1402.88
490.35	1410.88
490.568	1502.88
490.786	1476.88
491.003	1443.88
491.221	1491.88
491.439	1571.88
491.657	1558.88
491.874	1579.88
492.092	1650.88
492.31	1670.88
492.527	1631.88
492.745	1562.88
492.963	1554.88
493.18	1616.88
493.398	1653.88
493.615	1666.88
493.833	1561.88
494.05	1524.88
494.268	1504.88
494.485	1548.88
494.703	1492.88
494.92	1547.88
495.138	1532.88
495.355	1538.88
495.573	1558.88
495.79	1637.88
496.008	1675.88
496.225	1586.88
496.442	1574.88
496.66	1590.88
496.877	1557.88
497.094	1611.88
497.312	1587.88
497.529	1566.88
497.746	1600.88
497.963	1831.88
498.181	1906.88
498.398	1846.88
498.615	1794.88
498.832	1744.88
499.049	1732.88
499.267	1750.88
499.484	1871.88
499.701	2028.88
499.918	2024.88
500.135	2165.88
500.352	2266.88
500.569	2259.88
500.786	2473.88
501.003	2227.88
501.22	2038.88
501.437	1968.88
501.654	2007.88
501.871	1937.88
502.088	1716.88
502.305	1731.88
502.522	1663.88
502.739	1561.88
502.956	1558.88
503.172	1500.88
503.389	1458.88
503.606	1446.88
503.823	1448.88
504.04	1428.88
504.256	1487.88
504.473	1469.88
504.69	1491.88
504.907	1403.88
505.123	1395.88
505.34	1472.88
505.557	1886.88
505.773	1595.88
505.99	1356.88
506.207	1266.88
506.423	1246.88
506.64	1285.88
506.856	1286.88
507.073	1440.88
507.289	1549.88
507.506	1454.88
507.722	1262.88
507.939	1192.88
508.155	1235.88
508.372	1225.88
508.588	1157.88
508.805	1153.88
509.021	1145.88
509.238	1123.88
509.454	1130.88
509.67	1144.88
509.887	1096.88
510.103	1063.88
510.319	1122.88
510.536	1166.88
510.752	1182.88
510.968	1174.88
511.184	1234.88
511.401	1187.88
511.617	1074.88
511.833	1074.88
512.049	1088.88
512.265	1076.88
512.481	1091.88
512.698	1100.88
512.914	1178.88
513.13	1119.88
513.346	1072.88
513.562	1092.88
513.778	1098.88
513.994	1128.88
514.21	1158.88
514.426	1170.88
514.642	1235.88
514.858	1209.88
515.074	1089.88
515.29	1110.88
515.506	1134.88
515.721	1160.88
515.937	1155.88
516.153	1267.88
516.369	1223.88
516.585	1150.88
516.801	1088.88
517.016	1131.88
517.232	1145.88
517.448	1174.88
517.664	1190.88
517.879	1167.88
518.095	1216.88
518.311	1191.88
518.527	1124.88
518.742	1143.88
518.958	1106.88
519.173	1135.88
519.389	1144.88
519.605	1156.88
519.82	1150.88
520.036	1165.88
520.251	1104.88
520.467	1150.88
520.682	1194.88
520.898	1233.88
521.113	1112.88
521.329	1104.88
521.544	1146.88
521.76	1127.88
521.975	1051.88
522.19	1060.88
522.406	1066.88
522.621	1300.88
522.836	1258.88
523.052	1049.88
523.267	1100.88
523.482	1065.88
523.698	1057.88
523.913	1031.88
524.128	1044.88
524.343	1084.88
524.559	1111.88
524.774	1064.88
524.989	1060.88
525.204	1055.88
525.419	1067.88
525.634	1018.88
525.849	1030.88
526.064	1047.88
526.28	1045.88
526.495	1024.88
526.71	976.88
526.925	951.88
527.14	947.88
527.355	913.88
527.57	948.88
527.785	980.88
527.999	985.88
528.214	960.88
528.429	982.88
528.644	1024.88
528.859	1028.88
529.074	1065.88
529.289	1108.88
529.503	1085.88
529.718	1066.88
529.933	977.88
530.148	983.88
530.363	956.88
530.577	954.88
530.792	969.88
531.007	950.88
531.221	945.88
531.436	949.88
531.651	1013.88
531.865	1034.88
532.08	1017.88
532.295	926.88
532.509	925.88
532.724	948.88
532.938	976.88
533.153	1007.88
533.367	987.88
533.582	994.88
533.796	999.88
534.011	990.88
534.225	995.88
534.44	946.88
534.654	955.88
534.868	959.88
535.083	974.88
535.297	1001.88
535.511	974.88
535.726	968.88
535.94	938.88
536.154	970.88
536.369	921.88
536.583	911.88
536.797	912.88
537.011	909.88
537.225	914.88
537.44	894.88
537.654	949.88
537.868	929.88
538.082	874.88
538.296	879.88
538.51	883.88
538.724	947.88
538.938	934.88
539.153	985.88
539.367	958.88
539.581	960.88
539.795	948.88
540.009	923.88
540.222	911.88
540.436	957.88
540.65	1040.88
540.864	1066.88
541.078	1029.88
541.292	979.88
541.506	1046.88
541.72	1080.88
541.934	1132.88
542.147	1153.88
542.361	1086.88
542.575	1027.88
542.789	1015.88
543.002	959.88
543.216	964.88
543.43	974.88
543.644	1011.88
543.857	1065.88
544.071	1055.88
544.285	1048.88
544.498	1053.88
544.712	1063.88
544.925	1085.88
545.139	1099.88
545.352	1027.88
545.566	1042.88
545.779	1028.88
545.993	1048.88
546.206	1090.88
546.42	1051.88
546.633	1053.88
546.847	1048.88
547.06	1041.88
547.274	1062.88
547.487	1054.88
547.7	1056.88
547.914	1061.88
548.127	1040.88
548.34	1054.88
548.554	1056.88
548.767	1020.88
548.98	1051.88
549.193	1028.88
549.407	1078.88
549.62	1043.88
549.833	1025.88
550.046	1002.88
550.259	1018.88
550.473	990.88
550.686	999.88
550.899	943.88
551.112	964.88
551.325	985.88
551.538	986.88
551.751	1111.88
551.964	880.88
552.177	896.88
552.39	946.88
552.603	966.88
552.816	993.88
553.029	1040.88
553.242	1047.88
553.455	1008.88
553.667	1024.88
553.88	1015.88
554.093	978.88
554.306	964.88
554.519	910.88
554.732	946.88
554.944	932.88
555.157	946.88
555.37	928.88
555.583	941.88
555.795	889.88
556.008	882.88
556.221	851.88
556.433	857.88
556.646	863.88
556.859	852.88
557.071	839.88
557.284	843.88
557.496	857.88
557.709	844.88
557.921	824.88
558.134	854.88
558.346	848.88
558.559	839.88
558.771	818.88
558.984	819.88
559.196	777.88
559.409	776.88
559.621	803.88
559.833	782.88
560.046	855.88
560.258	801.88
560.47	782.88
560.683	791.88
560.895	829.88
561.107	806.88
561.32	804.88
561.532	817.88
561.744	814.88
561.956	819.88
562.168	799.88
562.381	754.88
562.593	739.88
562.805	774.88
563.017	776.88
563.229	768.88
563.441	800.88
563.653	757.88
563.865	765.88
564.077	755.88
564.289	757.88
564.501	768.88
564.713	780.88
564.925	794.88
565.137	864.88
565.349	791.88
565.561	792.88
565.773	787.88
565.985	833.88
566.197	863.88
566.408	875.88
566.62	867.88
566.832	865.88
567.044	864.88
567.255	855.88
567.467	838.88
567.679	890.88
567.891	932.88
568.102	862.88
568.314	817.88
568.526	772.88
568.737	774.88
568.949	720.88
569.161	689.88
569.372	680.88
569.584	681.88
569.795	660.88
570.007	674.88
570.218	639.88
570.43	610.88
570.641	639.88
570.853	642.88
571.064	668.88
571.276	645.88
571.487	633.88
571.698	625.88
571.91	604.88
572.121	618.88
572.333	603.88
572.544	602.88
572.755	575.88
572.966	564.88
573.178	577.88
573.389	560.88
573.6	585.88
573.811	623.88
574.023	583.88
574.234	572.88
574.445	558.88
574.656	511.88
574.867	561.88
575.078	559.88
575.289	544.88
575.501	541.88
575.712	540.88
575.923	524.88
576.134	538.88
576.345	534.88
576.556	551.88
576.767	527.88
576.978	549.88
577.188	536.88
577.399	517.88
577.61	510.88
577.821	514.88
578.032	492.88
578.243	501.88
578.454	510.88
578.665	510.88
578.875	490.88
579.086	482.88
579.297	498.88
579.508	508.88
579.718	499.88
579.929	486.88
580.14	472.88
580.35	486.88
580.561	479.88
580.772	569.88
580.982	508.88
581.193	473.88
581.403	460.88
581.614	468.88
581.825	456.88
582.035	462.88
582.246	473.88
582.456	466.88
582.667	479.88
582.877	464.88
583.087	457.88
583.298	467.88
583.508	466.88
583.719	455.88
583.929	492.88
584.139	469.88
584.35	443.88
584.56	433.88
584.77	458.88
584.981	444.88
585.191	456.88
585.401	455.88
585.611	464.88
585.821	439.88
586.032	435.88
586.242	429.88
586.452	410.88
586.662	435.88
586.872	423.88
587.082	432.88
587.292	450.88
587.502	463.88
587.713	432.88
587.923	441.88
588.133	438.88
588.343	431.88
588.553	429.88
588.762	427.88
588.972	427.88
589.182	438.88
589.392	439.88
589.602	432.88
589.812	425.88
590.022	415.88
590.232	424.88
590.441	436.88
590.651	448.88
590.861	414.88
591.071	415.88
591.281	417.88
591.49	416.88
591.7	430.88
591.91	450.88
592.119	446.88
592.329	432.88
592.539	463.88
592.748	434.88
592.958	453.88
593.167	469.88
593.377	451.88
593.587	473.88
593.796	466.88
594.006	442.88
594.215	443.88
594.424	447.88
594.634	444.88
594.843	446.88
595.053	465.88
595.262	451.88
595.472	434.88
595.681	442.88
595.89	403.88
596.1	430.88
596.309	411.88
596.518	437.88
596.727	409.88
596.937	412.88
597.146	396.88
597.355	400.88
597.564	402.88
597.774	412.88
597.983	378.88
598.192	385.88
598.401	394.88
598.61	397.88
598.819	386.88
599.028	396.88
599.237	390.88
599.446	394.88
599.655	371.88
599.864	380.88
600.073	364.88
600.282	369.88
600.491	377.88
600.7	379.88
600.909	370.88
601.118	376.88
601.327	386.88
601.536	421.88
601.745	387.88
601.953	373.88
602.162	392.88
602.371	417.88
602.58	391.88
602.789	408.88
602.997	403.88
603.206	400.88
603.415	395.88
603.623	388.88
603.832	409.88
604.041	374.88
604.249	368.88
604.458	367.88
604.666	374.88
604.875	375.88
605.084	383.88
605.292	403.88
605.501	395.88
605.709	406.88
605.918	388.88
606.126	379.88
606.334	378.88
606.543	412.88
606.751	412.88
606.96	377.88
607.168	396.88
607.376	409.88
607.585	388.88
607.793	384.88
608.001	405.88
608.21	370.88
608.418	375.88
608.626	386.88
608.834	376.88
609.043	404.88
609.251	372.88
609.459	378.88
609.667	411.88
609.875	380.88
610.083	416.88
610.291	396.88
610.499	396.88
610.707	397.88
610.916	374.88
611.124	374.88
611.332	388.88
611.54	385.88
611.748	371.88
611.955	376.88
612.163	356.88
612.371	388.88
612.579	391.88
612.787	370.88
612.995	382.88
613.203	363.88
613.411	379.88
613.618	373.88
613.826	389.88
614.034	384.88
614.242	378.88
614.449	379.88
614.657	361.88
614.865	378.88
615.072	380.88
615.28	376.88
615.488	359.88
615.695	395.88
615.903	371.88
616.111	391.88
616.318	378.88
616.526	380.88
616.733	373.88
616.941	372.88
617.148	360.88
617.356	359.88
617.563	368.88
617.771	370.88
617.978	345.88
618.185	366.88
618.393	347.88
618.6	366.88
618.807	374.88
619.015	382.88
619.222	362.88
619.429	338.88
619.637	351.88
619.844	348.88
620.051	367.88
620.258	350.88
620.466	330.88
620.673	351.88
620.88	336.88
621.087	340.88
621.294	332.88
621.501	346.88
621.708	346.88
621.915	333.88
622.122	337.88
622.329	367.88
622.536	354.88
622.743	335.88
622.95	346.88
623.157	328.88
623.364	344.88
623.571	349.88
623.778	348.88
623.985	323.88
624.192	339.88
624.399	346.88
624.606	333.88
624.812	323.88
625.019	321.88
625.226	311.88
625.433	308.88
625.639	298.88
625.846	289.88
626.053	270.88
626.259	283.88
626.466	276.88
626.673	282.88
626.879	270.88
627.086	293.88
627.293	298.88
627.499	308.88
627.706	305.88
627.912	311.88
628.119	309.88
628.325	307.88
628.532	300.88
628.738	312.88
628.945	311.88
629.151	307.88
629.357	323.88
629.564	305.88
629.77	308.88
629.976	315.88
630.183	285.88
630.389	288.88
630.595	299.88
630.802	315.88
631.008	296.88
631.214	297.88
631.42	284.88
631.627	270.88
631.833	280.88
632.039	298.88
632.245	278.88
632.451	272.88
632.657	288.88
632.863	264.88
633.069	275.88
633.275	277.88
633.481	279.88
633.688	284.88
633.893	296.88
634.099	266.88
634.305	258.88
634.511	258.88
634.717	247.88
634.923	238.88
635.129	262.88
635.335	261.88
635.541	264.88
635.747	251.88
635.952	268.88
636.158	273.88
636.364	276.88
636.57	294.88
636.775	271.88
636.981	262.88
637.187	283.88
637.392	293.88
637.598	269.88
637.804	281.88
638.009	259.88
638.215	262.88
638.421	276.88
638.626	247.88
638.832	264.88
639.037	270.88
639.243	279.88
639.448	274.88
639.654	267.88
639.859	258.88
640.065	266.88
640.27	273.88
640.475	254.88
640.681	259.88
640.886	268.88
641.091	258.88
641.297	270.88
641.502	266.88
641.707	273.88
641.913	257.88
642.118	258.88
642.323	246.88
642.528	266.88
642.733	268.88
642.939	248.88
643.144	274.88
643.349	267.88
643.554	254.88
643.759	251.88
643.964	241.88
644.169	248.88
644.374	260.88
644.579	269.88
644.784	267.88
644.989	262.88
645.194	225.88
645.399	254.88
645.604	235.88
645.809	256.88
646.014	249.88
646.219	255.88
646.423	272.88
646.628	259.88
646.833	242.88
647.038	236.88
647.243	266.88
647.447	244.88
647.652	260.88
647.857	255.88
648.062	245.88
648.266	255.88
648.471	246.88
648.676	264.88
648.88	258.88
649.085	253.88
649.289	247.88
649.494	235.88
649.698	248.88
649.903	244.88
650.107	231.88
650.312	235.88
650.516	254.88
650.721	251.88
650.925	242.88
651.13	230.88
651.334	234.88
651.539	239.88
651.743	228.88
651.947	225.88
652.152	227.88
652.356	226.88
652.56	218.88
652.764	221.88
652.969	206.88
653.173	223.88
653.377	208.88
653.581	231.88
653.785	216.88
653.99	211.88
654.194	213.88
654.398	222.88
654.602	206.88
654.806	222.88
655.01	213.88
655.214	224.88
655.418	220.88
655.622	231.88
655.826	214.88
656.03	255.88
656.234	235.88
656.438	248.88
656.642	253.88
656.846	240.88
657.049	229.88
657.253	205.88
657.457	206.88
657.661	192.88
657.865	166.88
658.068	171.88
658.272	159.88
658.476	175.88
658.68	171.88
658.883	147.88
659.087	150.88
659.291	147.88
659.494	132.88
659.698	132.88
659.901	127.88
660.105	132.88
660.309	127.88
660.512	126.88
660.716	132.88
660.919	113.88
661.123	110.88
661.326	112.88
661.53	97.88
661.733	126.88
661.936	108.88
662.14	102.88
662.343	96.88
662.546	91.88
662.75	90.88
662.953	95.88
663.156	102.88
663.36	87.88
663.563	94.88
663.766	98.88
663.969	89.88
664.173	94.88
664.376	79.88
664.579	84.88
664.782	81.88
664.985	86.88
665.188	71.88
665.391	79.88
665.594	76.88
665.797	81.88
666	83.88
666.203	96.88
666.406	92.88
666.609	76.88
666.812	90.88
667.015	75.88
667.218	87.88
667.421	73.88
667.624	87.88
667.827	79.88
668.03	74.88
668.232	79.88
668.435	89.88
668.638	80.88
668.841	82.88
669.043	92.88
669.246	84.88
669.449	85.88
669.651	86.88
669.854	93.88
670.057	74.88
670.259	84.88
670.462	83.88
670.665	79.88
670.867	84.88
671.07	81.88
671.272	71.88
671.475	75.88
671.677	74.88
671.88	84.88
672.082	90.88
672.284	76.88
672.487	86.88
672.689	84.88
672.892	96.88
