Data from WStandard_LampEnergy10_LIBS07252019.E.O._I.C._HRD10591_15-53-28-928.txt Node
Date: Thu Jul 25 15:53:28 EDT 2019
User: cochatt
Spectrometer: HR+D1059
Trigger mode: 1
Integration Time (sec): 1.000000E-1
Scans to average: 1
Electric dark correction enabled: true
Nonlinearity correction enabled: false
Boxcar width: 0
XAxis mode: Wavelengths
Number of Pixels in Spectrum: 2048
>>>>>Begin Spectral Data<<<<<
223.165	-15.31
223.4	-15.31
223.635	-15.31
223.869	-26.31
224.104	-17.31
224.338	-5.31
224.573	-24.31
224.808	-12.31
225.042	-24.31
225.277	-2.31
225.511	5.69
225.746	0.69
225.98	7.69
226.215	16.69
226.449	21.69
226.683	13.69
226.918	16.69
227.152	44.69
227.387	37.69
227.621	30.69
227.856	40.69
228.09	48.69
228.324	52.69
228.559	60.69
228.793	66.69
229.027	131.69
229.262	124.69
229.496	148.69
229.73	136.69
229.964	155.69
230.199	162.69
230.433	174.69
230.667	179.69
230.901	188.69
231.136	171.69
231.37	163.69
231.604	168.69
231.838	177.69
232.072	170.69
232.306	164.69
232.541	186.69
232.775	202.69
233.009	206.69
233.243	203.69
233.477	186.69
233.711	187.69
233.945	195.69
234.179	196.69
234.413	214.69
234.647	211.69
234.881	182.69
235.115	181.69
235.349	182.69
235.583	197.69
235.817	205.69
236.051	185.69
236.285	190.69
236.519	197.69
236.753	205.69
236.987	213.69
237.221	223.69
237.455	221.69
237.689	227.69
237.922	205.69
238.156	234.69
238.39	218.69
238.624	229.69
238.858	248.69
239.091	243.69
239.325	263.69
239.559	282.69
239.793	285.69
240.027	312.69
240.26	290.69
240.494	244.69
240.728	236.69
240.961	243.69
241.195	231.69
241.429	254.69
241.662	244.69
241.896	249.69
242.13	239.69
242.363	258.69
242.597	286.69
242.83	262.69
243.064	288.69
243.298	289.69
243.531	293.69
243.765	283.69
243.998	270.69
244.232	236.69
244.465	243.69
244.699	264.69
244.932	294.69
245.166	298.69
245.399	298.69
245.633	278.69
245.866	262.69
246.099	280.69
246.333	301.69
246.566	309.69
246.8	343.69
247.033	336.69
247.266	294.69
247.5	323.69
247.733	322.69
247.966	334.69
248.2	358.69
248.433	346.69
248.666	371.69
248.899	398.69
249.133	427.69
249.366	451.69
249.599	405.69
249.832	366.69
250.066	357.69
250.299	385.69
250.532	348.69
250.765	330.69
250.998	325.69
251.231	334.69
251.465	348.69
251.698	334.69
251.931	356.69
252.164	349.69
252.397	365.69
252.63	338.69
252.863	329.69
253.096	316.69
253.329	343.69
253.562	333.69
253.795	357.69
254.028	360.69
254.261	324.69
254.494	327.69
254.727	338.69
254.96	331.69
255.193	369.69
255.426	401.69
255.659	445.69
255.892	463.69
256.124	393.69
256.357	384.69
256.59	410.69
256.823	410.69
257.056	399.69
257.289	465.69
257.521	502.69
257.754	467.69
257.987	444.69
258.22	460.69
258.452	453.69
258.685	419.69
258.918	416.69
259.151	390.69
259.383	382.69
259.616	341.69
259.849	341.69
260.081	393.69
260.314	440.69
260.547	482.69
260.779	472.69
261.012	433.69
261.244	410.69
261.477	398.69
261.71	399.69
261.942	400.69
262.175	391.69
262.407	415.69
262.64	386.69
262.872	394.69
263.105	356.69
263.337	364.69
263.57	352.69
263.802	370.69
264.035	336.69
264.267	340.69
264.499	328.69
264.732	368.69
264.964	362.69
265.197	398.69
265.429	421.69
265.661	458.69
265.894	472.69
266.126	498.69
266.358	452.69
266.591	460.69
266.823	487.69
267.055	451.69
267.287	466.69
267.52	426.69
267.752	422.69
267.984	464.69
268.216	492.69
268.448	468.69
268.681	471.69
268.913	430.69
269.145	406.69
269.377	418.69
269.609	438.69
269.841	503.69
270.073	564.69
270.306	630.69
270.538	624.69
270.77	539.69
271.002	495.69
271.234	462.69
271.466	491.69
271.698	530.69
271.93	609.69
272.162	583.69
272.394	522.69
272.626	519.69
272.858	457.69
273.09	420.69
273.322	411.69
273.553	413.69
273.785	398.69
274.017	409.69
274.249	431.69
274.481	432.69
274.713	396.69
274.945	398.69
275.176	415.69
275.408	413.69
275.64	408.69
275.872	419.69
276.104	424.69
276.335	479.69
276.567	525.69
276.799	518.69
277.031	482.69
277.262	474.69
277.494	485.69
277.726	538.69
277.957	490.69
278.189	465.69
278.421	452.69
278.652	408.69
278.884	419.69
279.115	416.69
279.347	447.69
279.579	447.69
279.81	433.69
280.042	467.69
280.273	524.69
280.505	507.69
280.736	515.69
280.968	472.69
281.199	455.69
281.431	433.69
281.662	415.69
281.894	405.69
282.125	417.69
282.356	436.69
282.588	472.69
282.819	470.69
283.051	500.69
283.282	515.69
283.513	486.69
283.745	446.69
283.976	418.69
284.207	428.69
284.439	458.69
284.67	438.69
284.901	450.69
285.132	457.69
285.364	460.69
285.595	456.69
285.826	465.69
286.057	446.69
286.288	452.69
286.52	498.69
286.751	488.69
286.982	494.69
287.213	450.69
287.444	432.69
287.675	426.69
287.906	481.69
288.138	485.69
288.369	468.69
288.6	440.69
288.831	442.69
289.062	439.69
289.293	457.69
289.524	457.69
289.755	464.69
289.986	471.69
290.217	443.69
290.448	447.69
290.679	451.69
290.91	455.69
291.141	496.69
291.371	486.69
291.602	466.69
291.833	465.69
292.064	488.69
292.295	462.69
292.526	500.69
292.757	506.69
292.987	486.69
293.218	463.69
293.449	536.69
293.68	575.69
293.91	579.69
294.141	549.69
294.372	532.69
294.603	578.69
294.833	546.69
295.064	552.69
295.295	502.69
295.525	488.69
295.756	436.69
295.987	452.69
296.217	449.69
296.448	454.69
296.679	447.69
296.909	468.69
297.14	468.69
297.37	483.69
297.601	495.69
297.831	516.69
298.062	513.69
298.292	486.69
298.523	485.69
298.753	456.69
298.984	475.69
299.214	503.69
299.445	487.69
299.675	484.69
299.905	480.69
300.136	476.69
300.366	468.69
300.597	478.69
300.827	468.69
301.057	506.69
301.288	510.69
301.518	516.69
301.748	519.69
301.979	545.69
302.209	526.69
302.439	586.69
302.669	606.69
302.9	557.69
303.13	518.69
303.36	512.69
303.59	492.69
303.82	517.69
304.051	515.69
304.281	495.69
304.511	520.69
304.741	569.69
304.971	607.69
305.201	615.69
305.431	539.69
305.661	476.69
305.891	440.69
306.121	464.69
306.352	471.69
306.582	502.69
306.812	536.69
307.042	588.69
307.272	557.69
307.502	584.69
307.731	631.69
307.961	625.69
308.191	575.69
308.421	521.69
308.651	502.69
308.881	506.69
309.111	510.69
309.341	493.69
309.571	503.69
309.8	496.69
310.03	507.69
310.26	476.69
310.49	494.69
310.72	517.69
310.949	540.69
311.179	534.69
311.409	526.69
311.639	495.69
311.868	512.69
312.098	501.69
312.328	511.69
312.557	514.69
312.787	520.69
313.017	509.69
313.246	540.69
313.476	509.69
313.706	528.69
313.935	516.69
314.165	504.69
314.394	571.69
314.624	602.69
314.853	605.69
315.083	642.69
315.312	604.69
315.542	572.69
315.771	515.69
316.001	528.69
316.23	552.69
316.46	544.69
316.689	562.69
316.919	520.69
317.148	515.69
317.377	535.69
317.607	583.69
317.836	636.69
318.065	641.69
318.295	597.69
318.524	582.69
318.753	568.69
318.983	568.69
319.212	554.69
319.441	561.69
319.67	560.69
319.9	556.69
320.129	594.69
320.358	619.69
320.587	626.69
320.816	605.69
321.046	605.69
321.275	584.69
321.504	610.69
321.733	620.69
321.962	601.69
322.191	550.69
322.42	556.69
322.649	538.69
322.878	575.69
323.108	570.69
323.337	580.69
323.566	587.69
323.795	589.69
324.024	575.69
324.253	552.69
324.482	575.69
324.71	546.69
324.939	514.69
325.168	548.69
325.397	563.69
325.626	587.69
325.855	580.69
326.084	546.69
326.313	572.69
326.542	580.69
326.77	591.69
326.999	551.69
327.228	538.69
327.457	529.69
327.686	514.69
327.914	568.69
328.143	565.69
328.372	543.69
328.6	539.69
328.829	559.69
329.058	538.69
329.287	546.69
329.515	560.69
329.744	597.69
329.972	605.69
330.201	599.69
330.43	615.69
330.658	587.69
330.887	607.69
331.115	600.69
331.344	592.69
331.572	582.69
331.801	579.69
332.03	567.69
332.258	607.69
332.486	604.69
332.715	611.69
332.943	596.69
333.172	583.69
333.4	598.69
333.629	623.69
333.857	673.69
334.085	741.69
334.314	807.69
334.542	830.69
334.771	797.69
334.999	707.69
335.227	658.69
335.455	640.69
335.684	652.69
335.912	653.69
336.14	648.69
336.369	609.69
336.597	596.69
336.825	607.69
337.053	647.69
337.281	656.69
337.51	675.69
337.738	700.69
337.966	655.69
338.194	610.69
338.422	576.69
338.65	597.69
338.878	590.69
339.106	584.69
339.334	565.69
339.562	562.69
339.79	575.69
340.018	620.69
340.246	632.69
340.474	608.69
340.702	626.69
340.93	638.69
341.158	629.69
341.386	616.69
341.614	594.69
341.842	613.69
342.07	589.69
342.298	612.69
342.526	630.69
342.754	597.69
342.981	587.69
343.209	608.69
343.437	612.69
343.665	588.69
343.893	600.69
344.12	632.69
344.348	632.69
344.576	610.69
344.804	603.69
345.031	598.69
345.259	566.69
345.487	568.69
345.714	529.69
345.942	559.69
346.17	559.69
346.397	580.69
346.625	577.69
346.853	542.69
347.08	518.69
347.308	547.69
347.535	579.69
347.763	576.69
347.99	567.69
348.218	548.69
348.445	568.69
348.673	583.69
348.9	598.69
349.128	605.69
349.355	607.69
349.583	575.69
349.81	563.69
350.037	524.69
350.265	528.69
350.492	547.69
350.72	546.69
350.947	567.69
351.174	584.69
351.402	516.69
351.629	540.69
351.856	529.69
352.083	528.69
352.311	555.69
352.538	576.69
352.765	581.69
352.992	581.69
353.22	536.69
353.447	543.69
353.674	575.69
353.901	570.69
354.128	560.69
354.355	562.69
354.583	595.69
354.81	613.69
355.037	583.69
355.264	605.69
355.491	569.69
355.718	561.69
355.945	571.69
356.172	548.69
356.399	555.69
356.626	569.69
356.853	610.69
357.08	633.69
357.307	674.69
357.534	657.69
357.761	579.69
357.988	566.69
358.215	510.69
358.441	556.69
358.668	542.69
358.895	546.69
359.122	605.69
359.349	642.69
359.576	595.69
359.802	559.69
360.029	542.69
360.256	551.69
360.483	550.69
360.709	585.69
360.936	614.69
361.163	628.69
361.39	675.69
361.616	712.69
361.843	690.69
362.07	657.69
362.296	589.69
362.523	547.69
362.749	559.69
362.976	568.69
363.203	571.69
363.429	544.69
363.656	548.69
363.882	607.69
364.109	642.69
364.335	666.69
364.562	618.69
364.788	592.69
365.015	574.69
365.241	560.69
365.468	577.69
365.694	614.69
365.92	624.69
366.147	567.69
366.373	564.69
366.599	562.69
366.826	553.69
367.052	543.69
367.278	578.69
367.505	598.69
367.731	605.69
367.957	618.69
368.184	658.69
368.41	661.69
368.636	662.69
368.862	695.69
369.089	660.69
369.315	626.69
369.541	618.69
369.767	581.69
369.993	594.69
370.219	604.69
370.445	600.69
370.672	645.69
370.898	655.69
371.124	624.69
371.35	654.69
371.576	662.69
371.802	657.69
372.028	630.69
372.254	602.69
372.48	582.69
372.706	586.69
372.932	600.69
373.158	614.69
373.384	639.69
373.61	644.69
373.835	661.69
374.061	610.69
374.287	585.69
374.513	607.69
374.739	624.69
374.965	624.69
375.191	633.69
375.416	637.69
375.642	662.69
375.868	716.69
376.094	702.69
376.319	673.69
376.545	634.69
376.771	668.69
376.997	691.69
377.222	679.69
377.448	675.69
377.674	679.69
377.899	697.69
378.125	712.69
378.35	671.69
378.576	622.69
378.802	628.69
379.027	596.69
379.253	612.69
379.478	625.69
379.704	654.69
379.929	638.69
380.155	648.69
380.38	683.69
380.606	650.69
380.831	676.69
381.057	690.69
381.282	680.69
381.507	669.69
381.733	739.69
381.958	730.69
382.184	675.69
382.409	642.69
382.634	670.69
382.86	684.69
383.085	682.69
383.31	717.69
383.535	784.69
383.761	793.69
383.986	760.69
384.211	750.69
384.436	712.69
384.662	774.69
384.887	772.69
385.112	736.69
385.337	727.69
385.562	749.69
385.787	755.69
386.013	738.69
386.238	742.69
386.463	782.69
386.688	855.69
386.913	863.69
387.138	823.69
387.363	776.69
387.588	778.69
387.813	786.69
388.038	789.69
388.263	795.69
388.488	759.69
388.713	719.69
388.938	727.69
389.163	715.69
389.387	733.69
389.612	733.69
389.837	755.69
390.062	758.69
390.287	755.69
390.512	707.69
390.736	746.69
390.961	747.69
391.186	741.69
391.411	748.69
391.636	726.69
391.86	743.69
392.085	742.69
392.31	762.69
392.534	738.69
392.759	753.69
392.984	769.69
393.208	764.69
393.433	799.69
393.658	803.69
393.882	873.69
394.107	787.69
394.331	760.69
394.556	751.69
394.78	758.69
395.005	806.69
395.229	841.69
395.454	892.69
395.678	885.69
395.903	842.69
396.127	817.69
396.352	818.69
396.576	864.69
396.801	843.69
397.025	833.69
397.249	848.69
397.474	810.69
397.698	836.69
397.922	867.69
398.147	890.69
398.371	925.69
398.595	879.69
398.82	855.69
399.044	884.69
399.268	958.69
399.492	967.69
399.717	996.69
399.941	1001.69
400.165	959.69
400.389	956.69
400.613	977.69
400.837	1126.69
401.062	1177.69
401.286	1037.69
401.51	982.69
401.734	978.69
401.958	933.69
402.182	888.69
402.406	898.69
402.63	915.69
402.854	877.69
403.078	911.69
403.302	884.69
403.526	935.69
403.75	948.69
403.974	946.69
404.198	920.69
404.422	1003.69
404.645	1029.69
404.869	983.69
405.093	922.69
405.317	928.69
405.541	942.69
405.765	919.69
405.988	936.69
406.212	968.69
406.436	967.69
406.66	1000.69
406.883	1023.69
407.107	1119.69
407.331	1218.69
407.555	1262.69
407.778	1125.69
408.002	975.69
408.226	977.69
408.449	991.69
408.673	970.69
408.896	949.69
409.12	966.69
409.344	950.69
409.567	930.69
409.791	940.69
410.014	963.69
410.238	1025.69
410.461	1071.69
410.685	979.69
410.908	927.69
411.132	968.69
411.355	935.69
411.578	943.69
411.802	958.69
412.025	928.69
412.249	951.69
412.472	935.69
412.695	923.69
412.919	895.69
413.142	917.69
413.365	930.69
413.589	955.69
413.812	1008.69
414.035	1000.69
414.258	934.69
414.482	893.69
414.705	893.69
414.928	901.69
415.151	921.69
415.374	924.69
415.597	952.69
415.821	949.69
416.044	952.69
416.267	933.69
416.49	926.69
416.713	933.69
416.936	982.69
417.159	991.69
417.382	979.69
417.605	935.69
417.828	949.69
418.051	944.69
418.274	928.69
418.497	942.69
418.72	922.69
418.943	922.69
419.166	972.69
419.389	987.69
419.611	949.69
419.834	924.69
420.057	945.69
420.28	936.69
420.503	923.69
420.726	966.69
420.948	924.69
421.171	902.69
421.394	936.69
421.617	971.69
421.839	980.69
422.062	990.69
422.285	978.69
422.507	946.69
422.73	907.69
422.953	874.69
423.175	886.69
423.398	915.69
423.621	914.69
423.843	942.69
424.066	972.69
424.288	1015.69
424.511	1041.69
424.733	1002.69
424.956	941.69
425.178	926.69
425.401	936.69
425.623	942.69
425.846	934.69
426.068	974.69
426.291	979.69
426.513	955.69
426.735	952.69
426.958	1037.69
427.18	1034.69
427.402	995.69
427.625	1016.69
427.847	986.69
428.069	922.69
428.292	924.69
428.514	905.69
428.736	916.69
428.958	910.69
429.181	936.69
429.403	1068.69
429.625	1215.69
429.847	1068.69
430.069	976.69
430.292	1031.69
430.514	1053.69
430.736	974.69
430.958	958.69
431.18	934.69
431.402	883.69
431.624	844.69
431.846	799.69
432.068	729.69
432.29	740.69
432.512	799.69
432.734	864.69
432.956	923.69
433.178	933.69
433.4	944.69
433.622	980.69
433.844	908.69
434.066	850.69
434.287	805.69
434.509	798.69
434.731	822.69
434.953	940.69
435.175	927.69
435.397	913.69
435.618	903.69
435.84	837.69
436.062	869.69
436.284	911.69
436.505	910.69
436.727	945.69
436.949	930.69
437.17	920.69
437.392	869.69
437.614	894.69
437.835	810.69
438.057	799.69
438.278	857.69
438.5	886.69
438.721	898.69
438.943	929.69
439.165	918.69
439.386	932.69
439.608	949.69
439.829	948.69
440.05	975.69
440.272	976.69
440.493	948.69
440.715	988.69
440.936	1035.69
441.158	1072.69
441.379	1052.69
441.6	1020.69
441.822	1019.69
442.043	989.69
442.264	987.69
442.486	959.69
442.707	955.69
442.928	928.69
443.149	973.69
443.371	1022.69
443.592	1044.69
443.813	1007.69
444.034	1016.69
444.255	1035.69
444.476	1007.69
444.698	1041.69
444.919	1055.69
445.14	1149.69
445.361	1095.69
445.582	1100.69
445.803	1042.69
446.024	1036.69
446.245	1093.69
446.466	1054.69
446.687	1013.69
446.908	1059.69
447.129	1007.69
447.35	1018.69
447.571	981.69
447.792	987.69
448.013	980.69
448.234	983.69
448.455	994.69
448.675	977.69
448.896	943.69
449.117	910.69
449.338	933.69
449.559	987.69
449.779	957.69
450	1024.69
450.221	1040.69
450.442	995.69
450.662	940.69
450.883	888.69
451.104	886.69
451.324	885.69
451.545	921.69
451.766	870.69
451.986	855.69
452.207	818.69
452.428	810.69
452.648	776.69
452.869	784.69
453.089	781.69
453.31	788.69
453.53	764.69
453.751	752.69
453.971	720.69
454.192	711.69
454.412	760.69
454.633	779.69
454.853	762.69
455.073	768.69
455.294	760.69
455.514	772.69
455.734	773.69
455.955	786.69
456.175	741.69
456.395	739.69
456.616	749.69
456.836	755.69
457.056	750.69
457.276	715.69
457.497	701.69
457.717	667.69
457.937	696.69
458.157	694.69
458.377	678.69
458.598	679.69
458.818	683.69
459.038	727.69
459.258	728.69
459.478	718.69
459.698	707.69
459.918	745.69
460.138	805.69
460.358	831.69
460.578	839.69
460.798	868.69
461.018	895.69
461.238	883.69
461.458	855.69
461.678	835.69
461.898	842.69
462.118	826.69
462.338	826.69
462.558	842.69
462.777	831.69
462.997	859.69
463.217	872.69
463.437	868.69
463.657	837.69
463.876	840.69
464.096	818.69
464.316	848.69
464.536	868.69
464.755	875.69
464.975	867.69
465.195	854.69
465.414	871.69
465.634	870.69
465.854	890.69
466.073	957.69
466.293	958.69
466.512	881.69
466.732	893.69
466.951	906.69
467.171	891.69
467.391	852.69
467.61	897.69
467.829	929.69
468.049	1000.69
468.268	1042.69
468.488	985.69
468.707	927.69
468.927	917.69
469.146	899.69
469.365	930.69
469.585	904.69
469.804	919.69
470.023	934.69
470.243	936.69
470.462	941.69
470.681	902.69
470.901	935.69
471.12	941.69
471.339	935.69
471.558	898.69
471.777	919.69
471.997	898.69
472.216	851.69
472.435	786.69
472.654	762.69
472.873	806.69
473.092	862.69
473.311	830.69
473.53	824.69
473.749	819.69
473.968	835.69
474.187	854.69
474.406	851.69
474.625	858.69
474.844	871.69
475.063	854.69
475.282	877.69
475.501	822.69
475.72	859.69
475.939	918.69
476.158	916.69
476.377	858.69
476.596	875.69
476.814	844.69
477.033	830.69
477.252	853.69
477.471	903.69
477.69	896.69
477.908	940.69
478.127	967.69
478.346	1025.69
478.564	1015.69
478.783	1002.69
479.002	1023.69
479.22	1039.69
479.439	1032.69
479.658	1038.69
479.876	972.69
480.095	887.69
480.313	882.69
480.532	913.69
480.751	862.69
480.969	818.69
481.188	780.69
481.406	805.69
481.624	752.69
481.843	794.69
482.061	823.69
482.28	868.69
482.498	883.69
482.717	839.69
482.935	894.69
483.153	980.69
483.372	1042.69
483.59	1029.69
483.808	977.69
484.027	922.69
484.245	983.69
484.463	1222.69
484.681	1317.69
484.9	1026.69
485.118	971.69
485.336	922.69
485.554	900.69
485.772	900.69
485.99	886.69
486.209	882.69
486.427	880.69
486.645	921.69
486.863	1004.69
487.081	1040.69
487.299	1006.69
487.517	1026.69
487.735	1100.69
487.953	1197.69
488.171	1207.69
488.389	1163.69
488.607	1104.69
488.825	1156.69
489.043	1084.69
489.261	997.69
489.479	1060.69
489.696	1054.69
489.914	1018.69
490.132	1036.69
490.35	1107.69
490.568	1159.69
490.786	1181.69
491.003	1208.69
491.221	1252.69
491.439	1274.69
491.657	1307.69
491.874	1378.69
492.092	1442.69
492.31	1488.69
492.527	1481.69
492.745	1409.69
492.963	1343.69
493.18	1324.69
493.398	1344.69
493.615	1330.69
493.833	1288.69
494.05	1250.69
494.268	1216.69
494.485	1242.69
494.703	1223.69
494.92	1239.69
495.138	1201.69
495.355	1228.69
495.573	1274.69
495.79	1308.69
496.008	1298.69
496.225	1252.69
496.442	1243.69
496.66	1265.69
496.877	1253.69
497.094	1258.69
497.312	1239.69
497.529	1198.69
497.746	1223.69
497.963	1285.69
498.181	1311.69
498.398	1233.69
498.615	1208.69
498.832	1140.69
499.049	1160.69
499.267	1205.69
499.484	1296.69
499.701	1347.69
499.918	1372.69
500.135	1515.69
500.352	1582.69
500.569	1589.69
500.786	1690.69
501.003	1596.69
501.22	1447.69
501.437	1372.69
501.654	1428.69
501.871	1368.69
502.088	1212.69
502.305	1172.69
502.522	1116.69
502.739	1121.69
502.956	1076.69
503.172	1078.69
503.389	1030.69
503.606	998.69
503.823	982.69
504.04	992.69
504.256	1034.69
504.473	1019.69
504.69	1007.69
504.907	972.69
505.123	973.69
505.34	1056.69
505.557	1383.69
505.773	1112.69
505.99	976.69
506.207	916.69
506.423	904.69
506.64	898.69
506.856	939.69
507.073	1071.69
507.289	1099.69
507.506	1024.69
507.722	900.69
507.939	859.69
508.155	860.69
508.372	839.69
508.588	838.69
508.805	839.69
509.021	796.69
509.238	782.69
509.454	755.69
509.67	770.69
509.887	726.69
510.103	735.69
510.319	756.69
510.536	782.69
510.752	810.69
510.968	766.69
511.184	791.69
511.401	766.69
511.617	689.69
511.833	688.69
512.049	722.69
512.265	698.69
512.481	703.69
512.698	727.69
512.914	787.69
513.13	758.69
513.346	739.69
513.562	701.69
513.778	743.69
513.994	736.69
514.21	758.69
514.426	810.69
514.642	820.69
514.858	770.69
515.074	721.69
515.29	725.69
515.506	752.69
515.721	715.69
515.937	735.69
516.153	819.69
516.369	787.69
516.585	737.69
516.801	704.69
517.016	727.69
517.232	755.69
517.448	749.69
517.664	777.69
517.879	785.69
518.095	817.69
518.311	781.69
518.527	758.69
518.742	759.69
518.958	722.69
519.173	754.69
519.389	794.69
519.605	779.69
519.82	780.69
520.036	780.69
520.251	771.69
520.467	801.69
520.682	830.69
520.898	781.69
521.113	707.69
521.329	719.69
521.544	745.69
521.76	706.69
521.975	727.69
522.19	706.69
522.406	723.69
522.621	935.69
522.836	886.69
523.052	726.69
523.267	724.69
523.482	788.69
523.698	728.69
523.913	733.69
524.128	769.69
524.343	814.69
524.559	831.69
524.774	789.69
524.989	776.69
525.204	773.69
525.419	755.69
525.634	734.69
525.849	718.69
526.064	724.69
526.28	700.69
526.495	680.69
526.71	654.69
526.925	651.69
527.14	607.69
527.355	604.69
527.57	612.69
527.785	659.69
527.999	642.69
528.214	686.69
528.429	693.69
528.644	740.69
528.859	788.69
529.074	806.69
529.289	877.69
529.503	859.69
529.718	801.69
529.933	697.69
530.148	656.69
530.363	671.69
530.577	646.69
530.792	625.69
531.007	629.69
531.221	637.69
531.436	633.69
531.651	652.69
531.865	655.69
532.08	672.69
532.295	624.69
532.509	613.69
532.724	627.69
532.938	661.69
533.153	708.69
533.367	738.69
533.582	773.69
533.796	714.69
534.011	700.69
534.225	661.69
534.44	636.69
534.654	644.69
534.868	647.69
535.083	691.69
535.297	690.69
535.511	670.69
535.726	688.69
535.94	677.69
536.154	638.69
536.369	610.69
536.583	605.69
536.797	598.69
537.011	602.69
537.225	612.69
537.44	602.69
537.654	657.69
537.868	622.69
538.082	615.69
538.296	600.69
538.51	630.69
538.724	699.69
538.938	706.69
539.153	749.69
539.367	731.69
539.581	688.69
539.795	683.69
540.009	626.69
540.222	636.69
540.436	662.69
540.65	768.69
540.864	780.69
541.078	833.69
541.292	844.69
541.506	908.69
541.72	973.69
541.934	1043.69
542.147	1053.69
542.361	1010.69
542.575	945.69
542.789	848.69
543.002	789.69
543.216	740.69
543.43	769.69
543.644	826.69
543.857	886.69
544.071	912.69
544.285	956.69
544.498	906.69
544.712	927.69
544.925	965.69
545.139	955.69
545.352	952.69
545.566	947.69
545.779	924.69
545.993	960.69
546.206	968.69
546.42	940.69
546.633	962.69
546.847	955.69
547.06	935.69
547.274	977.69
547.487	962.69
547.7	1005.69
547.914	975.69
548.127	968.69
548.34	962.69
548.554	943.69
548.767	905.69
548.98	918.69
549.193	917.69
549.407	983.69
549.62	959.69
549.833	920.69
550.046	930.69
550.259	934.69
550.473	900.69
550.686	890.69
550.899	882.69
551.112	862.69
551.325	849.69
551.538	854.69
551.751	859.69
551.964	718.69
552.177	724.69
552.39	828.69
552.603	853.69
552.816	885.69
553.029	892.69
553.242	920.69
553.455	934.69
553.667	904.69
553.88	874.69
554.093	874.69
554.306	831.69
554.519	858.69
554.732	842.69
554.944	834.69
555.157	837.69
555.37	812.69
555.583	782.69
555.795	749.69
556.008	728.69
556.221	721.69
556.433	702.69
556.646	728.69
556.859	743.69
557.071	754.69
557.284	752.69
557.496	762.69
557.709	763.69
557.921	731.69
558.134	740.69
558.346	735.69
558.559	723.69
558.771	739.69
558.984	702.69
559.196	673.69
559.409	675.69
559.621	645.69
559.833	657.69
560.046	687.69
560.258	683.69
560.47	687.69
560.683	663.69
560.895	673.69
561.107	652.69
561.32	652.69
561.532	662.69
561.744	657.69
561.956	677.69
562.168	688.69
562.381	634.69
562.593	656.69
562.805	649.69
563.017	634.69
563.229	629.69
563.441	637.69
563.653	630.69
563.865	620.69
564.077	621.69
564.289	625.69
564.501	627.69
564.713	654.69
564.925	626.69
565.137	658.69
565.349	629.69
565.561	598.69
565.773	626.69
565.985	614.69
566.197	655.69
566.408	675.69
566.62	703.69
566.832	672.69
567.044	674.69
567.255	664.69
567.467	632.69
567.679	661.69
567.891	666.69
568.102	619.69
568.314	564.69
568.526	537.69
568.737	514.69
568.949	476.69
569.161	460.69
569.372	457.69
569.584	450.69
569.795	450.69
570.007	428.69
570.218	443.69
570.43	448.69
570.641	428.69
570.853	482.69
571.064	480.69
571.276	490.69
571.487	481.69
571.698	494.69
571.91	485.69
572.121	467.69
572.333	431.69
572.544	441.69
572.755	421.69
572.966	422.69
573.178	377.69
573.389	406.69
573.6	418.69
573.811	433.69
574.023	419.69
574.234	406.69
574.445	394.69
574.656	402.69
574.867	384.69
575.078	418.69
575.289	391.69
575.501	385.69
575.712	389.69
575.923	376.69
576.134	405.69
576.345	404.69
576.556	403.69
576.767	398.69
576.978	424.69
577.188	391.69
577.399	375.69
577.61	372.69
577.821	383.69
578.032	372.69
578.243	353.69
578.454	382.69
578.665	359.69
578.875	343.69
579.086	322.69
579.297	340.69
579.508	342.69
579.718	352.69
579.929	348.69
580.14	330.69
580.35	318.69
580.561	346.69
580.772	408.69
580.982	362.69
581.193	342.69
581.403	353.69
581.614	351.69
581.825	336.69
582.035	334.69
582.246	332.69
582.456	372.69
582.667	358.69
582.877	339.69
583.087	322.69
583.298	302.69
583.508	324.69
583.719	327.69
583.929	338.69
584.139	326.69
584.35	313.69
584.56	312.69
584.77	325.69
584.981	332.69
585.191	320.69
585.401	318.69
585.611	331.69
585.821	315.69
586.032	334.69
586.242	323.69
586.452	309.69
586.662	313.69
586.872	304.69
587.082	302.69
587.292	314.69
587.502	315.69
587.713	308.69
587.923	309.69
588.133	318.69
588.343	332.69
588.553	314.69
588.762	318.69
588.972	311.69
589.182	320.69
589.392	312.69
589.602	314.69
589.812	300.69
590.022	290.69
590.232	307.69
590.441	329.69
590.651	316.69
590.861	323.69
591.071	314.69
591.281	309.69
591.49	302.69
591.7	303.69
591.91	313.69
592.119	308.69
592.329	325.69
592.539	311.69
592.748	319.69
592.958	328.69
593.167	312.69
593.377	302.69
593.587	323.69
593.796	321.69
594.006	331.69
594.215	313.69
594.424	324.69
594.634	343.69
594.843	342.69
595.053	342.69
595.262	332.69
595.472	331.69
595.681	334.69
595.89	318.69
596.1	333.69
596.309	309.69
596.518	327.69
596.727	335.69
596.937	343.69
597.146	321.69
597.355	310.69
597.564	314.69
597.774	295.69
597.983	263.69
598.192	286.69
598.401	272.69
598.61	263.69
598.819	291.69
599.028	293.69
599.237	294.69
599.446	304.69
599.655	298.69
599.864	291.69
600.073	284.69
600.282	307.69
600.491	286.69
600.7	292.69
600.909	302.69
601.118	312.69
601.327	308.69
601.536	347.69
601.745	347.69
601.953	349.69
602.162	329.69
602.371	367.69
602.58	327.69
602.789	343.69
602.997	364.69
603.206	346.69
603.415	343.69
603.623	361.69
603.832	364.69
604.041	334.69
604.249	304.69
604.458	292.69
604.666	307.69
604.875	283.69
605.084	316.69
605.292	324.69
605.501	348.69
605.709	362.69
605.918	359.69
606.126	374.69
606.334	357.69
606.543	366.69
606.751	372.69
606.96	365.69
607.168	338.69
607.376	343.69
607.585	367.69
607.793	354.69
608.001	366.69
608.21	350.69
608.418	374.69
608.626	353.69
608.834	350.69
609.043	380.69
609.251	366.69
609.459	338.69
609.667	376.69
609.875	384.69
610.083	368.69
610.291	381.69
610.499	364.69
610.707	355.69
610.916	372.69
611.124	357.69
611.332	340.69
611.54	370.69
611.748	351.69
611.955	342.69
612.163	369.69
612.371	368.69
612.579	374.69
612.787	379.69
612.995	369.69
613.203	371.69
613.411	364.69
613.618	365.69
613.826	359.69
614.034	349.69
614.242	355.69
614.449	349.69
614.657	353.69
614.865	360.69
615.072	356.69
615.28	335.69
615.488	359.69
615.695	347.69
615.903	348.69
616.111	359.69
616.318	341.69
616.526	359.69
616.733	362.69
616.941	364.69
617.148	365.69
617.356	354.69
617.563	342.69
617.771	331.69
617.978	326.69
618.185	335.69
618.393	339.69
618.6	342.69
618.807	340.69
619.015	349.69
619.222	372.69
619.429	344.69
619.637	295.69
619.844	292.69
620.051	306.69
620.258	318.69
620.466	328.69
620.673	308.69
620.88	309.69
621.087	313.69
621.294	305.69
621.501	296.69
621.708	291.69
621.915	311.69
622.122	328.69
622.329	316.69
622.536	321.69
622.743	320.69
622.95	315.69
623.157	315.69
623.364	321.69
623.571	317.69
623.778	308.69
623.985	326.69
624.192	324.69
624.399	311.69
624.606	301.69
624.812	316.69
625.019	303.69
625.226	310.69
625.433	291.69
625.639	299.69
625.846	275.69
626.053	244.69
626.259	247.69
626.466	258.69
626.673	247.69
626.879	229.69
627.086	252.69
627.293	268.69
627.499	277.69
627.706	297.69
627.912	303.69
628.119	311.69
628.325	313.69
628.532	291.69
628.738	292.69
628.945	301.69
629.151	290.69
629.357	300.69
629.564	294.69
629.77	284.69
629.976	278.69
630.183	254.69
630.389	258.69
630.595	270.69
630.802	283.69
631.008	272.69
631.214	264.69
631.42	274.69
631.627	275.69
631.833	251.69
632.039	269.69
632.245	262.69
632.451	266.69
632.657	276.69
632.863	242.69
633.069	264.69
633.275	266.69
633.481	235.69
633.688	244.69
633.893	276.69
634.099	256.69
634.305	244.69
634.511	258.69
634.717	252.69
634.923	230.69
635.129	229.69
635.335	235.69
635.541	238.69
635.747	240.69
635.952	242.69
636.158	265.69
636.364	258.69
636.57	263.69
636.775	270.69
636.981	269.69
637.187	240.69
637.392	257.69
637.598	257.69
637.804	271.69
638.009	259.69
638.215	260.69
638.421	270.69
638.626	250.69
638.832	239.69
639.037	246.69
639.243	244.69
639.448	244.69
639.654	221.69
639.859	234.69
640.065	244.69
640.27	258.69
640.475	251.69
640.681	247.69
640.886	239.69
641.091	241.69
641.297	259.69
641.502	262.69
641.707	264.69
641.913	236.69
642.118	261.69
642.323	241.69
642.528	248.69
642.733	234.69
642.939	232.69
643.144	215.69
643.349	222.69
643.554	272.69
643.759	241.69
643.964	234.69
644.169	252.69
644.374	235.69
644.579	226.69
644.784	231.69
644.989	260.69
645.194	212.69
645.399	247.69
645.604	240.69
645.809	244.69
646.014	239.69
646.219	238.69
646.423	234.69
646.628	229.69
646.833	217.69
647.038	219.69
647.243	235.69
647.447	235.69
647.652	243.69
647.857	239.69
648.062	251.69
648.266	234.69
648.471	225.69
648.676	236.69
648.88	238.69
649.085	240.69
649.289	230.69
649.494	228.69
649.698	225.69
649.903	244.69
650.107	222.69
650.312	233.69
650.516	242.69
650.721	225.69
650.925	239.69
651.13	208.69
651.334	215.69
651.539	217.69
651.743	216.69
651.947	219.69
652.152	235.69
652.356	208.69
652.56	218.69
652.764	234.69
652.969	213.69
653.173	204.69
653.377	200.69
653.581	197.69
653.785	189.69
653.99	202.69
654.194	192.69
654.398	201.69
654.602	206.69
654.806	195.69
655.01	194.69
655.214	201.69
655.418	189.69
655.622	199.69
655.826	205.69
656.03	205.69
656.234	212.69
656.438	224.69
656.642	214.69
656.846	213.69
657.049	205.69
657.253	181.69
657.457	183.69
657.661	181.69
657.865	168.69
658.068	161.69
658.272	161.69
658.476	175.69
658.68	144.69
658.883	130.69
659.087	136.69
659.291	136.69
659.494	153.69
659.698	135.69
659.901	142.69
660.105	138.69
660.309	101.69
660.512	128.69
660.716	134.69
660.919	120.69
661.123	102.69
661.326	104.69
661.53	98.69
661.733	102.69
661.936	101.69
662.14	95.69
662.343	108.69
662.546	89.69
662.75	71.69
662.953	93.69
663.156	99.69
663.36	78.69
663.563	79.69
663.766	99.69
663.969	85.69
664.173	81.69
664.376	96.69
664.579	85.69
664.782	71.69
664.985	81.69
665.188	84.69
665.391	77.69
665.594	70.69
665.797	86.69
666	66.69
666.203	80.69
666.406	69.69
666.609	61.69
666.812	90.69
667.015	90.69
667.218	75.69
667.421	77.69
667.624	76.69
667.827	92.69
668.03	79.69
668.232	77.69
668.435	83.69
668.638	71.69
668.841	96.69
669.043	86.69
669.246	79.69
669.449	72.69
669.651	89.69
669.854	78.69
670.057	52.69
670.259	89.69
670.462	74.69
670.665	74.69
670.867	82.69
671.07	75.69
671.272	68.69
671.475	87.69
671.677	79.69
671.88	73.69
672.082	72.69
672.284	80.69
672.487	79.69
672.689	72.69
672.892	75.69
