Data from WStandard_LampEnergy10_LIBS07252019.E.O._I.C._HRD10591_15-54-55-928.txt Node
Date: Thu Jul 25 15:54:55 EDT 2019
User: cochatt
Spectrometer: HR+D1059
Trigger mode: 1
Integration Time (sec): 1.000000E-1
Scans to average: 1
Electric dark correction enabled: true
Nonlinearity correction enabled: false
Boxcar width: 0
XAxis mode: Wavelengths
Number of Pixels in Spectrum: 2048
>>>>>Begin Spectral Data<<<<<
223.165	-19.31
223.4	-19.31
223.635	-19.31
223.869	-12.31
224.104	-16.31
224.338	-12.31
224.573	-14.31
224.808	-8.31
225.042	-6.31
225.277	-3.31
225.511	7.69
225.746	6.69
225.98	-9.31
226.215	-2.31
226.449	19.69
226.683	14.69
226.918	28.69
227.152	26.69
227.387	36.69
227.621	33.69
227.856	30.69
228.09	48.69
228.324	48.69
228.559	64.69
228.793	80.69
229.027	132.69
229.262	142.69
229.496	129.69
229.73	150.69
229.964	167.69
230.199	180.69
230.433	164.69
230.667	176.69
230.901	189.69
231.136	165.69
231.37	178.69
231.604	170.69
231.838	184.69
232.072	174.69
232.306	167.69
232.541	175.69
232.775	200.69
233.009	204.69
233.243	201.69
233.477	188.69
233.711	194.69
233.945	198.69
234.179	186.69
234.413	209.69
234.647	217.69
234.881	199.69
235.115	208.69
235.349	205.69
235.583	206.69
235.817	202.69
236.051	192.69
236.285	185.69
236.519	207.69
236.753	210.69
236.987	224.69
237.221	228.69
237.455	229.69
237.689	230.69
237.922	232.69
238.156	236.69
238.39	212.69
238.624	240.69
238.858	232.69
239.091	243.69
239.325	254.69
239.559	289.69
239.793	301.69
240.027	311.69
240.26	304.69
240.494	238.69
240.728	252.69
240.961	241.69
241.195	253.69
241.429	270.69
241.662	247.69
241.896	233.69
242.13	238.69
242.363	256.69
242.597	284.69
242.83	270.69
243.064	273.69
243.298	281.69
243.531	284.69
243.765	282.69
243.998	276.69
244.232	257.69
244.465	234.69
244.699	255.69
244.932	289.69
245.166	302.69
245.399	304.69
245.633	283.69
245.866	300.69
246.099	289.69
246.333	284.69
246.566	300.69
246.8	321.69
247.033	335.69
247.266	329.69
247.5	307.69
247.733	317.69
247.966	324.69
248.2	352.69
248.433	341.69
248.666	364.69
248.899	398.69
249.133	435.69
249.366	466.69
249.599	373.69
249.832	358.69
250.066	370.69
250.299	372.69
250.532	333.69
250.765	334.69
250.998	346.69
251.231	351.69
251.465	348.69
251.698	334.69
251.931	330.69
252.164	348.69
252.397	364.69
252.63	349.69
252.863	324.69
253.096	340.69
253.329	318.69
253.562	353.69
253.795	369.69
254.028	353.69
254.261	330.69
254.494	349.69
254.727	350.69
254.96	344.69
255.193	376.69
255.426	402.69
255.659	443.69
255.892	458.69
256.124	397.69
256.357	389.69
256.59	389.69
256.823	405.69
257.056	405.69
257.289	468.69
257.521	516.69
257.754	439.69
257.987	450.69
258.22	469.69
258.452	452.69
258.685	403.69
258.918	388.69
259.151	386.69
259.383	395.69
259.616	340.69
259.849	372.69
260.081	413.69
260.314	425.69
260.547	472.69
260.779	457.69
261.012	447.69
261.244	432.69
261.477	391.69
261.71	385.69
261.942	380.69
262.175	370.69
262.407	398.69
262.64	382.69
262.872	361.69
263.105	372.69
263.337	382.69
263.57	374.69
263.802	370.69
264.035	356.69
264.267	334.69
264.499	338.69
264.732	371.69
264.964	388.69
265.197	395.69
265.429	445.69
265.661	437.69
265.894	476.69
266.126	502.69
266.358	457.69
266.591	490.69
266.823	479.69
267.055	444.69
267.287	452.69
267.52	439.69
267.752	447.69
267.984	437.69
268.216	484.69
268.448	473.69
268.681	462.69
268.913	410.69
269.145	425.69
269.377	425.69
269.609	444.69
269.841	497.69
270.073	585.69
270.306	606.69
270.538	608.69
270.77	544.69
271.002	500.69
271.234	460.69
271.466	468.69
271.698	525.69
271.93	568.69
272.162	590.69
272.394	533.69
272.626	500.69
272.858	445.69
273.09	425.69
273.322	398.69
273.553	392.69
273.785	395.69
274.017	426.69
274.249	442.69
274.481	465.69
274.713	436.69
274.945	401.69
275.176	397.69
275.408	414.69
275.64	390.69
275.872	422.69
276.104	444.69
276.335	471.69
276.567	516.69
276.799	512.69
277.031	473.69
277.262	489.69
277.494	502.69
277.726	522.69
277.957	481.69
278.189	460.69
278.421	441.69
278.652	437.69
278.884	415.69
279.115	427.69
279.347	438.69
279.579	432.69
279.81	430.69
280.042	471.69
280.273	503.69
280.505	472.69
280.736	506.69
280.968	462.69
281.199	444.69
281.431	424.69
281.662	432.69
281.894	428.69
282.125	444.69
282.356	455.69
282.588	425.69
282.819	453.69
283.051	481.69
283.282	503.69
283.513	512.69
283.745	437.69
283.976	424.69
284.207	450.69
284.439	439.69
284.67	453.69
284.901	451.69
285.132	442.69
285.364	455.69
285.595	469.69
285.826	453.69
286.057	433.69
286.288	442.69
286.52	464.69
286.751	508.69
286.982	490.69
287.213	460.69
287.444	428.69
287.675	452.69
287.906	464.69
288.138	462.69
288.369	468.69
288.6	450.69
288.831	441.69
289.062	434.69
289.293	457.69
289.524	457.69
289.755	477.69
289.986	450.69
290.217	432.69
290.448	450.69
290.679	458.69
290.91	468.69
291.141	479.69
291.371	500.69
291.602	485.69
291.833	474.69
292.064	497.69
292.295	481.69
292.526	503.69
292.757	518.69
292.987	496.69
293.218	470.69
293.449	526.69
293.68	588.69
293.91	583.69
294.141	560.69
294.372	541.69
294.603	566.69
294.833	553.69
295.064	532.69
295.295	486.69
295.525	462.69
295.756	446.69
295.987	409.69
296.217	454.69
296.448	447.69
296.679	480.69
296.909	460.69
297.14	452.69
297.37	478.69
297.601	511.69
297.831	536.69
298.062	514.69
298.292	471.69
298.523	468.69
298.753	468.69
298.984	467.69
299.214	487.69
299.445	497.69
299.675	500.69
299.905	487.69
300.136	464.69
300.366	464.69
300.597	447.69
300.827	461.69
301.057	486.69
301.288	520.69
301.518	514.69
301.748	512.69
301.979	574.69
302.209	550.69
302.439	575.69
302.669	591.69
302.9	549.69
303.13	502.69
303.36	501.69
303.59	515.69
303.82	529.69
304.051	527.69
304.281	509.69
304.511	537.69
304.741	581.69
304.971	596.69
305.201	622.69
305.431	576.69
305.661	476.69
305.891	456.69
306.121	450.69
306.352	475.69
306.582	512.69
306.812	534.69
307.042	558.69
307.272	575.69
307.502	573.69
307.731	593.69
307.961	648.69
308.191	584.69
308.421	518.69
308.651	485.69
308.881	496.69
309.111	504.69
309.341	486.69
309.571	474.69
309.8	486.69
310.03	500.69
310.26	494.69
310.49	504.69
310.72	528.69
310.949	535.69
311.179	532.69
311.409	514.69
311.639	516.69
311.868	522.69
312.098	527.69
312.328	514.69
312.557	506.69
312.787	512.69
313.017	521.69
313.246	515.69
313.476	521.69
313.706	509.69
313.935	551.69
314.165	564.69
314.394	569.69
314.624	599.69
314.853	611.69
315.083	607.69
315.312	607.69
315.542	595.69
315.771	537.69
316.001	559.69
316.23	584.69
316.46	561.69
316.689	553.69
316.919	529.69
317.148	512.69
317.377	550.69
317.607	595.69
317.836	620.69
318.065	634.69
318.295	632.69
318.524	581.69
318.753	561.69
318.983	574.69
319.212	570.69
319.441	546.69
319.67	572.69
319.9	556.69
320.129	608.69
320.358	608.69
320.587	631.69
320.816	617.69
321.046	595.69
321.275	569.69
321.504	608.69
321.733	624.69
321.962	575.69
322.191	578.69
322.42	564.69
322.649	572.69
322.878	590.69
323.108	579.69
323.337	598.69
323.566	572.69
323.795	544.69
324.024	566.69
324.253	564.69
324.482	564.69
324.71	564.69
324.939	535.69
325.168	549.69
325.397	588.69
325.626	568.69
325.855	566.69
326.084	536.69
326.313	554.69
326.542	578.69
326.77	584.69
326.999	572.69
327.228	546.69
327.457	546.69
327.686	522.69
327.914	548.69
328.143	557.69
328.372	573.69
328.6	560.69
328.829	537.69
329.058	550.69
329.287	536.69
329.515	567.69
329.744	558.69
329.972	609.69
330.201	632.69
330.43	622.69
330.658	604.69
330.887	600.69
331.115	608.69
331.344	613.69
331.572	594.69
331.801	572.69
332.03	598.69
332.258	625.69
332.486	624.69
332.715	616.69
332.943	599.69
333.172	591.69
333.4	607.69
333.629	643.69
333.857	671.69
334.085	750.69
334.314	828.69
334.542	822.69
334.771	756.69
334.999	688.69
335.227	676.69
335.455	639.69
335.684	658.69
335.912	664.69
336.14	664.69
336.369	642.69
336.597	590.69
336.825	596.69
337.053	620.69
337.281	680.69
337.51	696.69
337.738	712.69
337.966	629.69
338.194	608.69
338.422	596.69
338.65	625.69
338.878	569.69
339.106	569.69
339.334	560.69
339.562	565.69
339.79	576.69
340.018	619.69
340.246	647.69
340.474	648.69
340.702	603.69
340.93	634.69
341.158	614.69
341.386	611.69
341.614	600.69
341.842	581.69
342.07	601.69
342.298	611.69
342.526	596.69
342.754	598.69
342.981	610.69
343.209	589.69
343.437	600.69
343.665	595.69
343.893	620.69
344.12	626.69
344.348	638.69
344.576	605.69
344.804	600.69
345.031	609.69
345.259	556.69
345.487	602.69
345.714	559.69
345.942	548.69
346.17	585.69
346.397	565.69
346.625	572.69
346.853	549.69
347.08	570.69
347.308	582.69
347.535	553.69
347.763	591.69
347.99	560.69
348.218	552.69
348.445	553.69
348.673	548.69
348.9	569.69
349.128	580.69
349.355	607.69
349.583	600.69
349.81	561.69
350.037	516.69
350.265	513.69
350.492	544.69
350.72	548.69
350.947	581.69
351.174	582.69
351.402	541.69
351.629	542.69
351.856	525.69
352.083	529.69
352.311	556.69
352.538	572.69
352.765	571.69
352.992	572.69
353.22	559.69
353.447	576.69
353.674	565.69
353.901	566.69
354.128	541.69
354.355	573.69
354.583	606.69
354.81	616.69
355.037	585.69
355.264	574.69
355.491	590.69
355.718	581.69
355.945	559.69
356.172	546.69
356.399	560.69
356.626	548.69
356.853	614.69
357.08	659.69
357.307	665.69
357.534	638.69
357.761	592.69
357.988	551.69
358.215	530.69
358.441	546.69
358.668	543.69
358.895	564.69
359.122	599.69
359.349	624.69
359.576	607.69
359.802	565.69
360.029	532.69
360.256	537.69
360.483	561.69
360.709	595.69
360.936	599.69
361.163	626.69
361.39	686.69
361.616	714.69
361.843	674.69
362.07	641.69
362.296	592.69
362.523	575.69
362.749	558.69
362.976	597.69
363.203	586.69
363.429	538.69
363.656	548.69
363.882	594.69
364.109	671.69
364.335	680.69
364.562	640.69
364.788	593.69
365.015	594.69
365.241	564.69
365.468	583.69
365.694	609.69
365.92	621.69
366.147	587.69
366.373	563.69
366.599	558.69
366.826	562.69
367.052	560.69
367.278	583.69
367.505	580.69
367.731	610.69
367.957	632.69
368.184	647.69
368.41	691.69
368.636	661.69
368.862	656.69
369.089	677.69
369.315	644.69
369.541	632.69
369.767	592.69
369.993	590.69
370.219	589.69
370.445	618.69
370.672	649.69
370.898	681.69
371.124	643.69
371.35	656.69
371.576	655.69
371.802	647.69
372.028	630.69
372.254	610.69
372.48	591.69
372.706	592.69
372.932	609.69
373.158	598.69
373.384	629.69
373.61	629.69
373.835	673.69
374.061	652.69
374.287	631.69
374.513	626.69
374.739	654.69
374.965	651.69
375.191	642.69
375.416	636.69
375.642	679.69
375.868	705.69
376.094	714.69
376.319	666.69
376.545	635.69
376.771	657.69
376.997	684.69
377.222	670.69
377.448	648.69
377.674	647.69
377.899	687.69
378.125	721.69
378.35	677.69
378.576	620.69
378.802	616.69
379.027	598.69
379.253	637.69
379.478	654.69
379.704	611.69
379.929	630.69
380.155	642.69
380.38	644.69
380.606	649.69
380.831	646.69
381.057	731.69
381.282	688.69
381.507	700.69
381.733	734.69
381.958	733.69
382.184	683.69
382.409	680.69
382.634	699.69
382.86	678.69
383.085	680.69
383.31	707.69
383.535	773.69
383.761	786.69
383.986	759.69
384.211	716.69
384.436	737.69
384.662	774.69
384.887	764.69
385.112	709.69
385.337	756.69
385.562	740.69
385.787	745.69
386.013	771.69
386.238	759.69
386.463	771.69
386.688	826.69
386.913	872.69
387.138	834.69
387.363	794.69
387.588	791.69
387.813	756.69
388.038	764.69
388.263	805.69
388.488	782.69
388.713	748.69
388.938	708.69
389.163	734.69
389.387	737.69
389.612	732.69
389.837	753.69
390.062	774.69
390.287	762.69
390.512	742.69
390.736	751.69
390.961	728.69
391.186	721.69
391.411	731.69
391.636	780.69
391.86	743.69
392.085	766.69
392.31	737.69
392.534	758.69
392.759	742.69
392.984	756.69
393.208	778.69
393.433	793.69
393.658	826.69
393.882	794.69
394.107	778.69
394.331	780.69
394.556	785.69
394.78	766.69
395.005	816.69
395.229	838.69
395.454	889.69
395.678	873.69
395.903	821.69
396.127	792.69
396.352	806.69
396.576	836.69
396.801	863.69
397.025	841.69
397.249	813.69
397.474	803.69
397.698	825.69
397.922	859.69
398.147	855.69
398.371	917.69
398.595	891.69
398.82	887.69
399.044	888.69
399.268	935.69
399.492	935.69
399.717	989.69
399.941	975.69
400.165	988.69
400.389	956.69
400.613	973.69
400.837	1151.69
401.062	1214.69
401.286	1033.69
401.51	991.69
401.734	993.69
401.958	952.69
402.182	895.69
402.406	861.69
402.63	847.69
402.854	864.69
403.078	914.69
403.302	894.69
403.526	920.69
403.75	945.69
403.974	919.69
404.198	916.69
404.422	988.69
404.645	1013.69
404.869	982.69
405.093	925.69
405.317	893.69
405.541	911.69
405.765	917.69
405.988	902.69
406.212	960.69
406.436	970.69
406.66	991.69
406.883	1044.69
407.107	1141.69
407.331	1220.69
407.555	1295.69
407.778	1132.69
408.002	1022.69
408.226	988.69
408.449	993.69
408.673	921.69
408.896	950.69
409.12	947.69
409.344	962.69
409.567	927.69
409.791	942.69
410.014	977.69
410.238	1035.69
410.461	1056.69
410.685	924.69
410.908	947.69
411.132	949.69
411.355	923.69
411.578	929.69
411.802	938.69
412.025	954.69
412.249	951.69
412.472	900.69
412.695	889.69
412.919	919.69
413.142	914.69
413.365	922.69
413.589	954.69
413.812	1001.69
414.035	1020.69
414.258	948.69
414.482	887.69
414.705	946.69
414.928	914.69
415.151	913.69
415.374	928.69
415.597	920.69
415.821	936.69
416.044	958.69
416.267	930.69
416.49	915.69
416.713	926.69
416.936	929.69
417.159	988.69
417.382	972.69
417.605	930.69
417.828	932.69
418.051	931.69
418.274	951.69
418.497	919.69
418.72	929.69
418.943	920.69
419.166	967.69
419.389	994.69
419.611	972.69
419.834	956.69
420.057	924.69
420.28	953.69
420.503	931.69
420.726	948.69
420.948	950.69
421.171	915.69
421.394	913.69
421.617	985.69
421.839	990.69
422.062	981.69
422.285	927.69
422.507	936.69
422.73	913.69
422.953	884.69
423.175	903.69
423.398	936.69
423.621	949.69
423.843	932.69
424.066	992.69
424.288	1012.69
424.511	1043.69
424.733	1018.69
424.956	917.69
425.178	904.69
425.401	930.69
425.623	971.69
425.846	932.69
426.068	997.69
426.291	988.69
426.513	945.69
426.735	961.69
426.958	1048.69
427.18	1052.69
427.402	975.69
427.625	1023.69
427.847	985.69
428.069	920.69
428.292	925.69
428.514	926.69
428.736	903.69
428.958	898.69
429.181	932.69
429.403	1086.69
429.625	1244.69
429.847	1050.69
430.069	970.69
430.292	1030.69
430.514	1032.69
430.736	968.69
430.958	957.69
431.18	913.69
431.402	858.69
431.624	832.69
431.846	802.69
432.068	729.69
432.29	742.69
432.512	807.69
432.734	874.69
432.956	928.69
433.178	1000.69
433.4	980.69
433.622	977.69
433.844	893.69
434.066	854.69
434.287	824.69
434.509	784.69
434.731	847.69
434.953	933.69
435.175	926.69
435.397	905.69
435.618	881.69
435.84	858.69
436.062	862.69
436.284	902.69
436.505	933.69
436.727	974.69
436.949	934.69
437.17	920.69
437.392	902.69
437.614	876.69
437.835	777.69
438.057	828.69
438.278	863.69
438.5	874.69
438.721	890.69
438.943	952.69
439.165	933.69
439.386	896.69
439.608	938.69
439.829	944.69
440.05	976.69
440.272	937.69
440.493	955.69
440.715	980.69
440.936	1021.69
441.158	1077.69
441.379	1044.69
441.6	1051.69
441.822	1042.69
442.043	1000.69
442.264	980.69
442.486	926.69
442.707	975.69
442.928	943.69
443.149	984.69
443.371	986.69
443.592	997.69
443.813	991.69
444.034	1007.69
444.255	996.69
444.476	1028.69
444.698	1006.69
444.919	1042.69
445.14	1148.69
445.361	1113.69
445.582	1091.69
445.803	1068.69
446.024	1062.69
446.245	1066.69
446.466	1059.69
446.687	1028.69
446.908	1017.69
447.129	1029.69
447.35	1053.69
447.571	1002.69
447.792	961.69
448.013	976.69
448.234	954.69
448.455	1027.69
448.675	1020.69
448.896	917.69
449.117	900.69
449.338	944.69
449.559	948.69
449.779	952.69
450	1030.69
450.221	1042.69
450.442	1005.69
450.662	950.69
450.883	877.69
451.104	878.69
451.324	884.69
451.545	887.69
451.766	871.69
451.986	852.69
452.207	840.69
452.428	800.69
452.648	783.69
452.869	771.69
453.089	815.69
453.31	782.69
453.53	797.69
453.751	742.69
453.971	693.69
454.192	722.69
454.412	777.69
454.633	825.69
454.853	805.69
455.073	765.69
455.294	791.69
455.514	784.69
455.734	768.69
455.955	777.69
456.175	764.69
456.395	730.69
456.616	756.69
456.836	748.69
457.056	726.69
457.276	730.69
457.497	698.69
457.717	680.69
457.937	717.69
458.157	710.69
458.377	709.69
458.598	685.69
458.818	657.69
459.038	710.69
459.258	742.69
459.478	711.69
459.698	712.69
459.918	738.69
460.138	796.69
460.358	812.69
460.578	834.69
460.798	856.69
461.018	880.69
461.238	856.69
461.458	849.69
461.678	841.69
461.898	807.69
462.118	797.69
462.338	856.69
462.558	879.69
462.777	840.69
462.997	877.69
463.217	909.69
463.437	908.69
463.657	840.69
463.876	840.69
464.096	845.69
464.316	855.69
464.536	856.69
464.755	870.69
464.975	881.69
465.195	851.69
465.414	885.69
465.634	860.69
465.854	869.69
466.073	973.69
466.293	955.69
466.512	862.69
466.732	886.69
466.951	896.69
467.171	879.69
467.391	868.69
467.61	886.69
467.829	916.69
468.049	1012.69
468.268	1068.69
468.488	961.69
468.707	920.69
468.927	905.69
469.146	924.69
469.365	915.69
469.585	922.69
469.804	925.69
470.023	942.69
470.243	940.69
470.462	908.69
470.681	943.69
470.901	887.69
471.12	924.69
471.339	922.69
471.558	886.69
471.777	884.69
471.997	911.69
472.216	872.69
472.435	764.69
472.654	769.69
472.873	808.69
473.092	827.69
473.311	832.69
473.53	833.69
473.749	806.69
473.968	853.69
474.187	835.69
474.406	857.69
474.625	862.69
474.844	886.69
475.063	873.69
475.282	896.69
475.501	845.69
475.72	873.69
475.939	917.69
476.158	895.69
476.377	877.69
476.596	859.69
476.814	842.69
477.033	811.69
477.252	848.69
477.471	893.69
477.69	907.69
477.908	934.69
478.127	969.69
478.346	1039.69
478.564	993.69
478.783	1020.69
479.002	1028.69
479.22	956.69
479.439	1013.69
479.658	1050.69
479.876	966.69
480.095	912.69
480.313	896.69
480.532	878.69
480.751	881.69
480.969	846.69
481.188	800.69
481.406	816.69
481.624	750.69
481.843	786.69
482.061	812.69
482.28	872.69
482.498	898.69
482.717	865.69
482.935	912.69
483.153	992.69
483.372	1028.69
483.59	1038.69
483.808	970.69
484.027	945.69
484.245	1017.69
484.463	1251.69
484.681	1308.69
484.9	1058.69
485.118	990.69
485.336	920.69
485.554	916.69
485.772	892.69
485.99	891.69
486.209	904.69
486.427	919.69
486.645	955.69
486.863	992.69
487.081	1028.69
487.299	990.69
487.517	1038.69
487.735	1103.69
487.953	1182.69
488.171	1188.69
488.389	1166.69
488.607	1097.69
488.825	1167.69
489.043	1047.69
489.261	996.69
489.479	1040.69
489.696	1074.69
489.914	1032.69
490.132	1055.69
490.35	1061.69
490.568	1152.69
490.786	1168.69
491.003	1192.69
491.221	1256.69
491.439	1312.69
491.657	1322.69
491.874	1399.69
492.092	1449.69
492.31	1536.69
492.527	1466.69
492.745	1356.69
492.963	1356.69
493.18	1309.69
493.398	1361.69
493.615	1331.69
493.833	1272.69
494.05	1247.69
494.268	1282.69
494.485	1246.69
494.703	1237.69
494.92	1211.69
495.138	1220.69
495.355	1217.69
495.573	1262.69
495.79	1296.69
496.008	1320.69
496.225	1267.69
496.442	1252.69
496.66	1264.69
496.877	1218.69
497.094	1246.69
497.312	1218.69
497.529	1200.69
497.746	1213.69
497.963	1262.69
498.181	1319.69
498.398	1265.69
498.615	1223.69
498.832	1135.69
499.049	1147.69
499.267	1187.69
499.484	1237.69
499.701	1357.69
499.918	1385.69
500.135	1478.69
500.352	1560.69
500.569	1569.69
500.786	1729.69
501.003	1549.69
501.22	1460.69
501.437	1381.69
501.654	1426.69
501.871	1367.69
502.088	1196.69
502.305	1184.69
502.522	1144.69
502.739	1092.69
502.956	1089.69
503.172	1050.69
503.389	999.69
503.606	1008.69
503.823	1034.69
504.04	1021.69
504.256	1021.69
504.473	992.69
504.69	1028.69
504.907	1003.69
505.123	982.69
505.34	1073.69
505.557	1367.69
505.773	1128.69
505.99	906.69
506.207	895.69
506.423	868.69
506.64	906.69
506.856	905.69
507.073	1036.69
507.289	1062.69
507.506	1031.69
507.722	889.69
507.939	868.69
508.155	863.69
508.372	863.69
508.588	828.69
508.805	824.69
509.021	786.69
509.238	752.69
509.454	766.69
509.67	779.69
509.887	761.69
510.103	739.69
510.319	748.69
510.536	753.69
510.752	775.69
510.968	774.69
511.184	801.69
511.401	764.69
511.617	714.69
511.833	718.69
512.049	720.69
512.265	732.69
512.481	711.69
512.698	734.69
512.914	783.69
513.13	769.69
513.346	721.69
513.562	698.69
513.778	713.69
513.994	760.69
514.21	747.69
514.426	740.69
514.642	816.69
514.858	753.69
515.074	743.69
515.29	735.69
515.506	754.69
515.721	766.69
515.937	732.69
516.153	815.69
516.369	786.69
516.585	741.69
516.801	722.69
517.016	733.69
517.232	774.69
517.448	808.69
517.664	798.69
517.879	778.69
518.095	816.69
518.311	759.69
518.527	736.69
518.742	751.69
518.958	739.69
519.173	758.69
519.389	770.69
519.605	794.69
519.82	772.69
520.036	794.69
520.251	772.69
520.467	786.69
520.682	825.69
520.898	819.69
521.113	725.69
521.329	733.69
521.544	765.69
521.76	741.69
521.975	717.69
522.19	699.69
522.406	732.69
522.621	944.69
522.836	871.69
523.052	754.69
523.267	739.69
523.482	749.69
523.698	766.69
523.913	718.69
524.128	775.69
524.343	801.69
524.559	818.69
524.774	777.69
524.989	770.69
525.204	744.69
525.419	734.69
525.634	740.69
525.849	721.69
526.064	734.69
526.28	723.69
526.495	693.69
526.71	656.69
526.925	628.69
527.14	637.69
527.355	616.69
527.57	626.69
527.785	667.69
527.999	649.69
528.214	681.69
528.429	694.69
528.644	739.69
528.859	820.69
529.074	844.69
529.289	878.69
529.503	902.69
529.718	815.69
529.933	697.69
530.148	655.69
530.363	646.69
530.577	650.69
530.792	635.69
531.007	660.69
531.221	648.69
531.436	627.69
531.651	651.69
531.865	664.69
532.08	665.69
532.295	655.69
532.509	626.69
532.724	630.69
532.938	654.69
533.153	705.69
533.367	702.69
533.582	738.69
533.796	742.69
534.011	744.69
534.225	661.69
534.44	628.69
534.654	623.69
534.868	635.69
535.083	697.69
535.297	707.69
535.511	701.69
535.726	701.69
535.94	659.69
536.154	652.69
536.369	616.69
536.583	618.69
536.797	605.69
537.011	641.69
537.225	632.69
537.44	606.69
537.654	665.69
537.868	622.69
538.082	613.69
538.296	610.69
538.51	631.69
538.724	709.69
538.938	731.69
539.153	764.69
539.367	743.69
539.581	679.69
539.795	696.69
540.009	654.69
540.222	648.69
540.436	664.69
540.65	747.69
540.864	790.69
541.078	797.69
541.292	828.69
541.506	891.69
541.72	946.69
541.934	1022.69
542.147	1079.69
542.361	1007.69
542.575	922.69
542.789	848.69
543.002	751.69
543.216	735.69
543.43	775.69
543.644	808.69
543.857	880.69
544.071	911.69
544.285	956.69
544.498	910.69
544.712	936.69
544.925	952.69
545.139	973.69
545.352	932.69
545.566	884.69
545.779	928.69
545.993	933.69
546.206	975.69
546.42	993.69
546.633	962.69
546.847	966.69
547.06	938.69
547.274	944.69
547.487	1001.69
547.7	1013.69
547.914	966.69
548.127	952.69
548.34	967.69
548.554	914.69
548.767	952.69
548.98	943.69
549.193	906.69
549.407	983.69
549.62	951.69
549.833	922.69
550.046	929.69
550.259	887.69
550.473	905.69
550.686	892.69
550.899	846.69
551.112	842.69
551.325	834.69
551.538	857.69
551.751	874.69
551.964	727.69
552.177	710.69
552.39	822.69
552.603	826.69
552.816	861.69
553.029	914.69
553.242	896.69
553.455	946.69
553.667	901.69
553.88	910.69
554.093	881.69
554.306	853.69
554.519	852.69
554.732	846.69
554.944	833.69
555.157	829.69
555.37	808.69
555.583	819.69
555.795	768.69
556.008	745.69
556.221	703.69
556.433	719.69
556.646	727.69
556.859	722.69
557.071	730.69
557.284	749.69
557.496	776.69
557.709	762.69
557.921	732.69
558.134	710.69
558.346	724.69
558.559	732.69
558.771	715.69
558.984	690.69
559.196	660.69
559.409	666.69
559.621	649.69
559.833	662.69
560.046	643.69
560.258	682.69
560.47	665.69
560.683	688.69
560.895	684.69
561.107	646.69
561.32	674.69
561.532	674.69
561.744	680.69
561.956	688.69
562.168	652.69
562.381	661.69
562.593	644.69
562.805	643.69
563.017	618.69
563.229	642.69
563.441	652.69
563.653	620.69
563.865	617.69
564.077	618.69
564.289	626.69
564.501	625.69
564.713	611.69
564.925	642.69
565.137	658.69
565.349	637.69
565.561	623.69
565.773	626.69
565.985	638.69
566.197	658.69
566.408	675.69
566.62	687.69
566.832	706.69
567.044	672.69
567.255	677.69
567.467	665.69
567.679	656.69
567.891	665.69
568.102	610.69
568.314	575.69
568.526	540.69
568.737	524.69
568.949	483.69
569.161	489.69
569.372	471.69
569.584	457.69
569.795	450.69
570.007	459.69
570.218	432.69
570.43	436.69
570.641	445.69
570.853	483.69
571.064	501.69
571.276	468.69
571.487	476.69
571.698	480.69
571.91	453.69
572.121	451.69
572.333	456.69
572.544	441.69
572.755	402.69
572.966	412.69
573.178	393.69
573.389	388.69
573.6	410.69
573.811	435.69
574.023	388.69
574.234	393.69
574.445	385.69
574.656	377.69
574.867	378.69
575.078	404.69
575.289	404.69
575.501	385.69
575.712	392.69
575.923	388.69
576.134	398.69
576.345	398.69
576.556	394.69
576.767	399.69
576.978	414.69
577.188	381.69
577.399	377.69
577.61	367.69
577.821	367.69
578.032	360.69
578.243	374.69
578.454	368.69
578.665	353.69
578.875	340.69
579.086	352.69
579.297	353.69
579.508	365.69
579.718	338.69
579.929	348.69
580.14	347.69
580.35	336.69
580.561	351.69
580.772	401.69
580.982	361.69
581.193	345.69
581.403	337.69
581.614	357.69
581.825	330.69
582.035	336.69
582.246	328.69
582.456	352.69
582.667	349.69
582.877	348.69
583.087	328.69
583.298	324.69
583.508	340.69
583.719	338.69
583.929	331.69
584.139	310.69
584.35	325.69
584.56	313.69
584.77	335.69
584.981	329.69
585.191	348.69
585.401	345.69
585.611	313.69
585.821	344.69
586.032	328.69
586.242	305.69
586.452	306.69
586.662	326.69
586.872	320.69
587.082	308.69
587.292	330.69
587.502	314.69
587.713	314.69
587.923	298.69
588.133	306.69
588.343	306.69
588.553	308.69
588.762	316.69
588.972	326.69
589.182	326.69
589.392	320.69
589.602	319.69
589.812	309.69
590.022	320.69
590.232	293.69
590.441	329.69
590.651	307.69
590.861	296.69
591.071	292.69
591.281	314.69
591.49	302.69
591.7	316.69
591.91	308.69
592.119	304.69
592.329	310.69
592.539	327.69
592.748	320.69
592.958	336.69
593.167	333.69
593.377	325.69
593.587	327.69
593.796	340.69
594.006	334.69
594.215	328.69
594.424	341.69
594.634	319.69
594.843	329.69
595.053	361.69
595.262	312.69
595.472	298.69
595.681	326.69
595.89	307.69
596.1	305.69
596.309	331.69
596.518	319.69
596.727	334.69
596.937	318.69
597.146	318.69
597.355	295.69
597.564	314.69
597.774	294.69
597.983	296.69
598.192	276.69
598.401	294.69
598.61	291.69
598.819	287.69
599.028	296.69
599.237	288.69
599.446	296.69
599.655	297.69
599.864	274.69
600.073	300.69
600.282	299.69
600.491	298.69
600.7	298.69
600.909	297.69
601.118	342.69
601.327	324.69
601.536	349.69
601.745	343.69
601.953	354.69
602.162	345.69
602.371	349.69
602.58	373.69
602.789	365.69
602.997	348.69
603.206	362.69
603.415	341.69
603.623	370.69
603.832	335.69
604.041	350.69
604.249	322.69
604.458	288.69
604.666	303.69
604.875	291.69
605.084	316.69
605.292	343.69
605.501	343.69
605.709	339.69
605.918	360.69
606.126	375.69
606.334	357.69
606.543	355.69
606.751	358.69
606.96	336.69
607.168	343.69
607.376	354.69
607.585	351.69
607.793	344.69
608.001	360.69
608.21	360.69
608.418	358.69
608.626	380.69
608.834	351.69
609.043	361.69
609.251	370.69
609.459	369.69
609.667	374.69
609.875	376.69
610.083	378.69
610.291	385.69
610.499	374.69
610.707	370.69
610.916	361.69
611.124	357.69
611.332	360.69
611.54	355.69
611.748	367.69
611.955	364.69
612.163	380.69
612.371	363.69
612.579	357.69
612.787	342.69
612.995	338.69
613.203	346.69
613.411	361.69
613.618	349.69
613.826	344.69
614.034	344.69
614.242	364.69
614.449	348.69
614.657	332.69
614.865	353.69
615.072	351.69
615.28	344.69
615.488	337.69
615.695	369.69
615.903	374.69
616.111	367.69
616.318	372.69
616.526	367.69
616.733	375.69
616.941	364.69
617.148	345.69
617.356	344.69
617.563	330.69
617.771	332.69
617.978	329.69
618.185	350.69
618.393	328.69
618.6	359.69
618.807	369.69
619.015	342.69
619.222	339.69
619.429	328.69
619.637	308.69
619.844	289.69
620.051	312.69
620.258	313.69
620.466	328.69
620.673	317.69
620.88	320.69
621.087	313.69
621.294	314.69
621.501	302.69
621.708	279.69
621.915	320.69
622.122	309.69
622.329	325.69
622.536	334.69
622.743	322.69
622.95	310.69
623.157	302.69
623.364	321.69
623.571	323.69
623.778	327.69
623.985	322.69
624.192	319.69
624.399	304.69
624.606	316.69
624.812	316.69
625.019	308.69
625.226	298.69
625.433	293.69
625.639	285.69
625.846	267.69
626.053	239.69
626.259	252.69
626.466	229.69
626.673	255.69
626.879	249.69
627.086	265.69
627.293	289.69
627.499	281.69
627.706	306.69
627.912	314.69
628.119	320.69
628.325	306.69
628.532	281.69
628.738	279.69
628.945	295.69
629.151	277.69
629.357	286.69
629.564	276.69
629.77	275.69
629.976	286.69
630.183	268.69
630.389	265.69
630.595	280.69
630.802	287.69
631.008	284.69
631.214	277.69
631.42	278.69
631.627	262.69
631.833	254.69
632.039	246.69
632.245	259.69
632.451	288.69
632.657	273.69
632.863	269.69
633.069	260.69
633.275	256.69
633.481	257.69
633.688	255.69
633.893	274.69
634.099	268.69
634.305	263.69
634.511	240.69
634.717	236.69
634.923	218.69
635.129	225.69
635.335	239.69
635.541	219.69
635.747	250.69
635.952	254.69
636.158	260.69
636.364	268.69
636.57	273.69
636.775	277.69
636.981	276.69
637.187	252.69
637.392	276.69
637.598	273.69
637.804	266.69
638.009	258.69
638.215	247.69
638.421	242.69
638.626	258.69
638.832	249.69
639.037	233.69
639.243	245.69
639.448	251.69
639.654	246.69
639.859	239.69
640.065	247.69
640.27	252.69
640.475	236.69
640.681	243.69
640.886	261.69
641.091	244.69
641.297	243.69
641.502	262.69
641.707	241.69
641.913	228.69
642.118	250.69
642.323	243.69
642.528	229.69
642.733	241.69
642.939	246.69
643.144	236.69
643.349	246.69
643.554	232.69
643.759	253.69
643.964	244.69
644.169	231.69
644.374	216.69
644.579	234.69
644.784	258.69
644.989	245.69
645.194	248.69
645.399	238.69
645.604	234.69
645.809	218.69
646.014	242.69
646.219	249.69
646.423	239.69
646.628	242.69
646.833	233.69
647.038	231.69
647.243	243.69
647.447	253.69
647.652	247.69
647.857	249.69
648.062	238.69
648.266	256.69
648.471	241.69
648.676	241.69
648.88	232.69
649.085	254.69
649.289	238.69
649.494	234.69
649.698	248.69
649.903	244.69
650.107	232.69
650.312	252.69
650.516	232.69
650.721	221.69
650.925	243.69
651.13	229.69
651.334	217.69
651.539	225.69
651.743	218.69
651.947	223.69
652.152	217.69
652.356	211.69
652.56	220.69
652.764	221.69
652.969	212.69
653.173	198.69
653.377	203.69
653.581	209.69
653.785	184.69
653.99	199.69
654.194	198.69
654.398	224.69
654.602	202.69
654.806	182.69
655.01	202.69
655.214	207.69
655.418	217.69
655.622	205.69
655.826	209.69
656.03	206.69
656.234	222.69
656.438	224.69
656.642	227.69
656.846	210.69
657.049	205.69
657.253	192.69
657.457	198.69
657.661	185.69
657.865	180.69
658.068	158.69
658.272	155.69
658.476	157.69
658.68	157.69
658.883	153.69
659.087	142.69
659.291	139.69
659.494	150.69
659.698	128.69
659.901	139.69
660.105	120.69
660.309	124.69
660.512	127.69
660.716	120.69
660.919	117.69
661.123	113.69
661.326	111.69
661.53	110.69
661.733	117.69
661.936	92.69
662.14	110.69
662.343	93.69
662.546	77.69
662.75	96.69
662.953	104.69
663.156	89.69
663.36	99.69
663.563	79.69
663.766	94.69
663.969	84.69
664.173	74.69
664.376	83.69
664.579	95.69
664.782	85.69
664.985	78.69
665.188	84.69
665.391	90.69
665.594	75.69
665.797	80.69
666	89.69
666.203	89.69
666.406	78.69
666.609	80.69
666.812	87.69
667.015	77.69
667.218	65.69
667.421	80.69
667.624	79.69
667.827	90.69
668.03	58.69
668.232	81.69
668.435	74.69
668.638	92.69
668.841	96.69
669.043	84.69
669.246	64.69
669.449	81.69
669.651	85.69
669.854	80.69
670.057	74.69
670.259	79.69
670.462	72.69
670.665	66.69
670.867	76.69
671.07	80.69
671.272	74.69
671.475	85.69
671.677	73.69
671.88	89.69
672.082	90.69
672.284	92.69
672.487	82.69
672.689	81.69
672.892	85.69
