Data from WStandard_LampEnergy5.5LIBS07252019.E.O._I.C._HRD10591_16-06-32-920.txt Node
Date: Thu Jul 25 16:06:32 EDT 2019
User: cochatt
Spectrometer: HR+D1059
Trigger mode: 1
Integration Time (sec): 1.000000E-1
Scans to average: 1
Electric dark correction enabled: true
Nonlinearity correction enabled: false
Boxcar width: 0
XAxis mode: Wavelengths
Number of Pixels in Spectrum: 2048
>>>>>Begin Spectral Data<<<<<
223.165	-23.69
223.4	-23.69
223.635	-23.69
223.869	-26.69
224.104	-18.69
224.338	-21.69
224.573	-11.69
224.808	-11.69
225.042	3.31
225.277	-0.69
225.511	-18.69
225.746	4.31
225.98	8.31
226.215	16.31
226.449	17.31
226.683	26.31
226.918	36.31
227.152	21.31
227.387	47.31
227.621	36.31
227.856	64.31
228.09	45.31
228.324	60.31
228.559	62.31
228.793	139.31
229.027	351.31
229.262	372.31
229.496	364.31
229.73	400.31
229.964	437.31
230.199	460.31
230.433	459.31
230.667	486.31
230.901	532.31
231.136	486.31
231.37	448.31
231.604	444.31
231.838	477.31
232.072	464.31
232.306	436.31
232.541	456.31
232.775	542.31
233.009	582.31
233.243	556.31
233.477	534.31
233.711	547.31
233.945	566.31
234.179	549.31
234.413	583.31
234.647	601.31
234.881	581.31
235.115	545.31
235.349	528.31
235.583	576.31
235.817	559.31
236.051	515.31
236.285	532.31
236.519	594.31
236.753	649.31
236.987	658.31
237.221	656.31
237.455	745.31
237.689	717.31
237.922	673.31
238.156	652.31
238.39	662.31
238.624	690.31
238.858	720.31
239.091	720.31
239.325	794.31
239.559	889.31
239.793	934.31
240.027	1021.31
240.26	977.31
240.494	737.31
240.728	680.31
240.961	711.31
241.195	712.31
241.429	818.31
241.662	823.31
241.896	721.31
242.13	755.31
242.363	840.31
242.597	869.31
242.83	843.31
243.064	860.31
243.298	948.31
243.531	896.31
243.765	904.31
243.998	902.31
244.232	777.31
244.465	743.31
244.699	774.31
244.932	866.31
245.166	1016.31
245.399	952.31
245.633	887.31
245.866	860.31
246.099	889.31
246.333	928.31
246.566	933.31
246.8	1006.31
247.033	1166.31
247.266	1042.31
247.5	1012.31
247.733	1026.31
247.966	1092.31
248.2	1220.31
248.433	1142.31
248.666	1193.31
248.899	1286.31
249.133	1471.31
249.366	1701.31
249.599	1399.31
249.832	1218.31
250.066	1232.31
250.299	1261.31
250.532	1173.31
250.765	1051.31
250.998	1098.31
251.231	1178.31
251.465	1208.31
251.698	1153.31
251.931	1160.31
252.164	1158.31
252.397	1230.31
252.63	1198.31
252.863	1061.31
253.096	1024.31
253.329	1092.31
253.562	1120.31
253.795	1256.31
254.028	1202.31
254.261	1137.31
254.494	1139.31
254.727	1054.31
254.96	1111.31
255.193	1226.31
255.426	1347.31
255.659	1603.31
255.892	1640.31
256.124	1373.31
256.357	1274.31
256.59	1361.31
256.823	1387.31
257.056	1349.31
257.289	1647.31
257.521	1824.31
257.754	1657.31
257.987	1575.31
258.22	1715.31
258.452	1655.31
258.685	1378.31
258.918	1344.31
259.151	1361.31
259.383	1277.31
259.616	1152.31
259.849	1212.31
260.081	1339.31
260.314	1520.31
260.547	1618.31
260.779	1648.31
261.012	1532.31
261.244	1400.31
261.477	1315.31
261.71	1363.31
261.942	1345.31
262.175	1318.31
262.407	1412.31
262.64	1368.31
262.872	1243.31
263.105	1202.31
263.337	1253.31
263.57	1260.31
263.802	1246.31
264.035	1189.31
264.267	1131.31
264.499	1086.31
264.732	1154.31
264.964	1236.31
265.197	1274.31
265.429	1312.31
265.661	1517.31
265.894	1652.31
266.126	1717.31
266.358	1545.31
266.591	1594.31
266.823	1717.31
267.055	1549.31
267.287	1501.31
267.52	1533.31
267.752	1540.31
267.984	1540.31
268.216	1548.31
268.448	1575.31
268.681	1574.31
268.913	1460.31
269.145	1368.31
269.377	1348.31
269.609	1414.31
269.841	1660.31
270.073	1919.31
270.306	2157.31
270.538	2333.31
270.77	1944.31
271.002	1644.31
271.234	1588.31
271.466	1576.31
271.698	1734.31
271.93	2132.31
272.162	2128.31
272.394	1890.31
272.626	1833.31
272.858	1631.31
273.09	1368.31
273.322	1378.31
273.553	1344.31
273.785	1356.31
274.017	1400.31
274.249	1496.31
274.481	1515.31
274.713	1378.31
274.945	1349.31
275.176	1332.31
275.408	1329.31
275.64	1282.31
275.872	1295.31
276.104	1416.31
276.335	1569.31
276.567	1826.31
276.799	1866.31
277.031	1640.31
277.262	1495.31
277.494	1570.31
277.726	1774.31
277.957	1761.31
278.189	1624.31
278.421	1460.31
278.652	1430.31
278.884	1399.31
279.115	1393.31
279.347	1432.31
279.579	1414.31
279.81	1412.31
280.042	1560.31
280.273	1716.31
280.505	1694.31
280.736	1746.31
280.968	1694.31
281.199	1447.31
281.431	1353.31
281.662	1386.31
281.894	1402.31
282.125	1428.31
282.356	1486.31
282.588	1490.31
282.819	1425.31
283.051	1578.31
283.282	1697.31
283.513	1676.31
283.745	1439.31
283.976	1323.31
284.207	1355.31
284.439	1442.31
284.67	1407.31
284.901	1436.31
285.132	1500.31
285.364	1460.31
285.595	1486.31
285.826	1450.31
286.057	1461.31
286.288	1441.31
286.52	1490.31
286.751	1568.31
286.982	1656.31
287.213	1551.31
287.444	1428.31
287.675	1354.31
287.906	1440.31
288.138	1532.31
288.369	1531.31
288.6	1457.31
288.831	1390.31
289.062	1398.31
289.293	1452.31
289.524	1472.31
289.755	1479.31
289.986	1480.31
290.217	1394.31
290.448	1397.31
290.679	1466.31
290.91	1477.31
291.141	1504.31
291.371	1573.31
291.602	1547.31
291.833	1481.31
292.064	1588.31
292.295	1549.31
292.526	1588.31
292.757	1676.31
292.987	1582.31
293.218	1479.31
293.449	1606.31
293.68	1831.31
293.91	1967.31
294.141	1816.31
294.372	1645.31
294.603	1732.31
294.833	1792.31
295.064	1704.31
295.295	1524.31
295.525	1517.31
295.756	1433.31
295.987	1354.31
296.217	1389.31
296.448	1405.31
296.679	1428.31
296.909	1422.31
297.14	1426.31
297.37	1406.31
297.601	1531.31
297.831	1634.31
298.062	1662.31
298.292	1508.31
298.523	1449.31
298.753	1458.31
298.984	1474.31
299.214	1481.31
299.445	1458.31
299.675	1527.31
299.905	1524.31
300.136	1473.31
300.366	1478.31
300.597	1438.31
300.827	1444.31
301.057	1459.31
301.288	1549.31
301.518	1560.31
301.748	1559.31
301.979	1647.31
302.209	1683.31
302.439	1770.31
302.669	1884.31
302.9	1752.31
303.13	1573.31
303.36	1556.31
303.59	1612.31
303.82	1553.31
304.051	1562.31
304.281	1559.31
304.511	1573.31
304.741	1636.31
304.971	1792.31
305.201	1982.31
305.431	1887.31
305.661	1524.31
305.891	1418.31
306.121	1332.31
306.352	1428.31
306.582	1508.31
306.812	1616.31
307.042	1734.31
307.272	1750.31
307.502	1793.31
307.731	1917.31
307.961	2092.31
308.191	1908.31
308.421	1646.31
308.651	1518.31
308.881	1516.31
309.111	1544.31
309.341	1500.31
309.571	1484.31
309.8	1476.31
310.03	1512.31
310.26	1525.31
310.49	1486.31
310.72	1523.31
310.949	1608.31
311.179	1645.31
311.409	1613.31
311.639	1516.31
311.868	1491.31
312.098	1512.31
312.328	1510.31
312.557	1534.31
312.787	1544.31
313.017	1582.31
313.246	1585.31
313.476	1566.31
313.706	1640.31
313.935	1582.31
314.165	1633.31
314.394	1621.31
314.624	1759.31
314.853	1840.31
315.083	1871.31
315.312	1981.31
315.542	1834.31
315.771	1659.31
316.001	1644.31
316.23	1735.31
316.46	1700.31
316.689	1690.31
316.919	1584.31
317.148	1573.31
317.377	1546.31
317.607	1654.31
317.836	1872.31
318.065	1930.31
318.295	1872.31
318.524	1814.31
318.753	1698.31
318.983	1702.31
319.212	1666.31
319.441	1645.31
319.67	1624.31
319.9	1652.31
320.129	1716.31
320.358	1848.31
320.587	1868.31
320.816	1855.31
321.046	1798.31
321.275	1686.31
321.504	1741.31
321.733	1844.31
321.962	1824.31
322.191	1645.31
322.42	1660.31
322.649	1656.31
322.878	1668.31
323.108	1639.31
323.337	1712.31
323.566	1704.31
323.795	1722.31
324.024	1708.31
324.253	1715.31
324.482	1746.31
324.71	1649.31
324.939	1576.31
325.168	1622.31
325.397	1626.31
325.626	1710.31
325.855	1682.31
326.084	1649.31
326.313	1665.31
326.542	1692.31
326.77	1703.31
326.999	1738.31
327.228	1681.31
327.457	1579.31
327.686	1585.31
327.914	1593.31
328.143	1639.31
328.372	1636.31
328.6	1674.31
328.829	1667.31
329.058	1600.31
329.287	1594.31
329.515	1672.31
329.744	1688.31
329.972	1758.31
330.201	1820.31
330.43	1804.31
330.658	1757.31
330.887	1744.31
331.115	1717.31
331.344	1744.31
331.572	1737.31
331.801	1688.31
332.03	1701.31
332.258	1769.31
332.486	1757.31
332.715	1757.31
332.943	1813.31
333.172	1713.31
333.4	1764.31
333.629	1808.31
333.857	1926.31
334.085	2070.31
334.314	2351.31
334.542	2634.31
334.771	2432.31
334.999	2120.31
335.227	2017.31
335.455	1891.31
335.684	1860.31
335.912	1888.31
336.14	2008.31
336.369	1924.31
336.597	1820.31
336.825	1785.31
337.053	1844.31
337.281	1873.31
337.51	2014.31
337.738	2087.31
337.966	2009.31
338.194	1852.31
338.422	1747.31
338.65	1734.31
338.878	1700.31
339.106	1691.31
339.334	1661.31
339.562	1656.31
339.79	1641.31
340.018	1809.31
340.246	1857.31
340.474	1895.31
340.702	1803.31
340.93	1785.31
341.158	1780.31
341.386	1766.31
341.614	1719.31
341.842	1726.31
342.07	1736.31
342.298	1743.31
342.526	1717.31
342.754	1765.31
342.981	1700.31
343.209	1686.31
343.437	1678.31
343.665	1719.31
343.893	1756.31
344.12	1855.31
344.348	1860.31
344.576	1857.31
344.804	1726.31
345.031	1728.31
345.259	1775.31
345.487	1679.31
345.714	1653.31
345.942	1583.31
346.17	1592.31
346.397	1675.31
346.625	1657.31
346.853	1580.31
347.08	1517.31
347.308	1554.31
347.535	1584.31
347.763	1648.31
347.99	1660.31
348.218	1540.31
348.445	1555.31
348.673	1565.31
348.9	1648.31
349.128	1691.31
349.355	1758.31
349.583	1687.31
349.81	1617.31
350.037	1508.31
350.265	1540.31
350.492	1526.31
350.72	1507.31
350.947	1633.31
351.174	1631.31
351.402	1583.31
351.629	1508.31
351.856	1478.31
352.083	1475.31
352.311	1526.31
352.538	1530.31
352.765	1615.31
352.992	1686.31
353.22	1581.31
353.447	1552.31
353.674	1537.31
353.901	1608.31
354.128	1531.31
354.355	1548.31
354.583	1642.31
354.81	1663.31
355.037	1639.31
355.264	1664.31
355.491	1614.31
355.718	1608.31
355.945	1596.31
356.172	1584.31
356.399	1568.31
356.626	1531.31
356.853	1557.31
357.08	1678.31
357.307	1855.31
357.534	1900.31
357.761	1637.31
357.988	1529.31
358.215	1481.31
358.441	1552.31
358.668	1479.31
358.895	1522.31
359.122	1629.31
359.349	1759.31
359.576	1795.31
359.802	1609.31
360.029	1557.31
360.256	1526.31
360.483	1550.31
360.709	1578.31
360.936	1606.31
361.163	1665.31
361.39	1878.31
361.616	1986.31
361.843	1949.31
362.07	1818.31
362.296	1612.31
362.523	1566.31
362.749	1570.31
362.976	1592.31
363.203	1622.31
363.429	1579.31
363.656	1542.31
363.882	1570.31
364.109	1752.31
364.335	1896.31
364.562	1772.31
364.788	1702.31
365.015	1596.31
365.241	1562.31
365.468	1600.31
365.694	1643.31
365.92	1749.31
366.147	1672.31
366.373	1552.31
366.599	1521.31
366.826	1478.31
367.052	1551.31
367.278	1592.31
367.505	1589.31
367.731	1617.31
367.957	1604.31
368.184	1668.31
368.41	1732.31
368.636	1745.31
368.862	1775.31
369.089	1792.31
369.315	1718.31
369.541	1652.31
369.767	1616.31
369.993	1564.31
370.219	1549.31
370.445	1582.31
370.672	1682.31
370.898	1772.31
371.124	1757.31
371.35	1673.31
371.576	1719.31
371.802	1767.31
372.028	1686.31
372.254	1622.31
372.48	1573.31
372.706	1593.31
372.932	1569.31
373.158	1617.31
373.384	1665.31
373.61	1694.31
373.835	1774.31
374.061	1708.31
374.287	1668.31
374.513	1672.31
374.739	1655.31
374.965	1684.31
375.191	1708.31
375.416	1693.31
375.642	1704.31
375.868	1766.31
376.094	1831.31
376.319	1775.31
376.545	1671.31
376.771	1666.31
376.997	1800.31
377.222	1750.31
377.448	1682.31
377.674	1747.31
377.899	1759.31
378.125	1766.31
378.35	1830.31
378.576	1679.31
378.802	1566.31
379.027	1614.31
379.253	1617.31
379.478	1652.31
379.704	1620.31
379.929	1622.31
380.155	1640.31
380.38	1658.31
380.606	1676.31
380.831	1682.31
381.057	1721.31
381.282	1793.31
381.507	1706.31
381.733	1816.31
381.958	1900.31
382.184	1760.31
382.409	1690.31
382.634	1742.31
382.86	1718.31
383.085	1722.31
383.31	1748.31
383.535	1897.31
383.761	1988.31
383.986	1915.31
384.211	1839.31
384.436	1849.31
384.662	1933.31
384.887	1992.31
385.112	1915.31
385.337	1934.31
385.562	1902.31
385.787	1916.31
386.013	1920.31
386.238	1991.31
386.463	1938.31
386.688	2050.31
386.913	2133.31
387.138	2121.31
387.363	1910.31
387.588	1969.31
387.813	1932.31
388.038	1965.31
388.263	1966.31
388.488	1976.31
388.713	1814.31
388.938	1853.31
389.163	1855.31
389.387	1865.31
389.612	1875.31
389.837	1917.31
390.062	1920.31
390.287	1896.31
390.512	1880.31
390.736	1876.31
390.961	1837.31
391.186	1831.31
391.411	1829.31
391.636	1882.31
391.86	1957.31
392.085	1892.31
392.31	1847.31
392.534	1892.31
392.759	1914.31
392.984	1927.31
393.208	1955.31
393.433	2025.31
393.658	2171.31
393.882	2076.31
394.107	1922.31
394.331	1885.31
394.556	1860.31
394.78	1904.31
395.005	1983.31
395.229	2016.31
395.454	2175.31
395.678	2196.31
395.903	2070.31
396.127	1989.31
396.352	1962.31
396.576	2028.31
396.801	2063.31
397.025	2097.31
397.249	2123.31
397.474	2056.31
397.698	2009.31
397.922	2064.31
398.147	2180.31
398.371	2277.31
398.595	2312.31
398.82	2178.31
399.044	2267.31
399.268	2304.31
399.492	2455.31
399.717	2561.31
399.941	2586.31
400.165	2520.31
400.389	2446.31
400.613	2402.31
400.837	2560.31
401.062	2914.31
401.286	2588.31
401.51	2312.31
401.734	2449.31
401.958	2417.31
402.182	2206.31
402.406	2130.31
402.63	2133.31
402.854	2137.31
403.078	2195.31
403.302	2237.31
403.526	2255.31
403.75	2250.31
403.974	2257.31
404.198	2255.31
404.422	2304.31
404.645	2399.31
404.869	2429.31
405.093	2259.31
405.317	2176.31
405.541	2297.31
405.765	2254.31
405.988	2248.31
406.212	2315.31
406.436	2370.31
406.66	2399.31
406.883	2404.31
407.107	2648.31
407.331	2929.31
407.555	3086.31
407.778	2855.31
408.002	2505.31
408.226	2388.31
408.449	2380.31
408.673	2302.31
408.896	2322.31
409.12	2350.31
409.344	2286.31
409.567	2207.31
409.791	2330.31
410.014	2354.31
410.238	2390.31
410.461	2532.31
410.685	2300.31
410.908	2186.31
411.132	2232.31
411.355	2234.31
411.578	2210.31
411.802	2184.31
412.025	2217.31
412.249	2190.31
412.472	2099.31
412.695	2136.31
412.919	2134.31
413.142	2098.31
413.365	2131.31
413.589	2203.31
413.812	2292.31
414.035	2358.31
414.258	2139.31
414.482	2114.31
414.705	2199.31
414.928	2140.31
415.151	2114.31
415.374	2192.31
415.597	2236.31
415.821	2169.31
416.044	2271.31
416.267	2253.31
416.49	2146.31
416.713	2064.31
416.936	2101.31
417.159	2178.31
417.382	2266.31
417.605	2134.31
417.828	2141.31
418.051	2233.31
418.274	2142.31
418.497	2091.31
418.72	2082.31
418.943	2100.31
419.166	2199.31
419.389	2346.31
419.611	2205.31
419.834	2137.31
420.057	2200.31
420.28	2093.31
420.503	2058.31
420.726	2109.31
420.948	2121.31
421.171	2044.31
421.394	2104.31
421.617	2150.31
421.839	2151.31
422.062	2097.31
422.285	2050.31
422.507	2058.31
422.73	2021.31
422.953	2007.31
423.175	1990.31
423.398	2052.31
423.621	2062.31
423.843	2064.31
424.066	2139.31
424.288	2189.31
424.511	2180.31
424.733	2223.31
424.956	2020.31
425.178	1988.31
425.401	1991.31
425.623	2013.31
425.846	2038.31
426.068	2109.31
426.291	2148.31
426.513	2118.31
426.735	2094.31
426.958	2218.31
427.18	2360.31
427.402	2168.31
427.625	2213.31
427.847	2218.31
428.069	2136.31
428.292	2072.31
428.514	1980.31
428.736	1975.31
428.958	1979.31
429.181	1992.31
429.403	2257.31
429.625	2759.31
429.847	2440.31
430.069	2090.31
430.292	2166.31
430.514	2338.31
430.736	2189.31
430.958	2271.31
431.18	2147.31
431.402	2037.31
431.624	2002.31
431.846	2012.31
432.068	1960.31
432.29	2005.31
432.512	2005.31
432.734	2060.31
432.956	2073.31
433.178	2188.31
433.4	2104.31
433.622	2193.31
433.844	2040.31
434.066	1965.31
434.287	2007.31
434.509	2044.31
434.731	2192.31
434.953	2319.31
435.175	2292.31
435.397	2138.31
435.618	2134.31
435.84	2157.31
436.062	2082.31
436.284	2065.31
436.505	2076.31
436.727	2180.31
436.949	2087.31
437.17	2052.31
437.392	2004.31
437.614	2039.31
437.835	1974.31
438.057	2143.31
438.278	2208.31
438.5	2076.31
438.721	1978.31
438.943	2020.31
439.165	2026.31
439.386	1957.31
439.608	1974.31
439.829	1985.31
440.05	2035.31
440.272	1997.31
440.493	1980.31
440.715	2003.31
440.936	2102.31
441.158	2379.31
441.379	2301.31
441.6	2232.31
441.822	2186.31
442.043	2171.31
442.264	2116.31
442.486	1976.31
442.707	1992.31
442.928	1977.31
443.149	2089.31
443.371	2188.31
443.592	2248.31
443.813	2236.31
444.034	2182.31
444.255	2192.31
444.476	2259.31
444.698	2326.31
444.919	2276.31
445.14	2352.31
445.361	2354.31
445.582	2417.31
445.803	2292.31
446.024	2177.31
446.245	2306.31
446.466	2225.31
446.687	2136.31
446.908	2138.31
447.129	2037.31
447.35	2122.31
447.571	2098.31
447.792	1980.31
448.013	1936.31
448.234	2045.31
448.455	2087.31
448.675	2097.31
448.896	1910.31
449.117	1878.31
449.338	2000.31
449.559	2055.31
449.779	2174.31
450	2377.31
450.221	2582.31
450.442	2472.31
450.662	2182.31
450.883	1899.31
451.104	1824.31
451.324	1957.31
451.545	2007.31
451.766	1968.31
451.986	1902.31
452.207	1908.31
452.428	1820.31
452.648	1800.31
452.869	1826.31
453.089	1964.31
453.31	1974.31
453.53	2046.31
453.751	1956.31
453.971	1808.31
454.192	1856.31
454.412	2012.31
454.633	1937.31
454.853	1834.31
455.073	1736.31
455.294	1749.31
455.514	1742.31
455.734	1743.31
455.955	1832.31
456.175	1803.31
456.395	1808.31
456.616	1854.31
456.836	1925.31
457.056	1841.31
457.276	1830.31
457.497	1808.31
457.717	1722.31
457.937	1756.31
458.157	1810.31
458.377	1796.31
458.598	1792.31
458.818	1801.31
459.038	1886.31
459.258	2058.31
459.478	2020.31
459.698	2006.31
459.918	1997.31
460.138	2121.31
460.358	2169.31
460.578	2146.31
460.798	2248.31
461.018	2398.31
461.238	2228.31
461.458	2135.31
461.678	2179.31
461.898	2157.31
462.118	2065.31
462.338	2170.31
462.558	2165.31
462.777	2159.31
462.997	2247.31
463.217	2410.31
463.437	2371.31
463.657	2232.31
463.876	2200.31
464.096	2178.31
464.316	2111.31
464.536	2256.31
464.755	2250.31
464.975	2265.31
465.195	2180.31
465.414	2309.31
465.634	2266.31
465.854	2149.31
466.073	2273.31
466.293	2277.31
466.512	1986.31
466.732	1962.31
466.951	2050.31
467.171	2044.31
467.391	1950.31
467.61	1924.31
467.829	1938.31
468.049	2089.31
468.268	2316.31
468.488	2181.31
468.707	2041.31
468.927	1995.31
469.146	2006.31
469.365	1961.31
469.585	1979.31
469.804	1952.31
470.023	1970.31
470.243	2020.31
470.462	1943.31
470.681	1919.31
470.901	1963.31
471.12	1973.31
471.339	1953.31
471.558	1910.31
471.777	1898.31
471.997	1896.31
472.216	1890.31
472.435	1805.31
472.654	1894.31
472.873	1962.31
473.092	2150.31
473.311	2016.31
473.53	1908.31
473.749	1849.31
473.968	1951.31
474.187	2064.31
474.406	2161.31
474.625	2057.31
474.844	2010.31
475.063	1982.31
475.282	2027.31
475.501	2021.31
475.72	2019.31
475.939	2122.31
476.158	2047.31
476.377	2005.31
476.596	1996.31
476.814	2084.31
477.033	2069.31
477.252	2135.31
477.471	2230.31
477.69	2107.31
477.908	2106.31
478.127	2193.31
478.346	2364.31
478.564	2432.31
478.783	2373.31
479.002	2441.31
479.22	2364.31
479.439	2459.31
479.658	2740.31
479.876	2751.31
480.095	2405.31
480.313	2294.31
480.532	2180.31
480.751	2202.31
480.969	2263.31
481.188	2247.31
481.406	2204.31
481.624	2124.31
481.843	2111.31
482.061	2229.31
482.28	2256.31
482.498	2311.31
482.717	2298.31
482.935	2170.31
483.153	2171.31
483.372	2225.31
483.59	2158.31
483.808	2216.31
484.027	2234.31
484.245	2370.31
484.463	2715.31
484.681	3080.31
484.9	2398.31
485.118	2249.31
485.336	2208.31
485.554	2365.31
485.772	2446.31
485.99	2374.31
486.209	2369.31
486.427	2363.31
486.645	2313.31
486.863	2313.31
487.081	2377.31
487.299	2398.31
487.517	2403.31
487.735	2294.31
487.953	2265.31
488.171	2260.31
488.389	2284.31
488.607	2280.31
488.825	2488.31
489.043	2503.31
489.261	2263.31
489.479	2415.31
489.696	2432.31
489.914	2417.31
490.132	2402.31
490.35	2352.31
490.568	2393.31
490.786	2355.31
491.003	2226.31
491.221	2301.31
491.439	2411.31
491.657	2434.31
491.874	2382.31
492.092	2430.31
492.31	2438.31
492.527	2391.31
492.745	2376.31
492.963	2375.31
493.18	2473.31
493.398	2580.31
493.615	2672.31
493.833	2472.31
494.05	2435.31
494.268	2433.31
494.485	2523.31
494.703	2443.31
494.92	2339.31
495.138	2332.31
495.355	2414.31
495.573	2489.31
495.79	2680.31
496.008	2643.31
496.225	2490.31
496.442	2477.31
496.66	2570.31
496.877	2508.31
497.094	2668.31
497.312	2635.31
497.529	2616.31
497.746	2685.31
497.963	3106.31
498.181	3455.31
498.398	3254.31
498.615	3168.31
498.832	3116.31
499.049	3038.31
499.267	3103.31
499.484	3295.31
499.701	3505.31
499.918	3567.31
500.135	3793.31
500.352	4084.31
500.569	4066.31
500.786	4296.31
501.003	4006.31
501.22	3642.31
501.437	3544.31
501.654	3524.31
501.871	3447.31
502.088	3072.31
502.305	3018.31
502.522	2913.31
502.739	2762.31
502.956	2669.31
503.172	2701.31
503.389	2617.31
503.606	2540.31
503.823	2566.31
504.04	2536.31
504.256	2543.31
504.473	2534.31
504.69	2686.31
504.907	2503.31
505.123	2376.31
505.34	2462.31
505.557	3152.31
505.773	2794.31
505.99	2337.31
506.207	2192.31
506.423	2150.31
506.64	2127.31
506.856	2175.31
507.073	2437.31
507.289	2596.31
507.506	2516.31
507.722	2190.31
507.939	2070.31
508.155	2088.31
508.372	2106.31
508.588	2055.31
508.805	1998.31
509.021	1984.31
509.238	1963.31
509.454	1972.31
509.67	1922.31
509.887	1993.31
510.103	1922.31
510.319	1995.31
510.536	2050.31
510.752	2159.31
510.968	2081.31
511.184	2247.31
511.401	2237.31
511.617	1978.31
511.833	1906.31
512.049	1891.31
512.265	1924.31
512.481	1888.31
512.698	1980.31
512.914	2086.31
513.13	2012.31
513.346	1951.31
513.562	1870.31
513.778	1944.31
513.994	2014.31
514.21	2098.31
514.426	2091.31
514.642	2319.31
514.858	2236.31
515.074	2050.31
515.29	1932.31
515.506	1986.31
515.721	1998.31
515.937	2008.31
516.153	2342.31
516.369	2236.31
516.585	2106.31
516.801	2007.31
517.016	2029.31
517.232	2054.31
517.448	2136.31
517.664	2149.31
517.879	2141.31
518.095	2244.31
518.311	2134.31
518.527	2039.31
518.742	1996.31
518.958	1940.31
519.173	1933.31
519.389	1957.31
519.605	1983.31
519.82	1987.31
520.036	2036.31
520.251	1955.31
520.467	1963.31
520.682	2120.31
520.898	2217.31
521.113	1928.31
521.329	1900.31
521.544	2068.31
521.76	1957.31
521.975	1839.31
522.19	1819.31
522.406	1839.31
522.621	2191.31
522.836	2177.31
523.052	1847.31
523.267	1816.31
523.482	1829.31
523.698	1748.31
523.913	1701.31
524.128	1815.31
524.343	1892.31
524.559	1915.31
524.774	1768.31
524.989	1750.31
525.204	1749.31
525.419	1734.31
525.634	1720.31
525.849	1737.31
526.064	1758.31
526.28	1794.31
526.495	1718.31
526.71	1702.31
526.925	1704.31
527.14	1660.31
527.355	1679.31
527.57	1650.31
527.785	1721.31
527.999	1652.31
528.214	1685.31
528.429	1623.31
528.644	1664.31
528.859	1712.31
529.074	1666.31
529.289	1680.31
529.503	1705.31
529.718	1728.31
529.933	1682.31
530.148	1637.31
530.363	1608.31
530.577	1662.31
530.792	1682.31
531.007	1702.31
531.221	1654.31
531.436	1673.31
531.651	1756.31
531.865	1829.31
532.08	1712.31
532.295	1635.31
532.509	1628.31
532.724	1653.31
532.938	1709.31
533.153	1809.31
533.367	1767.31
533.582	1666.31
533.796	1636.31
534.011	1693.31
534.225	1701.31
534.44	1618.31
534.654	1629.31
534.868	1626.31
535.083	1716.31
535.297	1689.31
535.511	1660.31
535.726	1626.31
535.94	1612.31
536.154	1600.31
536.369	1579.31
536.583	1570.31
536.797	1559.31
537.011	1633.31
537.225	1576.31
537.44	1564.31
537.654	1640.31
537.868	1588.31
538.082	1492.31
538.296	1482.31
538.51	1505.31
538.724	1524.31
538.938	1486.31
539.153	1580.31
539.367	1577.31
539.581	1588.31
539.795	1625.31
540.009	1604.31
540.222	1531.31
540.436	1612.31
540.65	1728.31
540.864	1775.31
541.078	1654.31
541.292	1572.31
541.506	1570.31
541.72	1567.31
541.934	1564.31
542.147	1596.31
542.361	1582.31
542.575	1483.31
542.789	1518.31
543.002	1463.31
543.216	1486.31
543.43	1605.31
543.644	1643.31
543.857	1712.31
544.071	1614.31
544.285	1600.31
544.498	1539.31
544.712	1522.31
544.925	1619.31
545.139	1629.31
545.352	1584.31
545.566	1480.31
545.779	1490.31
545.993	1483.31
546.206	1564.31
546.42	1480.31
546.633	1445.31
546.847	1458.31
547.06	1494.31
547.274	1465.31
547.487	1471.31
547.7	1466.31
547.914	1473.31
548.127	1518.31
548.34	1539.31
548.554	1487.31
548.767	1491.31
548.98	1503.31
549.193	1474.31
549.407	1569.31
549.62	1569.31
549.833	1504.31
550.046	1491.31
550.259	1482.31
550.473	1477.31
550.686	1484.31
550.899	1444.31
551.112	1435.31
551.325	1406.31
551.538	1501.31
551.751	1769.31
551.964	1438.31
552.177	1379.31
552.39	1409.31
552.603	1479.31
552.816	1453.31
553.029	1574.31
553.242	1599.31
553.455	1479.31
553.667	1444.31
553.88	1463.31
554.093	1464.31
554.306	1404.31
554.519	1372.31
554.732	1303.31
554.944	1365.31
555.157	1391.31
555.37	1385.31
555.583	1423.31
555.795	1354.31
556.008	1330.31
556.221	1292.31
556.433	1278.31
556.646	1271.31
556.859	1284.31
557.071	1253.31
557.284	1274.31
557.496	1271.31
557.709	1271.31
557.921	1237.31
558.134	1241.31
558.346	1229.31
558.559	1225.31
558.771	1256.31
558.984	1184.31
559.196	1171.31
559.409	1167.31
559.621	1220.31
559.833	1220.31
560.046	1249.31
560.258	1204.31
560.47	1228.31
560.683	1207.31
560.895	1196.31
561.107	1236.31
561.32	1240.31
561.532	1262.31
561.744	1200.31
561.956	1206.31
562.168	1199.31
562.381	1154.31
562.593	1144.31
562.805	1172.31
563.017	1174.31
563.229	1188.31
563.441	1206.31
563.653	1185.31
563.865	1178.31
564.077	1176.31
564.289	1169.31
564.501	1181.31
564.713	1257.31
564.925	1264.31
565.137	1344.31
565.349	1279.31
565.561	1243.31
565.773	1279.31
565.985	1288.31
566.197	1284.31
566.408	1422.31
566.62	1464.31
566.832	1463.31
567.044	1451.31
567.255	1418.31
567.467	1450.31
567.679	1564.31
567.891	1534.31
568.102	1467.31
568.314	1449.31
568.526	1376.31
568.737	1340.31
568.949	1281.31
569.161	1204.31
569.372	1156.31
569.584	1159.31
569.795	1133.31
570.007	1144.31
570.218	1094.31
570.43	1103.31
570.641	1085.31
570.853	1082.31
571.064	1117.31
571.276	1076.31
571.487	1065.31
571.698	1030.31
571.91	1018.31
572.121	992.31
572.333	1002.31
572.544	970.31
572.755	958.31
572.966	966.31
573.178	959.31
573.389	968.31
573.6	974.31
573.811	1055.31
574.023	991.31
574.234	968.31
574.445	924.31
574.656	893.31
574.867	915.31
575.078	937.31
575.289	905.31
575.501	908.31
575.712	883.31
575.923	877.31
576.134	920.31
576.345	900.31
576.556	876.31
576.767	879.31
576.978	869.31
577.188	871.31
577.399	874.31
577.61	859.31
577.821	845.31
578.032	842.31
578.243	834.31
578.454	801.31
578.665	833.31
578.875	801.31
579.086	819.31
579.297	816.31
579.508	876.31
579.718	823.31
579.929	781.31
580.14	798.31
580.35	798.31
580.561	838.31
580.772	906.31
580.982	833.31
581.193	800.31
581.403	805.31
581.614	786.31
581.825	791.31
582.035	772.31
582.246	768.31
582.456	808.31
582.667	792.31
582.877	773.31
583.087	764.31
583.298	762.31
583.508	756.31
583.719	748.31
583.929	758.31
584.139	760.31
584.35	750.31
584.56	740.31
584.77	741.31
584.981	763.31
585.191	767.31
585.401	812.31
585.611	772.31
585.821	751.31
586.032	738.31
586.242	738.31
586.452	713.31
586.662	730.31
586.872	758.31
587.082	703.31
587.292	744.31
587.502	750.31
587.713	754.31
587.923	734.31
588.133	733.31
588.343	735.31
588.553	735.31
588.762	728.31
588.972	738.31
589.182	759.31
589.392	743.31
589.602	734.31
589.812	753.31
590.022	701.31
590.232	686.31
590.441	714.31
590.651	712.31
590.861	719.31
591.071	719.31
591.281	697.31
591.49	697.31
591.7	723.31
591.91	708.31
592.119	722.31
592.329	736.31
592.539	752.31
592.748	747.31
592.958	732.31
593.167	762.31
593.377	786.31
593.587	760.31
593.796	778.31
594.006	776.31
594.215	764.31
594.424	767.31
594.634	733.31
594.843	728.31
595.053	774.31
595.262	749.31
595.472	695.31
595.681	716.31
595.89	700.31
596.1	702.31
596.309	683.31
596.518	688.31
596.727	690.31
596.937	677.31
597.146	671.31
597.355	666.31
597.564	638.31
597.774	634.31
597.983	642.31
598.192	620.31
598.401	636.31
598.61	632.31
598.819	618.31
599.028	619.31
599.237	638.31
599.446	629.31
599.655	597.31
599.864	598.31
600.073	597.31
600.282	586.31
600.491	593.31
600.7	605.31
600.909	589.31
601.118	592.31
601.327	594.31
601.536	607.31
601.745	594.31
601.953	598.31
602.162	582.31
602.371	596.31
602.58	594.31
602.789	566.31
602.997	588.31
603.206	591.31
603.415	580.31
603.623	588.31
603.832	572.31
604.041	553.31
604.249	567.31
604.458	570.31
604.666	585.31
604.875	556.31
605.084	596.31
605.292	577.31
605.501	574.31
605.709	562.31
605.918	558.31
606.126	544.31
606.334	545.31
606.543	556.31
606.751	588.31
606.96	555.31
607.168	533.31
607.376	550.31
607.585	541.31
607.793	546.31
608.001	545.31
608.21	561.31
608.418	544.31
608.626	552.31
608.834	550.31
609.043	538.31
609.251	550.31
609.459	548.31
609.667	558.31
609.875	541.31
610.083	554.31
610.291	564.31
610.499	536.31
610.707	544.31
610.916	534.31
611.124	535.31
611.332	536.31
611.54	538.31
611.748	528.31
611.955	534.31
612.163	530.31
612.371	518.31
612.579	522.31
612.787	530.31
612.995	529.31
613.203	514.31
613.411	496.31
613.618	537.31
613.826	523.31
614.034	524.31
614.242	511.31
614.449	504.31
614.657	505.31
614.865	517.31
615.072	495.31
615.28	488.31
615.488	510.31
615.695	558.31
615.903	540.31
616.111	509.31
616.318	522.31
616.526	500.31
616.733	532.31
616.941	501.31
617.148	511.31
617.356	492.31
617.563	495.31
617.771	506.31
617.978	514.31
618.185	496.31
618.393	502.31
618.6	494.31
618.807	491.31
619.015	492.31
619.222	468.31
619.429	486.31
619.637	493.31
619.844	478.31
620.051	504.31
620.258	463.31
620.466	473.31
620.673	450.31
620.88	460.31
621.087	460.31
621.294	465.31
621.501	468.31
621.708	456.31
621.915	453.31
622.122	464.31
622.329	458.31
622.536	466.31
622.743	434.31
622.95	474.31
623.157	438.31
623.364	437.31
623.571	453.31
623.778	474.31
623.985	458.31
624.192	460.31
624.399	441.31
624.606	435.31
624.812	447.31
625.019	442.31
625.226	462.31
625.433	440.31
625.639	420.31
625.846	440.31
626.053	417.31
626.259	433.31
626.466	424.31
626.673	397.31
626.879	388.31
627.086	403.31
627.293	407.31
627.499	418.31
627.706	419.31
627.912	421.31
628.119	421.31
628.325	425.31
628.532	392.31
628.738	417.31
628.945	422.31
629.151	413.31
629.357	425.31
629.564	427.31
629.77	410.31
629.976	404.31
630.183	375.31
630.389	388.31
630.595	403.31
630.802	384.31
631.008	408.31
631.214	395.31
631.42	376.31
631.627	391.31
631.833	361.31
632.039	363.31
632.245	362.31
632.451	359.31
632.657	379.31
632.863	369.31
633.069	384.31
633.275	365.31
633.481	389.31
633.688	362.31
633.893	366.31
634.099	361.31
634.305	361.31
634.511	350.31
634.717	352.31
634.923	344.31
635.129	346.31
635.335	339.31
635.541	364.31
635.747	366.31
635.952	368.31
636.158	373.31
636.364	359.31
636.57	345.31
636.775	337.31
636.981	369.31
637.187	343.31
637.392	342.31
637.598	352.31
637.804	357.31
638.009	340.31
638.215	358.31
638.421	352.31
638.626	327.31
638.832	334.31
639.037	325.31
639.243	342.31
639.448	341.31
639.654	325.31
639.859	334.31
640.065	344.31
640.27	335.31
640.475	312.31
640.681	341.31
640.886	348.31
641.091	342.31
641.297	327.31
641.502	313.31
641.707	318.31
641.913	333.31
642.118	344.31
642.323	325.31
642.528	327.31
642.733	336.31
642.939	315.31
643.144	325.31
643.349	349.31
643.554	317.31
643.759	301.31
643.964	322.31
644.169	316.31
644.374	317.31
644.579	331.31
644.784	338.31
644.989	317.31
645.194	312.31
645.399	301.31
645.604	318.31
645.809	294.31
646.014	313.31
646.219	308.31
646.423	318.31
646.628	325.31
646.833	319.31
647.038	343.31
647.243	310.31
647.447	323.31
647.652	324.31
647.857	327.31
648.062	319.31
648.266	330.31
648.471	328.31
648.676	313.31
648.88	313.31
649.085	322.31
649.289	328.31
649.494	318.31
649.698	306.31
649.903	308.31
650.107	318.31
650.312	305.31
650.516	305.31
650.721	295.31
650.925	287.31
651.13	294.31
651.334	284.31
651.539	272.31
651.743	280.31
651.947	283.31
652.152	278.31
652.356	265.31
652.56	264.31
652.764	258.31
652.969	247.31
653.173	271.31
653.377	254.31
653.581	244.31
653.785	239.31
653.99	248.31
654.194	254.31
654.398	256.31
654.602	236.31
654.806	242.31
655.01	238.31
655.214	244.31
655.418	220.31
655.622	247.31
655.826	254.31
656.03	257.31
656.234	272.31
656.438	267.31
656.642	275.31
656.846	263.31
657.049	249.31
657.253	221.31
657.457	205.31
657.661	206.31
657.865	199.31
658.068	180.31
658.272	161.31
658.476	179.31
658.68	177.31
658.883	152.31
659.087	138.31
659.291	128.31
659.494	130.31
659.698	140.31
659.901	138.31
660.105	123.31
660.309	125.31
660.512	112.31
660.716	116.31
660.919	106.31
661.123	110.31
661.326	107.31
661.53	101.31
661.733	111.31
661.936	107.31
662.14	95.31
662.343	99.31
662.546	100.31
662.75	110.31
662.953	96.31
663.156	90.31
663.36	89.31
663.563	92.31
663.766	93.31
663.969	83.31
664.173	81.31
664.376	97.31
664.579	90.31
664.782	103.31
664.985	87.31
665.188	90.31
665.391	94.31
665.594	91.31
665.797	77.31
666	93.31
666.203	99.31
666.406	88.31
666.609	89.31
666.812	85.31
667.015	98.31
667.218	81.31
667.421	95.31
667.624	90.31
667.827	70.31
668.03	81.31
668.232	91.31
668.435	85.31
668.638	100.31
668.841	95.31
669.043	79.31
669.246	81.31
669.449	89.31
669.651	90.31
669.854	80.31
670.057	97.31
670.259	94.31
670.462	101.31
670.665	80.31
670.867	95.31
671.07	95.31
671.272	79.31
671.475	87.31
671.677	87.31
671.88	82.31
672.082	104.31
672.284	88.31
672.487	95.31
672.689	79.31
672.892	70.31
