Data from WStandard_LampEnergy5.5LIBS07252019.E.O._I.C._HRD10591_16-08-42-921.txt Node
Date: Thu Jul 25 16:08:42 EDT 2019
User: cochatt
Spectrometer: HR+D1059
Trigger mode: 1
Integration Time (sec): 1.000000E-1
Scans to average: 1
Electric dark correction enabled: true
Nonlinearity correction enabled: false
Boxcar width: 0
XAxis mode: Wavelengths
Number of Pixels in Spectrum: 2048
>>>>>Begin Spectral Data<<<<<
223.165	-4.38
223.4	-4.38
223.635	-4.38
223.869	-21.38
224.104	-22.38
224.338	-15.38
224.573	-13.38
224.808	-13.38
225.042	-2.38
225.277	-18.38
225.511	-7.38
225.746	9.62
225.98	4.62
226.215	9.62
226.449	19.62
226.683	35.62
226.918	29.62
227.152	9.62
227.387	33.62
227.621	29.62
227.856	40.62
228.09	28.62
228.324	58.62
228.559	55.62
228.793	145.62
229.027	341.62
229.262	367.62
229.496	381.62
229.73	400.62
229.964	445.62
230.199	461.62
230.433	463.62
230.667	498.62
230.901	551.62
231.136	474.62
231.37	444.62
231.604	442.62
231.838	473.62
232.072	459.62
232.306	450.62
232.541	468.62
232.775	557.62
233.009	585.62
233.243	579.62
233.477	527.62
233.711	545.62
233.945	564.62
234.179	519.62
234.413	584.62
234.647	626.62
234.881	581.62
235.115	559.62
235.349	555.62
235.583	567.62
235.817	562.62
236.051	551.62
236.285	559.62
236.519	579.62
236.753	652.62
236.987	657.62
237.221	659.62
237.455	753.62
237.689	710.62
237.922	676.62
238.156	666.62
238.39	658.62
238.624	689.62
238.858	734.62
239.091	754.62
239.325	803.62
239.559	926.62
239.793	948.62
240.027	1049.62
240.26	1023.62
240.494	764.62
240.728	709.62
240.961	721.62
241.195	737.62
241.429	818.62
241.662	825.62
241.896	757.62
242.13	752.62
242.363	844.62
242.597	916.62
242.83	844.62
243.064	878.62
243.298	973.62
243.531	937.62
243.765	923.62
243.998	917.62
244.232	816.62
244.465	759.62
244.699	789.62
244.932	890.62
245.166	1031.62
245.399	972.62
245.633	912.62
245.866	872.62
246.099	932.62
246.333	944.62
246.566	959.62
246.8	1041.62
247.033	1159.62
247.266	1081.62
247.5	1029.62
247.733	1033.62
247.966	1099.62
248.2	1225.62
248.433	1168.62
248.666	1186.62
248.899	1341.62
249.133	1516.62
249.366	1713.62
249.599	1407.62
249.832	1250.62
250.066	1250.62
250.299	1261.62
250.532	1205.62
250.765	1048.62
250.998	1147.62
251.231	1209.62
251.465	1254.62
251.698	1185.62
251.931	1165.62
252.164	1168.62
252.397	1247.62
252.63	1252.62
252.863	1114.62
253.096	1091.62
253.329	1131.62
253.562	1156.62
253.795	1302.62
254.028	1251.62
254.261	1171.62
254.494	1162.62
254.727	1096.62
254.96	1135.62
255.193	1251.62
255.426	1402.62
255.659	1588.62
255.892	1663.62
256.124	1371.62
256.357	1319.62
256.59	1415.62
256.823	1419.62
257.056	1440.62
257.289	1702.62
257.521	1931.62
257.754	1671.62
257.987	1590.62
258.22	1752.62
258.452	1720.62
258.685	1397.62
258.918	1383.62
259.151	1391.62
259.383	1318.62
259.616	1155.62
259.849	1226.62
260.081	1374.62
260.314	1522.62
260.547	1653.62
260.779	1735.62
261.012	1572.62
261.244	1392.62
261.477	1327.62
261.71	1387.62
261.942	1402.62
262.175	1363.62
262.407	1444.62
262.64	1337.62
262.872	1293.62
263.105	1249.62
263.337	1241.62
263.57	1295.62
263.802	1279.62
264.035	1220.62
264.267	1167.62
264.499	1149.62
264.732	1207.62
264.964	1252.62
265.197	1347.62
265.429	1374.62
265.661	1562.62
265.894	1690.62
266.126	1783.62
266.358	1603.62
266.591	1609.62
266.823	1824.62
267.055	1627.62
267.287	1604.62
267.52	1561.62
267.752	1543.62
267.984	1551.62
268.216	1619.62
268.448	1641.62
268.681	1595.62
268.913	1525.62
269.145	1428.62
269.377	1401.62
269.609	1499.62
269.841	1730.62
270.073	2012.62
270.306	2188.62
270.538	2395.62
270.77	2004.62
271.002	1704.62
271.234	1651.62
271.466	1616.62
271.698	1815.62
271.93	2176.62
272.162	2203.62
272.394	1964.62
272.626	1860.62
272.858	1668.62
273.09	1443.62
273.322	1427.62
273.553	1352.62
273.785	1401.62
274.017	1425.62
274.249	1565.62
274.481	1583.62
274.713	1445.62
274.945	1408.62
275.176	1407.62
275.408	1438.62
275.64	1380.62
275.872	1383.62
276.104	1424.62
276.335	1640.62
276.567	1880.62
276.799	1867.62
277.031	1686.62
277.262	1595.62
277.494	1666.62
277.726	1815.62
277.957	1799.62
278.189	1637.62
278.421	1541.62
278.652	1480.62
278.884	1478.62
279.115	1461.62
279.347	1496.62
279.579	1462.62
279.81	1446.62
280.042	1638.62
280.273	1774.62
280.505	1756.62
280.736	1811.62
280.968	1700.62
281.199	1507.62
281.431	1445.62
281.662	1398.62
281.894	1422.62
282.125	1495.62
282.356	1494.62
282.588	1557.62
282.819	1516.62
283.051	1641.62
283.282	1825.62
283.513	1730.62
283.745	1542.62
283.976	1416.62
284.207	1413.62
284.439	1508.62
284.67	1496.62
284.901	1497.62
285.132	1547.62
285.364	1528.62
285.595	1572.62
285.826	1521.62
286.057	1488.62
286.288	1485.62
286.52	1535.62
286.751	1687.62
286.982	1708.62
287.213	1642.62
287.444	1469.62
287.675	1467.62
287.906	1510.62
288.138	1612.62
288.369	1608.62
288.6	1504.62
288.831	1445.62
289.062	1469.62
289.293	1508.62
289.524	1505.62
289.755	1528.62
289.986	1567.62
290.217	1444.62
290.448	1491.62
290.679	1555.62
290.91	1498.62
291.141	1538.62
291.371	1605.62
291.602	1609.62
291.833	1575.62
292.064	1656.62
292.295	1639.62
292.526	1661.62
292.757	1727.62
292.987	1601.62
293.218	1539.62
293.449	1659.62
293.68	1893.62
293.91	2010.62
294.141	1849.62
294.372	1747.62
294.603	1805.62
294.833	1900.62
295.064	1800.62
295.295	1639.62
295.525	1595.62
295.756	1481.62
295.987	1419.62
296.217	1471.62
296.448	1512.62
296.679	1490.62
296.909	1467.62
297.14	1508.62
297.37	1488.62
297.601	1575.62
297.831	1708.62
298.062	1742.62
298.292	1585.62
298.523	1511.62
298.753	1508.62
298.984	1527.62
299.214	1569.62
299.445	1551.62
299.675	1637.62
299.905	1600.62
300.136	1553.62
300.366	1521.62
300.597	1475.62
300.827	1479.62
301.057	1553.62
301.288	1615.62
301.518	1594.62
301.748	1661.62
301.979	1727.62
302.209	1730.62
302.439	1851.62
302.669	1979.62
302.9	1813.62
303.13	1633.62
303.36	1609.62
303.59	1660.62
303.82	1647.62
304.051	1623.62
304.281	1634.62
304.511	1632.62
304.741	1741.62
304.971	1902.62
305.201	2085.62
305.431	1912.62
305.661	1621.62
305.891	1463.62
306.121	1439.62
306.352	1496.62
306.582	1563.62
306.812	1682.62
307.042	1790.62
307.272	1803.62
307.502	1839.62
307.731	1944.62
307.961	2143.62
308.191	1997.62
308.421	1722.62
308.651	1623.62
308.881	1567.62
309.111	1593.62
309.341	1563.62
309.571	1588.62
309.8	1585.62
310.03	1573.62
310.26	1605.62
310.49	1567.62
310.72	1571.62
310.949	1642.62
311.179	1698.62
311.409	1671.62
311.639	1610.62
311.868	1566.62
312.098	1622.62
312.328	1609.62
312.557	1569.62
312.787	1623.62
313.017	1650.62
313.246	1624.62
313.476	1641.62
313.706	1723.62
313.935	1695.62
314.165	1649.62
314.394	1724.62
314.624	1834.62
314.853	1912.62
315.083	1963.62
315.312	2051.62
315.542	1906.62
315.771	1715.62
316.001	1699.62
316.23	1750.62
316.46	1828.62
316.689	1780.62
316.919	1679.62
317.148	1596.62
317.377	1660.62
317.607	1749.62
317.836	1974.62
318.065	2037.62
318.295	1977.62
318.524	1870.62
318.753	1811.62
318.983	1820.62
319.212	1717.62
319.441	1727.62
319.67	1693.62
319.9	1699.62
320.129	1763.62
320.358	1887.62
320.587	1962.62
320.816	1899.62
321.046	1900.62
321.275	1766.62
321.504	1785.62
321.733	1953.62
321.962	1881.62
322.191	1756.62
322.42	1745.62
322.649	1722.62
322.878	1717.62
323.108	1719.62
323.337	1803.62
323.566	1765.62
323.795	1798.62
324.024	1811.62
324.253	1744.62
324.482	1769.62
324.71	1712.62
324.939	1618.62
325.168	1691.62
325.397	1715.62
325.626	1804.62
325.855	1803.62
326.084	1735.62
326.313	1749.62
326.542	1745.62
326.77	1811.62
326.999	1819.62
327.228	1727.62
327.457	1642.62
327.686	1632.62
327.914	1672.62
328.143	1748.62
328.372	1730.62
328.6	1757.62
328.829	1697.62
329.058	1671.62
329.287	1662.62
329.515	1737.62
329.744	1736.62
329.972	1792.62
330.201	1870.62
330.43	1894.62
330.658	1859.62
330.887	1860.62
331.115	1823.62
331.344	1862.62
331.572	1817.62
331.801	1805.62
332.03	1804.62
332.258	1809.62
332.486	1819.62
332.715	1883.62
332.943	1848.62
333.172	1833.62
333.4	1852.62
333.629	1882.62
333.857	2012.62
334.085	2177.62
334.314	2434.62
334.542	2701.62
334.771	2515.62
334.999	2185.62
335.227	2087.62
335.455	2011.62
335.684	1967.62
335.912	2006.62
336.14	2061.62
336.369	2002.62
336.597	1901.62
336.825	1856.62
337.053	1887.62
337.281	1952.62
337.51	2086.62
337.738	2197.62
337.966	2089.62
338.194	1879.62
338.422	1868.62
338.65	1843.62
338.878	1807.62
339.106	1737.62
339.334	1743.62
339.562	1682.62
339.79	1782.62
340.018	1868.62
340.246	1951.62
340.474	1914.62
340.702	1857.62
340.93	1879.62
341.158	1840.62
341.386	1834.62
341.614	1834.62
341.842	1807.62
342.07	1795.62
342.298	1847.62
342.526	1846.62
342.754	1816.62
342.981	1771.62
343.209	1800.62
343.437	1800.62
343.665	1806.62
343.893	1852.62
344.12	1906.62
344.348	1961.62
344.576	1864.62
344.804	1825.62
345.031	1770.62
345.259	1825.62
345.487	1751.62
345.714	1705.62
345.942	1661.62
346.17	1699.62
346.397	1755.62
346.625	1721.62
346.853	1630.62
347.08	1632.62
347.308	1609.62
347.535	1657.62
347.763	1699.62
347.99	1698.62
348.218	1639.62
348.445	1637.62
348.673	1686.62
348.9	1723.62
349.128	1749.62
349.355	1852.62
349.583	1803.62
349.81	1735.62
350.037	1595.62
350.265	1571.62
350.492	1595.62
350.72	1633.62
350.947	1689.62
351.174	1726.62
351.402	1649.62
351.629	1557.62
351.856	1544.62
352.083	1578.62
352.311	1543.62
352.538	1642.62
352.765	1636.62
352.992	1723.62
353.22	1663.62
353.447	1654.62
353.674	1637.62
353.901	1624.62
354.128	1625.62
354.355	1598.62
354.583	1724.62
354.81	1722.62
355.037	1744.62
355.264	1715.62
355.491	1704.62
355.718	1685.62
355.945	1693.62
356.172	1643.62
356.399	1620.62
356.626	1596.62
356.853	1643.62
357.08	1786.62
357.307	1952.62
357.534	1995.62
357.761	1745.62
357.988	1623.62
358.215	1568.62
358.441	1563.62
358.668	1585.62
358.895	1568.62
359.122	1713.62
359.349	1839.62
359.576	1811.62
359.802	1667.62
360.029	1613.62
360.256	1595.62
360.483	1622.62
360.709	1656.62
360.936	1738.62
361.163	1719.62
361.39	1911.62
361.616	2047.62
361.843	2049.62
362.07	1934.62
362.296	1687.62
362.523	1612.62
362.749	1659.62
362.976	1693.62
363.203	1715.62
363.429	1638.62
363.656	1575.62
363.882	1638.62
364.109	1800.62
364.335	1982.62
364.562	1839.62
364.788	1761.62
365.015	1684.62
365.241	1631.62
365.468	1639.62
365.694	1688.62
365.92	1817.62
366.147	1720.62
366.373	1600.62
366.599	1580.62
366.826	1589.62
367.052	1613.62
367.278	1611.62
367.505	1659.62
367.731	1703.62
367.957	1647.62
368.184	1718.62
368.41	1845.62
368.636	1879.62
368.862	1864.62
369.089	1874.62
369.315	1819.62
369.541	1740.62
369.767	1667.62
369.993	1627.62
370.219	1620.62
370.445	1686.62
370.672	1772.62
370.898	1887.62
371.124	1841.62
371.35	1707.62
371.576	1770.62
371.802	1843.62
372.028	1807.62
372.254	1703.62
372.48	1667.62
372.706	1649.62
372.932	1682.62
373.158	1677.62
373.384	1695.62
373.61	1746.62
373.835	1848.62
374.061	1789.62
374.287	1755.62
374.513	1741.62
374.739	1745.62
374.965	1747.62
375.191	1767.62
375.416	1763.62
375.642	1786.62
375.868	1873.62
376.094	1961.62
376.319	1848.62
376.545	1763.62
376.771	1796.62
376.997	1859.62
377.222	1844.62
377.448	1774.62
377.674	1813.62
377.899	1777.62
378.125	1854.62
378.35	1889.62
378.576	1734.62
378.802	1673.62
379.027	1681.62
379.253	1735.62
379.478	1740.62
379.704	1752.62
379.929	1774.62
380.155	1742.62
380.38	1772.62
380.606	1768.62
380.831	1776.62
381.057	1810.62
381.282	1872.62
381.507	1815.62
381.733	1909.62
381.958	1997.62
382.184	1871.62
382.409	1816.62
382.634	1833.62
382.86	1821.62
383.085	1849.62
383.31	1878.62
383.535	2019.62
383.761	2116.62
383.986	2063.62
384.211	1988.62
384.436	1946.62
384.662	2011.62
384.887	2103.62
385.112	2039.62
385.337	2031.62
385.562	1988.62
385.787	1993.62
386.013	2011.62
386.238	2055.62
386.463	2033.62
386.688	2124.62
386.913	2245.62
387.138	2227.62
387.363	2072.62
387.588	2026.62
387.813	2025.62
388.038	2022.62
388.263	2130.62
388.488	2065.62
388.713	1891.62
388.938	1931.62
389.163	1875.62
389.387	1971.62
389.612	1972.62
389.837	1974.62
390.062	2049.62
390.287	1973.62
390.512	1976.62
390.736	1960.62
390.961	1973.62
391.186	1903.62
391.411	1970.62
391.636	1978.62
391.86	1983.62
392.085	1998.62
392.31	1982.62
392.534	1979.62
392.759	2034.62
392.984	1987.62
393.208	2007.62
393.433	2066.62
393.658	2102.62
393.882	2139.62
394.107	2002.62
394.331	1981.62
394.556	1973.62
394.78	2001.62
395.005	2051.62
395.229	2093.62
395.454	2284.62
395.678	2321.62
395.903	2209.62
396.127	2085.62
396.352	2090.62
396.576	2162.62
396.801	2184.62
397.025	2207.62
397.249	2189.62
397.474	2173.62
397.698	2133.62
397.922	2177.62
398.147	2290.62
398.371	2371.62
398.595	2435.62
398.82	2242.62
399.044	2363.62
399.268	2409.62
399.492	2596.62
399.717	2647.62
399.941	2707.62
400.165	2585.62
400.389	2549.62
400.613	2536.62
400.837	2759.62
401.062	3174.62
401.286	2653.62
401.51	2431.62
401.734	2645.62
401.958	2492.62
402.182	2342.62
402.406	2251.62
402.63	2260.62
402.854	2262.62
403.078	2255.62
403.302	2307.62
403.526	2365.62
403.75	2368.62
403.974	2379.62
404.198	2373.62
404.422	2412.62
404.645	2560.62
404.869	2538.62
405.093	2374.62
405.317	2338.62
405.541	2375.62
405.765	2400.62
405.988	2421.62
406.212	2441.62
406.436	2471.62
406.66	2549.62
406.883	2565.62
407.107	2860.62
407.331	3090.62
407.555	3313.62
407.778	3098.62
408.002	2602.62
408.226	2507.62
408.449	2463.62
408.673	2410.62
408.896	2433.62
409.12	2476.62
409.344	2426.62
409.567	2338.62
409.791	2383.62
410.014	2443.62
410.238	2491.62
410.461	2664.62
410.685	2421.62
410.908	2309.62
411.132	2396.62
411.355	2348.62
411.578	2312.62
411.802	2338.62
412.025	2368.62
412.249	2336.62
412.472	2279.62
412.695	2253.62
412.919	2221.62
413.142	2211.62
413.365	2281.62
413.589	2334.62
413.812	2429.62
414.035	2499.62
414.258	2333.62
414.482	2275.62
414.705	2299.62
414.928	2223.62
415.151	2252.62
415.374	2297.62
415.597	2330.62
415.821	2305.62
416.044	2367.62
416.267	2415.62
416.49	2198.62
416.713	2172.62
416.936	2284.62
417.159	2359.62
417.382	2303.62
417.605	2195.62
417.828	2305.62
418.051	2326.62
418.274	2278.62
418.497	2170.62
418.72	2169.62
418.943	2165.62
419.166	2386.62
419.389	2456.62
419.611	2309.62
419.834	2225.62
420.057	2265.62
420.28	2171.62
420.503	2178.62
420.726	2195.62
420.948	2187.62
421.171	2171.62
421.394	2175.62
421.617	2254.62
421.839	2219.62
422.062	2151.62
422.285	2119.62
422.507	2193.62
422.73	2080.62
422.953	2086.62
423.175	2127.62
423.398	2179.62
423.621	2183.62
423.843	2160.62
424.066	2201.62
424.288	2295.62
424.511	2328.62
424.733	2272.62
424.956	2084.62
425.178	2063.62
425.401	2089.62
425.623	2096.62
425.846	2108.62
426.068	2197.62
426.291	2277.62
426.513	2252.62
426.735	2176.62
426.958	2354.62
427.18	2503.62
427.402	2317.62
427.625	2351.62
427.847	2330.62
428.069	2201.62
428.292	2085.62
428.514	2087.62
428.736	2077.62
428.958	2109.62
429.181	2105.62
429.403	2367.62
429.625	2954.62
429.847	2593.62
430.069	2211.62
430.292	2367.62
430.514	2436.62
430.736	2266.62
430.958	2374.62
431.18	2264.62
431.402	2100.62
431.624	2101.62
431.846	2059.62
432.068	2051.62
432.29	2104.62
432.512	2080.62
432.734	2155.62
432.956	2198.62
433.178	2279.62
433.4	2231.62
433.622	2272.62
433.844	2197.62
434.066	2115.62
434.287	2088.62
434.509	2152.62
434.731	2230.62
434.953	2373.62
435.175	2371.62
435.397	2192.62
435.618	2220.62
435.84	2260.62
436.062	2187.62
436.284	2189.62
436.505	2227.62
436.727	2249.62
436.949	2226.62
437.17	2148.62
437.392	2124.62
437.614	2152.62
437.835	2083.62
438.057	2174.62
438.278	2303.62
438.5	2150.62
438.721	2093.62
438.943	2085.62
439.165	2088.62
439.386	2012.62
439.608	2083.62
439.829	2100.62
440.05	2091.62
440.272	2079.62
440.493	2059.62
440.715	2120.62
440.936	2199.62
441.158	2502.62
441.379	2381.62
441.6	2323.62
441.822	2217.62
442.043	2229.62
442.264	2192.62
442.486	2076.62
442.707	2069.62
442.928	2064.62
443.149	2168.62
443.371	2289.62
443.592	2348.62
443.813	2307.62
444.034	2260.62
444.255	2268.62
444.476	2313.62
444.698	2375.62
444.919	2343.62
445.14	2495.62
445.361	2453.62
445.582	2538.62
445.803	2382.62
446.024	2301.62
446.245	2409.62
446.466	2295.62
446.687	2249.62
446.908	2171.62
447.129	2132.62
447.35	2199.62
447.571	2166.62
447.792	2052.62
448.013	2006.62
448.234	2090.62
448.455	2208.62
448.675	2197.62
448.896	2006.62
449.117	1970.62
449.338	2051.62
449.559	2117.62
449.779	2261.62
450	2475.62
450.221	2695.62
450.442	2648.62
450.662	2255.62
450.883	2033.62
451.104	1943.62
451.324	2009.62
451.545	2053.62
451.766	2042.62
451.986	1945.62
452.207	1953.62
452.428	1859.62
452.648	1843.62
452.869	1914.62
453.089	2056.62
453.31	2060.62
453.53	2083.62
453.751	2018.62
453.971	1939.62
454.192	1957.62
454.412	2058.62
454.633	2004.62
454.853	1959.62
455.073	1853.62
455.294	1842.62
455.514	1824.62
455.734	1836.62
455.955	1927.62
456.175	1875.62
456.395	1888.62
456.616	1938.62
456.836	1960.62
457.056	1873.62
457.276	1925.62
457.497	1889.62
457.717	1818.62
457.937	1819.62
458.157	1926.62
458.377	1937.62
458.598	1855.62
458.818	1873.62
459.038	2011.62
459.258	2135.62
459.478	2136.62
459.698	2069.62
459.918	2122.62
460.138	2207.62
460.358	2271.62
460.578	2224.62
460.798	2330.62
461.018	2465.62
461.238	2377.62
461.458	2263.62
461.678	2283.62
461.898	2222.62
462.118	2134.62
462.338	2248.62
462.558	2269.62
462.777	2244.62
462.997	2371.62
463.217	2487.62
463.437	2510.62
463.657	2313.62
463.876	2330.62
464.096	2276.62
464.316	2224.62
464.536	2330.62
464.755	2322.62
464.975	2380.62
465.195	2271.62
465.414	2377.62
465.634	2365.62
465.854	2229.62
466.073	2371.62
466.293	2330.62
466.512	2071.62
466.732	2006.62
466.951	2140.62
467.171	2103.62
467.391	2042.62
467.61	1989.62
467.829	2002.62
468.049	2171.62
468.268	2398.62
468.488	2282.62
468.707	2129.62
468.927	2087.62
469.146	2032.62
469.365	1959.62
469.585	2032.62
469.804	2039.62
470.023	2032.62
470.243	2079.62
470.462	2053.62
470.681	1994.62
470.901	2015.62
471.12	2042.62
471.339	2008.62
471.558	1961.62
471.777	2016.62
471.997	1997.62
472.216	2001.62
472.435	1927.62
472.654	1964.62
472.873	2070.62
473.092	2215.62
473.311	2080.62
473.53	1971.62
473.749	1955.62
473.968	1997.62
474.187	2152.62
474.406	2248.62
474.625	2097.62
474.844	2031.62
475.063	2024.62
475.282	2138.62
475.501	2113.62
475.72	2050.62
475.939	2171.62
476.158	2097.62
476.377	2073.62
476.596	2102.62
476.814	2113.62
477.033	2139.62
477.252	2260.62
477.471	2331.62
477.69	2189.62
477.908	2167.62
478.127	2272.62
478.346	2494.62
478.564	2443.62
478.783	2448.62
479.002	2512.62
479.22	2476.62
479.439	2546.62
479.658	2845.62
479.876	2816.62
480.095	2509.62
480.313	2387.62
480.532	2271.62
480.751	2300.62
480.969	2392.62
481.188	2339.62
481.406	2287.62
481.624	2246.62
481.843	2292.62
482.061	2325.62
482.28	2398.62
482.498	2421.62
482.717	2417.62
482.935	2299.62
483.153	2301.62
483.372	2299.62
483.59	2247.62
483.808	2279.62
484.027	2364.62
484.245	2466.62
484.463	2801.62
484.681	3257.62
484.9	2560.62
485.118	2419.62
485.336	2276.62
485.554	2411.62
485.772	2573.62
485.99	2481.62
486.209	2505.62
486.427	2465.62
486.645	2503.62
486.863	2429.62
487.081	2505.62
487.299	2572.62
487.517	2510.62
487.735	2387.62
487.953	2393.62
488.171	2317.62
488.389	2341.62
488.607	2349.62
488.825	2630.62
489.043	2639.62
489.261	2384.62
489.479	2524.62
489.696	2568.62
489.914	2538.62
490.132	2517.62
490.35	2433.62
490.568	2507.62
490.786	2421.62
491.003	2342.62
491.221	2408.62
491.439	2529.62
491.657	2502.62
491.874	2466.62
492.092	2543.62
492.31	2484.62
492.527	2483.62
492.745	2422.62
492.963	2488.62
493.18	2553.62
493.398	2681.62
493.615	2778.62
493.833	2524.62
494.05	2491.62
494.268	2543.62
494.485	2595.62
494.703	2572.62
494.92	2433.62
495.138	2453.62
495.355	2511.62
495.573	2641.62
495.79	2789.62
496.008	2805.62
496.225	2585.62
496.442	2633.62
496.66	2677.62
496.877	2590.62
497.094	2755.62
497.312	2787.62
497.529	2694.62
497.746	2779.62
497.963	3247.62
498.181	3621.62
498.398	3347.62
498.615	3255.62
498.832	3243.62
499.049	3191.62
499.267	3230.62
499.484	3424.62
499.701	3704.62
499.918	3731.62
500.135	3979.62
500.352	4313.62
500.569	4277.62
500.786	4531.62
501.003	4235.62
501.22	3859.62
501.437	3779.62
501.654	3676.62
501.871	3593.62
502.088	3206.62
502.305	3211.62
502.522	3086.62
502.739	2841.62
502.956	2755.62
503.172	2819.62
503.389	2714.62
503.606	2663.62
503.823	2644.62
504.04	2660.62
504.256	2665.62
504.473	2677.62
504.69	2786.62
504.907	2618.62
505.123	2513.62
505.34	2607.62
505.557	3326.62
505.773	2845.62
505.99	2433.62
506.207	2297.62
506.423	2276.62
506.64	2265.62
506.856	2281.62
507.073	2538.62
507.289	2759.62
507.506	2620.62
507.722	2253.62
507.939	2169.62
508.155	2177.62
508.372	2230.62
508.588	2195.62
508.805	2100.62
509.021	2082.62
509.238	2058.62
509.454	2041.62
509.67	2071.62
509.887	2027.62
510.103	2039.62
510.319	2100.62
510.536	2219.62
510.752	2213.62
510.968	2207.62
511.184	2377.62
511.401	2347.62
511.617	2036.62
511.833	2024.62
512.049	1980.62
512.265	2008.62
512.481	2016.62
512.698	2079.62
512.914	2180.62
513.13	2122.62
513.346	2009.62
513.562	1961.62
513.778	2024.62
513.994	2112.62
514.21	2161.62
514.426	2181.62
514.642	2424.62
514.858	2295.62
515.074	2101.62
515.29	2018.62
515.506	2088.62
515.721	2152.62
515.937	2129.62
516.153	2409.62
516.369	2320.62
516.585	2201.62
516.801	2126.62
517.016	2100.62
517.232	2198.62
517.448	2195.62
517.664	2213.62
517.879	2212.62
518.095	2354.62
518.311	2216.62
518.527	2095.62
518.742	2074.62
518.958	2032.62
519.173	2025.62
519.389	2057.62
519.605	2074.62
519.82	2034.62
520.036	2108.62
520.251	2056.62
520.467	2033.62
520.682	2223.62
520.898	2252.62
521.113	2036.62
521.329	1973.62
521.544	2110.62
521.76	2048.62
521.975	1902.62
522.19	1911.62
522.406	1907.62
522.621	2274.62
522.836	2343.62
523.052	1925.62
523.267	1941.62
523.482	1932.62
523.698	1840.62
523.913	1797.62
524.128	1842.62
524.343	1951.62
524.559	1993.62
524.774	1851.62
524.989	1855.62
525.204	1837.62
525.419	1795.62
525.634	1769.62
525.849	1832.62
526.064	1904.62
526.28	1841.62
526.495	1769.62
526.71	1775.62
526.925	1802.62
527.14	1776.62
527.355	1794.62
527.57	1693.62
527.785	1783.62
527.999	1754.62
528.214	1685.62
528.429	1695.62
528.644	1741.62
528.859	1736.62
529.074	1723.62
529.289	1744.62
529.503	1755.62
529.718	1772.62
529.933	1748.62
530.148	1700.62
530.363	1675.62
530.577	1699.62
530.792	1732.62
531.007	1777.62
531.221	1741.62
531.436	1760.62
531.651	1819.62
531.865	1927.62
532.08	1832.62
532.295	1707.62
532.509	1681.62
532.724	1684.62
532.938	1763.62
533.153	1851.62
533.367	1828.62
533.582	1761.62
533.796	1717.62
534.011	1750.62
534.225	1741.62
534.44	1720.62
534.654	1695.62
534.868	1687.62
535.083	1791.62
535.297	1767.62
535.511	1716.62
535.726	1751.62
535.94	1722.62
536.154	1737.62
536.369	1694.62
536.583	1673.62
536.797	1636.62
537.011	1693.62
537.225	1632.62
537.44	1609.62
537.654	1698.62
537.868	1644.62
538.082	1563.62
538.296	1552.62
538.51	1594.62
538.724	1591.62
538.938	1609.62
539.153	1643.62
539.367	1662.62
539.581	1615.62
539.795	1733.62
540.009	1669.62
540.222	1650.62
540.436	1666.62
540.65	1777.62
540.864	1777.62
541.078	1741.62
541.292	1609.62
541.506	1592.62
541.72	1629.62
541.934	1631.62
542.147	1684.62
542.361	1640.62
542.575	1576.62
542.789	1532.62
543.002	1515.62
543.216	1596.62
543.43	1671.62
543.644	1673.62
543.857	1760.62
544.071	1685.62
544.285	1660.62
544.498	1599.62
544.712	1604.62
544.925	1658.62
545.139	1697.62
545.352	1611.62
545.566	1529.62
545.779	1541.62
545.993	1579.62
546.206	1591.62
546.42	1538.62
546.633	1480.62
546.847	1525.62
547.06	1578.62
547.274	1546.62
547.487	1541.62
547.7	1526.62
547.914	1512.62
548.127	1547.62
548.34	1571.62
548.554	1570.62
548.767	1539.62
548.98	1542.62
549.193	1551.62
549.407	1600.62
549.62	1617.62
549.833	1545.62
550.046	1508.62
550.259	1537.62
550.473	1516.62
550.686	1487.62
550.899	1470.62
551.112	1489.62
551.325	1451.62
551.538	1536.62
551.751	1779.62
551.964	1487.62
552.177	1456.62
552.39	1472.62
552.603	1488.62
552.816	1538.62
553.029	1583.62
553.242	1598.62
553.455	1555.62
553.667	1521.62
553.88	1474.62
554.093	1469.62
554.306	1485.62
554.519	1436.62
554.732	1394.62
554.944	1460.62
555.157	1491.62
555.37	1421.62
555.583	1407.62
555.795	1380.62
556.008	1370.62
556.221	1352.62
556.433	1321.62
556.646	1343.62
556.859	1315.62
557.071	1305.62
557.284	1285.62
557.496	1278.62
557.709	1265.62
557.921	1282.62
558.134	1258.62
558.346	1258.62
558.559	1271.62
558.771	1258.62
558.984	1210.62
559.196	1211.62
559.409	1239.62
559.621	1237.62
559.833	1235.62
560.046	1315.62
560.258	1287.62
560.47	1282.62
560.683	1243.62
560.895	1247.62
561.107	1233.62
561.32	1280.62
561.532	1318.62
561.744	1240.62
561.956	1303.62
562.168	1256.62
562.381	1200.62
562.593	1195.62
562.805	1178.62
563.017	1218.62
563.229	1211.62
563.441	1243.62
563.653	1224.62
563.865	1225.62
564.077	1218.62
564.289	1208.62
564.501	1257.62
564.713	1288.62
564.925	1305.62
565.137	1403.62
565.349	1317.62
565.561	1331.62
565.773	1341.62
565.985	1350.62
566.197	1409.62
566.408	1477.62
566.62	1474.62
566.832	1455.62
567.044	1506.62
567.255	1517.62
567.467	1545.62
567.679	1545.62
567.891	1634.62
568.102	1548.62
568.314	1498.62
568.526	1435.62
568.737	1360.62
568.949	1285.62
569.161	1225.62
569.372	1233.62
569.584	1197.62
569.795	1185.62
570.007	1195.62
570.218	1127.62
570.43	1141.62
570.641	1110.62
570.853	1099.62
571.064	1106.62
571.276	1125.62
571.487	1102.62
571.698	1061.62
571.91	1027.62
572.121	1026.62
572.333	996.62
572.544	1044.62
572.755	965.62
572.966	973.62
573.178	977.62
573.389	1008.62
573.6	1050.62
573.811	1084.62
574.023	995.62
574.234	991.62
574.445	968.62
574.656	941.62
574.867	935.62
575.078	957.62
575.289	972.62
575.501	934.62
575.712	908.62
575.923	951.62
576.134	967.62
576.345	933.62
576.556	934.62
576.767	896.62
576.978	887.62
577.188	900.62
577.399	899.62
577.61	896.62
577.821	884.62
578.032	855.62
578.243	865.62
578.454	852.62
578.665	858.62
578.875	841.62
579.086	864.62
579.297	845.62
579.508	907.62
579.718	845.62
579.929	839.62
580.14	832.62
580.35	807.62
580.561	855.62
580.772	920.62
580.982	848.62
581.193	839.62
581.403	812.62
581.614	791.62
581.825	799.62
582.035	776.62
582.246	791.62
582.456	818.62
582.667	805.62
582.877	784.62
583.087	763.62
583.298	786.62
583.508	781.62
583.719	797.62
583.929	810.62
584.139	805.62
584.35	745.62
584.56	789.62
584.77	785.62
584.981	788.62
585.191	794.62
585.401	811.62
585.611	777.62
585.821	800.62
586.032	761.62
586.242	753.62
586.452	764.62
586.662	772.62
586.872	748.62
587.082	752.62
587.292	787.62
587.502	782.62
587.713	775.62
587.923	759.62
588.133	747.62
588.343	787.62
588.553	761.62
588.762	743.62
588.972	753.62
589.182	769.62
589.392	750.62
589.602	764.62
589.812	755.62
590.022	731.62
590.232	737.62
590.441	760.62
590.651	756.62
590.861	725.62
591.071	740.62
591.281	744.62
591.49	712.62
591.7	756.62
591.91	737.62
592.119	753.62
592.329	773.62
592.539	786.62
592.748	771.62
592.958	791.62
593.167	794.62
593.377	775.62
593.587	791.62
593.796	790.62
594.006	783.62
594.215	765.62
594.424	795.62
594.634	738.62
594.843	755.62
595.053	796.62
595.262	743.62
595.472	740.62
595.681	736.62
595.89	728.62
596.1	700.62
596.309	717.62
596.518	713.62
596.727	699.62
596.937	711.62
597.146	660.62
597.355	647.62
597.564	652.62
597.774	637.62
597.983	651.62
598.192	647.62
598.401	640.62
598.61	649.62
598.819	631.62
599.028	619.62
599.237	633.62
599.446	639.62
599.655	632.62
599.864	608.62
600.073	600.62
600.282	610.62
600.491	585.62
600.7	636.62
600.909	597.62
601.118	607.62
601.327	599.62
601.536	611.62
601.745	586.62
601.953	608.62
602.162	610.62
602.371	597.62
602.58	605.62
602.789	606.62
602.997	613.62
603.206	590.62
603.415	579.62
603.623	581.62
603.832	597.62
604.041	592.62
604.249	560.62
604.458	597.62
604.666	594.62
604.875	586.62
605.084	601.62
605.292	587.62
605.501	566.62
605.709	577.62
605.918	569.62
606.126	562.62
606.334	553.62
606.543	572.62
606.751	565.62
606.96	565.62
607.168	541.62
607.376	552.62
607.585	569.62
607.793	564.62
608.001	563.62
608.21	536.62
608.418	554.62
608.626	538.62
608.834	552.62
609.043	536.62
609.251	555.62
609.459	550.62
609.667	553.62
609.875	539.62
610.083	535.62
610.291	549.62
610.499	567.62
610.707	538.62
610.916	524.62
611.124	544.62
611.332	529.62
611.54	534.62
611.748	526.62
611.955	525.62
612.163	542.62
612.371	543.62
612.579	540.62
612.787	520.62
612.995	529.62
613.203	549.62
613.411	526.62
613.618	548.62
613.826	529.62
614.034	520.62
614.242	503.62
614.449	528.62
614.657	521.62
614.865	503.62
615.072	512.62
615.28	527.62
615.488	531.62
615.695	563.62
615.903	547.62
616.111	539.62
616.318	511.62
616.526	519.62
616.733	520.62
616.941	509.62
617.148	499.62
617.356	536.62
617.563	513.62
617.771	517.62
617.978	501.62
618.185	499.62
618.393	506.62
618.6	513.62
618.807	495.62
619.015	490.62
619.222	490.62
619.429	499.62
619.637	487.62
619.844	473.62
620.051	488.62
620.258	446.62
620.466	480.62
620.673	462.62
620.88	447.62
621.087	469.62
621.294	480.62
621.501	462.62
621.708	478.62
621.915	461.62
622.122	487.62
622.329	478.62
622.536	461.62
622.743	469.62
622.95	470.62
623.157	454.62
623.364	475.62
623.571	453.62
623.778	465.62
623.985	455.62
624.192	452.62
624.399	468.62
624.606	442.62
624.812	428.62
625.019	453.62
625.226	454.62
625.433	443.62
625.639	444.62
625.846	450.62
626.053	405.62
626.259	429.62
626.466	419.62
626.673	413.62
626.879	403.62
627.086	408.62
627.293	404.62
627.499	434.62
627.706	432.62
627.912	406.62
628.119	399.62
628.325	400.62
628.532	428.62
628.738	420.62
628.945	407.62
629.151	418.62
629.357	409.62
629.564	420.62
629.77	401.62
629.976	401.62
630.183	382.62
630.389	407.62
630.595	395.62
630.802	371.62
631.008	376.62
631.214	359.62
631.42	387.62
631.627	383.62
631.833	375.62
632.039	401.62
632.245	389.62
632.451	364.62
632.657	380.62
632.863	380.62
633.069	380.62
633.275	370.62
633.481	354.62
633.688	334.62
633.893	374.62
634.099	360.62
634.305	343.62
634.511	343.62
634.717	385.62
634.923	361.62
635.129	354.62
635.335	348.62
635.541	336.62
635.747	329.62
635.952	341.62
636.158	350.62
636.364	335.62
636.57	362.62
636.775	361.62
636.981	355.62
637.187	345.62
637.392	365.62
637.598	351.62
637.804	356.62
638.009	346.62
638.215	342.62
638.421	333.62
638.626	335.62
638.832	329.62
639.037	320.62
639.243	334.62
639.448	318.62
639.654	332.62
639.859	321.62
640.065	320.62
640.27	310.62
640.475	331.62
640.681	348.62
640.886	321.62
641.091	322.62
641.297	315.62
641.502	335.62
641.707	344.62
641.913	333.62
642.118	331.62
642.323	315.62
642.528	315.62
642.733	329.62
642.939	326.62
643.144	299.62
643.349	317.62
643.554	325.62
643.759	303.62
643.964	315.62
644.169	319.62
644.374	307.62
644.579	324.62
644.784	332.62
644.989	325.62
645.194	315.62
645.399	331.62
645.604	306.62
645.809	328.62
646.014	327.62
646.219	329.62
646.423	311.62
646.628	303.62
646.833	318.62
647.038	325.62
647.243	311.62
647.447	310.62
647.652	315.62
647.857	305.62
648.062	310.62
648.266	307.62
648.471	322.62
648.676	316.62
648.88	329.62
649.085	322.62
649.289	314.62
649.494	307.62
649.698	299.62
649.903	292.62
650.107	295.62
650.312	288.62
650.516	308.62
650.721	305.62
650.925	278.62
651.13	297.62
651.334	279.62
651.539	273.62
651.743	261.62
651.947	260.62
652.152	275.62
652.356	280.62
652.56	281.62
652.764	260.62
652.969	276.62
653.173	257.62
653.377	263.62
653.581	251.62
653.785	244.62
653.99	263.62
654.194	247.62
654.398	233.62
654.602	234.62
654.806	245.62
655.01	236.62
655.214	226.62
655.418	244.62
655.622	239.62
655.826	250.62
656.03	273.62
656.234	268.62
656.438	281.62
656.642	273.62
656.846	250.62
657.049	235.62
657.253	230.62
657.457	214.62
657.661	196.62
657.865	205.62
658.068	186.62
658.272	170.62
658.476	169.62
658.68	165.62
658.883	134.62
659.087	157.62
659.291	139.62
659.494	121.62
659.698	137.62
659.901	133.62
660.105	124.62
660.309	123.62
660.512	113.62
660.716	124.62
660.919	118.62
661.123	102.62
661.326	101.62
661.53	103.62
661.733	92.62
661.936	96.62
662.14	104.62
662.343	103.62
662.546	89.62
662.75	94.62
662.953	92.62
663.156	88.62
663.36	80.62
663.563	77.62
663.766	89.62
663.969	87.62
664.173	82.62
664.376	80.62
664.579	82.62
664.782	82.62
664.985	82.62
665.188	80.62
665.391	73.62
665.594	74.62
665.797	88.62
666	88.62
666.203	93.62
666.406	86.62
666.609	81.62
666.812	83.62
667.015	87.62
667.218	73.62
667.421	91.62
667.624	80.62
667.827	81.62
668.03	83.62
668.232	84.62
668.435	70.62
668.638	85.62
668.841	83.62
669.043	93.62
669.246	77.62
669.449	86.62
669.651	81.62
669.854	83.62
670.057	88.62
670.259	78.62
670.462	80.62
670.665	81.62
670.867	79.62
671.07	76.62
671.272	80.62
671.475	81.62
671.677	79.62
671.88	73.62
672.082	89.62
672.284	89.62
672.487	76.62
672.689	83.62
672.892	71.62
