Data from WStandard_LampEnergy8_LIBS07252019.E.O._I.C._HRD10591_15-59-16-929.txt Node
Date: Thu Jul 25 15:59:16 EDT 2019
User: cochatt
Spectrometer: HR+D1059
Trigger mode: 1
Integration Time (sec): 1.000000E-1
Scans to average: 1
Electric dark correction enabled: true
Nonlinearity correction enabled: false
Boxcar width: 0
XAxis mode: Wavelengths
Number of Pixels in Spectrum: 2048
>>>>>Begin Spectral Data<<<<<
223.165	-12.62
223.4	-12.62
223.635	-12.62
223.869	-23.62
224.104	-20.62
224.338	-8.62
224.573	-9.62
224.808	-13.62
225.042	-19.62
225.277	-8.62
225.511	-4.62
225.746	7.38
225.98	0.38
226.215	23.38
226.449	13.38
226.683	12.38
226.918	31.38
227.152	33.38
227.387	17.38
227.621	36.38
227.856	47.38
228.09	44.38
228.324	56.38
228.559	64.38
228.793	101.38
229.027	186.38
229.262	213.38
229.496	197.38
229.73	228.38
229.964	250.38
230.199	267.38
230.433	271.38
230.667	282.38
230.901	274.38
231.136	261.38
231.37	269.38
231.604	266.38
231.838	268.38
232.072	239.38
232.306	241.38
232.541	265.38
232.775	313.38
233.009	330.38
233.243	299.38
233.477	299.38
233.711	285.38
233.945	284.38
234.179	288.38
234.413	329.38
234.647	326.38
234.881	315.38
235.115	307.38
235.349	323.38
235.583	300.38
235.817	281.38
236.051	299.38
236.285	306.38
236.519	321.38
236.753	347.38
236.987	363.38
237.221	346.38
237.455	375.38
237.689	367.38
237.922	334.38
238.156	348.38
238.39	335.38
238.624	379.38
238.858	379.38
239.091	407.38
239.325	424.38
239.559	464.38
239.793	499.38
240.027	515.38
240.26	507.38
240.494	385.38
240.728	371.38
240.961	386.38
241.195	405.38
241.429	431.38
241.662	435.38
241.896	386.38
242.13	409.38
242.363	466.38
242.597	477.38
242.83	452.38
243.064	447.38
243.298	465.38
243.531	453.38
243.765	454.38
243.998	467.38
244.232	407.38
244.465	387.38
244.699	417.38
244.932	454.38
245.166	511.38
245.399	498.38
245.633	466.38
245.866	451.38
246.099	470.38
246.333	477.38
246.566	509.38
246.8	531.38
247.033	565.38
247.266	551.38
247.5	521.38
247.733	536.38
247.966	562.38
248.2	589.38
248.433	601.38
248.666	604.38
248.899	681.38
249.133	740.38
249.366	809.38
249.599	678.38
249.832	626.38
250.066	604.38
250.299	621.38
250.532	583.38
250.765	525.38
250.998	575.38
251.231	600.38
251.465	611.38
251.698	586.38
251.931	599.38
252.164	606.38
252.397	626.38
252.63	605.38
252.863	545.38
253.096	520.38
253.329	564.38
253.562	595.38
253.795	605.38
254.028	611.38
254.261	586.38
254.494	537.38
254.727	548.38
254.96	585.38
255.193	633.38
255.426	695.38
255.659	783.38
255.892	795.38
256.124	689.38
256.357	637.38
256.59	684.38
256.823	709.38
257.056	719.38
257.289	845.38
257.521	885.38
257.754	796.38
257.987	787.38
258.22	821.38
258.452	804.38
258.685	696.38
258.918	662.38
259.151	683.38
259.383	653.38
259.616	587.38
259.849	608.38
260.081	681.38
260.314	761.38
260.547	827.38
260.779	819.38
261.012	759.38
261.244	694.38
261.477	675.38
261.71	693.38
261.942	692.38
262.175	701.38
262.407	707.38
262.64	666.38
262.872	611.38
263.105	621.38
263.337	652.38
263.57	643.38
263.802	628.38
264.035	582.38
264.267	561.38
264.499	585.38
264.732	602.38
264.964	645.38
265.197	671.38
265.429	729.38
265.661	784.38
265.894	857.38
266.126	862.38
266.358	788.38
266.591	812.38
266.823	840.38
267.055	786.38
267.287	796.38
267.52	773.38
267.752	731.38
267.984	750.38
268.216	795.38
268.448	786.38
268.681	781.38
268.913	737.38
269.145	714.38
269.377	675.38
269.609	773.38
269.841	873.38
270.073	988.38
270.306	1099.38
270.538	1114.38
270.77	965.38
271.002	842.38
271.234	823.38
271.466	815.38
271.698	904.38
271.93	1044.38
272.162	1023.38
272.394	943.38
272.626	914.38
272.858	803.38
273.09	715.38
273.322	718.38
273.553	684.38
273.785	693.38
274.017	726.38
274.249	744.38
274.481	755.38
274.713	697.38
274.945	687.38
275.176	692.38
275.408	695.38
275.64	696.38
275.872	694.38
276.104	738.38
276.335	793.38
276.567	921.38
276.799	923.38
277.031	823.38
277.262	804.38
277.494	845.38
277.726	898.38
277.957	903.38
278.189	837.38
278.421	750.38
278.652	740.38
278.884	728.38
279.115	731.38
279.347	755.38
279.579	738.38
279.81	719.38
280.042	811.38
280.273	861.38
280.505	877.38
280.736	887.38
280.968	827.38
281.199	762.38
281.431	708.38
281.662	715.38
281.894	756.38
282.125	746.38
282.356	756.38
282.588	773.38
282.819	776.38
283.051	831.38
283.282	886.38
283.513	855.38
283.745	781.38
283.976	711.38
284.207	717.38
284.439	756.38
284.67	773.38
284.901	754.38
285.132	806.38
285.364	776.38
285.595	792.38
285.826	755.38
286.057	754.38
286.288	768.38
286.52	802.38
286.751	835.38
286.982	864.38
287.213	771.38
287.444	745.38
287.675	758.38
287.906	782.38
288.138	851.38
288.369	810.38
288.6	761.38
288.831	726.38
289.062	760.38
289.293	761.38
289.524	789.38
289.755	787.38
289.986	796.38
290.217	707.38
290.448	759.38
290.679	787.38
290.91	781.38
291.141	817.38
291.371	836.38
291.602	848.38
291.833	820.38
292.064	836.38
292.295	819.38
292.526	824.38
292.757	863.38
292.987	845.38
293.218	829.38
293.449	889.38
293.68	965.38
293.91	991.38
294.141	952.38
294.372	942.38
294.603	953.38
294.833	983.38
295.064	908.38
295.295	842.38
295.525	801.38
295.756	751.38
295.987	724.38
296.217	764.38
296.448	782.38
296.679	786.38
296.909	771.38
297.14	811.38
297.37	778.38
297.601	857.38
297.831	903.38
298.062	893.38
298.292	836.38
298.523	795.38
298.753	801.38
298.984	811.38
299.214	806.38
299.445	840.38
299.675	835.38
299.905	823.38
300.136	811.38
300.366	783.38
300.597	771.38
300.827	778.38
301.057	814.38
301.288	858.38
301.518	881.38
301.748	897.38
301.979	926.38
302.209	935.38
302.439	1000.38
302.669	1000.38
302.9	963.38
303.13	888.38
303.36	855.38
303.59	891.38
303.82	869.38
304.051	894.38
304.281	869.38
304.511	863.38
304.741	939.38
304.971	1035.38
305.201	1043.38
305.431	963.38
305.661	815.38
305.891	740.38
306.121	758.38
306.352	820.38
306.582	835.38
306.812	896.38
307.042	930.38
307.272	964.38
307.502	992.38
307.731	1067.38
307.961	1100.38
308.191	996.38
308.421	885.38
308.651	819.38
308.881	811.38
309.111	842.38
309.341	860.38
309.571	852.38
309.8	843.38
310.03	857.38
310.26	790.38
310.49	847.38
310.72	864.38
310.949	907.38
311.179	880.38
311.409	857.38
311.639	839.38
311.868	836.38
312.098	859.38
312.328	843.38
312.557	842.38
312.787	851.38
313.017	867.38
313.246	868.38
313.476	882.38
313.706	903.38
313.935	905.38
314.165	913.38
314.394	921.38
314.624	984.38
314.853	1041.38
315.083	1038.38
315.312	1087.38
315.542	989.38
315.771	931.38
316.001	915.38
316.23	969.38
316.46	946.38
316.689	932.38
316.919	883.38
317.148	868.38
317.377	901.38
317.607	985.38
317.836	1067.38
318.065	1079.38
318.295	1023.38
318.524	972.38
318.753	967.38
318.983	953.38
319.212	932.38
319.441	930.38
319.67	894.38
319.9	926.38
320.129	1018.38
320.358	1027.38
320.587	1059.38
320.816	1036.38
321.046	994.38
321.275	964.38
321.504	978.38
321.733	1071.38
321.962	993.38
322.191	936.38
322.42	924.38
322.649	916.38
322.878	949.38
323.108	965.38
323.337	969.38
323.566	989.38
323.795	967.38
324.024	966.38
324.253	951.38
324.482	899.38
324.71	927.38
324.939	889.38
325.168	917.38
325.397	948.38
325.626	988.38
325.855	952.38
326.084	938.38
326.313	972.38
326.542	936.38
326.77	965.38
326.999	968.38
327.228	897.38
327.457	893.38
327.686	888.38
327.914	915.38
328.143	940.38
328.372	953.38
328.6	936.38
328.829	921.38
329.058	888.38
329.287	924.38
329.515	969.38
329.744	947.38
329.972	1041.38
330.201	1066.38
330.43	1001.38
330.658	994.38
330.887	1016.38
331.115	992.38
331.344	1000.38
331.572	971.38
331.801	995.38
332.03	993.38
332.258	1001.38
332.486	1013.38
332.715	1040.38
332.943	1027.38
333.172	991.38
333.4	1033.38
333.629	1039.38
333.857	1119.38
334.085	1221.38
334.314	1345.38
334.542	1434.38
334.771	1301.38
334.999	1165.38
335.227	1116.38
335.455	1073.38
335.684	1061.38
335.912	1132.38
336.14	1108.38
336.369	1069.38
336.597	1027.38
336.825	1002.38
337.053	1042.38
337.281	1102.38
337.51	1180.38
337.738	1181.38
337.966	1115.38
338.194	1048.38
338.422	982.38
338.65	994.38
338.878	988.38
339.106	949.38
339.334	961.38
339.562	929.38
339.79	976.38
340.018	1028.38
340.246	1049.38
340.474	1037.38
340.702	1014.38
340.93	1023.38
341.158	1001.38
341.386	1015.38
341.614	1009.38
341.842	979.38
342.07	987.38
342.298	1023.38
342.526	983.38
342.754	967.38
342.981	990.38
343.209	975.38
343.437	997.38
343.665	985.38
343.893	1044.38
344.12	1052.38
344.348	1030.38
344.576	998.38
344.804	1020.38
345.031	969.38
345.259	996.38
345.487	968.38
345.714	911.38
345.942	939.38
346.17	960.38
346.397	955.38
346.625	950.38
346.853	908.38
347.08	908.38
347.308	906.38
347.535	938.38
347.763	934.38
347.99	931.38
348.218	893.38
348.445	921.38
348.673	923.38
348.9	967.38
349.128	967.38
349.355	1012.38
349.583	985.38
349.81	943.38
350.037	879.38
350.265	861.38
350.492	891.38
350.72	893.38
350.947	965.38
351.174	959.38
351.402	899.38
351.629	889.38
351.856	906.38
352.083	849.38
352.311	856.38
352.538	891.38
352.765	941.38
352.992	960.38
353.22	925.38
353.447	882.38
353.674	920.38
353.901	943.38
354.128	896.38
354.355	931.38
354.583	940.38
354.81	976.38
355.037	959.38
355.264	946.38
355.491	953.38
355.718	938.38
355.945	912.38
356.172	897.38
356.399	899.38
356.626	921.38
356.853	967.38
357.08	1063.38
357.307	1120.38
357.534	1087.38
357.761	967.38
357.988	899.38
358.215	860.38
358.441	889.38
358.668	901.38
358.895	909.38
359.122	969.38
359.349	1057.38
359.576	1012.38
359.802	933.38
360.029	885.38
360.256	874.38
360.483	909.38
360.709	948.38
360.936	996.38
361.163	1061.38
361.39	1119.38
361.616	1154.38
361.843	1135.38
362.07	1066.38
362.296	954.38
362.523	916.38
362.749	942.38
362.976	964.38
363.203	990.38
363.429	922.38
363.656	920.38
363.882	975.38
364.109	1067.38
364.335	1101.38
364.562	1050.38
364.788	1012.38
365.015	921.38
365.241	904.38
365.468	947.38
365.694	983.38
365.92	992.38
366.147	961.38
366.373	921.38
366.599	927.38
366.826	919.38
367.052	935.38
367.278	951.38
367.505	946.38
367.731	985.38
367.957	956.38
368.184	996.38
368.41	1059.38
368.636	1081.38
368.862	1082.38
369.089	1058.38
369.315	1007.38
369.541	993.38
369.767	952.38
369.993	913.38
370.219	929.38
370.445	990.38
370.672	1023.38
370.898	1055.38
371.124	1033.38
371.35	1023.38
371.576	1028.38
371.802	1068.38
372.028	999.38
372.254	977.38
372.48	945.38
372.706	939.38
372.932	946.38
373.158	961.38
373.384	976.38
373.61	1038.38
373.835	1064.38
374.061	995.38
374.287	1002.38
374.513	997.38
374.739	1002.38
374.965	1023.38
375.191	1003.38
375.416	1033.38
375.642	1036.38
375.868	1108.38
376.094	1122.38
376.319	1068.38
376.545	997.38
376.771	1043.38
376.997	1108.38
377.222	1046.38
377.448	995.38
377.674	1003.38
377.899	1067.38
378.125	1119.38
378.35	1083.38
378.576	990.38
378.802	966.38
379.027	992.38
379.253	993.38
379.478	992.38
379.704	991.38
379.929	1033.38
380.155	1016.38
380.38	1021.38
380.606	1043.38
380.831	1020.38
381.057	1078.38
381.282	1045.38
381.507	1057.38
381.733	1121.38
381.958	1171.38
382.184	1043.38
382.409	1032.38
382.634	1041.38
382.86	1011.38
383.085	1045.38
383.31	1086.38
383.535	1196.38
383.761	1236.38
383.986	1176.38
384.211	1129.38
384.436	1126.38
384.662	1165.38
384.887	1206.38
385.112	1177.38
385.337	1135.38
385.562	1149.38
385.787	1157.38
386.013	1196.38
386.238	1146.38
386.463	1185.38
386.688	1267.38
386.913	1320.38
387.138	1251.38
387.363	1144.38
387.588	1189.38
387.813	1154.38
388.038	1176.38
388.263	1220.38
388.488	1134.38
388.713	1084.38
388.938	1066.38
389.163	1119.38
389.387	1135.38
389.612	1142.38
389.837	1175.38
390.062	1143.38
390.287	1145.38
390.512	1136.38
390.736	1148.38
390.961	1101.38
391.186	1075.38
391.411	1082.38
391.636	1107.38
391.86	1156.38
392.085	1128.38
392.31	1120.38
392.534	1143.38
392.759	1141.38
392.984	1163.38
393.208	1190.38
393.433	1176.38
393.658	1219.38
393.882	1217.38
394.107	1175.38
394.331	1151.38
394.556	1185.38
394.78	1168.38
395.005	1194.38
395.229	1264.38
395.454	1318.38
395.678	1310.38
395.903	1244.38
396.127	1231.38
396.352	1251.38
396.576	1275.38
396.801	1291.38
397.025	1249.38
397.249	1248.38
397.474	1242.38
397.698	1222.38
397.922	1258.38
398.147	1319.38
398.371	1343.38
398.595	1342.38
398.82	1298.38
399.044	1339.38
399.268	1403.38
399.492	1481.38
399.717	1525.38
399.941	1496.38
400.165	1531.38
400.389	1468.38
400.613	1471.38
400.837	1660.38
401.062	1815.38
401.286	1570.38
401.51	1447.38
401.734	1482.38
401.958	1418.38
402.182	1343.38
402.406	1307.38
402.63	1267.38
402.854	1298.38
403.078	1309.38
403.302	1322.38
403.526	1374.38
403.75	1376.38
403.974	1387.38
404.198	1375.38
404.422	1449.38
404.645	1494.38
404.869	1444.38
405.093	1339.38
405.317	1313.38
405.541	1387.38
405.765	1356.38
405.988	1377.38
406.212	1381.38
406.436	1412.38
406.66	1495.38
406.883	1537.38
407.107	1654.38
407.331	1791.38
407.555	1941.38
407.778	1677.38
408.002	1490.38
408.226	1413.38
408.449	1443.38
408.673	1361.38
408.896	1415.38
409.12	1402.38
409.344	1383.38
409.567	1321.38
409.791	1364.38
410.014	1387.38
410.238	1490.38
410.461	1523.38
410.685	1413.38
410.908	1339.38
411.132	1366.38
411.355	1353.38
411.578	1333.38
411.802	1335.38
412.025	1385.38
412.249	1319.38
412.472	1316.38
412.695	1306.38
412.919	1309.38
413.142	1323.38
413.365	1340.38
413.589	1362.38
413.812	1447.38
414.035	1446.38
414.258	1339.38
414.482	1337.38
414.705	1331.38
414.928	1299.38
415.151	1279.38
415.374	1305.38
415.597	1332.38
415.821	1345.38
416.044	1360.38
416.267	1356.38
416.49	1261.38
416.713	1295.38
416.936	1324.38
417.159	1385.38
417.382	1388.38
417.605	1309.38
417.828	1338.38
418.051	1331.38
418.274	1299.38
418.497	1285.38
418.72	1299.38
418.943	1273.38
419.166	1343.38
419.389	1386.38
419.611	1315.38
419.834	1300.38
420.057	1308.38
420.28	1265.38
420.503	1331.38
420.726	1352.38
420.948	1327.38
421.171	1285.38
421.394	1299.38
421.617	1368.38
421.839	1361.38
422.062	1314.38
422.285	1283.38
422.507	1304.38
422.73	1249.38
422.953	1249.38
423.175	1216.38
423.398	1304.38
423.621	1279.38
423.843	1289.38
424.066	1338.38
424.288	1423.38
424.511	1428.38
424.733	1384.38
424.956	1279.38
425.178	1265.38
425.401	1261.38
425.623	1268.38
425.846	1283.38
426.068	1349.38
426.291	1364.38
426.513	1343.38
426.735	1334.38
426.958	1443.38
427.18	1487.38
427.402	1378.38
427.625	1425.38
427.847	1396.38
428.069	1285.38
428.292	1238.38
428.514	1276.38
428.736	1225.38
428.958	1251.38
429.181	1279.38
429.403	1511.38
429.625	1757.38
429.847	1463.38
430.069	1316.38
430.292	1469.38
430.514	1438.38
430.736	1361.38
430.958	1376.38
431.18	1330.38
431.402	1229.38
431.624	1212.38
431.846	1179.38
432.068	1160.38
432.29	1161.38
432.512	1172.38
432.734	1223.38
432.956	1290.38
433.178	1332.38
433.4	1355.38
433.622	1303.38
433.844	1237.38
434.066	1191.38
434.287	1177.38
434.509	1229.38
434.731	1283.38
434.953	1376.38
435.175	1336.38
435.397	1287.38
435.618	1281.38
435.84	1263.38
436.062	1242.38
436.284	1281.38
436.505	1302.38
436.727	1331.38
436.949	1269.38
437.17	1229.38
437.392	1245.38
437.614	1211.38
437.835	1187.38
438.057	1261.38
438.278	1284.38
438.5	1259.38
438.721	1201.38
438.943	1244.38
439.165	1263.38
439.386	1235.38
439.608	1228.38
439.829	1279.38
440.05	1251.38
440.272	1254.38
440.493	1290.38
440.715	1294.38
440.936	1335.38
441.158	1425.38
441.379	1394.38
441.6	1338.38
441.822	1341.38
442.043	1355.38
442.264	1336.38
442.486	1238.38
442.707	1272.38
442.928	1281.38
443.149	1290.38
443.371	1383.38
443.592	1407.38
443.813	1382.38
444.034	1351.38
444.255	1355.38
444.476	1408.38
444.698	1405.38
444.919	1393.38
445.14	1475.38
445.361	1460.38
445.582	1495.38
445.803	1390.38
446.024	1376.38
446.245	1425.38
446.466	1387.38
446.687	1347.38
446.908	1364.38
447.129	1309.38
447.35	1290.38
447.571	1280.38
447.792	1243.38
448.013	1221.38
448.234	1274.38
448.455	1337.38
448.675	1347.38
448.896	1218.38
449.117	1184.38
449.338	1235.38
449.559	1307.38
449.779	1378.38
450	1438.38
450.221	1512.38
450.442	1475.38
450.662	1271.38
450.883	1166.38
451.104	1182.38
451.324	1184.38
451.545	1232.38
451.766	1203.38
451.986	1148.38
452.207	1123.38
452.428	1091.38
452.648	1101.38
452.869	1111.38
453.089	1131.38
453.31	1151.38
453.53	1165.38
453.751	1128.38
453.971	1101.38
454.192	1090.38
454.412	1143.38
454.633	1147.38
454.853	1117.38
455.073	1092.38
455.294	1094.38
455.514	1086.38
455.734	1081.38
455.955	1093.38
456.175	1058.38
456.395	1057.38
456.616	1097.38
456.836	1123.38
457.056	1116.38
457.276	1060.38
457.497	1059.38
457.717	1015.38
457.937	1066.38
458.157	1078.38
458.377	1066.38
458.598	1043.38
458.818	1073.38
459.038	1137.38
459.258	1162.38
459.478	1165.38
459.698	1117.38
459.918	1148.38
460.138	1237.38
460.358	1252.38
460.578	1255.38
460.798	1314.38
461.018	1343.38
461.238	1319.38
461.458	1269.38
461.678	1275.38
461.898	1239.38
462.118	1248.38
462.338	1275.38
462.558	1260.38
462.777	1265.38
462.997	1337.38
463.217	1391.38
463.437	1343.38
463.657	1281.38
463.876	1288.38
464.096	1278.38
464.316	1252.38
464.536	1312.38
464.755	1306.38
464.975	1322.38
465.195	1284.38
465.414	1319.38
465.634	1288.38
465.854	1281.38
466.073	1396.38
466.293	1375.38
466.512	1219.38
466.732	1230.38
466.951	1259.38
467.171	1274.38
467.391	1204.38
467.61	1202.38
467.829	1250.38
468.049	1315.38
468.268	1474.38
468.488	1320.38
468.707	1255.38
468.927	1239.38
469.146	1218.38
469.365	1203.38
469.585	1215.38
469.804	1228.38
470.023	1240.38
470.243	1265.38
470.462	1241.38
470.681	1228.38
470.901	1201.38
471.12	1213.38
471.339	1264.38
471.558	1219.38
471.777	1176.38
471.997	1237.38
472.216	1158.38
472.435	1135.38
472.654	1147.38
472.873	1186.38
473.092	1229.38
473.311	1170.38
473.53	1147.38
473.749	1137.38
473.968	1168.38
474.187	1226.38
474.406	1240.38
474.625	1231.38
474.844	1184.38
475.063	1192.38
475.282	1203.38
475.501	1205.38
475.72	1223.38
475.939	1270.38
476.158	1252.38
476.377	1201.38
476.596	1236.38
476.814	1225.38
477.033	1212.38
477.252	1243.38
477.471	1284.38
477.69	1283.38
477.908	1300.38
478.127	1340.38
478.346	1472.38
478.564	1431.38
478.783	1430.38
479.002	1469.38
479.22	1412.38
479.439	1455.38
479.658	1598.38
479.876	1576.38
480.095	1397.38
480.313	1316.38
480.532	1313.38
480.751	1333.38
480.969	1314.38
481.188	1259.38
481.406	1269.38
481.624	1210.38
481.843	1268.38
482.061	1268.38
482.28	1327.38
482.498	1293.38
482.717	1291.38
482.935	1319.38
483.153	1367.38
483.372	1411.38
483.59	1380.38
483.808	1351.38
484.027	1380.38
484.245	1495.38
484.463	1767.38
484.681	1894.38
484.9	1498.38
485.118	1376.38
485.336	1347.38
485.554	1360.38
485.772	1364.38
485.99	1386.38
486.209	1419.38
486.427	1377.38
486.645	1415.38
486.863	1425.38
487.081	1493.38
487.299	1485.38
487.517	1436.38
487.735	1480.38
487.953	1533.38
488.171	1489.38
488.389	1450.38
488.607	1441.38
488.825	1606.38
489.043	1511.38
489.261	1404.38
489.479	1475.38
489.696	1512.38
489.914	1477.38
490.132	1447.38
490.35	1432.38
490.568	1547.38
490.786	1532.38
491.003	1512.38
491.221	1562.38
491.439	1590.38
491.657	1603.38
491.874	1613.38
492.092	1668.38
492.31	1722.38
492.527	1685.38
492.745	1598.38
492.963	1599.38
493.18	1622.38
493.398	1737.38
493.615	1706.38
493.833	1601.38
494.05	1579.38
494.268	1555.38
494.485	1597.38
494.703	1575.38
494.92	1563.38
495.138	1567.38
495.355	1559.38
495.573	1635.38
495.79	1733.38
496.008	1720.38
496.225	1623.38
496.442	1626.38
496.66	1623.38
496.877	1578.38
497.094	1640.38
497.312	1636.38
497.529	1622.38
497.746	1674.38
497.963	1884.38
498.181	2010.38
498.398	1938.38
498.615	1871.38
498.832	1772.38
499.049	1789.38
499.267	1818.38
499.484	1939.38
499.701	2041.38
499.918	2062.38
500.135	2263.38
500.352	2369.38
500.569	2342.38
500.786	2530.38
501.003	2299.38
501.22	2103.38
501.437	2091.38
501.654	2117.38
501.871	2002.38
502.088	1744.38
502.305	1789.38
502.522	1682.38
502.739	1625.38
502.956	1588.38
503.172	1576.38
503.389	1515.38
503.606	1481.38
503.823	1509.38
504.04	1508.38
504.256	1514.38
504.473	1512.38
504.69	1514.38
504.907	1468.38
505.123	1435.38
505.34	1532.38
505.557	1972.38
505.773	1637.38
505.99	1392.38
506.207	1335.38
506.423	1312.38
506.64	1268.38
506.856	1284.38
507.073	1539.38
507.289	1625.38
507.506	1529.38
507.722	1295.38
507.939	1276.38
508.155	1277.38
508.372	1274.38
508.588	1223.38
508.805	1161.38
509.021	1192.38
509.238	1169.38
509.454	1189.38
509.67	1175.38
509.887	1117.38
510.103	1100.38
510.319	1147.38
510.536	1206.38
510.752	1240.38
510.968	1228.38
511.184	1297.38
511.401	1256.38
511.617	1114.38
511.833	1072.38
512.049	1106.38
512.265	1108.38
512.481	1105.38
512.698	1158.38
512.914	1218.38
513.13	1153.38
513.346	1147.38
513.562	1131.38
513.778	1105.38
513.994	1178.38
514.21	1213.38
514.426	1195.38
514.642	1349.38
514.858	1247.38
515.074	1171.38
515.29	1114.38
515.506	1170.38
515.721	1141.38
515.937	1197.38
516.153	1259.38
516.369	1268.38
516.585	1181.38
516.801	1163.38
517.016	1162.38
517.232	1226.38
517.448	1215.38
517.664	1236.38
517.879	1256.38
518.095	1295.38
518.311	1223.38
518.527	1171.38
518.742	1149.38
518.958	1140.38
519.173	1141.38
519.389	1154.38
519.605	1183.38
519.82	1161.38
520.036	1176.38
520.251	1143.38
520.467	1203.38
520.682	1268.38
520.898	1257.38
521.113	1135.38
521.329	1129.38
521.544	1214.38
521.76	1119.38
521.975	1091.38
522.19	1102.38
522.406	1124.38
522.621	1403.38
522.836	1320.38
523.052	1108.38
523.267	1132.38
523.482	1115.38
523.698	1068.38
523.913	1063.38
524.128	1093.38
524.343	1147.38
524.559	1156.38
524.774	1082.38
524.989	1100.38
525.204	1093.38
525.419	1030.38
525.634	1062.38
525.849	1082.38
526.064	1077.38
526.28	1060.38
526.495	1025.38
526.71	991.38
526.925	987.38
527.14	985.38
527.355	969.38
527.57	1003.38
527.785	1025.38
527.999	1001.38
528.214	1001.38
528.429	992.38
528.644	1003.38
528.859	1065.38
529.074	1064.38
529.289	1128.38
529.503	1145.38
529.718	1094.38
529.933	1033.38
530.148	1002.38
530.363	979.38
530.577	978.38
530.792	996.38
531.007	976.38
531.221	984.38
531.436	980.38
531.651	1031.38
531.865	1077.38
532.08	1020.38
532.295	973.38
532.509	933.38
532.724	972.38
532.938	1004.38
533.153	1072.38
533.367	1004.38
533.582	1041.38
533.796	1013.38
534.011	1041.38
534.225	1012.38
534.44	979.38
534.654	959.38
534.868	961.38
535.083	1027.38
535.297	1017.38
535.511	1003.38
535.726	983.38
535.94	1012.38
536.154	977.38
536.369	952.38
536.583	957.38
536.797	936.38
537.011	979.38
537.225	941.38
537.44	935.38
537.654	961.38
537.868	930.38
538.082	933.38
538.296	906.38
538.51	914.38
538.724	946.38
538.938	963.38
539.153	978.38
539.367	1004.38
539.581	969.38
539.795	999.38
540.009	962.38
540.222	959.38
540.436	995.38
540.65	1062.38
540.864	1113.38
541.078	1077.38
541.292	1029.38
541.506	1080.38
541.72	1099.38
541.934	1129.38
542.147	1195.38
542.361	1160.38
542.575	1064.38
542.789	1040.38
543.002	983.38
543.216	980.38
543.43	1026.38
543.644	1079.38
543.857	1127.38
544.071	1093.38
544.285	1121.38
544.498	1077.38
544.712	1084.38
544.925	1102.38
545.139	1106.38
545.352	1101.38
545.566	1066.38
545.779	1094.38
545.993	1114.38
546.206	1096.38
546.42	1050.38
546.633	1084.38
546.847	1085.38
547.06	1061.38
547.274	1085.38
547.487	1090.38
547.7	1119.38
547.914	1081.38
548.127	1085.38
548.34	1101.38
548.554	1062.38
548.767	1047.38
548.98	1062.38
549.193	1063.38
549.407	1125.38
549.62	1090.38
549.833	1066.38
550.046	1053.38
550.259	1044.38
550.473	1034.38
550.686	1020.38
550.899	1032.38
551.112	1001.38
551.325	1012.38
551.538	1025.38
551.751	1148.38
551.964	937.38
552.177	926.38
552.39	985.38
552.603	999.38
552.816	1021.38
553.029	1051.38
553.242	1049.38
553.455	1049.38
553.667	1049.38
553.88	1057.38
554.093	996.38
554.306	955.38
554.519	958.38
554.732	970.38
554.944	968.38
555.157	994.38
555.37	948.38
555.583	960.38
555.795	946.38
556.008	880.38
556.221	864.38
556.433	833.38
556.646	876.38
556.859	895.38
557.071	867.38
557.284	881.38
557.496	871.38
557.709	865.38
557.921	843.38
558.134	857.38
558.346	866.38
558.559	851.38
558.771	864.38
558.984	819.38
559.196	813.38
559.409	818.38
559.621	818.38
559.833	836.38
560.046	820.38
560.258	832.38
560.47	815.38
560.683	817.38
560.895	837.38
561.107	838.38
561.32	829.38
561.532	872.38
561.744	832.38
561.956	824.38
562.168	821.38
562.381	790.38
562.593	787.38
562.805	795.38
563.017	790.38
563.229	780.38
563.441	791.38
563.653	783.38
563.865	797.38
564.077	785.38
564.289	773.38
564.501	783.38
564.713	801.38
564.925	854.38
565.137	885.38
565.349	845.38
565.561	807.38
565.773	789.38
565.985	837.38
566.197	855.38
566.408	918.38
566.62	927.38
566.832	919.38
567.044	915.38
567.255	886.38
567.467	885.38
567.679	897.38
567.891	930.38
568.102	903.38
568.314	841.38
568.526	797.38
568.737	792.38
568.949	744.38
569.161	711.38
569.372	720.38
569.584	651.38
569.795	681.38
570.007	675.38
570.218	642.38
570.43	665.38
570.641	653.38
570.853	660.38
571.064	654.38
571.276	658.38
571.487	654.38
571.698	669.38
571.91	652.38
572.121	629.38
572.333	612.38
572.544	609.38
572.755	565.38
572.966	575.38
573.178	572.38
573.389	589.38
573.6	614.38
573.811	636.38
574.023	573.38
574.234	568.38
574.445	566.38
574.656	549.38
574.867	556.38
575.078	576.38
575.289	562.38
575.501	562.38
575.712	554.38
575.923	562.38
576.134	553.38
576.345	552.38
576.556	569.38
576.767	548.38
576.978	543.38
577.188	523.38
577.399	531.38
577.61	529.38
577.821	508.38
578.032	525.38
578.243	512.38
578.454	500.38
578.665	517.38
578.875	504.38
579.086	484.38
579.297	492.38
579.508	518.38
579.718	507.38
579.929	495.38
580.14	519.38
580.35	484.38
580.561	505.38
580.772	564.38
580.982	503.38
581.193	478.38
581.403	480.38
581.614	483.38
581.825	484.38
582.035	487.38
582.246	488.38
582.456	490.38
582.667	505.38
582.877	467.38
583.087	470.38
583.298	468.38
583.508	483.38
583.719	473.38
583.929	484.38
584.139	483.38
584.35	454.38
584.56	480.38
584.77	457.38
584.981	474.38
585.191	477.38
585.401	517.38
585.611	480.38
585.821	456.38
586.032	469.38
586.242	439.38
586.452	466.38
586.662	484.38
586.872	469.38
587.082	462.38
587.292	493.38
587.502	460.38
587.713	461.38
587.923	459.38
588.133	441.38
588.343	459.38
588.553	432.38
588.762	460.38
588.972	456.38
589.182	470.38
589.392	455.38
589.602	461.38
589.812	451.38
590.022	441.38
590.232	450.38
590.441	475.38
590.651	447.38
590.861	433.38
591.071	427.38
591.281	443.38
591.49	426.38
591.7	446.38
591.91	436.38
592.119	428.38
592.329	456.38
592.539	477.38
592.748	468.38
592.958	452.38
593.167	468.38
593.377	471.38
593.587	461.38
593.796	469.38
594.006	463.38
594.215	458.38
594.424	464.38
594.634	463.38
594.843	487.38
595.053	468.38
595.262	449.38
595.472	449.38
595.681	458.38
595.89	432.38
596.1	428.38
596.309	460.38
596.518	431.38
596.727	452.38
596.937	427.38
597.146	409.38
597.355	397.38
597.564	417.38
597.774	406.38
597.983	397.38
598.192	409.38
598.401	412.38
598.61	402.38
598.819	396.38
599.028	417.38
599.237	396.38
599.446	391.38
599.655	404.38
599.864	391.38
600.073	376.38
600.282	393.38
600.491	384.38
600.7	387.38
600.909	375.38
601.118	398.38
601.327	403.38
601.536	398.38
601.745	415.38
601.953	413.38
602.162	426.38
602.371	416.38
602.58	409.38
602.789	407.38
602.997	409.38
603.206	422.38
603.415	411.38
603.623	412.38
603.832	400.38
604.041	410.38
604.249	370.38
604.458	369.38
604.666	379.38
604.875	401.38
605.084	377.38
605.292	395.38
605.501	416.38
605.709	417.38
605.918	419.38
606.126	399.38
606.334	405.38
606.543	375.38
606.751	428.38
606.96	415.38
607.168	418.38
607.376	404.38
607.585	389.38
607.793	402.38
608.001	389.38
608.21	412.38
608.418	410.38
608.626	399.38
608.834	395.38
609.043	397.38
609.251	396.38
609.459	390.38
609.667	391.38
609.875	402.38
610.083	419.38
610.291	420.38
610.499	407.38
610.707	425.38
610.916	391.38
611.124	378.38
611.332	414.38
611.54	415.38
611.748	404.38
611.955	392.38
612.163	387.38
612.371	405.38
612.579	395.38
612.787	396.38
612.995	404.38
613.203	377.38
613.411	389.38
613.618	389.38
613.826	390.38
614.034	383.38
614.242	384.38
614.449	387.38
614.657	393.38
614.865	401.38
615.072	391.38
615.28	392.38
615.488	373.38
615.695	416.38
615.903	420.38
616.111	375.38
616.318	401.38
616.526	384.38
616.733	385.38
616.941	386.38
617.148	383.38
617.356	383.38
617.563	362.38
617.771	370.38
617.978	379.38
618.185	390.38
618.393	369.38
618.6	372.38
618.807	379.38
619.015	376.38
619.222	360.38
619.429	360.38
619.637	338.38
619.844	352.38
620.051	347.38
620.258	367.38
620.466	354.38
620.673	351.38
620.88	336.38
621.087	339.38
621.294	351.38
621.501	350.38
621.708	344.38
621.915	353.38
622.122	346.38
622.329	341.38
622.536	356.38
622.743	367.38
622.95	341.38
623.157	344.38
623.364	354.38
623.571	353.38
623.778	349.38
623.985	368.38
624.192	337.38
624.399	343.38
624.606	332.38
624.812	334.38
625.019	348.38
625.226	327.38
625.433	333.38
625.639	324.38
625.846	310.38
626.053	299.38
626.259	293.38
626.466	301.38
626.673	287.38
626.879	291.38
627.086	309.38
627.293	311.38
627.499	326.38
627.706	313.38
627.912	334.38
628.119	310.38
628.325	333.38
628.532	325.38
628.738	324.38
628.945	318.38
629.151	310.38
629.357	328.38
629.564	322.38
629.77	315.38
629.976	318.38
630.183	291.38
630.389	310.38
630.595	305.38
630.802	300.38
631.008	296.38
631.214	303.38
631.42	290.38
631.627	309.38
631.833	289.38
632.039	298.38
632.245	298.38
632.451	304.38
632.657	286.38
632.863	307.38
633.069	303.38
633.275	297.38
633.481	303.38
633.688	287.38
633.893	283.38
634.099	289.38
634.305	288.38
634.511	281.38
634.717	263.38
634.923	263.38
635.129	265.38
635.335	288.38
635.541	261.38
635.747	275.38
635.952	281.38
636.158	290.38
636.364	297.38
636.57	288.38
636.775	288.38
636.981	290.38
637.187	284.38
637.392	287.38
637.598	276.38
637.804	285.38
638.009	287.38
638.215	290.38
638.421	265.38
638.626	282.38
638.832	267.38
639.037	284.38
639.243	269.38
639.448	264.38
639.654	263.38
639.859	272.38
640.065	255.38
640.27	261.38
640.475	260.38
640.681	280.38
640.886	278.38
641.091	276.38
641.297	283.38
641.502	259.38
641.707	275.38
641.913	296.38
642.118	265.38
642.323	271.38
642.528	255.38
642.733	270.38
642.939	240.38
643.144	282.38
643.349	259.38
643.554	273.38
643.759	259.38
643.964	245.38
644.169	247.38
644.374	257.38
644.579	265.38
644.784	263.38
644.989	263.38
645.194	242.38
645.399	256.38
645.604	248.38
645.809	235.38
646.014	257.38
646.219	267.38
646.423	272.38
646.628	261.38
646.833	259.38
647.038	246.38
647.243	256.38
647.447	267.38
647.652	274.38
647.857	256.38
648.062	264.38
648.266	263.38
648.471	250.38
648.676	254.38
648.88	256.38
649.085	258.38
649.289	261.38
649.494	250.38
649.698	242.38
649.903	259.38
650.107	253.38
650.312	264.38
650.516	253.38
650.721	260.38
650.925	244.38
651.13	239.38
651.334	233.38
651.539	243.38
651.743	245.38
651.947	250.38
652.152	242.38
652.356	225.38
652.56	228.38
652.764	238.38
652.969	225.38
653.173	225.38
653.377	219.38
653.581	217.38
653.785	241.38
653.99	208.38
654.194	215.38
654.398	215.38
654.602	224.38
654.806	216.38
655.01	231.38
655.214	226.38
655.418	235.38
655.622	209.38
655.826	241.38
656.03	245.38
656.234	254.38
656.438	279.38
656.642	259.38
656.846	261.38
657.049	241.38
657.253	219.38
657.457	194.38
657.661	203.38
657.865	182.38
658.068	172.38
658.272	170.38
658.476	171.38
658.68	180.38
658.883	165.38
659.087	144.38
659.291	144.38
659.494	143.38
659.698	128.38
659.901	138.38
660.105	127.38
660.309	134.38
660.512	117.38
660.716	110.38
660.919	108.38
661.123	118.38
661.326	117.38
661.53	102.38
661.733	121.38
661.936	107.38
662.14	103.38
662.343	103.38
662.546	108.38
662.75	87.38
662.953	95.38
663.156	101.38
663.36	83.38
663.563	93.38
663.766	96.38
663.969	94.38
664.173	91.38
664.376	93.38
664.579	84.38
664.782	80.38
664.985	96.38
665.188	85.38
665.391	87.38
665.594	84.38
665.797	71.38
666	81.38
666.203	73.38
666.406	72.38
666.609	78.38
666.812	87.38
667.015	81.38
667.218	80.38
667.421	87.38
667.624	74.38
667.827	93.38
668.03	84.38
668.232	70.38
668.435	77.38
668.638	81.38
668.841	78.38
669.043	79.38
669.246	89.38
669.449	87.38
669.651	85.38
669.854	76.38
670.057	83.38
670.259	68.38
670.462	95.38
670.665	102.38
670.867	83.38
671.07	75.38
671.272	73.38
671.475	80.38
671.677	79.38
671.88	79.38
672.082	60.38
672.284	75.38
672.487	80.38
672.689	79.38
672.892	81.38
