Data from WStandard_LampEnergy10_LIBS07252019.E.O._I.C._HRD10591_15-54-35-928.txt Node
Date: Thu Jul 25 15:54:35 EDT 2019
User: cochatt
Spectrometer: HR+D1059
Trigger mode: 1
Integration Time (sec): 1.000000E-1
Scans to average: 1
Electric dark correction enabled: true
Nonlinearity correction enabled: false
Boxcar width: 0
XAxis mode: Wavelengths
Number of Pixels in Spectrum: 2048
>>>>>Begin Spectral Data<<<<<
223.165	-1.06
223.4	-1.06
223.635	-1.06
223.869	-24.06
224.104	-24.06
224.338	-7.06
224.573	1.94
224.808	-17.06
225.042	4.94
225.277	-21.06
225.511	-6.06
225.746	5.94
225.98	19.94
226.215	-5.06
226.449	9.94
226.683	9.94
226.918	25.94
227.152	26.94
227.387	39.94
227.621	45.94
227.856	52.94
228.09	26.94
228.324	41.94
228.559	53.94
228.793	59.94
229.027	147.94
229.262	135.94
229.496	133.94
229.73	167.94
229.964	165.94
230.199	154.94
230.433	159.94
230.667	169.94
230.901	163.94
231.136	161.94
231.37	148.94
231.604	163.94
231.838	180.94
232.072	177.94
232.306	170.94
232.541	186.94
232.775	196.94
233.009	194.94
233.243	201.94
233.477	196.94
233.711	197.94
233.945	192.94
234.179	186.94
234.413	204.94
234.647	215.94
234.881	193.94
235.115	193.94
235.349	189.94
235.583	186.94
235.817	191.94
236.051	194.94
236.285	195.94
236.519	210.94
236.753	225.94
236.987	231.94
237.221	222.94
237.455	232.94
237.689	224.94
237.922	207.94
238.156	205.94
238.39	230.94
238.624	225.94
238.858	261.94
239.091	256.94
239.325	264.94
239.559	289.94
239.793	277.94
240.027	318.94
240.26	291.94
240.494	230.94
240.728	231.94
240.961	228.94
241.195	250.94
241.429	258.94
241.662	252.94
241.896	248.94
242.13	235.94
242.363	259.94
242.597	296.94
242.83	277.94
243.064	274.94
243.298	278.94
243.531	275.94
243.765	281.94
243.998	268.94
244.232	249.94
244.465	227.94
244.699	247.94
244.932	292.94
245.166	302.94
245.399	298.94
245.633	287.94
245.866	281.94
246.099	283.94
246.333	302.94
246.566	310.94
246.8	313.94
247.033	348.94
247.266	313.94
247.5	317.94
247.733	310.94
247.966	344.94
248.2	366.94
248.433	345.94
248.666	344.94
248.899	390.94
249.133	416.94
249.366	447.94
249.599	382.94
249.832	361.94
250.066	366.94
250.299	355.94
250.532	344.94
250.765	304.94
250.998	344.94
251.231	349.94
251.465	346.94
251.698	330.94
251.931	331.94
252.164	341.94
252.397	339.94
252.63	347.94
252.863	315.94
253.096	329.94
253.329	337.94
253.562	357.94
253.795	354.94
254.028	385.94
254.261	338.94
254.494	329.94
254.727	350.94
254.96	355.94
255.193	374.94
255.426	403.94
255.659	430.94
255.892	451.94
256.124	388.94
256.357	382.94
256.59	422.94
256.823	386.94
257.056	415.94
257.289	464.94
257.521	494.94
257.754	471.94
257.987	463.94
258.22	480.94
258.452	454.94
258.685	390.94
258.918	382.94
259.151	410.94
259.383	361.94
259.616	358.94
259.849	357.94
260.081	403.94
260.314	443.94
260.547	475.94
260.779	462.94
261.012	415.94
261.244	411.94
261.477	393.94
261.71	405.94
261.942	409.94
262.175	399.94
262.407	410.94
262.64	382.94
262.872	369.94
263.105	370.94
263.337	374.94
263.57	388.94
263.802	377.94
264.035	338.94
264.267	334.94
264.499	329.94
264.732	362.94
264.964	380.94
265.197	394.94
265.429	412.94
265.661	427.94
265.894	494.94
266.126	498.94
266.358	454.94
266.591	466.94
266.823	492.94
267.055	451.94
267.287	433.94
267.52	451.94
267.752	433.94
267.984	460.94
268.216	479.94
268.448	460.94
268.681	430.94
268.913	420.94
269.145	423.94
269.377	409.94
269.609	443.94
269.841	503.94
270.073	566.94
270.306	617.94
270.538	615.94
270.77	538.94
271.002	476.94
271.234	470.94
271.466	482.94
271.698	544.94
271.93	622.94
272.162	589.94
272.394	543.94
272.626	502.94
272.858	457.94
273.09	397.94
273.322	398.94
273.553	385.94
273.785	396.94
274.017	414.94
274.249	436.94
274.481	423.94
274.713	426.94
274.945	419.94
275.176	419.94
275.408	405.94
275.64	372.94
275.872	396.94
276.104	445.94
276.335	485.94
276.567	514.94
276.799	521.94
277.031	473.94
277.262	459.94
277.494	488.94
277.726	510.94
277.957	486.94
278.189	466.94
278.421	425.94
278.652	401.94
278.884	425.94
279.115	426.94
279.347	439.94
279.579	436.94
279.81	426.94
280.042	478.94
280.273	483.94
280.505	500.94
280.736	489.94
280.968	470.94
281.199	436.94
281.431	410.94
281.662	420.94
281.894	426.94
282.125	416.94
282.356	441.94
282.588	454.94
282.819	438.94
283.051	478.94
283.282	510.94
283.513	489.94
283.745	452.94
283.976	420.94
284.207	433.94
284.439	462.94
284.67	449.94
284.901	437.94
285.132	460.94
285.364	452.94
285.595	434.94
285.826	453.94
286.057	451.94
286.288	434.94
286.52	464.94
286.751	496.94
286.982	480.94
287.213	442.94
287.444	451.94
287.675	424.94
287.906	463.94
288.138	508.94
288.369	460.94
288.6	446.94
288.831	445.94
289.062	424.94
289.293	448.94
289.524	443.94
289.755	458.94
289.986	461.94
290.217	439.94
290.448	457.94
290.679	449.94
290.91	460.94
291.141	463.94
291.371	463.94
291.602	474.94
291.833	476.94
292.064	482.94
292.295	478.94
292.526	478.94
292.757	511.94
292.987	514.94
293.218	456.94
293.449	541.94
293.68	581.94
293.91	583.94
294.141	539.94
294.372	536.94
294.603	515.94
294.833	560.94
295.064	564.94
295.295	510.94
295.525	482.94
295.756	453.94
295.987	428.94
296.217	438.94
296.448	458.94
296.679	468.94
296.909	472.94
297.14	431.94
297.37	486.94
297.601	500.94
297.831	512.94
298.062	515.94
298.292	495.94
298.523	479.94
298.753	471.94
298.984	468.94
299.214	491.94
299.445	491.94
299.675	475.94
299.905	527.94
300.136	484.94
300.366	479.94
300.597	469.94
300.827	480.94
301.057	478.94
301.288	481.94
301.518	513.94
301.748	494.94
301.979	531.94
302.209	576.94
302.439	584.94
302.669	577.94
302.9	555.94
303.13	520.94
303.36	538.94
303.59	525.94
303.82	511.94
304.051	510.94
304.281	526.94
304.511	528.94
304.741	566.94
304.971	604.94
305.201	614.94
305.431	542.94
305.661	475.94
305.891	464.94
306.121	447.94
306.352	502.94
306.582	504.94
306.812	532.94
307.042	553.94
307.272	555.94
307.502	580.94
307.731	624.94
307.961	646.94
308.191	569.94
308.421	524.94
308.651	495.94
308.881	501.94
309.111	503.94
309.341	475.94
309.571	500.94
309.8	502.94
310.03	492.94
310.26	492.94
310.49	501.94
310.72	500.94
310.949	522.94
311.179	534.94
311.409	515.94
311.639	498.94
311.868	515.94
312.098	504.94
312.328	500.94
312.557	503.94
312.787	513.94
313.017	490.94
313.246	540.94
313.476	498.94
313.706	536.94
313.935	555.94
314.165	515.94
314.394	556.94
314.624	590.94
314.853	628.94
315.083	639.94
315.312	611.94
315.542	558.94
315.771	514.94
316.001	536.94
316.23	571.94
316.46	556.94
316.689	554.94
316.919	528.94
317.148	516.94
317.377	552.94
317.607	582.94
317.836	627.94
318.065	627.94
318.295	616.94
318.524	606.94
318.753	554.94
318.983	562.94
319.212	554.94
319.441	536.94
319.67	554.94
319.9	580.94
320.129	579.94
320.358	598.94
320.587	594.94
320.816	614.94
321.046	582.94
321.275	578.94
321.504	596.94
321.733	642.94
321.962	598.94
322.191	574.94
322.42	547.94
322.649	546.94
322.878	536.94
323.108	562.94
323.337	563.94
323.566	575.94
323.795	582.94
324.024	588.94
324.253	569.94
324.482	570.94
324.71	531.94
324.939	544.94
325.168	533.94
325.397	567.94
325.626	574.94
325.855	570.94
326.084	541.94
326.313	567.94
326.542	584.94
326.77	613.94
326.999	581.94
327.228	553.94
327.457	542.94
327.686	530.94
327.914	545.94
328.143	577.94
328.372	563.94
328.6	535.94
328.829	560.94
329.058	546.94
329.287	536.94
329.515	561.94
329.744	547.94
329.972	594.94
330.201	624.94
330.43	603.94
330.658	566.94
330.887	593.94
331.115	601.94
331.344	582.94
331.572	588.94
331.801	577.94
332.03	592.94
332.258	597.94
332.486	597.94
332.715	609.94
332.943	580.94
333.172	593.94
333.4	599.94
333.629	619.94
333.857	655.94
334.085	774.94
334.314	810.94
334.542	828.94
334.771	777.94
334.999	691.94
335.227	651.94
335.455	611.94
335.684	635.94
335.912	631.94
336.14	660.94
336.369	618.94
336.597	598.94
336.825	602.94
337.053	604.94
337.281	685.94
337.51	680.94
337.738	682.94
337.966	641.94
338.194	613.94
338.422	579.94
338.65	613.94
338.878	610.94
339.106	586.94
339.334	550.94
339.562	582.94
339.79	594.94
340.018	631.94
340.246	646.94
340.474	615.94
340.702	614.94
340.93	614.94
341.158	594.94
341.386	603.94
341.614	605.94
341.842	598.94
342.07	611.94
342.298	622.94
342.526	603.94
342.754	605.94
342.981	564.94
343.209	588.94
343.437	606.94
343.665	616.94
343.893	601.94
344.12	632.94
344.348	618.94
344.576	597.94
344.804	586.94
345.031	579.94
345.259	582.94
345.487	574.94
345.714	542.94
345.942	556.94
346.17	566.94
346.397	585.94
346.625	553.94
346.853	533.94
347.08	551.94
347.308	534.94
347.535	560.94
347.763	579.94
347.99	570.94
348.218	539.94
348.445	583.94
348.673	580.94
348.9	584.94
349.128	602.94
349.355	611.94
349.583	586.94
349.81	548.94
350.037	549.94
350.265	534.94
350.492	539.94
350.72	544.94
350.947	560.94
351.174	558.94
351.402	547.94
351.629	551.94
351.856	520.94
352.083	496.94
352.311	522.94
352.538	562.94
352.765	581.94
352.992	582.94
353.22	530.94
353.447	539.94
353.674	572.94
353.901	552.94
354.128	533.94
354.355	543.94
354.583	587.94
354.81	606.94
355.037	596.94
355.264	586.94
355.491	564.94
355.718	582.94
355.945	566.94
356.172	540.94
356.399	554.94
356.626	576.94
356.853	587.94
357.08	637.94
357.307	661.94
357.534	645.94
357.761	567.94
357.988	522.94
358.215	531.94
358.441	526.94
358.668	526.94
358.895	576.94
359.122	602.94
359.349	655.94
359.576	601.94
359.802	553.94
360.029	550.94
360.256	540.94
360.483	542.94
360.709	574.94
360.936	600.94
361.163	648.94
361.39	675.94
361.616	699.94
361.843	677.94
362.07	615.94
362.296	547.94
362.523	568.94
362.749	576.94
362.976	574.94
363.203	572.94
363.429	559.94
363.656	578.94
363.882	612.94
364.109	651.94
364.335	652.94
364.562	627.94
364.788	594.94
365.015	590.94
365.241	579.94
365.468	566.94
365.694	624.94
365.92	605.94
366.147	591.94
366.373	546.94
366.599	563.94
366.826	574.94
367.052	581.94
367.278	571.94
367.505	586.94
367.731	588.94
367.957	601.94
368.184	618.94
368.41	639.94
368.636	662.94
368.862	660.94
369.089	656.94
369.315	648.94
369.541	635.94
369.767	602.94
369.993	580.94
370.219	603.94
370.445	610.94
370.672	648.94
370.898	674.94
371.124	648.94
371.35	617.94
371.576	647.94
371.802	656.94
372.028	632.94
372.254	633.94
372.48	589.94
372.706	592.94
372.932	590.94
373.158	604.94
373.384	614.94
373.61	636.94
373.835	667.94
374.061	628.94
374.287	616.94
374.513	617.94
374.739	632.94
374.965	629.94
375.191	663.94
375.416	645.94
375.642	658.94
375.868	707.94
376.094	713.94
376.319	663.94
376.545	630.94
376.771	653.94
376.997	696.94
377.222	672.94
377.448	656.94
377.674	662.94
377.899	666.94
378.125	697.94
378.35	698.94
378.576	625.94
378.802	583.94
379.027	607.94
379.253	637.94
379.478	626.94
379.704	649.94
379.929	648.94
380.155	647.94
380.38	638.94
380.606	647.94
380.831	674.94
381.057	676.94
381.282	690.94
381.507	682.94
381.733	717.94
381.958	726.94
382.184	669.94
382.409	690.94
382.634	688.94
382.86	680.94
383.085	666.94
383.31	721.94
383.535	745.94
383.761	798.94
383.986	760.94
384.211	718.94
384.436	715.94
384.662	766.94
384.887	754.94
385.112	727.94
385.337	752.94
385.562	728.94
385.787	721.94
386.013	766.94
386.238	760.94
386.463	774.94
386.688	826.94
386.913	866.94
387.138	817.94
387.363	775.94
387.588	794.94
387.813	753.94
388.038	770.94
388.263	812.94
388.488	756.94
388.713	721.94
388.938	703.94
389.163	724.94
389.387	759.94
389.612	735.94
389.837	750.94
390.062	752.94
390.287	736.94
390.512	735.94
390.736	747.94
390.961	716.94
391.186	701.94
391.411	735.94
391.636	770.94
391.86	725.94
392.085	742.94
392.31	741.94
392.534	765.94
392.759	772.94
392.984	751.94
393.208	780.94
393.433	791.94
393.658	812.94
393.882	834.94
394.107	807.94
394.331	770.94
394.556	775.94
394.78	751.94
395.005	783.94
395.229	806.94
395.454	863.94
395.678	858.94
395.903	804.94
396.127	810.94
396.352	817.94
396.576	852.94
396.801	836.94
397.025	834.94
397.249	837.94
397.474	830.94
397.698	819.94
397.922	848.94
398.147	886.94
398.371	926.94
398.595	886.94
398.82	862.94
399.044	891.94
399.268	924.94
399.492	947.94
399.717	976.94
399.941	990.94
400.165	985.94
400.389	954.94
400.613	996.94
400.837	1126.94
401.062	1164.94
401.286	1028.94
401.51	979.94
401.734	980.94
401.958	934.94
402.182	881.94
402.406	883.94
402.63	871.94
402.854	887.94
403.078	899.94
403.302	891.94
403.526	921.94
403.75	912.94
403.974	926.94
404.198	917.94
404.422	971.94
404.645	996.94
404.869	968.94
405.093	936.94
405.317	929.94
405.541	910.94
405.765	900.94
405.988	943.94
406.212	958.94
406.436	971.94
406.66	986.94
406.883	993.94
407.107	1142.94
407.331	1194.94
407.555	1270.94
407.778	1087.94
408.002	969.94
408.226	973.94
408.449	982.94
408.673	938.94
408.896	934.94
409.12	950.94
409.344	930.94
409.567	920.94
409.791	935.94
410.014	921.94
410.238	1058.94
410.461	1026.94
410.685	929.94
410.908	916.94
411.132	935.94
411.355	932.94
411.578	924.94
411.802	944.94
412.025	944.94
412.249	931.94
412.472	894.94
412.695	914.94
412.919	929.94
413.142	890.94
413.365	907.94
413.589	951.94
413.812	987.94
414.035	979.94
414.258	933.94
414.482	880.94
414.705	885.94
414.928	914.94
415.151	922.94
415.374	927.94
415.597	916.94
415.821	949.94
416.044	951.94
416.267	921.94
416.49	916.94
416.713	914.94
416.936	949.94
417.159	969.94
417.382	972.94
417.605	921.94
417.828	948.94
418.051	939.94
418.274	940.94
418.497	929.94
418.72	926.94
418.943	911.94
419.166	967.94
419.389	988.94
419.611	950.94
419.834	959.94
420.057	936.94
420.28	925.94
420.503	918.94
420.726	914.94
420.948	928.94
421.171	896.94
421.394	922.94
421.617	1002.94
421.839	979.94
422.062	979.94
422.285	944.94
422.507	920.94
422.73	906.94
422.953	876.94
423.175	875.94
423.398	913.94
423.621	906.94
423.843	910.94
424.066	993.94
424.288	970.94
424.511	1039.94
424.733	1004.94
424.956	908.94
425.178	921.94
425.401	942.94
425.623	929.94
425.846	942.94
426.068	965.94
426.291	972.94
426.513	946.94
426.735	932.94
426.958	1059.94
427.18	1064.94
427.402	981.94
427.625	1034.94
427.847	966.94
428.069	931.94
428.292	926.94
428.514	872.94
428.736	894.94
428.958	884.94
429.181	915.94
429.403	1059.94
429.625	1242.94
429.847	1034.94
430.069	936.94
430.292	1046.94
430.514	1058.94
430.736	997.94
430.958	960.94
431.18	915.94
431.402	856.94
431.624	862.94
431.846	792.94
432.068	729.94
432.29	741.94
432.512	787.94
432.734	883.94
432.956	940.94
433.178	959.94
433.4	968.94
433.622	921.94
433.844	890.94
434.066	838.94
434.287	768.94
434.509	803.94
434.731	847.94
434.953	928.94
435.175	940.94
435.397	902.94
435.618	883.94
435.84	853.94
436.062	826.94
436.284	904.94
436.505	928.94
436.727	983.94
436.949	910.94
437.17	909.94
437.392	868.94
437.614	842.94
437.835	790.94
438.057	820.94
438.278	863.94
438.5	859.94
438.721	872.94
438.943	899.94
439.165	926.94
439.386	935.94
439.608	928.94
439.829	931.94
440.05	965.94
440.272	942.94
440.493	944.94
440.715	979.94
440.936	1015.94
441.158	1062.94
441.379	1057.94
441.6	1029.94
441.822	1022.94
442.043	1020.94
442.264	979.94
442.486	954.94
442.707	960.94
442.928	942.94
443.149	956.94
443.371	1019.94
443.592	1038.94
443.813	1022.94
444.034	1000.94
444.255	996.94
444.476	1023.94
444.698	1030.94
444.919	1019.94
445.14	1178.94
445.361	1120.94
445.582	1104.94
445.803	1047.94
446.024	1064.94
446.245	1089.94
446.466	1066.94
446.687	1065.94
446.908	1029.94
447.129	986.94
447.35	1012.94
447.571	1001.94
447.792	962.94
448.013	954.94
448.234	964.94
448.455	1011.94
448.675	977.94
448.896	904.94
449.117	896.94
449.338	905.94
449.559	942.94
449.779	993.94
450	1005.94
450.221	1020.94
450.442	1006.94
450.662	948.94
450.883	871.94
451.104	878.94
451.324	903.94
451.545	895.94
451.766	855.94
451.986	840.94
452.207	826.94
452.428	799.94
452.648	772.94
452.869	788.94
453.089	782.94
453.31	778.94
453.53	785.94
453.751	744.94
453.971	719.94
454.192	715.94
454.412	764.94
454.633	772.94
454.853	766.94
455.073	746.94
455.294	745.94
455.514	788.94
455.734	781.94
455.955	754.94
456.175	739.94
456.395	740.94
456.616	736.94
456.836	726.94
457.056	730.94
457.276	724.94
457.497	703.94
457.717	665.94
457.937	695.94
458.157	704.94
458.377	713.94
458.598	680.94
458.818	668.94
459.038	728.94
459.258	730.94
459.478	704.94
459.698	696.94
459.918	738.94
460.138	784.94
460.358	842.94
460.578	807.94
460.798	863.94
461.018	866.94
461.238	861.94
461.458	853.94
461.678	853.94
461.898	837.94
462.118	831.94
462.338	836.94
462.558	824.94
462.777	851.94
462.997	881.94
463.217	896.94
463.437	858.94
463.657	844.94
463.876	832.94
464.096	832.94
464.316	835.94
464.536	881.94
464.755	893.94
464.975	874.94
465.195	838.94
465.414	864.94
465.634	844.94
465.854	892.94
466.073	969.94
466.293	944.94
466.512	889.94
466.732	894.94
466.951	898.94
467.171	868.94
467.391	876.94
467.61	876.94
467.829	898.94
468.049	997.94
468.268	1053.94
468.488	954.94
468.707	950.94
468.927	932.94
469.146	909.94
469.365	929.94
469.585	931.94
469.804	895.94
470.023	945.94
470.243	952.94
470.462	902.94
470.681	934.94
470.901	914.94
471.12	939.94
471.339	938.94
471.558	893.94
471.777	914.94
471.997	874.94
472.216	850.94
472.435	775.94
472.654	783.94
472.873	792.94
473.092	852.94
473.311	826.94
473.53	830.94
473.749	841.94
473.968	867.94
474.187	845.94
474.406	830.94
474.625	872.94
474.844	868.94
475.063	904.94
475.282	847.94
475.501	836.94
475.72	816.94
475.939	896.94
476.158	903.94
476.377	868.94
476.596	834.94
476.814	822.94
477.033	817.94
477.252	851.94
477.471	872.94
477.69	898.94
477.908	909.94
478.127	954.94
478.346	1015.94
478.564	980.94
478.783	1002.94
479.002	1018.94
479.22	1008.94
479.439	1017.94
479.658	1056.94
479.876	960.94
480.095	924.94
480.313	912.94
480.532	878.94
480.751	862.94
480.969	824.94
481.188	789.94
481.406	775.94
481.624	773.94
481.843	808.94
482.061	820.94
482.28	882.94
482.498	889.94
482.717	873.94
482.935	890.94
483.153	987.94
483.372	1036.94
483.59	1013.94
483.808	959.94
484.027	911.94
484.245	958.94
484.463	1224.94
484.681	1287.94
484.9	1046.94
485.118	969.94
485.336	928.94
485.554	894.94
485.772	903.94
485.99	899.94
486.209	912.94
486.427	891.94
486.645	927.94
486.863	996.94
487.081	1042.94
487.299	1049.94
487.517	1020.94
487.735	1143.94
487.953	1187.94
488.171	1165.94
488.389	1127.94
488.607	1072.94
488.825	1154.94
489.043	1089.94
489.261	990.94
489.479	1015.94
489.696	1077.94
489.914	1060.94
490.132	1056.94
490.35	1111.94
490.568	1162.94
490.786	1190.94
491.003	1170.94
491.221	1238.94
491.439	1291.94
491.657	1290.94
491.874	1360.94
492.092	1434.94
492.31	1509.94
492.527	1466.94
492.745	1373.94
492.963	1310.94
493.18	1332.94
493.398	1318.94
493.615	1332.94
493.833	1271.94
494.05	1246.94
494.268	1195.94
494.485	1259.94
494.703	1219.94
494.92	1209.94
495.138	1192.94
495.355	1275.94
495.573	1248.94
495.79	1295.94
496.008	1271.94
496.225	1222.94
496.442	1199.94
496.66	1212.94
496.877	1226.94
497.094	1220.94
497.312	1233.94
497.529	1192.94
497.746	1184.94
497.963	1297.94
498.181	1310.94
498.398	1255.94
498.615	1220.94
498.832	1198.94
499.049	1144.94
499.267	1176.94
499.484	1250.94
499.701	1329.94
499.918	1379.94
500.135	1460.94
500.352	1591.94
500.569	1540.94
500.786	1667.94
501.003	1568.94
501.22	1426.94
501.437	1357.94
501.654	1393.94
501.871	1367.94
502.088	1178.94
502.305	1195.94
502.522	1155.94
502.739	1094.94
502.956	1067.94
503.172	1043.94
503.389	1001.94
503.606	994.94
503.823	995.94
504.04	973.94
504.256	1017.94
504.473	1003.94
504.69	1014.94
504.907	975.94
505.123	957.94
505.34	1070.94
505.557	1318.94
505.773	1106.94
505.99	960.94
506.207	902.94
506.423	869.94
506.64	888.94
506.856	923.94
507.073	1025.94
507.289	1068.94
507.506	1010.94
507.722	879.94
507.939	842.94
508.155	863.94
508.372	854.94
508.588	824.94
508.805	789.94
509.021	782.94
509.238	755.94
509.454	761.94
509.67	754.94
509.887	740.94
510.103	719.94
510.319	739.94
510.536	772.94
510.752	801.94
510.968	763.94
511.184	779.94
511.401	751.94
511.617	695.94
511.833	705.94
512.049	709.94
512.265	709.94
512.481	704.94
512.698	727.94
512.914	757.94
513.13	738.94
513.346	737.94
513.562	702.94
513.778	729.94
513.994	746.94
514.21	753.94
514.426	765.94
514.642	833.94
514.858	755.94
515.074	732.94
515.29	712.94
515.506	729.94
515.721	754.94
515.937	739.94
516.153	787.94
516.369	789.94
516.585	753.94
516.801	738.94
517.016	736.94
517.232	776.94
517.448	786.94
517.664	788.94
517.879	803.94
518.095	811.94
518.311	769.94
518.527	774.94
518.742	778.94
518.958	743.94
519.173	778.94
519.389	782.94
519.605	766.94
519.82	787.94
520.036	799.94
520.251	758.94
520.467	765.94
520.682	815.94
520.898	799.94
521.113	728.94
521.329	716.94
521.544	760.94
521.76	746.94
521.975	731.94
522.19	724.94
522.406	768.94
522.621	919.94
522.836	875.94
523.052	734.94
523.267	770.94
523.482	759.94
523.698	724.94
523.913	741.94
524.128	796.94
524.343	816.94
524.559	818.94
524.774	798.94
524.989	781.94
525.204	762.94
525.419	706.94
525.634	722.94
525.849	742.94
526.064	702.94
526.28	705.94
526.495	663.94
526.71	647.94
526.925	645.94
527.14	638.94
527.355	630.94
527.57	631.94
527.785	672.94
527.999	667.94
528.214	682.94
528.429	710.94
528.644	738.94
528.859	788.94
529.074	847.94
529.289	889.94
529.503	860.94
529.718	821.94
529.933	753.94
530.148	673.94
530.363	653.94
530.577	635.94
530.792	622.94
531.007	634.94
531.221	635.94
531.436	636.94
531.651	673.94
531.865	662.94
532.08	645.94
532.295	607.94
532.509	595.94
532.724	631.94
532.938	646.94
533.153	710.94
533.367	715.94
533.582	745.94
533.796	722.94
534.011	732.94
534.225	672.94
534.44	617.94
534.654	640.94
534.868	638.94
535.083	707.94
535.297	694.94
535.511	679.94
535.726	694.94
535.94	674.94
536.154	659.94
536.369	624.94
536.583	602.94
536.797	593.94
537.011	590.94
537.225	620.94
537.44	624.94
537.654	648.94
537.868	613.94
538.082	603.94
538.296	593.94
538.51	637.94
538.724	688.94
538.938	731.94
539.153	764.94
539.367	736.94
539.581	710.94
539.795	684.94
540.009	648.94
540.222	623.94
540.436	688.94
540.65	774.94
540.864	789.94
541.078	833.94
541.292	836.94
541.506	886.94
541.72	942.94
541.934	1005.94
542.147	1076.94
542.361	996.94
542.575	914.94
542.789	839.94
543.002	780.94
543.216	756.94
543.43	730.94
543.644	823.94
543.857	887.94
544.071	908.94
544.285	938.94
544.498	944.94
544.712	918.94
544.925	939.94
545.139	972.94
545.352	931.94
545.566	912.94
545.779	944.94
545.993	953.94
546.206	984.94
546.42	952.94
546.633	950.94
546.847	950.94
547.06	981.94
547.274	972.94
547.487	966.94
547.7	988.94
547.914	954.94
548.127	948.94
548.34	946.94
548.554	912.94
548.767	928.94
548.98	931.94
549.193	920.94
549.407	931.94
549.62	910.94
549.833	888.94
550.046	907.94
550.259	911.94
550.473	884.94
550.686	871.94
550.899	887.94
551.112	864.94
551.325	828.94
551.538	836.94
551.751	870.94
551.964	708.94
552.177	738.94
552.39	793.94
552.603	836.94
552.816	830.94
553.029	907.94
553.242	909.94
553.455	912.94
553.667	905.94
553.88	909.94
554.093	889.94
554.306	868.94
554.519	827.94
554.732	833.94
554.944	829.94
555.157	819.94
555.37	808.94
555.583	811.94
555.795	769.94
556.008	767.94
556.221	704.94
556.433	715.94
556.646	726.94
556.859	716.94
557.071	748.94
557.284	734.94
557.496	766.94
557.709	730.94
557.921	736.94
558.134	727.94
558.346	708.94
558.559	720.94
558.771	734.94
558.984	710.94
559.196	695.94
559.409	674.94
559.621	658.94
559.833	660.94
560.046	672.94
560.258	673.94
560.47	668.94
560.683	656.94
560.895	686.94
561.107	682.94
561.32	686.94
561.532	696.94
561.744	660.94
561.956	676.94
562.168	673.94
562.381	639.94
562.593	640.94
562.805	654.94
563.017	630.94
563.229	635.94
563.441	649.94
563.653	634.94
563.865	617.94
564.077	616.94
564.289	608.94
564.501	656.94
564.713	616.94
564.925	606.94
565.137	662.94
565.349	605.94
565.561	614.94
565.773	609.94
565.985	639.94
566.197	653.94
566.408	672.94
566.62	668.94
566.832	677.94
567.044	671.94
567.255	683.94
567.467	649.94
567.679	636.94
567.891	646.94
568.102	595.94
568.314	556.94
568.526	524.94
568.737	517.94
568.949	502.94
569.161	486.94
569.372	466.94
569.584	441.94
569.795	458.94
570.007	453.94
570.218	422.94
570.43	454.94
570.641	441.94
570.853	468.94
571.064	495.94
571.276	494.94
571.487	510.94
571.698	474.94
571.91	466.94
572.121	448.94
572.333	458.94
572.544	451.94
572.755	408.94
572.966	396.94
573.178	381.94
573.389	396.94
573.6	416.94
573.811	449.94
574.023	384.94
574.234	389.94
574.445	390.94
574.656	393.94
574.867	408.94
575.078	399.94
575.289	412.94
575.501	402.94
575.712	393.94
575.923	390.94
576.134	402.94
576.345	395.94
576.556	412.94
576.767	381.94
576.978	404.94
577.188	378.94
577.399	381.94
577.61	383.94
577.821	370.94
578.032	366.94
578.243	378.94
578.454	361.94
578.665	360.94
578.875	337.94
579.086	326.94
579.297	336.94
579.508	344.94
579.718	350.94
579.929	327.94
580.14	327.94
580.35	338.94
580.561	367.94
580.772	394.94
580.982	376.94
581.193	369.94
581.403	343.94
581.614	343.94
581.825	346.94
582.035	333.94
582.246	362.94
582.456	349.94
582.667	345.94
582.877	339.94
583.087	352.94
583.298	336.94
583.508	329.94
583.719	344.94
583.929	334.94
584.139	317.94
584.35	325.94
584.56	312.94
584.77	329.94
584.981	311.94
585.191	332.94
585.401	324.94
585.611	328.94
585.821	315.94
586.032	320.94
586.242	298.94
586.452	298.94
586.662	292.94
586.872	307.94
587.082	299.94
587.292	336.94
587.502	322.94
587.713	322.94
587.923	323.94
588.133	298.94
588.343	318.94
588.553	308.94
588.762	302.94
588.972	296.94
589.182	316.94
589.392	315.94
589.602	311.94
589.812	299.94
590.022	297.94
590.232	301.94
590.441	324.94
590.651	318.94
590.861	318.94
591.071	306.94
591.281	297.94
591.49	299.94
591.7	325.94
591.91	303.94
592.119	315.94
592.329	323.94
592.539	312.94
592.748	330.94
592.958	331.94
593.167	331.94
593.377	335.94
593.587	318.94
593.796	335.94
594.006	316.94
594.215	319.94
594.424	336.94
594.634	342.94
594.843	338.94
595.053	345.94
595.262	319.94
595.472	322.94
595.681	296.94
595.89	297.94
596.1	296.94
596.309	336.94
596.518	309.94
596.727	326.94
596.937	327.94
597.146	311.94
597.355	312.94
597.564	304.94
597.774	271.94
597.983	283.94
598.192	304.94
598.401	280.94
598.61	303.94
598.819	312.94
599.028	306.94
599.237	313.94
599.446	307.94
599.655	291.94
599.864	291.94
600.073	287.94
600.282	285.94
600.491	278.94
600.7	302.94
600.909	299.94
601.118	333.94
601.327	333.94
601.536	345.94
601.745	323.94
601.953	344.94
602.162	348.94
602.371	355.94
602.58	356.94
602.789	341.94
602.997	340.94
603.206	346.94
603.415	351.94
603.623	359.94
603.832	351.94
604.041	335.94
604.249	326.94
604.458	323.94
604.666	302.94
604.875	290.94
605.084	318.94
605.292	338.94
605.501	345.94
605.709	350.94
605.918	363.94
606.126	362.94
606.334	350.94
606.543	373.94
606.751	347.94
606.96	345.94
607.168	366.94
607.376	345.94
607.585	351.94
607.793	352.94
608.001	342.94
608.21	371.94
608.418	345.94
608.626	364.94
608.834	367.94
609.043	354.94
609.251	339.94
609.459	363.94
609.667	375.94
609.875	364.94
610.083	369.94
610.291	367.94
610.499	349.94
610.707	352.94
610.916	347.94
611.124	362.94
611.332	353.94
611.54	351.94
611.748	351.94
611.955	371.94
612.163	398.94
612.371	365.94
612.579	372.94
612.787	361.94
612.995	375.94
613.203	380.94
613.411	361.94
613.618	352.94
613.826	346.94
614.034	362.94
614.242	361.94
614.449	363.94
614.657	359.94
614.865	348.94
615.072	371.94
615.28	356.94
615.488	349.94
615.695	372.94
615.903	356.94
616.111	358.94
616.318	346.94
616.526	338.94
616.733	336.94
616.941	344.94
617.148	350.94
617.356	354.94
617.563	341.94
617.771	343.94
617.978	336.94
618.185	357.94
618.393	326.94
618.6	345.94
618.807	344.94
619.015	340.94
619.222	331.94
619.429	330.94
619.637	313.94
619.844	292.94
620.051	317.94
620.258	330.94
620.466	324.94
620.673	320.94
620.88	326.94
621.087	347.94
621.294	316.94
621.501	306.94
621.708	312.94
621.915	297.94
622.122	321.94
622.329	344.94
622.536	322.94
622.743	330.94
622.95	327.94
623.157	328.94
623.364	315.94
623.571	328.94
623.778	334.94
623.985	317.94
624.192	318.94
624.399	328.94
624.606	312.94
624.812	301.94
625.019	295.94
625.226	303.94
625.433	284.94
625.639	298.94
625.846	281.94
626.053	263.94
626.259	250.94
626.466	230.94
626.673	232.94
626.879	232.94
627.086	248.94
627.293	267.94
627.499	288.94
627.706	278.94
627.912	309.94
628.119	302.94
628.325	297.94
628.532	290.94
628.738	293.94
628.945	298.94
629.151	271.94
629.357	276.94
629.564	274.94
629.77	288.94
629.976	268.94
630.183	265.94
630.389	263.94
630.595	281.94
630.802	287.94
631.008	265.94
631.214	258.94
631.42	263.94
631.627	242.94
631.833	268.94
632.039	249.94
632.245	259.94
632.451	260.94
632.657	275.94
632.863	257.94
633.069	266.94
633.275	269.94
633.481	255.94
633.688	256.94
633.893	256.94
634.099	260.94
634.305	256.94
634.511	247.94
634.717	240.94
634.923	217.94
635.129	227.94
635.335	232.94
635.541	239.94
635.747	258.94
635.952	262.94
636.158	272.94
636.364	254.94
636.57	259.94
636.775	260.94
636.981	258.94
637.187	266.94
637.392	258.94
637.598	251.94
637.804	258.94
638.009	262.94
638.215	263.94
638.421	242.94
638.626	239.94
638.832	239.94
639.037	246.94
639.243	234.94
639.448	244.94
639.654	245.94
639.859	233.94
640.065	250.94
640.27	243.94
640.475	246.94
640.681	254.94
640.886	246.94
641.091	223.94
641.297	234.94
641.502	244.94
641.707	244.94
641.913	252.94
642.118	246.94
642.323	242.94
642.528	257.94
642.733	245.94
642.939	245.94
643.144	235.94
643.349	231.94
643.554	231.94
643.759	225.94
643.964	239.94
644.169	235.94
644.374	227.94
644.579	251.94
644.784	242.94
644.989	246.94
645.194	246.94
645.399	246.94
645.604	243.94
645.809	231.94
646.014	259.94
646.219	226.94
646.423	231.94
646.628	238.94
646.833	240.94
647.038	231.94
647.243	242.94
647.447	242.94
647.652	224.94
647.857	233.94
648.062	234.94
648.266	248.94
648.471	241.94
648.676	234.94
648.88	241.94
649.085	235.94
649.289	241.94
649.494	244.94
649.698	215.94
649.903	230.94
650.107	235.94
650.312	242.94
650.516	231.94
650.721	245.94
650.925	219.94
651.13	220.94
651.334	220.94
651.539	222.94
651.743	222.94
651.947	226.94
652.152	220.94
652.356	207.94
652.56	205.94
652.764	203.94
652.969	213.94
653.173	210.94
653.377	192.94
653.581	204.94
653.785	214.94
653.99	218.94
654.194	201.94
654.398	188.94
654.602	195.94
654.806	199.94
655.01	192.94
655.214	200.94
655.418	207.94
655.622	196.94
655.826	205.94
656.03	215.94
656.234	211.94
656.438	226.94
656.642	222.94
656.846	216.94
657.049	209.94
657.253	195.94
657.457	193.94
657.661	176.94
657.865	147.94
658.068	160.94
658.272	161.94
658.476	145.94
658.68	148.94
658.883	138.94
659.087	152.94
659.291	150.94
659.494	128.94
659.698	141.94
659.901	136.94
660.105	139.94
660.309	134.94
660.512	126.94
660.716	115.94
660.919	96.94
661.123	123.94
661.326	115.94
661.53	100.94
661.733	120.94
661.936	97.94
662.14	101.94
662.343	90.94
662.546	104.94
662.75	88.94
662.953	95.94
663.156	100.94
663.36	99.94
663.563	91.94
663.766	84.94
663.969	84.94
664.173	95.94
664.376	79.94
664.579	96.94
664.782	72.94
664.985	73.94
665.188	94.94
665.391	90.94
665.594	78.94
665.797	90.94
666	72.94
666.203	67.94
666.406	70.94
666.609	75.94
666.812	83.94
667.015	92.94
667.218	89.94
667.421	68.94
667.624	76.94
667.827	85.94
668.03	82.94
668.232	73.94
668.435	78.94
668.638	75.94
668.841	81.94
669.043	77.94
669.246	83.94
669.449	82.94
669.651	84.94
669.854	75.94
670.057	86.94
670.259	85.94
670.462	85.94
670.665	89.94
670.867	90.94
671.07	77.94
671.272	71.94
671.475	82.94
671.677	91.94
671.88	88.94
672.082	90.94
672.284	90.94
672.487	86.94
672.689	90.94
672.892	91.94
