Data from WStandard_LampEnergy5.5LIBS07252019.E.O._I.C._HRD10591_16-08-41-920.txt Node
Date: Thu Jul 25 16:08:41 EDT 2019
User: cochatt
Spectrometer: HR+D1059
Trigger mode: 1
Integration Time (sec): 1.000000E-1
Scans to average: 1
Electric dark correction enabled: true
Nonlinearity correction enabled: false
Boxcar width: 0
XAxis mode: Wavelengths
Number of Pixels in Spectrum: 2048
>>>>>Begin Spectral Data<<<<<
223.165	-12.56
223.4	-12.56
223.635	-12.56
223.869	-28.56
224.104	-27.56
224.338	-41.56
224.573	-12.56
224.808	-8.56
225.042	-1.56
225.277	7.44
225.511	-0.56
225.746	4.44
225.98	6.44
226.215	16.44
226.449	12.44
226.683	31.44
226.918	27.44
227.152	27.44
227.387	33.44
227.621	43.44
227.856	41.44
228.09	32.44
228.324	61.44
228.559	57.44
228.793	133.44
229.027	357.44
229.262	352.44
229.496	367.44
229.73	397.44
229.964	432.44
230.199	453.44
230.433	462.44
230.667	489.44
230.901	500.44
231.136	445.44
231.37	458.44
231.604	465.44
231.838	457.44
232.072	451.44
232.306	439.44
232.541	467.44
232.775	541.44
233.009	580.44
233.243	563.44
233.477	510.44
233.711	538.44
233.945	569.44
234.179	520.44
234.413	575.44
234.647	612.44
234.881	595.44
235.115	530.44
235.349	559.44
235.583	554.44
235.817	524.44
236.051	498.44
236.285	522.44
236.519	578.44
236.753	634.44
236.987	686.44
237.221	645.44
237.455	727.44
237.689	717.44
237.922	668.44
238.156	626.44
238.39	647.44
238.624	698.44
238.858	703.44
239.091	772.44
239.325	792.44
239.559	888.44
239.793	952.44
240.027	1013.44
240.26	992.44
240.494	721.44
240.728	704.44
240.961	697.44
241.195	755.44
241.429	789.44
241.662	794.44
241.896	728.44
242.13	737.44
242.363	828.44
242.597	889.44
242.83	845.44
243.064	849.44
243.298	932.44
243.531	876.44
243.765	897.44
243.998	919.44
244.232	781.44
244.465	767.44
244.699	738.44
244.932	861.44
245.166	986.44
245.399	917.44
245.633	866.44
245.866	867.44
246.099	914.44
246.333	909.44
246.566	903.44
246.8	977.44
247.033	1140.44
247.266	1041.44
247.5	1010.44
247.733	999.44
247.966	1085.44
248.2	1183.44
248.433	1167.44
248.666	1180.44
248.899	1294.44
249.133	1489.44
249.366	1711.44
249.599	1380.44
249.832	1187.44
250.066	1236.44
250.299	1237.44
250.532	1173.44
250.765	1047.44
250.998	1111.44
251.231	1181.44
251.465	1199.44
251.698	1130.44
251.931	1157.44
252.164	1148.44
252.397	1204.44
252.63	1218.44
252.863	1034.44
253.096	1068.44
253.329	1119.44
253.562	1151.44
253.795	1289.44
254.028	1247.44
254.261	1131.44
254.494	1155.44
254.727	1069.44
254.96	1097.44
255.193	1215.44
255.426	1368.44
255.659	1583.44
255.892	1655.44
256.124	1320.44
256.357	1279.44
256.59	1365.44
256.823	1386.44
257.056	1356.44
257.289	1603.44
257.521	1840.44
257.754	1630.44
257.987	1489.44
258.22	1718.44
258.452	1668.44
258.685	1365.44
258.918	1331.44
259.151	1361.44
259.383	1282.44
259.616	1170.44
259.849	1200.44
260.081	1335.44
260.314	1484.44
260.547	1623.44
260.779	1647.44
261.012	1549.44
261.244	1378.44
261.477	1321.44
261.71	1392.44
261.942	1379.44
262.175	1296.44
262.407	1421.44
262.64	1336.44
262.872	1285.44
263.105	1211.44
263.337	1224.44
263.57	1257.44
263.802	1268.44
264.035	1157.44
264.267	1119.44
264.499	1097.44
264.732	1150.44
264.964	1272.44
265.197	1313.44
265.429	1313.44
265.661	1480.44
265.894	1707.44
266.126	1743.44
266.358	1515.44
266.591	1595.44
266.823	1759.44
267.055	1563.44
267.287	1556.44
267.52	1519.44
267.752	1509.44
267.984	1506.44
268.216	1559.44
268.448	1627.44
268.681	1592.44
268.913	1462.44
269.145	1377.44
269.377	1347.44
269.609	1433.44
269.841	1689.44
270.073	1981.44
270.306	2197.44
270.538	2327.44
270.77	1998.44
271.002	1669.44
271.234	1581.44
271.466	1548.44
271.698	1756.44
271.93	2169.44
272.162	2157.44
272.394	1923.44
272.626	1810.44
272.858	1643.44
273.09	1413.44
273.322	1377.44
273.553	1336.44
273.785	1343.44
274.017	1377.44
274.249	1508.44
274.481	1533.44
274.713	1409.44
274.945	1343.44
275.176	1378.44
275.408	1353.44
275.64	1330.44
275.872	1291.44
276.104	1422.44
276.335	1598.44
276.567	1823.44
276.799	1887.44
277.031	1654.44
277.262	1539.44
277.494	1639.44
277.726	1798.44
277.957	1791.44
278.189	1653.44
278.421	1508.44
278.652	1427.44
278.884	1396.44
279.115	1402.44
279.347	1460.44
279.579	1438.44
279.81	1383.44
280.042	1566.44
280.273	1719.44
280.505	1727.44
280.736	1753.44
280.968	1723.44
281.199	1462.44
281.431	1368.44
281.662	1410.44
281.894	1377.44
282.125	1398.44
282.356	1493.44
282.588	1516.44
282.819	1513.44
283.051	1602.44
283.282	1758.44
283.513	1721.44
283.745	1445.44
283.976	1402.44
284.207	1361.44
284.439	1427.44
284.67	1455.44
284.901	1476.44
285.132	1531.44
285.364	1512.44
285.595	1492.44
285.826	1505.44
286.057	1449.44
286.288	1431.44
286.52	1515.44
286.751	1621.44
286.982	1702.44
287.213	1537.44
287.444	1434.44
287.675	1404.44
287.906	1487.44
288.138	1625.44
288.369	1539.44
288.6	1437.44
288.831	1438.44
289.062	1419.44
289.293	1460.44
289.524	1455.44
289.755	1507.44
289.986	1571.44
290.217	1370.44
290.448	1425.44
290.679	1499.44
290.91	1492.44
291.141	1555.44
291.371	1566.44
291.602	1548.44
291.833	1562.44
292.064	1589.44
292.295	1613.44
292.526	1592.44
292.757	1655.44
292.987	1573.44
293.218	1493.44
293.449	1593.44
293.68	1813.44
293.91	1951.44
294.141	1827.44
294.372	1693.44
294.603	1802.44
294.833	1900.44
295.064	1766.44
295.295	1573.44
295.525	1537.44
295.756	1457.44
295.987	1348.44
296.217	1410.44
296.448	1459.44
296.679	1431.44
296.909	1459.44
297.14	1427.44
297.37	1469.44
297.601	1519.44
297.831	1621.44
298.062	1673.44
298.292	1521.44
298.523	1419.44
298.753	1496.44
298.984	1471.44
299.214	1472.44
299.445	1516.44
299.675	1565.44
299.905	1583.44
300.136	1521.44
300.366	1496.44
300.597	1453.44
300.827	1459.44
301.057	1485.44
301.288	1573.44
301.518	1536.44
301.748	1612.44
301.979	1665.44
302.209	1698.44
302.439	1817.44
302.669	1881.44
302.9	1770.44
303.13	1610.44
303.36	1571.44
303.59	1637.44
303.82	1614.44
304.051	1588.44
304.281	1558.44
304.511	1600.44
304.741	1715.44
304.971	1847.44
305.201	2009.44
305.431	1899.44
305.661	1563.44
305.891	1390.44
306.121	1367.44
306.352	1434.44
306.582	1527.44
306.812	1632.44
307.042	1740.44
307.272	1770.44
307.502	1780.44
307.731	1937.44
307.961	2065.44
308.191	1944.44
308.421	1649.44
308.651	1575.44
308.881	1545.44
309.111	1547.44
309.341	1466.44
309.571	1513.44
309.8	1564.44
310.03	1537.44
310.26	1501.44
310.49	1535.44
310.72	1523.44
310.949	1637.44
311.179	1635.44
311.409	1624.44
311.639	1566.44
311.868	1525.44
312.098	1564.44
312.328	1559.44
312.557	1534.44
312.787	1575.44
313.017	1586.44
313.246	1580.44
313.476	1581.44
313.706	1641.44
313.935	1613.44
314.165	1612.44
314.394	1658.44
314.624	1779.44
314.853	1851.44
315.083	1850.44
315.312	1977.44
315.542	1866.44
315.771	1647.44
316.001	1595.44
316.23	1754.44
316.46	1700.44
316.689	1704.44
316.919	1621.44
317.148	1592.44
317.377	1520.44
317.607	1664.44
317.836	1898.44
318.065	1995.44
318.295	1880.44
318.524	1791.44
318.753	1738.44
318.983	1736.44
319.212	1723.44
319.441	1647.44
319.67	1654.44
319.9	1696.44
320.129	1798.44
320.358	1836.44
320.587	1877.44
320.816	1846.44
321.046	1799.44
321.275	1723.44
321.504	1720.44
321.733	1877.44
321.962	1813.44
322.191	1673.44
322.42	1673.44
322.649	1659.44
322.878	1661.44
323.108	1641.44
323.337	1721.44
323.566	1722.44
323.795	1720.44
324.024	1713.44
324.253	1676.44
324.482	1730.44
324.71	1644.44
324.939	1571.44
325.168	1611.44
325.397	1639.44
325.626	1756.44
325.855	1728.44
326.084	1687.44
326.313	1681.44
326.542	1683.44
326.77	1701.44
326.999	1778.44
327.228	1723.44
327.457	1577.44
327.686	1567.44
327.914	1623.44
328.143	1691.44
328.372	1685.44
328.6	1714.44
328.829	1683.44
329.058	1640.44
329.287	1647.44
329.515	1667.44
329.744	1699.44
329.972	1751.44
330.201	1867.44
330.43	1819.44
330.658	1760.44
330.887	1768.44
331.115	1753.44
331.344	1812.44
331.572	1766.44
331.801	1741.44
332.03	1756.44
332.258	1739.44
332.486	1759.44
332.715	1783.44
332.943	1809.44
333.172	1774.44
333.4	1797.44
333.629	1823.44
333.857	1939.44
334.085	2121.44
334.314	2371.44
334.542	2627.44
334.771	2451.44
334.999	2096.44
335.227	2006.44
335.455	1932.44
335.684	1869.44
335.912	1923.44
336.14	2010.44
336.369	1973.44
336.597	1835.44
336.825	1795.44
337.053	1845.44
337.281	1916.44
337.51	2008.44
337.738	2107.44
337.966	2007.44
338.194	1847.44
338.422	1767.44
338.65	1777.44
338.878	1729.44
339.106	1701.44
339.334	1664.44
339.562	1663.44
339.79	1658.44
340.018	1786.44
340.246	1897.44
340.474	1848.44
340.702	1791.44
340.93	1833.44
341.158	1827.44
341.386	1755.44
341.614	1762.44
341.842	1719.44
342.07	1743.44
342.298	1765.44
342.526	1777.44
342.754	1720.44
342.981	1730.44
343.209	1711.44
343.437	1717.44
343.665	1707.44
343.893	1791.44
344.12	1867.44
344.348	1934.44
344.576	1799.44
344.804	1743.44
345.031	1731.44
345.259	1744.44
345.487	1722.44
345.714	1621.44
345.942	1583.44
346.17	1603.44
346.397	1637.44
346.625	1685.44
346.853	1587.44
347.08	1533.44
347.308	1571.44
347.535	1607.44
347.763	1681.44
347.99	1663.44
348.218	1572.44
348.445	1579.44
348.673	1607.44
348.9	1671.44
349.128	1681.44
349.355	1745.44
349.583	1748.44
349.81	1663.44
350.037	1523.44
350.265	1512.44
350.492	1539.44
350.72	1596.44
350.947	1657.44
351.174	1667.44
351.402	1660.44
351.629	1543.44
351.856	1539.44
352.083	1508.44
352.311	1535.44
352.538	1581.44
352.765	1643.44
352.992	1665.44
353.22	1617.44
353.447	1553.44
353.674	1584.44
353.901	1634.44
354.128	1601.44
354.355	1563.44
354.583	1626.44
354.81	1653.44
355.037	1636.44
355.264	1659.44
355.491	1609.44
355.718	1657.44
355.945	1606.44
356.172	1601.44
356.399	1552.44
356.626	1535.44
356.853	1602.44
357.08	1687.44
357.307	1889.44
357.534	1943.44
357.761	1671.44
357.988	1548.44
358.215	1522.44
358.441	1532.44
358.668	1537.44
358.895	1520.44
359.122	1604.44
359.349	1765.44
359.576	1795.44
359.802	1637.44
360.029	1544.44
360.256	1539.44
360.483	1537.44
360.709	1610.44
360.936	1650.44
361.163	1717.44
361.39	1871.44
361.616	1989.44
361.843	1958.44
362.07	1861.44
362.296	1649.44
362.523	1579.44
362.749	1575.44
362.976	1628.44
363.203	1642.44
363.429	1589.44
363.656	1546.44
363.882	1614.44
364.109	1727.44
364.335	1931.44
364.562	1792.44
364.788	1716.44
365.015	1629.44
365.241	1581.44
365.468	1586.44
365.694	1660.44
365.92	1736.44
366.147	1681.44
366.373	1578.44
366.599	1561.44
366.826	1540.44
367.052	1543.44
367.278	1575.44
367.505	1597.44
367.731	1601.44
367.957	1626.44
368.184	1689.44
368.41	1770.44
368.636	1775.44
368.862	1790.44
369.089	1820.44
369.315	1775.44
369.541	1675.44
369.767	1623.44
369.993	1592.44
370.219	1587.44
370.445	1656.44
370.672	1743.44
370.898	1773.44
371.124	1809.44
371.35	1671.44
371.576	1748.44
371.802	1784.44
372.028	1719.44
372.254	1644.44
372.48	1620.44
372.706	1625.44
372.932	1643.44
373.158	1611.44
373.384	1659.44
373.61	1670.44
373.835	1764.44
374.061	1754.44
374.287	1655.44
374.513	1662.44
374.739	1724.44
374.965	1722.44
375.191	1708.44
375.416	1724.44
375.642	1755.44
375.868	1812.44
376.094	1859.44
376.319	1804.44
376.545	1700.44
376.771	1708.44
376.997	1824.44
377.222	1744.44
377.448	1718.44
377.674	1715.44
377.899	1727.44
378.125	1856.44
378.35	1867.44
378.576	1711.44
378.802	1630.44
379.027	1638.44
379.253	1698.44
379.478	1672.44
379.704	1671.44
379.929	1656.44
380.155	1650.44
380.38	1709.44
380.606	1674.44
380.831	1676.44
381.057	1737.44
381.282	1812.44
381.507	1729.44
381.733	1834.44
381.958	1924.44
382.184	1757.44
382.409	1724.44
382.634	1768.44
382.86	1783.44
383.085	1768.44
383.31	1795.44
383.535	1898.44
383.761	2018.44
383.986	1937.44
384.211	1886.44
384.436	1877.44
384.662	1922.44
384.887	2032.44
385.112	1945.44
385.337	1960.44
385.562	1946.44
385.787	1972.44
386.013	1951.44
386.238	1948.44
386.463	1912.44
386.688	2020.44
386.913	2179.44
387.138	2154.44
387.363	1967.44
387.588	2009.44
387.813	1956.44
388.038	1961.44
388.263	2066.44
388.488	1964.44
388.713	1861.44
388.938	1832.44
389.163	1863.44
389.387	1933.44
389.612	1923.44
389.837	1910.44
390.062	1964.44
390.287	1938.44
390.512	1895.44
390.736	1873.44
390.961	1872.44
391.186	1838.44
391.411	1873.44
391.636	1915.44
391.86	1915.44
392.085	1901.44
392.31	1863.44
392.534	1904.44
392.759	1915.44
392.984	1883.44
393.208	1920.44
393.433	1962.44
393.658	2007.44
393.882	2088.44
394.107	1953.44
394.331	1877.44
394.556	1893.44
394.78	1936.44
395.005	1990.44
395.229	2049.44
395.454	2208.44
395.678	2207.44
395.903	2089.44
396.127	2037.44
396.352	2053.44
396.576	2129.44
396.801	2116.44
397.025	2084.44
397.249	2096.44
397.474	2076.44
397.698	2077.44
397.922	2132.44
398.147	2203.44
398.371	2258.44
398.595	2311.44
398.82	2211.44
399.044	2195.44
399.268	2330.44
399.492	2463.44
399.717	2555.44
399.941	2618.44
400.165	2493.44
400.389	2467.44
400.613	2395.44
400.837	2623.44
401.062	3039.44
401.286	2636.44
401.51	2395.44
401.734	2514.44
401.958	2431.44
402.182	2227.44
402.406	2189.44
402.63	2152.44
402.854	2194.44
403.078	2202.44
403.302	2266.44
403.526	2263.44
403.75	2259.44
403.974	2297.44
404.198	2285.44
404.422	2342.44
404.645	2435.44
404.869	2416.44
405.093	2271.44
405.317	2206.44
405.541	2277.44
405.765	2305.44
405.988	2252.44
406.212	2347.44
406.436	2399.44
406.66	2376.44
406.883	2454.44
407.107	2713.44
407.331	2969.44
407.555	3160.44
407.778	3003.44
408.002	2436.44
408.226	2377.44
408.449	2360.44
408.673	2374.44
408.896	2334.44
409.12	2387.44
409.344	2339.44
409.567	2240.44
409.791	2259.44
410.014	2370.44
410.238	2483.44
410.461	2559.44
410.685	2306.44
410.908	2191.44
411.132	2265.44
411.355	2277.44
411.578	2203.44
411.802	2198.44
412.025	2221.44
412.249	2215.44
412.472	2200.44
412.695	2148.44
412.919	2174.44
413.142	2148.44
413.365	2195.44
413.589	2255.44
413.812	2331.44
414.035	2392.44
414.258	2213.44
414.482	2156.44
414.705	2188.44
414.928	2175.44
415.151	2145.44
415.374	2179.44
415.597	2175.44
415.821	2240.44
416.044	2321.44
416.267	2302.44
416.49	2121.44
416.713	2089.44
416.936	2121.44
417.159	2218.44
417.382	2230.44
417.605	2145.44
417.828	2214.44
418.051	2241.44
418.274	2145.44
418.497	2125.44
418.72	2080.44
418.943	2121.44
419.166	2213.44
419.389	2329.44
419.611	2202.44
419.834	2157.44
420.057	2201.44
420.28	2122.44
420.503	2113.44
420.726	2161.44
420.948	2135.44
421.171	2034.44
421.394	2077.44
421.617	2164.44
421.839	2143.44
422.062	2090.44
422.285	2037.44
422.507	2077.44
422.73	2072.44
422.953	1991.44
423.175	1979.44
423.398	2102.44
423.621	2102.44
423.843	2121.44
424.066	2142.44
424.288	2188.44
424.511	2241.44
424.733	2190.44
424.956	2025.44
425.178	2005.44
425.401	2042.44
425.623	2059.44
425.846	2003.44
426.068	2108.44
426.291	2159.44
426.513	2139.44
426.735	2125.44
426.958	2282.44
427.18	2398.44
427.402	2209.44
427.625	2258.44
427.847	2264.44
428.069	2136.44
428.292	2062.44
428.514	2002.44
428.736	1970.44
428.958	2046.44
429.181	2019.44
429.403	2329.44
429.625	2838.44
429.847	2473.44
430.069	2055.44
430.292	2251.44
430.514	2404.44
430.736	2231.44
430.958	2307.44
431.18	2180.44
431.402	2032.44
431.624	2019.44
431.846	2010.44
432.068	1990.44
432.29	2009.44
432.512	2044.44
432.734	2059.44
432.956	2153.44
433.178	2227.44
433.4	2178.44
433.622	2171.44
433.844	2074.44
434.066	1992.44
434.287	2007.44
434.509	2062.44
434.731	2170.44
434.953	2286.44
435.175	2255.44
435.397	2146.44
435.618	2167.44
435.84	2165.44
436.062	2104.44
436.284	2128.44
436.505	2143.44
436.727	2170.44
436.949	2087.44
437.17	2071.44
437.392	2056.44
437.614	2030.44
437.835	1976.44
438.057	2111.44
438.278	2243.44
438.5	2040.44
438.721	1991.44
438.943	2012.44
439.165	2039.44
439.386	1997.44
439.608	2003.44
439.829	2040.44
440.05	2032.44
440.272	1972.44
440.493	1956.44
440.715	1994.44
440.936	2154.44
441.158	2358.44
441.379	2344.44
441.6	2237.44
441.822	2153.44
442.043	2191.44
442.264	2107.44
442.486	2044.44
442.707	2032.44
442.928	2065.44
443.149	2100.44
443.371	2224.44
443.592	2277.44
443.813	2216.44
444.034	2241.44
444.255	2261.44
444.476	2271.44
444.698	2289.44
444.919	2296.44
445.14	2387.44
445.361	2415.44
445.582	2410.44
445.803	2276.44
446.024	2211.44
446.245	2251.44
446.466	2239.44
446.687	2172.44
446.908	2130.44
447.129	2041.44
447.35	2106.44
447.571	2071.44
447.792	1970.44
448.013	1965.44
448.234	1990.44
448.455	2119.44
448.675	2146.44
448.896	1964.44
449.117	1883.44
449.338	1973.44
449.559	2109.44
449.779	2189.44
450	2394.44
450.221	2582.44
450.442	2529.44
450.662	2185.44
450.883	1945.44
451.104	1902.44
451.324	1929.44
451.545	1995.44
451.766	1957.44
451.986	1888.44
452.207	1851.44
452.428	1793.44
452.648	1827.44
452.869	1878.44
453.089	1960.44
453.31	1964.44
453.53	2031.44
453.751	1928.44
453.971	1820.44
454.192	1843.44
454.412	2016.44
454.633	1923.44
454.853	1865.44
455.073	1775.44
455.294	1738.44
455.514	1810.44
455.734	1786.44
455.955	1812.44
456.175	1812.44
456.395	1790.44
456.616	1844.44
456.836	1889.44
457.056	1832.44
457.276	1851.44
457.497	1819.44
457.717	1746.44
457.937	1817.44
458.157	1845.44
458.377	1831.44
458.598	1828.44
458.818	1816.44
459.038	1959.44
459.258	2061.44
459.478	2027.44
459.698	1987.44
459.918	2035.44
460.138	2137.44
460.358	2119.44
460.578	2153.44
460.798	2289.44
461.018	2394.44
461.238	2258.44
461.458	2169.44
461.678	2172.44
461.898	2151.44
462.118	2039.44
462.338	2110.44
462.558	2167.44
462.777	2208.44
462.997	2236.44
463.217	2397.44
463.437	2398.44
463.657	2227.44
463.876	2193.44
464.096	2175.44
464.316	2150.44
464.536	2303.44
464.755	2232.44
464.975	2271.44
465.195	2184.44
465.414	2257.44
465.634	2312.44
465.854	2150.44
466.073	2282.44
466.293	2241.44
466.512	2000.44
466.732	1986.44
466.951	2059.44
467.171	2070.44
467.391	1937.44
467.61	1911.44
467.829	1967.44
468.049	2080.44
468.268	2292.44
468.488	2182.44
468.707	2113.44
468.927	2029.44
469.146	1996.44
469.365	1939.44
469.585	1962.44
469.804	1939.44
470.023	2005.44
470.243	2008.44
470.462	1971.44
470.681	1972.44
470.901	1985.44
471.12	1976.44
471.339	1940.44
471.558	1904.44
471.777	1879.44
471.997	1917.44
472.216	1969.44
472.435	1887.44
472.654	1907.44
472.873	1945.44
473.092	2131.44
473.311	1984.44
473.53	1929.44
473.749	1876.44
473.968	1960.44
474.187	2049.44
474.406	2170.44
474.625	2049.44
474.844	1963.44
475.063	1940.44
475.282	2037.44
475.501	2037.44
475.72	1991.44
475.939	2124.44
476.158	2067.44
476.377	2001.44
476.596	2047.44
476.814	2101.44
477.033	2098.44
477.252	2211.44
477.471	2229.44
477.69	2088.44
477.908	2097.44
478.127	2169.44
478.346	2353.44
478.564	2378.44
478.783	2340.44
479.002	2422.44
479.22	2380.44
479.439	2451.44
479.658	2827.44
479.876	2758.44
480.095	2400.44
480.313	2317.44
480.532	2208.44
480.751	2260.44
480.969	2295.44
481.188	2265.44
481.406	2246.44
481.624	2189.44
481.843	2216.44
482.061	2244.44
482.28	2282.44
482.498	2329.44
482.717	2314.44
482.935	2233.44
483.153	2172.44
483.372	2219.44
483.59	2210.44
483.808	2240.44
484.027	2275.44
484.245	2400.44
484.463	2715.44
484.681	3151.44
484.9	2439.44
485.118	2282.44
485.336	2229.44
485.554	2330.44
485.772	2412.44
485.99	2355.44
486.209	2343.44
486.427	2381.44
486.645	2327.44
486.863	2316.44
487.081	2415.44
487.299	2464.44
487.517	2431.44
487.735	2300.44
487.953	2295.44
488.171	2315.44
488.389	2297.44
488.607	2257.44
488.825	2503.44
489.043	2573.44
489.261	2323.44
489.479	2402.44
489.696	2464.44
489.914	2447.44
490.132	2355.44
490.35	2282.44
490.568	2452.44
490.786	2345.44
491.003	2253.44
491.221	2294.44
491.439	2416.44
491.657	2388.44
491.874	2370.44
492.092	2427.44
492.31	2437.44
492.527	2417.44
492.745	2311.44
492.963	2346.44
493.18	2442.44
493.398	2606.44
493.615	2648.44
493.833	2424.44
494.05	2342.44
494.268	2407.44
494.485	2494.44
494.703	2423.44
494.92	2345.44
495.138	2360.44
495.355	2416.44
495.573	2481.44
495.79	2667.44
496.008	2683.44
496.225	2460.44
496.442	2513.44
496.66	2562.44
496.877	2528.44
497.094	2636.44
497.312	2665.44
497.529	2568.44
497.746	2647.44
497.963	3098.44
498.181	3490.44
498.398	3197.44
498.615	3173.44
498.832	3080.44
499.049	3016.44
499.267	3047.44
499.484	3237.44
499.701	3499.44
499.918	3603.44
500.135	3864.44
500.352	4114.44
500.569	4027.44
500.786	4248.44
501.003	3976.44
501.22	3646.44
501.437	3555.44
501.654	3535.44
501.871	3441.44
502.088	3057.44
502.305	3040.44
502.522	2905.44
502.739	2732.44
502.956	2680.44
503.172	2580.44
503.389	2577.44
503.606	2528.44
503.823	2545.44
504.04	2557.44
504.256	2576.44
504.473	2545.44
504.69	2642.44
504.907	2511.44
505.123	2390.44
505.34	2520.44
505.557	3167.44
505.773	2713.44
505.99	2322.44
506.207	2259.44
506.423	2160.44
506.64	2118.44
506.856	2151.44
507.073	2411.44
507.289	2650.44
507.506	2547.44
507.722	2195.44
507.939	2083.44
508.155	2092.44
508.372	2150.44
508.588	2078.44
508.805	2077.44
509.021	1983.44
509.238	1986.44
509.454	1962.44
509.67	1974.44
509.887	1919.44
510.103	1994.44
510.319	1993.44
510.536	2059.44
510.752	2154.44
510.968	2166.44
511.184	2254.44
511.401	2230.44
511.617	1964.44
511.833	1911.44
512.049	1932.44
512.265	1929.44
512.481	1907.44
512.698	1979.44
512.914	2113.44
513.13	2041.44
513.346	1940.44
513.562	1865.44
513.778	1913.44
513.994	2033.44
514.21	2085.44
514.426	2114.44
514.642	2281.44
514.858	2229.44
515.074	2024.44
515.29	1912.44
515.506	1981.44
515.721	2064.44
515.937	2041.44
516.153	2345.44
516.369	2251.44
516.585	2141.44
516.801	2006.44
517.016	1989.44
517.232	2066.44
517.448	2105.44
517.664	2149.44
517.879	2118.44
518.095	2202.44
518.311	2143.44
518.527	2051.44
518.742	2001.44
518.958	1944.44
519.173	1939.44
519.389	2001.44
519.605	1993.44
519.82	1982.44
520.036	1988.44
520.251	1934.44
520.467	1949.44
520.682	2154.44
520.898	2203.44
521.113	1947.44
521.329	1913.44
521.544	2086.44
521.76	2020.44
521.975	1912.44
522.19	1851.44
522.406	1852.44
522.621	2213.44
522.836	2231.44
523.052	1863.44
523.267	1829.44
523.482	1850.44
523.698	1769.44
523.913	1713.44
524.128	1764.44
524.343	1856.44
524.559	1931.44
524.774	1814.44
524.989	1761.44
525.204	1786.44
525.419	1735.44
525.634	1734.44
525.849	1760.44
526.064	1781.44
526.28	1805.44
526.495	1720.44
526.71	1685.44
526.925	1721.44
527.14	1731.44
527.355	1669.44
527.57	1637.44
527.785	1758.44
527.999	1685.44
528.214	1599.44
528.429	1615.44
528.644	1670.44
528.859	1692.44
529.074	1673.44
529.289	1663.44
529.503	1726.44
529.718	1712.44
529.933	1706.44
530.148	1559.44
530.363	1628.44
530.577	1652.44
530.792	1684.44
531.007	1710.44
531.221	1681.44
531.436	1719.44
531.651	1772.44
531.865	1842.44
532.08	1767.44
532.295	1690.44
532.509	1619.44
532.724	1605.44
532.938	1702.44
533.153	1821.44
533.367	1677.44
533.582	1693.44
533.796	1654.44
534.011	1669.44
534.225	1664.44
534.44	1632.44
534.654	1585.44
534.868	1629.44
535.083	1687.44
535.297	1692.44
535.511	1647.44
535.726	1652.44
535.94	1672.44
536.154	1632.44
536.369	1617.44
536.583	1587.44
536.797	1596.44
537.011	1639.44
537.225	1553.44
537.44	1539.44
537.654	1640.44
537.868	1571.44
538.082	1537.44
538.296	1511.44
538.51	1499.44
538.724	1497.44
538.938	1494.44
539.153	1560.44
539.367	1563.44
539.581	1576.44
539.795	1667.44
540.009	1616.44
540.222	1591.44
540.436	1613.44
540.65	1733.44
540.864	1751.44
541.078	1612.44
541.292	1541.44
541.506	1529.44
541.72	1578.44
541.934	1593.44
542.147	1622.44
542.361	1572.44
542.575	1495.44
542.789	1500.44
543.002	1469.44
543.216	1491.44
543.43	1580.44
543.644	1635.44
543.857	1714.44
544.071	1632.44
544.285	1607.44
544.498	1547.44
544.712	1520.44
544.925	1579.44
545.139	1605.44
545.352	1554.44
545.566	1488.44
545.779	1434.44
545.993	1529.44
546.206	1510.44
546.42	1451.44
546.633	1435.44
546.847	1420.44
547.06	1461.44
547.274	1463.44
547.487	1451.44
547.7	1464.44
547.914	1448.44
548.127	1495.44
548.34	1479.44
548.554	1501.44
548.767	1489.44
548.98	1504.44
549.193	1471.44
549.407	1537.44
549.62	1573.44
549.833	1482.44
550.046	1462.44
550.259	1476.44
550.473	1428.44
550.686	1456.44
550.899	1465.44
551.112	1415.44
551.325	1400.44
551.538	1441.44
551.751	1685.44
551.964	1457.44
552.177	1378.44
552.39	1389.44
552.603	1452.44
552.816	1444.44
553.029	1515.44
553.242	1538.44
553.455	1468.44
553.667	1472.44
553.88	1444.44
554.093	1463.44
554.306	1372.44
554.519	1357.44
554.732	1328.44
554.944	1356.44
555.157	1412.44
555.37	1372.44
555.583	1340.44
555.795	1344.44
556.008	1276.44
556.221	1294.44
556.433	1288.44
556.646	1300.44
556.859	1263.44
557.071	1288.44
557.284	1250.44
557.496	1256.44
557.709	1221.44
557.921	1224.44
558.134	1241.44
558.346	1220.44
558.559	1226.44
558.771	1247.44
558.984	1176.44
559.196	1181.44
559.409	1138.44
559.621	1180.44
559.833	1161.44
560.046	1223.44
560.258	1222.44
560.47	1222.44
560.683	1180.44
560.895	1196.44
561.107	1203.44
561.32	1252.44
561.532	1248.44
561.744	1182.44
561.956	1244.44
562.168	1172.44
562.381	1168.44
562.593	1158.44
562.805	1173.44
563.017	1159.44
563.229	1194.44
563.441	1215.44
563.653	1191.44
563.865	1156.44
564.077	1193.44
564.289	1199.44
564.501	1179.44
564.713	1234.44
564.925	1247.44
565.137	1305.44
565.349	1243.44
565.561	1252.44
565.773	1269.44
565.985	1244.44
566.197	1325.44
566.408	1393.44
566.62	1443.44
566.832	1393.44
567.044	1425.44
567.255	1438.44
567.467	1420.44
567.679	1472.44
567.891	1523.44
568.102	1484.44
568.314	1401.44
568.526	1384.44
568.737	1327.44
568.949	1244.44
569.161	1197.44
569.372	1134.44
569.584	1161.44
569.795	1157.44
570.007	1113.44
570.218	1087.44
570.43	1056.44
570.641	1101.44
570.853	1077.44
571.064	1058.44
571.276	1038.44
571.487	1018.44
571.698	1020.44
571.91	1000.44
572.121	1002.44
572.333	977.44
572.544	985.44
572.755	958.44
572.966	940.44
573.178	970.44
573.389	975.44
573.6	982.44
573.811	1041.44
574.023	968.44
574.234	956.44
574.445	914.44
574.656	884.44
574.867	896.44
575.078	921.44
575.289	903.44
575.501	880.44
575.712	885.44
575.923	881.44
576.134	882.44
576.345	882.44
576.556	892.44
576.767	862.44
576.978	842.44
577.188	852.44
577.399	827.44
577.61	833.44
577.821	829.44
578.032	799.44
578.243	839.44
578.454	833.44
578.665	792.44
578.875	799.44
579.086	817.44
579.297	808.44
579.508	859.44
579.718	848.44
579.929	799.44
580.14	810.44
580.35	815.44
580.561	823.44
580.772	913.44
580.982	829.44
581.193	781.44
581.403	772.44
581.614	752.44
581.825	756.44
582.035	791.44
582.246	761.44
582.456	774.44
582.667	801.44
582.877	774.44
583.087	748.44
583.298	736.44
583.508	767.44
583.719	743.44
583.929	765.44
584.139	740.44
584.35	739.44
584.56	737.44
584.77	761.44
584.981	752.44
585.191	751.44
585.401	766.44
585.611	754.44
585.821	758.44
586.032	743.44
586.242	710.44
586.452	728.44
586.662	738.44
586.872	735.44
587.082	718.44
587.292	778.44
587.502	753.44
587.713	744.44
587.923	715.44
588.133	702.44
588.343	744.44
588.553	749.44
588.762	739.44
588.972	695.44
589.182	726.44
589.392	745.44
589.602	741.44
589.812	735.44
590.022	691.44
590.232	694.44
590.441	714.44
590.651	720.44
590.861	708.44
591.071	708.44
591.281	695.44
591.49	709.44
591.7	720.44
591.91	707.44
592.119	687.44
592.329	732.44
592.539	738.44
592.748	710.44
592.958	753.44
593.167	771.44
593.377	732.44
593.587	770.44
593.796	737.44
594.006	755.44
594.215	727.44
594.424	753.44
594.634	724.44
594.843	723.44
595.053	752.44
595.262	715.44
595.472	693.44
595.681	700.44
595.89	696.44
596.1	694.44
596.309	697.44
596.518	641.44
596.727	673.44
596.937	649.44
597.146	638.44
597.355	666.44
597.564	662.44
597.774	636.44
597.983	632.44
598.192	625.44
598.401	613.44
598.61	598.44
598.819	607.44
599.028	632.44
599.237	631.44
599.446	601.44
599.655	612.44
599.864	607.44
600.073	592.44
600.282	569.44
600.491	575.44
600.7	598.44
600.909	585.44
601.118	580.44
601.327	589.44
601.536	580.44
601.745	575.44
601.953	573.44
602.162	564.44
602.371	593.44
602.58	576.44
602.789	567.44
602.997	585.44
603.206	585.44
603.415	574.44
603.623	551.44
603.832	565.44
604.041	575.44
604.249	567.44
604.458	545.44
604.666	551.44
604.875	560.44
605.084	583.44
605.292	593.44
605.501	561.44
605.709	552.44
605.918	543.44
606.126	539.44
606.334	548.44
606.543	557.44
606.751	536.44
606.96	560.44
607.168	537.44
607.376	535.44
607.585	523.44
607.793	543.44
608.001	529.44
608.21	545.44
608.418	548.44
608.626	534.44
608.834	517.44
609.043	531.44
609.251	521.44
609.459	541.44
609.667	531.44
609.875	538.44
610.083	539.44
610.291	533.44
610.499	525.44
610.707	530.44
610.916	530.44
611.124	518.44
611.332	515.44
611.54	529.44
611.748	493.44
611.955	499.44
612.163	523.44
612.371	523.44
612.579	493.44
612.787	519.44
612.995	513.44
613.203	503.44
613.411	509.44
613.618	525.44
613.826	502.44
614.034	488.44
614.242	496.44
614.449	491.44
614.657	530.44
614.865	499.44
615.072	523.44
615.28	484.44
615.488	537.44
615.695	541.44
615.903	516.44
616.111	504.44
616.318	505.44
616.526	510.44
616.733	518.44
616.941	485.44
617.148	485.44
617.356	479.44
617.563	494.44
617.771	500.44
617.978	469.44
618.185	485.44
618.393	485.44
618.6	488.44
618.807	488.44
619.015	496.44
619.222	479.44
619.429	464.44
619.637	481.44
619.844	457.44
620.051	465.44
620.258	474.44
620.466	450.44
620.673	456.44
620.88	447.44
621.087	432.44
621.294	439.44
621.501	437.44
621.708	449.44
621.915	447.44
622.122	442.44
622.329	465.44
622.536	464.44
622.743	464.44
622.95	475.44
623.157	464.44
623.364	451.44
623.571	443.44
623.778	470.44
623.985	448.44
624.192	444.44
624.399	435.44
624.606	436.44
624.812	425.44
625.019	426.44
625.226	435.44
625.433	421.44
625.639	418.44
625.846	408.44
626.053	412.44
626.259	426.44
626.466	417.44
626.673	401.44
626.879	417.44
627.086	401.44
627.293	421.44
627.499	417.44
627.706	411.44
627.912	411.44
628.119	397.44
628.325	384.44
628.532	413.44
628.738	400.44
628.945	402.44
629.151	406.44
629.357	410.44
629.564	377.44
629.77	400.44
629.976	391.44
630.183	379.44
630.389	398.44
630.595	405.44
630.802	396.44
631.008	389.44
631.214	375.44
631.42	370.44
631.627	373.44
631.833	375.44
632.039	365.44
632.245	369.44
632.451	367.44
632.657	374.44
632.863	359.44
633.069	355.44
633.275	376.44
633.481	355.44
633.688	335.44
633.893	334.44
634.099	333.44
634.305	355.44
634.511	349.44
634.717	356.44
634.923	355.44
635.129	339.44
635.335	350.44
635.541	348.44
635.747	349.44
635.952	367.44
636.158	347.44
636.364	352.44
636.57	339.44
636.775	356.44
636.981	338.44
637.187	343.44
637.392	348.44
637.598	343.44
637.804	342.44
638.009	353.44
638.215	325.44
638.421	334.44
638.626	339.44
638.832	326.44
639.037	318.44
639.243	320.44
639.448	327.44
639.654	329.44
639.859	314.44
640.065	338.44
640.27	322.44
640.475	329.44
640.681	327.44
640.886	329.44
641.091	315.44
641.297	319.44
641.502	323.44
641.707	306.44
641.913	315.44
642.118	333.44
642.323	305.44
642.528	332.44
642.733	295.44
642.939	317.44
643.144	316.44
643.349	349.44
643.554	328.44
643.759	315.44
643.964	305.44
644.169	300.44
644.374	307.44
644.579	306.44
644.784	318.44
644.989	311.44
645.194	300.44
645.399	312.44
645.604	291.44
645.809	276.44
646.014	305.44
646.219	315.44
646.423	318.44
646.628	308.44
646.833	316.44
647.038	324.44
647.243	299.44
647.447	323.44
647.652	288.44
647.857	306.44
648.062	315.44
648.266	291.44
648.471	308.44
648.676	316.44
648.88	307.44
649.085	317.44
649.289	315.44
649.494	288.44
649.698	316.44
649.903	292.44
650.107	288.44
650.312	282.44
650.516	285.44
650.721	278.44
650.925	282.44
651.13	265.44
651.334	262.44
651.539	276.44
651.743	275.44
651.947	252.44
652.152	276.44
652.356	259.44
652.56	259.44
652.764	281.44
652.969	255.44
653.173	246.44
653.377	239.44
653.581	247.44
653.785	248.44
653.99	235.44
654.194	253.44
654.398	225.44
654.602	237.44
654.806	248.44
655.01	240.44
655.214	240.44
655.418	236.44
655.622	228.44
655.826	232.44
656.03	271.44
656.234	260.44
656.438	269.44
656.642	266.44
656.846	265.44
657.049	229.44
657.253	221.44
657.457	201.44
657.661	200.44
657.865	186.44
658.068	179.44
658.272	163.44
658.476	148.44
658.68	153.44
658.883	148.44
659.087	151.44
659.291	138.44
659.494	140.44
659.698	146.44
659.901	129.44
660.105	132.44
660.309	128.44
660.512	119.44
660.716	107.44
660.919	123.44
661.123	117.44
661.326	97.44
661.53	108.44
661.733	112.44
661.936	97.44
662.14	93.44
662.343	97.44
662.546	101.44
662.75	93.44
662.953	105.44
663.156	77.44
663.36	97.44
663.563	101.44
663.766	90.44
663.969	94.44
664.173	87.44
664.376	86.44
664.579	85.44
664.782	101.44
664.985	93.44
665.188	89.44
665.391	81.44
665.594	86.44
665.797	89.44
666	92.44
666.203	88.44
666.406	88.44
666.609	79.44
666.812	68.44
667.015	75.44
667.218	84.44
667.421	92.44
667.624	84.44
667.827	80.44
668.03	86.44
668.232	66.44
668.435	74.44
668.638	87.44
668.841	92.44
669.043	84.44
669.246	77.44
669.449	94.44
669.651	103.44
669.854	60.44
670.057	76.44
670.259	83.44
670.462	82.44
670.665	75.44
670.867	75.44
671.07	104.44
671.272	80.44
671.475	89.44
671.677	83.44
671.88	81.44
672.082	86.44
672.284	76.44
672.487	92.44
672.689	88.44
672.892	80.44
