Data from WStandard_LampEnergy8_LIBS07252019.E.O._I.C._HRD10591_15-59-58-929.txt Node
Date: Thu Jul 25 15:59:58 EDT 2019
User: cochatt
Spectrometer: HR+D1059
Trigger mode: 1
Integration Time (sec): 1.000000E-1
Scans to average: 1
Electric dark correction enabled: true
Nonlinearity correction enabled: false
Boxcar width: 0
XAxis mode: Wavelengths
Number of Pixels in Spectrum: 2048
>>>>>Begin Spectral Data<<<<<
223.165	-12.94
223.4	-12.94
223.635	-12.94
223.869	-12.94
224.104	-19.94
224.338	-12.94
224.573	-21.94
224.808	-10.94
225.042	-18.94
225.277	-23.94
225.511	9.06
225.746	13.06
225.98	13.06
226.215	10.06
226.449	15.06
226.683	16.06
226.918	25.06
227.152	33.06
227.387	28.06
227.621	52.06
227.856	52.06
228.09	45.06
228.324	58.06
228.559	59.06
228.793	104.06
229.027	206.06
229.262	223.06
229.496	206.06
229.73	216.06
229.964	263.06
230.199	255.06
230.433	263.06
230.667	275.06
230.901	281.06
231.136	278.06
231.37	261.06
231.604	261.06
231.838	283.06
232.072	267.06
232.306	261.06
232.541	258.06
232.775	301.06
233.009	316.06
233.243	313.06
233.477	298.06
233.711	312.06
233.945	292.06
234.179	300.06
234.413	309.06
234.647	338.06
234.881	317.06
235.115	297.06
235.349	290.06
235.583	292.06
235.817	295.06
236.051	285.06
236.285	311.06
236.519	319.06
236.753	363.06
236.987	362.06
237.221	346.06
237.455	377.06
237.689	369.06
237.922	351.06
238.156	353.06
238.39	349.06
238.624	367.06
238.858	386.06
239.091	425.06
239.325	426.06
239.559	488.06
239.793	501.06
240.027	533.06
240.26	495.06
240.494	396.06
240.728	361.06
240.961	377.06
241.195	393.06
241.429	417.06
241.662	424.06
241.896	416.06
242.13	390.06
242.363	451.06
242.597	435.06
242.83	438.06
243.064	447.06
243.298	491.06
243.531	461.06
243.765	470.06
243.998	440.06
244.232	417.06
244.465	418.06
244.699	412.06
244.932	462.06
245.166	507.06
245.399	466.06
245.633	454.06
245.866	438.06
246.099	463.06
246.333	486.06
246.566	499.06
246.8	537.06
247.033	573.06
247.266	531.06
247.5	504.06
247.733	507.06
247.966	590.06
248.2	610.06
248.433	619.06
248.666	610.06
248.899	674.06
249.133	717.06
249.366	813.06
249.599	678.06
249.832	587.06
250.066	613.06
250.299	645.06
250.532	582.06
250.765	548.06
250.998	569.06
251.231	590.06
251.465	611.06
251.698	569.06
251.931	565.06
252.164	563.06
252.397	610.06
252.63	610.06
252.863	534.06
253.096	564.06
253.329	558.06
253.562	555.06
253.795	622.06
254.028	618.06
254.261	598.06
254.494	578.06
254.727	542.06
254.96	588.06
255.193	647.06
255.426	704.06
255.659	758.06
255.892	802.06
256.124	692.06
256.357	649.06
256.59	692.06
256.823	703.06
257.056	687.06
257.289	819.06
257.521	885.06
257.754	821.06
257.987	795.06
258.22	833.06
258.452	803.06
258.685	683.06
258.918	677.06
259.151	666.06
259.383	625.06
259.616	603.06
259.849	627.06
260.081	691.06
260.314	760.06
260.547	806.06
260.779	819.06
261.012	754.06
261.244	695.06
261.477	645.06
261.71	687.06
261.942	698.06
262.175	673.06
262.407	680.06
262.64	650.06
262.872	634.06
263.105	629.06
263.337	636.06
263.57	630.06
263.802	605.06
264.035	596.06
264.267	570.06
264.499	571.06
264.732	637.06
264.964	707.06
265.197	672.06
265.429	689.06
265.661	793.06
265.894	850.06
266.126	841.06
266.358	789.06
266.591	811.06
266.823	859.06
267.055	780.06
267.287	777.06
267.52	745.06
267.752	748.06
267.984	749.06
268.216	781.06
268.448	825.06
268.681	785.06
268.913	729.06
269.145	701.06
269.377	707.06
269.609	789.06
269.841	856.06
270.073	1023.06
270.306	1081.06
270.538	1065.06
270.77	940.06
271.002	821.06
271.234	801.06
271.466	783.06
271.698	903.06
271.93	1031.06
272.162	1036.06
272.394	938.06
272.626	883.06
272.858	780.06
273.09	709.06
273.322	689.06
273.553	671.06
273.785	695.06
274.017	719.06
274.249	749.06
274.481	765.06
274.713	710.06
274.945	686.06
275.176	701.06
275.408	700.06
275.64	671.06
275.872	661.06
276.104	761.06
276.335	826.06
276.567	921.06
276.799	916.06
277.031	826.06
277.262	809.06
277.494	828.06
277.726	919.06
277.957	866.06
278.189	836.06
278.421	747.06
278.652	765.06
278.884	724.06
279.115	725.06
279.347	759.06
279.579	741.06
279.81	739.06
280.042	822.06
280.273	892.06
280.505	903.06
280.736	875.06
280.968	833.06
281.199	711.06
281.431	691.06
281.662	726.06
281.894	707.06
282.125	729.06
282.356	779.06
282.588	785.06
282.819	777.06
283.051	842.06
283.282	872.06
283.513	856.06
283.745	753.06
283.976	730.06
284.207	724.06
284.439	766.06
284.67	750.06
284.901	799.06
285.132	782.06
285.364	776.06
285.595	762.06
285.826	778.06
286.057	746.06
286.288	757.06
286.52	793.06
286.751	811.06
286.982	870.06
287.213	769.06
287.444	723.06
287.675	746.06
287.906	784.06
288.138	810.06
288.369	780.06
288.6	771.06
288.831	718.06
289.062	744.06
289.293	751.06
289.524	757.06
289.755	793.06
289.986	791.06
290.217	750.06
290.448	749.06
290.679	780.06
290.91	770.06
291.141	784.06
291.371	844.06
291.602	814.06
291.833	827.06
292.064	837.06
292.295	814.06
292.526	844.06
292.757	860.06
292.987	823.06
293.218	810.06
293.449	870.06
293.68	951.06
293.91	1011.06
294.141	952.06
294.372	909.06
294.603	915.06
294.833	995.06
295.064	895.06
295.295	830.06
295.525	793.06
295.756	750.06
295.987	733.06
296.217	748.06
296.448	774.06
296.679	771.06
296.909	797.06
297.14	738.06
297.37	782.06
297.601	821.06
297.831	881.06
298.062	889.06
298.292	812.06
298.523	809.06
298.753	802.06
298.984	783.06
299.214	839.06
299.445	824.06
299.675	849.06
299.905	833.06
300.136	807.06
300.366	770.06
300.597	773.06
300.827	798.06
301.057	805.06
301.288	864.06
301.518	822.06
301.748	843.06
301.979	902.06
302.209	933.06
302.439	966.06
302.669	998.06
302.9	946.06
303.13	854.06
303.36	854.06
303.59	868.06
303.82	834.06
304.051	854.06
304.281	869.06
304.511	890.06
304.741	919.06
304.971	1050.06
305.201	1043.06
305.431	963.06
305.661	826.06
305.891	743.06
306.121	737.06
306.352	829.06
306.582	835.06
306.812	891.06
307.042	953.06
307.272	959.06
307.502	989.06
307.731	1084.06
307.961	1076.06
308.191	996.06
308.421	900.06
308.651	823.06
308.881	842.06
309.111	835.06
309.341	814.06
309.571	820.06
309.8	789.06
310.03	821.06
310.26	794.06
310.49	831.06
310.72	859.06
310.949	881.06
311.179	893.06
311.409	846.06
311.639	833.06
311.868	831.06
312.098	842.06
312.328	852.06
312.557	822.06
312.787	850.06
313.017	879.06
313.246	867.06
313.476	872.06
313.706	881.06
313.935	855.06
314.165	872.06
314.394	908.06
314.624	959.06
314.853	1033.06
315.083	1034.06
315.312	1023.06
315.542	970.06
315.771	898.06
316.001	908.06
316.23	962.06
316.46	936.06
316.689	952.06
316.919	879.06
317.148	890.06
317.377	883.06
317.607	966.06
317.836	1032.06
318.065	1084.06
318.295	1038.06
318.524	993.06
318.753	973.06
318.983	949.06
319.212	949.06
319.441	910.06
319.67	910.06
319.9	948.06
320.129	984.06
320.358	1026.06
320.587	1049.06
320.816	1011.06
321.046	978.06
321.275	957.06
321.504	985.06
321.733	1048.06
321.962	997.06
322.191	941.06
322.42	924.06
322.649	918.06
322.878	954.06
323.108	931.06
323.337	967.06
323.566	983.06
323.795	955.06
324.024	953.06
324.253	942.06
324.482	937.06
324.71	894.06
324.939	859.06
325.168	899.06
325.397	919.06
325.626	960.06
325.855	933.06
326.084	925.06
326.313	950.06
326.542	947.06
326.77	981.06
326.999	987.06
327.228	929.06
327.457	897.06
327.686	911.06
327.914	909.06
328.143	956.06
328.372	960.06
328.6	933.06
328.829	903.06
329.058	900.06
329.287	906.06
329.515	972.06
329.744	974.06
329.972	1017.06
330.201	1004.06
330.43	982.06
330.658	991.06
330.887	993.06
331.115	954.06
331.344	974.06
331.572	960.06
331.801	982.06
332.03	995.06
332.258	983.06
332.486	982.06
332.715	996.06
332.943	999.06
333.172	986.06
333.4	1019.06
333.629	1028.06
333.857	1105.06
334.085	1213.06
334.314	1373.06
334.542	1408.06
334.771	1289.06
334.999	1150.06
335.227	1095.06
335.455	1047.06
335.684	1056.06
335.912	1090.06
336.14	1125.06
336.369	1046.06
336.597	992.06
336.825	970.06
337.053	1041.06
337.281	1103.06
337.51	1142.06
337.738	1152.06
337.966	1077.06
338.194	1033.06
338.422	1003.06
338.65	940.06
338.878	969.06
339.106	937.06
339.334	932.06
339.562	921.06
339.79	965.06
340.018	1012.06
340.246	1047.06
340.474	1045.06
340.702	1041.06
340.93	1027.06
341.158	1028.06
341.386	961.06
341.614	963.06
341.842	995.06
342.07	976.06
342.298	1004.06
342.526	1012.06
342.754	950.06
342.981	969.06
343.209	970.06
343.437	987.06
343.665	966.06
343.893	1015.06
344.12	1062.06
344.348	1039.06
344.576	984.06
344.804	975.06
345.031	976.06
345.259	972.06
345.487	952.06
345.714	908.06
345.942	892.06
346.17	894.06
346.397	935.06
346.625	925.06
346.853	897.06
347.08	889.06
347.308	890.06
347.535	934.06
347.763	926.06
347.99	901.06
348.218	915.06
348.445	906.06
348.673	934.06
348.9	934.06
349.128	962.06
349.355	987.06
349.583	981.06
349.81	928.06
350.037	849.06
350.265	847.06
350.492	878.06
350.72	907.06
350.947	936.06
351.174	931.06
351.402	907.06
351.629	880.06
351.856	847.06
352.083	861.06
352.311	894.06
352.538	931.06
352.765	928.06
352.992	939.06
353.22	929.06
353.447	884.06
353.674	911.06
353.901	919.06
354.128	895.06
354.355	902.06
354.583	971.06
354.81	955.06
355.037	955.06
355.264	940.06
355.491	923.06
355.718	942.06
355.945	922.06
356.172	905.06
356.399	899.06
356.626	905.06
356.853	939.06
357.08	1029.06
357.307	1085.06
357.534	1062.06
357.761	934.06
357.988	917.06
358.215	851.06
358.441	887.06
358.668	901.06
358.895	905.06
359.122	961.06
359.349	1057.06
359.576	996.06
359.802	902.06
360.029	905.06
360.256	914.06
360.483	906.06
360.709	973.06
360.936	1001.06
361.163	1020.06
361.39	1117.06
361.616	1169.06
361.843	1150.06
362.07	1086.06
362.296	935.06
362.523	917.06
362.749	910.06
362.976	939.06
363.203	941.06
363.429	927.06
363.656	906.06
363.882	926.06
364.109	1055.06
364.335	1089.06
364.562	1017.06
364.788	968.06
365.015	934.06
365.241	923.06
365.468	951.06
365.694	974.06
365.92	1030.06
366.147	925.06
366.373	911.06
366.599	895.06
366.826	899.06
367.052	909.06
367.278	917.06
367.505	915.06
367.731	954.06
367.957	931.06
368.184	960.06
368.41	1063.06
368.636	1053.06
368.862	1076.06
369.089	1076.06
369.315	979.06
369.541	970.06
369.767	934.06
369.993	910.06
370.219	901.06
370.445	962.06
370.672	1026.06
370.898	1034.06
371.124	1042.06
371.35	1006.06
371.576	1036.06
371.802	1045.06
372.028	1034.06
372.254	966.06
372.48	938.06
372.706	920.06
372.932	917.06
373.158	973.06
373.384	981.06
373.61	1003.06
373.835	1021.06
374.061	993.06
374.287	955.06
374.513	964.06
374.739	991.06
374.965	988.06
375.191	999.06
375.416	995.06
375.642	1032.06
375.868	1089.06
376.094	1102.06
376.319	1041.06
376.545	996.06
376.771	1046.06
376.997	1079.06
377.222	1057.06
377.448	1029.06
377.674	1041.06
377.899	1067.06
378.125	1097.06
378.35	1052.06
378.576	996.06
378.802	955.06
379.027	975.06
379.253	985.06
379.478	995.06
379.704	1011.06
379.929	960.06
380.155	994.06
380.38	1012.06
380.606	1016.06
380.831	1015.06
381.057	1060.06
381.282	1045.06
381.507	1024.06
381.733	1102.06
381.958	1168.06
382.184	1065.06
382.409	1013.06
382.634	1058.06
382.86	1053.06
383.085	1032.06
383.31	1090.06
383.535	1157.06
383.761	1226.06
383.986	1144.06
384.211	1144.06
384.436	1105.06
384.662	1168.06
384.887	1190.06
385.112	1148.06
385.337	1150.06
385.562	1121.06
385.787	1116.06
386.013	1155.06
386.238	1149.06
386.463	1150.06
386.688	1247.06
386.913	1309.06
387.138	1225.06
387.363	1187.06
387.588	1167.06
387.813	1152.06
388.038	1187.06
388.263	1230.06
388.488	1171.06
388.713	1053.06
388.938	1086.06
389.163	1102.06
389.387	1103.06
389.612	1092.06
389.837	1109.06
390.062	1110.06
390.287	1138.06
390.512	1140.06
390.736	1116.06
390.961	1114.06
391.186	1058.06
391.411	1083.06
391.636	1101.06
391.86	1139.06
392.085	1095.06
392.31	1104.06
392.534	1144.06
392.759	1124.06
392.984	1117.06
393.208	1140.06
393.433	1153.06
393.658	1207.06
393.882	1241.06
394.107	1147.06
394.331	1131.06
394.556	1102.06
394.78	1136.06
395.005	1171.06
395.229	1229.06
395.454	1307.06
395.678	1315.06
395.903	1228.06
396.127	1185.06
396.352	1223.06
396.576	1247.06
396.801	1234.06
397.025	1241.06
397.249	1230.06
397.474	1240.06
397.698	1226.06
397.922	1271.06
398.147	1319.06
398.371	1315.06
398.595	1337.06
398.82	1301.06
399.044	1349.06
399.268	1359.06
399.492	1428.06
399.717	1494.06
399.941	1510.06
400.165	1441.06
400.389	1448.06
400.613	1427.06
400.837	1654.06
401.062	1815.06
401.286	1521.06
401.51	1457.06
401.734	1476.06
401.958	1402.06
402.182	1306.06
402.406	1270.06
402.63	1252.06
402.854	1284.06
403.078	1290.06
403.302	1295.06
403.526	1338.06
403.75	1319.06
403.974	1349.06
404.198	1298.06
404.422	1436.06
404.645	1491.06
404.869	1418.06
405.093	1313.06
405.317	1309.06
405.541	1318.06
405.765	1352.06
405.988	1397.06
406.212	1365.06
406.436	1355.06
406.66	1418.06
406.883	1511.06
407.107	1683.06
407.331	1753.06
407.555	1894.06
407.778	1691.06
408.002	1431.06
408.226	1374.06
408.449	1401.06
408.673	1349.06
408.896	1369.06
409.12	1406.06
409.344	1378.06
409.567	1341.06
409.791	1360.06
410.014	1417.06
410.238	1463.06
410.461	1526.06
410.685	1374.06
410.908	1345.06
411.132	1341.06
411.355	1334.06
411.578	1338.06
411.802	1342.06
412.025	1362.06
412.249	1318.06
412.472	1301.06
412.695	1305.06
412.919	1304.06
413.142	1285.06
413.365	1324.06
413.589	1307.06
413.812	1413.06
414.035	1432.06
414.258	1315.06
414.482	1294.06
414.705	1301.06
414.928	1292.06
415.151	1275.06
415.374	1286.06
415.597	1334.06
415.821	1311.06
416.044	1357.06
416.267	1360.06
416.49	1235.06
416.713	1271.06
416.936	1311.06
417.159	1395.06
417.382	1369.06
417.605	1305.06
417.828	1316.06
418.051	1326.06
418.274	1323.06
418.497	1270.06
418.72	1288.06
418.943	1301.06
419.166	1360.06
419.389	1360.06
419.611	1310.06
419.834	1288.06
420.057	1287.06
420.28	1261.06
420.503	1303.06
420.726	1313.06
420.948	1316.06
421.171	1284.06
421.394	1301.06
421.617	1353.06
421.839	1323.06
422.062	1314.06
422.285	1286.06
422.507	1226.06
422.73	1256.06
422.953	1203.06
423.175	1230.06
423.398	1256.06
423.621	1273.06
423.843	1282.06
424.066	1335.06
424.288	1372.06
424.511	1435.06
424.733	1360.06
424.956	1235.06
425.178	1238.06
425.401	1253.06
425.623	1283.06
425.846	1261.06
426.068	1331.06
426.291	1317.06
426.513	1301.06
426.735	1325.06
426.958	1386.06
427.18	1482.06
427.402	1375.06
427.625	1452.06
427.847	1356.06
428.069	1265.06
428.292	1260.06
428.514	1201.06
428.736	1213.06
428.958	1244.06
429.181	1272.06
429.403	1461.06
429.625	1719.06
429.847	1483.06
430.069	1301.06
430.292	1441.06
430.514	1454.06
430.736	1357.06
430.958	1385.06
431.18	1287.06
431.402	1217.06
431.624	1186.06
431.846	1173.06
432.068	1131.06
432.29	1139.06
432.512	1179.06
432.734	1220.06
432.956	1278.06
433.178	1303.06
433.4	1295.06
433.622	1262.06
433.844	1237.06
434.066	1178.06
434.287	1167.06
434.509	1227.06
434.731	1303.06
434.953	1384.06
435.175	1344.06
435.397	1301.06
435.618	1247.06
435.84	1247.06
436.062	1228.06
436.284	1241.06
436.505	1277.06
436.727	1326.06
436.949	1279.06
437.17	1252.06
437.392	1243.06
437.614	1197.06
437.835	1159.06
438.057	1254.06
438.278	1267.06
438.5	1212.06
438.721	1226.06
438.943	1223.06
439.165	1242.06
439.386	1215.06
439.608	1246.06
439.829	1211.06
440.05	1257.06
440.272	1258.06
440.493	1215.06
440.715	1272.06
440.936	1368.06
441.158	1444.06
441.379	1412.06
441.6	1344.06
441.822	1335.06
442.043	1335.06
442.264	1324.06
442.486	1261.06
442.707	1285.06
442.928	1257.06
443.149	1292.06
443.371	1309.06
443.592	1385.06
443.813	1404.06
444.034	1365.06
444.255	1310.06
444.476	1403.06
444.698	1422.06
444.919	1431.06
445.14	1496.06
445.361	1436.06
445.582	1463.06
445.803	1390.06
446.024	1377.06
446.245	1396.06
446.466	1371.06
446.687	1308.06
446.908	1329.06
447.129	1285.06
447.35	1314.06
447.571	1299.06
447.792	1227.06
448.013	1236.06
448.234	1210.06
448.455	1301.06
448.675	1331.06
448.896	1184.06
449.117	1205.06
449.338	1223.06
449.559	1245.06
449.779	1337.06
450	1394.06
450.221	1485.06
450.442	1453.06
450.662	1270.06
450.883	1214.06
451.104	1147.06
451.324	1197.06
451.545	1218.06
451.766	1175.06
451.986	1140.06
452.207	1121.06
452.428	1097.06
452.648	1053.06
452.869	1143.06
453.089	1139.06
453.31	1132.06
453.53	1173.06
453.751	1131.06
453.971	1049.06
454.192	1082.06
454.412	1150.06
454.633	1143.06
454.853	1113.06
455.073	1047.06
455.294	1077.06
455.514	1063.06
455.734	1067.06
455.955	1087.06
456.175	1037.06
456.395	1073.06
456.616	1049.06
456.836	1096.06
457.056	1078.06
457.276	1052.06
457.497	1051.06
457.717	1014.06
457.937	1054.06
458.157	1099.06
458.377	1054.06
458.598	1039.06
458.818	1057.06
459.038	1101.06
459.258	1148.06
459.478	1147.06
459.698	1118.06
459.918	1124.06
460.138	1212.06
460.358	1248.06
460.578	1223.06
460.798	1260.06
461.018	1348.06
461.238	1294.06
461.458	1244.06
461.678	1247.06
461.898	1228.06
462.118	1212.06
462.338	1217.06
462.558	1247.06
462.777	1264.06
462.997	1321.06
463.217	1383.06
463.437	1336.06
463.657	1299.06
463.876	1249.06
464.096	1237.06
464.316	1236.06
464.536	1284.06
464.755	1285.06
464.975	1312.06
465.195	1276.06
465.414	1319.06
465.634	1351.06
465.854	1288.06
466.073	1402.06
466.293	1353.06
466.512	1205.06
466.732	1188.06
466.951	1225.06
467.171	1222.06
467.391	1229.06
467.61	1180.06
467.829	1211.06
468.049	1365.06
468.268	1438.06
468.488	1325.06
468.707	1279.06
468.927	1234.06
469.146	1202.06
469.365	1217.06
469.585	1240.06
469.804	1243.06
470.023	1212.06
470.243	1235.06
470.462	1233.06
470.681	1222.06
470.901	1224.06
471.12	1197.06
471.339	1226.06
471.558	1226.06
471.777	1177.06
471.997	1198.06
472.216	1190.06
472.435	1115.06
472.654	1147.06
472.873	1165.06
473.092	1240.06
473.311	1189.06
473.53	1132.06
473.749	1155.06
473.968	1160.06
474.187	1226.06
474.406	1234.06
474.625	1206.06
474.844	1173.06
475.063	1179.06
475.282	1239.06
475.501	1175.06
475.72	1186.06
475.939	1315.06
476.158	1239.06
476.377	1211.06
476.596	1189.06
476.814	1165.06
477.033	1219.06
477.252	1242.06
477.471	1271.06
477.69	1280.06
477.908	1266.06
478.127	1348.06
478.346	1400.06
478.564	1421.06
478.783	1398.06
479.002	1428.06
479.22	1405.06
479.439	1467.06
479.658	1563.06
479.876	1509.06
480.095	1352.06
480.313	1348.06
480.532	1303.06
480.751	1270.06
480.969	1303.06
481.188	1311.06
481.406	1256.06
481.624	1228.06
481.843	1277.06
482.061	1283.06
482.28	1301.06
482.498	1327.06
482.717	1298.06
482.935	1306.06
483.153	1339.06
483.372	1386.06
483.59	1365.06
483.808	1342.06
484.027	1379.06
484.245	1444.06
484.463	1708.06
484.681	1875.06
484.9	1477.06
485.118	1387.06
485.336	1325.06
485.554	1348.06
485.772	1435.06
485.99	1353.06
486.209	1391.06
486.427	1362.06
486.645	1385.06
486.863	1442.06
487.081	1477.06
487.299	1441.06
487.517	1465.06
487.735	1486.06
487.953	1489.06
488.171	1524.06
488.389	1471.06
488.607	1468.06
488.825	1591.06
489.043	1550.06
489.261	1381.06
489.479	1498.06
489.696	1473.06
489.914	1469.06
490.132	1412.06
490.35	1438.06
490.568	1503.06
490.786	1494.06
491.003	1457.06
491.221	1524.06
491.439	1568.06
491.657	1601.06
491.874	1597.06
492.092	1677.06
492.31	1697.06
492.527	1690.06
492.745	1624.06
492.963	1562.06
493.18	1614.06
493.398	1689.06
493.615	1671.06
493.833	1608.06
494.05	1544.06
494.268	1552.06
494.485	1579.06
494.703	1561.06
494.92	1539.06
495.138	1546.06
495.355	1563.06
495.573	1601.06
495.79	1677.06
496.008	1675.06
496.225	1606.06
496.442	1602.06
496.66	1598.06
496.877	1580.06
497.094	1615.06
497.312	1625.06
497.529	1614.06
497.746	1672.06
497.963	1859.06
498.181	1962.06
498.398	1847.06
498.615	1841.06
498.832	1789.06
499.049	1753.06
499.267	1748.06
499.484	1931.06
499.701	2007.06
499.918	2054.06
500.135	2217.06
500.352	2358.06
500.569	2337.06
500.786	2501.06
501.003	2300.06
501.22	2122.06
501.437	2013.06
501.654	2090.06
501.871	1963.06
502.088	1767.06
502.305	1774.06
502.522	1676.06
502.739	1614.06
502.956	1560.06
503.172	1513.06
503.389	1521.06
503.606	1452.06
503.823	1475.06
504.04	1492.06
504.256	1454.06
504.473	1489.06
504.69	1532.06
504.907	1450.06
505.123	1442.06
505.34	1552.06
505.557	1990.06
505.773	1616.06
505.99	1361.06
506.207	1321.06
506.423	1295.06
506.64	1305.06
506.856	1310.06
507.073	1470.06
507.289	1557.06
507.506	1506.06
507.722	1297.06
507.939	1245.06
508.155	1237.06
508.372	1258.06
508.588	1201.06
508.805	1179.06
509.021	1161.06
509.238	1153.06
509.454	1149.06
509.67	1167.06
509.887	1129.06
510.103	1141.06
510.319	1161.06
510.536	1218.06
510.752	1234.06
510.968	1235.06
511.184	1270.06
511.401	1221.06
511.617	1110.06
511.833	1067.06
512.049	1087.06
512.265	1086.06
512.481	1076.06
512.698	1128.06
512.914	1192.06
513.13	1187.06
513.346	1085.06
513.562	1099.06
513.778	1088.06
513.994	1162.06
514.21	1165.06
514.426	1241.06
514.642	1291.06
514.858	1238.06
515.074	1130.06
515.29	1121.06
515.506	1145.06
515.721	1144.06
515.937	1195.06
516.153	1282.06
516.369	1250.06
516.585	1195.06
516.801	1150.06
517.016	1155.06
517.232	1172.06
517.448	1241.06
517.664	1238.06
517.879	1217.06
518.095	1304.06
518.311	1212.06
518.527	1164.06
518.742	1159.06
518.958	1133.06
519.173	1142.06
519.389	1165.06
519.605	1149.06
519.82	1165.06
520.036	1179.06
520.251	1136.06
520.467	1153.06
520.682	1243.06
520.898	1248.06
521.113	1147.06
521.329	1112.06
521.544	1159.06
521.76	1140.06
521.975	1081.06
522.19	1107.06
522.406	1128.06
522.621	1342.06
522.836	1294.06
523.052	1089.06
523.267	1093.06
523.482	1111.06
523.698	1087.06
523.913	1081.06
524.128	1097.06
524.343	1130.06
524.559	1156.06
524.774	1099.06
524.989	1083.06
525.204	1048.06
525.419	1050.06
525.634	1062.06
525.849	1088.06
526.064	1032.06
526.28	1078.06
526.495	1002.06
526.71	998.06
526.925	993.06
527.14	984.06
527.355	947.06
527.57	971.06
527.785	1025.06
527.999	996.06
528.214	993.06
528.429	967.06
528.644	1034.06
528.859	1057.06
529.074	1080.06
529.289	1094.06
529.503	1103.06
529.718	1061.06
529.933	1004.06
530.148	933.06
530.363	969.06
530.577	973.06
530.792	982.06
531.007	963.06
531.221	975.06
531.436	1002.06
531.651	1025.06
531.865	1054.06
532.08	1012.06
532.295	945.06
532.509	936.06
532.724	967.06
532.938	1000.06
533.153	1068.06
533.367	1004.06
533.582	1025.06
533.796	997.06
534.011	1047.06
534.225	1014.06
534.44	950.06
534.654	983.06
534.868	942.06
535.083	1031.06
535.297	1044.06
535.511	1009.06
535.726	979.06
535.94	996.06
536.154	949.06
536.369	951.06
536.583	925.06
536.797	936.06
537.011	961.06
537.225	903.06
537.44	925.06
537.654	965.06
537.868	922.06
538.082	907.06
538.296	908.06
538.51	901.06
538.724	945.06
538.938	977.06
539.153	1007.06
539.367	991.06
539.581	980.06
539.795	973.06
540.009	958.06
540.222	958.06
540.436	959.06
540.65	1070.06
540.864	1075.06
541.078	1051.06
541.292	1028.06
541.506	1055.06
541.72	1119.06
541.934	1159.06
542.147	1164.06
542.361	1128.06
542.575	1053.06
542.789	1017.06
543.002	976.06
543.216	982.06
543.43	1001.06
543.644	1058.06
543.857	1092.06
544.071	1095.06
544.285	1098.06
544.498	1092.06
544.712	1129.06
544.925	1071.06
545.139	1108.06
545.352	1077.06
545.566	1062.06
545.779	1048.06
545.993	1069.06
546.206	1082.06
546.42	1090.06
546.633	1071.06
546.847	1049.06
547.06	1022.06
547.274	1092.06
547.487	1084.06
547.7	1081.06
547.914	1100.06
548.127	1104.06
548.34	1083.06
548.554	1041.06
548.767	1062.06
548.98	1059.06
549.193	1036.06
549.407	1106.06
549.62	1107.06
549.833	1079.06
550.046	1036.06
550.259	1053.06
550.473	1000.06
550.686	1028.06
550.899	1023.06
551.112	989.06
551.325	970.06
551.538	1033.06
551.751	1125.06
551.964	910.06
552.177	913.06
552.39	964.06
552.603	1012.06
552.816	1031.06
553.029	1034.06
553.242	1109.06
553.455	1042.06
553.667	1043.06
553.88	1056.06
554.093	1012.06
554.306	980.06
554.519	981.06
554.732	955.06
554.944	965.06
555.157	977.06
555.37	935.06
555.583	965.06
555.795	955.06
556.008	899.06
556.221	861.06
556.433	864.06
556.646	899.06
556.859	857.06
557.071	889.06
557.284	876.06
557.496	859.06
557.709	853.06
557.921	866.06
558.134	865.06
558.346	832.06
558.559	853.06
558.771	832.06
558.984	811.06
559.196	821.06
559.409	785.06
559.621	835.06
559.833	837.06
560.046	833.06
560.258	826.06
560.47	814.06
560.683	833.06
560.895	823.06
561.107	827.06
561.32	827.06
561.532	835.06
561.744	834.06
561.956	805.06
562.168	782.06
562.381	783.06
562.593	746.06
562.805	784.06
563.017	782.06
563.229	801.06
563.441	804.06
563.653	777.06
563.865	780.06
564.077	783.06
564.289	771.06
564.501	787.06
564.713	807.06
564.925	842.06
565.137	881.06
565.349	793.06
565.561	796.06
565.773	790.06
565.985	820.06
566.197	840.06
566.408	903.06
566.62	890.06
566.832	883.06
567.044	898.06
567.255	883.06
567.467	906.06
567.679	921.06
567.891	920.06
568.102	886.06
568.314	865.06
568.526	795.06
568.737	789.06
568.949	748.06
569.161	702.06
569.372	681.06
569.584	691.06
569.795	694.06
570.007	684.06
570.218	659.06
570.43	656.06
570.641	637.06
570.853	665.06
571.064	668.06
571.276	660.06
571.487	652.06
571.698	637.06
571.91	634.06
572.121	626.06
572.333	611.06
572.544	625.06
572.755	586.06
572.966	573.06
573.178	570.06
573.389	585.06
573.6	613.06
573.811	646.06
574.023	618.06
574.234	577.06
574.445	571.06
574.656	554.06
574.867	545.06
575.078	562.06
575.289	579.06
575.501	554.06
575.712	557.06
575.923	553.06
576.134	573.06
576.345	557.06
576.556	525.06
576.767	540.06
576.978	530.06
577.188	533.06
577.399	515.06
577.61	509.06
577.821	529.06
578.032	511.06
578.243	533.06
578.454	487.06
578.665	517.06
578.875	509.06
579.086	523.06
579.297	508.06
579.508	535.06
579.718	515.06
579.929	501.06
580.14	498.06
580.35	466.06
580.561	511.06
580.772	539.06
580.982	516.06
581.193	490.06
581.403	491.06
581.614	485.06
581.825	487.06
582.035	476.06
582.246	485.06
582.456	482.06
582.667	486.06
582.877	470.06
583.087	469.06
583.298	470.06
583.508	450.06
583.719	474.06
583.929	502.06
584.139	469.06
584.35	467.06
584.56	445.06
584.77	456.06
584.981	474.06
585.191	473.06
585.401	490.06
585.611	465.06
585.821	466.06
586.032	450.06
586.242	449.06
586.452	447.06
586.662	460.06
586.872	442.06
587.082	442.06
587.292	454.06
587.502	463.06
587.713	455.06
587.923	456.06
588.133	468.06
588.343	461.06
588.553	445.06
588.762	436.06
588.972	461.06
589.182	454.06
589.392	457.06
589.602	456.06
589.812	437.06
590.022	442.06
590.232	430.06
590.441	465.06
590.651	451.06
590.861	449.06
591.071	433.06
591.281	442.06
591.49	454.06
591.7	444.06
591.91	437.06
592.119	454.06
592.329	462.06
592.539	462.06
592.748	460.06
592.958	446.06
593.167	456.06
593.377	465.06
593.587	466.06
593.796	465.06
594.006	454.06
594.215	455.06
594.424	472.06
594.634	455.06
594.843	464.06
595.053	463.06
595.262	438.06
595.472	455.06
595.681	440.06
595.89	425.06
596.1	426.06
596.309	437.06
596.518	437.06
596.727	447.06
596.937	425.06
597.146	429.06
597.355	412.06
597.564	413.06
597.774	407.06
597.983	392.06
598.192	401.06
598.401	391.06
598.61	390.06
598.819	415.06
599.028	403.06
599.237	394.06
599.446	393.06
599.655	392.06
599.864	386.06
600.073	394.06
600.282	391.06
600.491	392.06
600.7	403.06
600.909	385.06
601.118	389.06
601.327	419.06
601.536	419.06
601.745	424.06
601.953	425.06
602.162	431.06
602.371	422.06
602.58	430.06
602.789	427.06
602.997	394.06
603.206	414.06
603.415	395.06
603.623	410.06
603.832	394.06
604.041	402.06
604.249	394.06
604.458	370.06
604.666	377.06
604.875	368.06
605.084	404.06
605.292	405.06
605.501	406.06
605.709	425.06
605.918	389.06
606.126	404.06
606.334	397.06
606.543	401.06
606.751	424.06
606.96	408.06
607.168	394.06
607.376	406.06
607.585	386.06
607.793	395.06
608.001	408.06
608.21	401.06
608.418	400.06
608.626	403.06
608.834	411.06
609.043	395.06
609.251	394.06
609.459	417.06
609.667	410.06
609.875	399.06
610.083	411.06
610.291	412.06
610.499	405.06
610.707	423.06
610.916	388.06
611.124	374.06
611.332	391.06
611.54	386.06
611.748	362.06
611.955	377.06
612.163	381.06
612.371	386.06
612.579	385.06
612.787	393.06
612.995	387.06
613.203	405.06
613.411	405.06
613.618	393.06
613.826	397.06
614.034	400.06
614.242	388.06
614.449	392.06
614.657	405.06
614.865	390.06
615.072	389.06
615.28	377.06
615.488	378.06
615.695	417.06
615.903	398.06
616.111	379.06
616.318	378.06
616.526	392.06
616.733	393.06
616.941	381.06
617.148	386.06
617.356	384.06
617.563	367.06
617.771	377.06
617.978	379.06
618.185	380.06
618.393	364.06
618.6	390.06
618.807	354.06
619.015	385.06
619.222	372.06
619.429	381.06
619.637	349.06
619.844	361.06
620.051	355.06
620.258	356.06
620.466	358.06
620.673	341.06
620.88	339.06
621.087	339.06
621.294	353.06
621.501	345.06
621.708	359.06
621.915	358.06
622.122	369.06
622.329	344.06
622.536	347.06
622.743	352.06
622.95	363.06
623.157	341.06
623.364	342.06
623.571	326.06
623.778	346.06
623.985	369.06
624.192	343.06
624.399	337.06
624.606	319.06
624.812	330.06
625.019	340.06
625.226	336.06
625.433	327.06
625.639	318.06
625.846	303.06
626.053	293.06
626.259	294.06
626.466	311.06
626.673	310.06
626.879	280.06
627.086	295.06
627.293	293.06
627.499	322.06
627.706	319.06
627.912	345.06
628.119	327.06
628.325	341.06
628.532	323.06
628.738	341.06
628.945	295.06
629.151	308.06
629.357	313.06
629.564	301.06
629.77	283.06
629.976	311.06
630.183	294.06
630.389	302.06
630.595	308.06
630.802	305.06
631.008	308.06
631.214	306.06
631.42	306.06
631.627	283.06
631.833	291.06
632.039	306.06
632.245	278.06
632.451	286.06
632.657	299.06
632.863	276.06
633.069	280.06
633.275	294.06
633.481	294.06
633.688	280.06
633.893	273.06
634.099	283.06
634.305	299.06
634.511	292.06
634.717	261.06
634.923	275.06
635.129	270.06
635.335	283.06
635.541	278.06
635.747	269.06
635.952	277.06
636.158	279.06
636.364	284.06
636.57	301.06
636.775	266.06
636.981	296.06
637.187	292.06
637.392	272.06
637.598	277.06
637.804	294.06
638.009	295.06
638.215	270.06
638.421	268.06
638.626	263.06
638.832	270.06
639.037	265.06
639.243	266.06
639.448	269.06
639.654	276.06
639.859	259.06
640.065	253.06
640.27	271.06
640.475	264.06
640.681	261.06
640.886	271.06
641.091	265.06
641.297	262.06
641.502	273.06
641.707	289.06
641.913	248.06
642.118	271.06
642.323	260.06
642.528	266.06
642.733	269.06
642.939	259.06
643.144	274.06
643.349	258.06
643.554	254.06
643.759	267.06
643.964	255.06
644.169	238.06
644.374	265.06
644.579	281.06
644.784	261.06
644.989	239.06
645.194	261.06
645.399	270.06
645.604	241.06
645.809	253.06
646.014	255.06
646.219	265.06
646.423	261.06
646.628	269.06
646.833	260.06
647.038	236.06
647.243	269.06
647.447	257.06
647.652	272.06
647.857	276.06
648.062	260.06
648.266	244.06
648.471	262.06
648.676	263.06
648.88	261.06
649.085	266.06
649.289	253.06
649.494	243.06
649.698	239.06
649.903	257.06
650.107	243.06
650.312	243.06
650.516	266.06
650.721	251.06
650.925	242.06
651.13	238.06
651.334	227.06
651.539	245.06
651.743	233.06
651.947	223.06
652.152	232.06
652.356	238.06
652.56	209.06
652.764	236.06
652.969	200.06
653.173	211.06
653.377	227.06
653.581	222.06
653.785	241.06
653.99	228.06
654.194	217.06
654.398	213.06
654.602	234.06
654.806	230.06
655.01	208.06
655.214	213.06
655.418	236.06
655.622	218.06
655.826	227.06
656.03	247.06
656.234	253.06
656.438	237.06
656.642	268.06
656.846	245.06
657.049	243.06
657.253	230.06
657.457	218.06
657.661	202.06
657.865	149.06
658.068	168.06
658.272	181.06
658.476	169.06
658.68	157.06
658.883	157.06
659.087	156.06
659.291	159.06
659.494	148.06
659.698	149.06
659.901	147.06
660.105	122.06
660.309	122.06
660.512	139.06
660.716	138.06
660.919	133.06
661.123	127.06
661.326	111.06
661.53	123.06
661.733	122.06
661.936	121.06
662.14	106.06
662.343	105.06
662.546	93.06
662.75	103.06
662.953	101.06
663.156	91.06
663.36	90.06
663.563	108.06
663.766	97.06
663.969	94.06
664.173	81.06
664.376	91.06
664.579	86.06
664.782	69.06
664.985	102.06
665.188	94.06
665.391	77.06
665.594	83.06
665.797	94.06
666	91.06
666.203	87.06
666.406	83.06
666.609	87.06
666.812	95.06
667.015	83.06
667.218	73.06
667.421	92.06
667.624	75.06
667.827	101.06
668.03	82.06
668.232	73.06
668.435	78.06
668.638	89.06
668.841	88.06
669.043	86.06
669.246	83.06
669.449	82.06
669.651	96.06
669.854	86.06
670.057	86.06
670.259	78.06
670.462	71.06
670.665	73.06
670.867	92.06
671.07	81.06
671.272	93.06
671.475	94.06
671.677	87.06
671.88	79.06
672.082	95.06
672.284	73.06
672.487	97.06
672.689	78.06
672.892	92.06
