Data from WStandard_LampEnergy10_LIBS07252019.E.O._I.C._HRD10591_15-53-26-928.txt Node
Date: Thu Jul 25 15:53:26 EDT 2019
User: cochatt
Spectrometer: HR+D1059
Trigger mode: 1
Integration Time (sec): 1.000000E-1
Scans to average: 1
Electric dark correction enabled: true
Nonlinearity correction enabled: false
Boxcar width: 0
XAxis mode: Wavelengths
Number of Pixels in Spectrum: 2048
>>>>>Begin Spectral Data<<<<<
223.165	3.62
223.4	3.62
223.635	3.62
223.869	-11.38
224.104	-25.38
224.338	-8.38
224.573	-8.38
224.808	-23.38
225.042	-18.38
225.277	3.62
225.511	2.62
225.746	7.62
225.98	4.62
226.215	9.62
226.449	15.62
226.683	-0.38
226.918	26.62
227.152	21.62
227.387	33.62
227.621	26.62
227.856	39.62
228.09	45.62
228.324	42.62
228.559	45.62
228.793	91.62
229.027	115.62
229.262	148.62
229.496	143.62
229.73	135.62
229.964	162.62
230.199	159.62
230.433	187.62
230.667	181.62
230.901	191.62
231.136	186.62
231.37	187.62
231.604	171.62
231.838	165.62
232.072	174.62
232.306	177.62
232.541	178.62
232.775	184.62
233.009	196.62
233.243	219.62
233.477	194.62
233.711	201.62
233.945	200.62
234.179	191.62
234.413	216.62
234.647	210.62
234.881	206.62
235.115	188.62
235.349	189.62
235.583	199.62
235.817	177.62
236.051	201.62
236.285	194.62
236.519	187.62
236.753	203.62
236.987	234.62
237.221	228.62
237.455	247.62
237.689	244.62
237.922	240.62
238.156	223.62
238.39	233.62
238.624	232.62
238.858	244.62
239.091	251.62
239.325	261.62
239.559	296.62
239.793	290.62
240.027	306.62
240.26	288.62
240.494	254.62
240.728	228.62
240.961	246.62
241.195	234.62
241.429	256.62
241.662	247.62
241.896	259.62
242.13	249.62
242.363	263.62
242.597	283.62
242.83	284.62
243.064	286.62
243.298	290.62
243.531	283.62
243.765	284.62
243.998	275.62
244.232	239.62
244.465	246.62
244.699	275.62
244.932	289.62
245.166	300.62
245.399	297.62
245.633	279.62
245.866	279.62
246.099	282.62
246.333	311.62
246.566	300.62
246.8	303.62
247.033	340.62
247.266	319.62
247.5	318.62
247.733	328.62
247.966	345.62
248.2	373.62
248.433	371.62
248.666	375.62
248.899	390.62
249.133	420.62
249.366	444.62
249.599	382.62
249.832	358.62
250.066	371.62
250.299	374.62
250.532	351.62
250.765	328.62
250.998	351.62
251.231	353.62
251.465	353.62
251.698	365.62
251.931	355.62
252.164	354.62
252.397	376.62
252.63	355.62
252.863	324.62
253.096	351.62
253.329	339.62
253.562	362.62
253.795	385.62
254.028	369.62
254.261	343.62
254.494	334.62
254.727	333.62
254.96	351.62
255.193	385.62
255.426	416.62
255.659	446.62
255.892	436.62
256.124	417.62
256.357	391.62
256.59	407.62
256.823	402.62
257.056	413.62
257.289	497.62
257.521	528.62
257.754	465.62
257.987	471.62
258.22	508.62
258.452	471.62
258.685	403.62
258.918	402.62
259.151	370.62
259.383	372.62
259.616	352.62
259.849	375.62
260.081	415.62
260.314	450.62
260.547	467.62
260.779	460.62
261.012	456.62
261.244	414.62
261.477	407.62
261.71	418.62
261.942	409.62
262.175	407.62
262.407	416.62
262.64	404.62
262.872	369.62
263.105	344.62
263.337	377.62
263.57	379.62
263.802	376.62
264.035	377.62
264.267	353.62
264.499	346.62
264.732	367.62
264.964	383.62
265.197	400.62
265.429	423.62
265.661	467.62
265.894	495.62
266.126	505.62
266.358	468.62
266.591	464.62
266.823	496.62
267.055	469.62
267.287	462.62
267.52	430.62
267.752	441.62
267.984	459.62
268.216	473.62
268.448	485.62
268.681	449.62
268.913	435.62
269.145	403.62
269.377	421.62
269.609	441.62
269.841	527.62
270.073	580.62
270.306	635.62
270.538	619.62
270.77	529.62
271.002	492.62
271.234	481.62
271.466	465.62
271.698	544.62
271.93	619.62
272.162	619.62
272.394	553.62
272.626	533.62
272.858	463.62
273.09	403.62
273.322	424.62
273.553	395.62
273.785	417.62
274.017	423.62
274.249	454.62
274.481	442.62
274.713	430.62
274.945	417.62
275.176	421.62
275.408	407.62
275.64	417.62
275.872	429.62
276.104	441.62
276.335	503.62
276.567	517.62
276.799	545.62
277.031	496.62
277.262	499.62
277.494	511.62
277.726	541.62
277.957	491.62
278.189	488.62
278.421	452.62
278.652	432.62
278.884	435.62
279.115	442.62
279.347	446.62
279.579	435.62
279.81	451.62
280.042	489.62
280.273	530.62
280.505	526.62
280.736	517.62
280.968	503.62
281.199	433.62
281.431	417.62
281.662	451.62
281.894	442.62
282.125	447.62
282.356	443.62
282.588	457.62
282.819	449.62
283.051	472.62
283.282	508.62
283.513	515.62
283.745	460.62
283.976	435.62
284.207	444.62
284.439	431.62
284.67	451.62
284.901	448.62
285.132	470.62
285.364	472.62
285.595	445.62
285.826	456.62
286.057	457.62
286.288	445.62
286.52	473.62
286.751	513.62
286.982	511.62
287.213	475.62
287.444	441.62
287.675	419.62
287.906	476.62
288.138	477.62
288.369	474.62
288.6	456.62
288.831	441.62
289.062	434.62
289.293	476.62
289.524	449.62
289.755	469.62
289.986	478.62
290.217	431.62
290.448	456.62
290.679	456.62
290.91	488.62
291.141	476.62
291.371	496.62
291.602	481.62
291.833	484.62
292.064	493.62
292.295	486.62
292.526	515.62
292.757	497.62
292.987	503.62
293.218	489.62
293.449	561.62
293.68	584.62
293.91	579.62
294.141	566.62
294.372	549.62
294.603	565.62
294.833	569.62
295.064	541.62
295.295	506.62
295.525	491.62
295.756	442.62
295.987	437.62
296.217	457.62
296.448	487.62
296.679	487.62
296.909	461.62
297.14	476.62
297.37	503.62
297.601	521.62
297.831	521.62
298.062	521.62
298.292	474.62
298.523	451.62
298.753	472.62
298.984	484.62
299.214	488.62
299.445	491.62
299.675	490.62
299.905	517.62
300.136	509.62
300.366	479.62
300.597	465.62
300.827	459.62
301.057	475.62
301.288	499.62
301.518	488.62
301.748	497.62
301.979	557.62
302.209	572.62
302.439	600.62
302.669	620.62
302.9	585.62
303.13	510.62
303.36	507.62
303.59	511.62
303.82	487.62
304.051	505.62
304.281	517.62
304.511	545.62
304.741	595.62
304.971	628.62
305.201	638.62
305.431	572.62
305.661	490.62
305.891	461.62
306.121	469.62
306.352	490.62
306.582	520.62
306.812	547.62
307.042	582.62
307.272	552.62
307.502	593.62
307.731	627.62
307.961	619.62
308.191	584.62
308.421	538.62
308.651	515.62
308.881	497.62
309.111	497.62
309.341	503.62
309.571	505.62
309.8	497.62
310.03	515.62
310.26	509.62
310.49	508.62
310.72	518.62
310.949	515.62
311.179	533.62
311.409	510.62
311.639	538.62
311.868	515.62
312.098	512.62
312.328	490.62
312.557	527.62
312.787	517.62
313.017	539.62
313.246	509.62
313.476	521.62
313.706	529.62
313.935	535.62
314.165	545.62
314.394	569.62
314.624	596.62
314.853	610.62
315.083	638.62
315.312	618.62
315.542	599.62
315.771	549.62
316.001	550.62
316.23	589.62
316.46	575.62
316.689	540.62
316.919	532.62
317.148	535.62
317.377	556.62
317.607	602.62
317.836	649.62
318.065	661.62
318.295	620.62
318.524	585.62
318.753	584.62
318.983	587.62
319.212	569.62
319.441	568.62
319.67	561.62
319.9	594.62
320.129	594.62
320.358	608.62
320.587	607.62
320.816	605.62
321.046	586.62
321.275	611.62
321.504	610.62
321.733	649.62
321.962	592.62
322.191	569.62
322.42	563.62
322.649	553.62
322.878	561.62
323.108	569.62
323.337	575.62
323.566	595.62
323.795	587.62
324.024	596.62
324.253	578.62
324.482	545.62
324.71	547.62
324.939	516.62
325.168	569.62
325.397	571.62
325.626	561.62
325.855	569.62
326.084	559.62
326.313	575.62
326.542	570.62
326.77	635.62
326.999	578.62
327.228	570.62
327.457	539.62
327.686	544.62
327.914	575.62
328.143	569.62
328.372	581.62
328.6	561.62
328.829	526.62
329.058	535.62
329.287	574.62
329.515	576.62
329.744	592.62
329.972	626.62
330.201	637.62
330.43	628.62
330.658	607.62
330.887	631.62
331.115	603.62
331.344	591.62
331.572	587.62
331.801	594.62
332.03	600.62
332.258	597.62
332.486	597.62
332.715	640.62
332.943	614.62
333.172	598.62
333.4	600.62
333.629	641.62
333.857	680.62
334.085	753.62
334.314	833.62
334.542	829.62
334.771	779.62
334.999	682.62
335.227	652.62
335.455	647.62
335.684	636.62
335.912	666.62
336.14	659.62
336.369	620.62
336.597	599.62
336.825	600.62
337.053	633.62
337.281	648.62
337.51	721.62
337.738	709.62
337.966	663.62
338.194	616.62
338.422	609.62
338.65	606.62
338.878	584.62
339.106	560.62
339.334	588.62
339.562	581.62
339.79	589.62
340.018	612.62
340.246	619.62
340.474	651.62
340.702	637.62
340.93	647.62
341.158	651.62
341.386	632.62
341.614	623.62
341.842	629.62
342.07	608.62
342.298	613.62
342.526	624.62
342.754	595.62
342.981	612.62
343.209	609.62
343.437	614.62
343.665	585.62
343.893	623.62
344.12	640.62
344.348	645.62
344.576	629.62
344.804	603.62
345.031	590.62
345.259	628.62
345.487	593.62
345.714	572.62
345.942	569.62
346.17	562.62
346.397	570.62
346.625	564.62
346.853	561.62
347.08	522.62
347.308	565.62
347.535	557.62
347.763	565.62
347.99	563.62
348.218	559.62
348.445	569.62
348.673	579.62
348.9	573.62
349.128	609.62
349.355	606.62
349.583	626.62
349.81	575.62
350.037	524.62
350.265	539.62
350.492	536.62
350.72	565.62
350.947	590.62
351.174	577.62
351.402	551.62
351.629	548.62
351.856	522.62
352.083	540.62
352.311	548.62
352.538	555.62
352.765	587.62
352.992	591.62
353.22	557.62
353.447	557.62
353.674	575.62
353.901	585.62
354.128	558.62
354.355	545.62
354.583	576.62
354.81	596.62
355.037	614.62
355.264	577.62
355.491	571.62
355.718	592.62
355.945	549.62
356.172	553.62
356.399	576.62
356.626	568.62
356.853	594.62
357.08	641.62
357.307	709.62
357.534	684.62
357.761	594.62
357.988	550.62
358.215	559.62
358.441	563.62
358.668	548.62
358.895	571.62
359.122	595.62
359.349	661.62
359.576	623.62
359.802	593.62
360.029	536.62
360.256	552.62
360.483	551.62
360.709	588.62
360.936	612.62
361.163	649.62
361.39	698.62
361.616	735.62
361.843	696.62
362.07	648.62
362.296	590.62
362.523	543.62
362.749	563.62
362.976	591.62
363.203	606.62
363.429	548.62
363.656	565.62
363.882	591.62
364.109	644.62
364.335	680.62
364.562	621.62
364.788	580.62
365.015	587.62
365.241	555.62
365.468	586.62
365.694	614.62
365.92	629.62
366.147	582.62
366.373	567.62
366.599	582.62
366.826	563.62
367.052	564.62
367.278	599.62
367.505	593.62
367.731	622.62
367.957	609.62
368.184	645.62
368.41	703.62
368.636	682.62
368.862	668.62
369.089	677.62
369.315	648.62
369.541	611.62
369.767	613.62
369.993	576.62
370.219	587.62
370.445	622.62
370.672	667.62
370.898	679.62
371.124	654.62
371.35	641.62
371.576	665.62
371.802	665.62
372.028	636.62
372.254	609.62
372.48	624.62
372.706	588.62
372.932	612.62
373.158	601.62
373.384	643.62
373.61	653.62
373.835	661.62
374.061	632.62
374.287	657.62
374.513	637.62
374.739	642.62
374.965	641.62
375.191	635.62
375.416	651.62
375.642	672.62
375.868	708.62
376.094	720.62
376.319	669.62
376.545	659.62
376.771	680.62
376.997	699.62
377.222	676.62
377.448	676.62
377.674	672.62
377.899	693.62
378.125	732.62
378.35	688.62
378.576	635.62
378.802	643.62
379.027	642.62
379.253	638.62
379.478	650.62
379.704	643.62
379.929	670.62
380.155	662.62
380.38	673.62
380.606	665.62
380.831	695.62
381.057	713.62
381.282	709.62
381.507	710.62
381.733	729.62
381.958	759.62
382.184	677.62
382.409	695.62
382.634	661.62
382.86	692.62
383.085	696.62
383.31	704.62
383.535	794.62
383.761	816.62
383.986	765.62
384.211	745.62
384.436	758.62
384.662	785.62
384.887	787.62
385.112	753.62
385.337	744.62
385.562	722.62
385.787	750.62
386.013	787.62
386.238	745.62
386.463	795.62
386.688	833.62
386.913	866.62
387.138	840.62
387.363	777.62
387.588	775.62
387.813	755.62
388.038	798.62
388.263	827.62
388.488	773.62
388.713	706.62
388.938	731.62
389.163	746.62
389.387	766.62
389.612	739.62
389.837	769.62
390.062	747.62
390.287	776.62
390.512	735.62
390.736	751.62
390.961	728.62
391.186	743.62
391.411	749.62
391.636	746.62
391.86	767.62
392.085	771.62
392.31	741.62
392.534	771.62
392.759	787.62
392.984	772.62
393.208	780.62
393.433	796.62
393.658	866.62
393.882	833.62
394.107	784.62
394.331	764.62
394.556	759.62
394.78	779.62
395.005	833.62
395.229	863.62
395.454	894.62
395.678	889.62
395.903	835.62
396.127	813.62
396.352	852.62
396.576	851.62
396.801	876.62
397.025	838.62
397.249	869.62
397.474	843.62
397.698	854.62
397.922	866.62
398.147	895.62
398.371	922.62
398.595	919.62
398.82	873.62
399.044	887.62
399.268	911.62
399.492	993.62
399.717	973.62
399.941	988.62
400.165	991.62
400.389	965.62
400.613	993.62
400.837	1136.62
401.062	1193.62
401.286	1056.62
401.51	1009.62
401.734	1018.62
401.958	957.62
402.182	937.62
402.406	883.62
402.63	869.62
402.854	906.62
403.078	923.62
403.302	910.62
403.526	966.62
403.75	925.62
403.974	930.62
404.198	938.62
404.422	996.62
404.645	1021.62
404.869	984.62
405.093	890.62
405.317	885.62
405.541	971.62
405.765	938.62
405.988	931.62
406.212	936.62
406.436	1009.62
406.66	995.62
406.883	1060.62
407.107	1174.62
407.331	1269.62
407.555	1307.62
407.778	1185.62
408.002	1005.62
408.226	954.62
408.449	961.62
408.673	959.62
408.896	991.62
409.12	978.62
409.344	934.62
409.567	914.62
409.791	939.62
410.014	1012.62
410.238	1043.62
410.461	1068.62
410.685	957.62
410.908	942.62
411.132	955.62
411.355	956.62
411.578	952.62
411.802	983.62
412.025	976.62
412.249	937.62
412.472	916.62
412.695	908.62
412.919	928.62
413.142	940.62
413.365	944.62
413.589	981.62
413.812	1028.62
414.035	1015.62
414.258	953.62
414.482	927.62
414.705	942.62
414.928	924.62
415.151	916.62
415.374	922.62
415.597	982.62
415.821	922.62
416.044	949.62
416.267	909.62
416.49	904.62
416.713	917.62
416.936	963.62
417.159	985.62
417.382	962.62
417.605	933.62
417.828	955.62
418.051	961.62
418.274	963.62
418.497	934.62
418.72	922.62
418.943	927.62
419.166	971.62
419.389	1014.62
419.611	960.62
419.834	955.62
420.057	965.62
420.28	949.62
420.503	945.62
420.726	946.62
420.948	969.62
421.171	947.62
421.394	952.62
421.617	989.62
421.839	988.62
422.062	972.62
422.285	952.62
422.507	965.62
422.73	928.62
422.953	882.62
423.175	904.62
423.398	939.62
423.621	943.62
423.843	941.62
424.066	930.62
424.288	1037.62
424.511	1071.62
424.733	1043.62
424.956	947.62
425.178	970.62
425.401	979.62
425.623	961.62
425.846	944.62
426.068	992.62
426.291	996.62
426.513	983.62
426.735	996.62
426.958	1057.62
427.18	1092.62
427.402	1000.62
427.625	1059.62
427.847	1007.62
428.069	972.62
428.292	940.62
428.514	933.62
428.736	926.62
428.958	922.62
429.181	958.62
429.403	1092.62
429.625	1275.62
429.847	1076.62
430.069	993.62
430.292	1085.62
430.514	1067.62
430.736	966.62
430.958	1025.62
431.18	917.62
431.402	905.62
431.624	865.62
431.846	825.62
432.068	746.62
432.29	773.62
432.512	811.62
432.734	905.62
432.956	933.62
433.178	972.62
433.4	971.62
433.622	962.62
433.844	924.62
434.066	861.62
434.287	831.62
434.509	805.62
434.731	837.62
434.953	902.62
435.175	943.62
435.397	920.62
435.618	923.62
435.84	871.62
436.062	839.62
436.284	912.62
436.505	935.62
436.727	976.62
436.949	939.62
437.17	887.62
437.392	906.62
437.614	861.62
437.835	832.62
438.057	821.62
438.278	855.62
438.5	884.62
438.721	935.62
438.943	938.62
439.165	950.62
439.386	960.62
439.608	981.62
439.829	983.62
440.05	973.62
440.272	976.62
440.493	969.62
440.715	988.62
440.936	1018.62
441.158	1084.62
441.379	1042.62
441.6	1059.62
441.822	1050.62
442.043	1049.62
442.264	981.62
442.486	981.62
442.707	960.62
442.928	979.62
443.149	995.62
443.371	1004.62
443.592	1031.62
443.813	1021.62
444.034	1023.62
444.255	1004.62
444.476	1047.62
444.698	1040.62
444.919	1059.62
445.14	1178.62
445.361	1105.62
445.582	1107.62
445.803	1093.62
446.024	1052.62
446.245	1090.62
446.466	1109.62
446.687	1059.62
446.908	1044.62
447.129	1039.62
447.35	1047.62
447.571	1028.62
447.792	979.62
448.013	947.62
448.234	970.62
448.455	986.62
448.675	1009.62
448.896	943.62
449.117	909.62
449.338	951.62
449.559	979.62
449.779	997.62
450	1056.62
450.221	1085.62
450.442	1031.62
450.662	949.62
450.883	897.62
451.104	886.62
451.324	875.62
451.545	895.62
451.766	860.62
451.986	836.62
452.207	853.62
452.428	791.62
452.648	789.62
452.869	785.62
453.089	784.62
453.31	800.62
453.53	782.62
453.751	751.62
453.971	704.62
454.192	767.62
454.412	771.62
454.633	804.62
454.853	799.62
455.073	780.62
455.294	794.62
455.514	790.62
455.734	780.62
455.955	781.62
456.175	780.62
456.395	779.62
456.616	756.62
456.836	769.62
457.056	729.62
457.276	742.62
457.497	728.62
457.717	717.62
457.937	709.62
458.157	732.62
458.377	721.62
458.598	708.62
458.818	692.62
459.038	716.62
459.258	741.62
459.478	728.62
459.698	708.62
459.918	743.62
460.138	810.62
460.358	839.62
460.578	842.62
460.798	867.62
461.018	884.62
461.238	881.62
461.458	884.62
461.678	852.62
461.898	823.62
462.118	841.62
462.338	861.62
462.558	836.62
462.777	874.62
462.997	867.62
463.217	884.62
463.437	887.62
463.657	843.62
463.876	825.62
464.096	849.62
464.316	856.62
464.536	867.62
464.755	879.62
464.975	874.62
465.195	846.62
465.414	899.62
465.634	891.62
465.854	921.62
466.073	996.62
466.293	950.62
466.512	886.62
466.732	880.62
466.951	939.62
467.171	928.62
467.391	923.62
467.61	884.62
467.829	913.62
468.049	995.62
468.268	1069.62
468.488	1004.62
468.707	900.62
468.927	960.62
469.146	925.62
469.365	959.62
469.585	959.62
469.804	948.62
470.023	961.62
470.243	943.62
470.462	979.62
470.681	919.62
470.901	975.62
471.12	964.62
471.339	980.62
471.558	928.62
471.777	924.62
471.997	922.62
472.216	871.62
472.435	785.62
472.654	789.62
472.873	820.62
473.092	875.62
473.311	871.62
473.53	843.62
473.749	844.62
473.968	857.62
474.187	875.62
474.406	845.62
474.625	883.62
474.844	911.62
475.063	909.62
475.282	907.62
475.501	824.62
475.72	851.62
475.939	911.62
476.158	887.62
476.377	895.62
476.596	851.62
476.814	847.62
477.033	810.62
477.252	853.62
477.471	919.62
477.69	929.62
477.908	947.62
478.127	976.62
478.346	996.62
478.564	1000.62
478.783	1000.62
479.002	1044.62
479.22	1029.62
479.439	1031.62
479.658	1081.62
479.876	983.62
480.095	892.62
480.313	917.62
480.532	904.62
480.751	881.62
480.969	848.62
481.188	794.62
481.406	782.62
481.624	769.62
481.843	802.62
482.061	844.62
482.28	913.62
482.498	899.62
482.717	888.62
482.935	919.62
483.153	996.62
483.372	1041.62
483.59	1036.62
483.808	994.62
484.027	972.62
484.245	1033.62
484.463	1269.62
484.681	1327.62
484.9	1055.62
485.118	981.62
485.336	924.62
485.554	907.62
485.772	895.62
485.99	899.62
486.209	936.62
486.427	905.62
486.645	953.62
486.863	1003.62
487.081	1087.62
487.299	1043.62
487.517	1026.62
487.735	1119.62
487.953	1193.62
488.171	1189.62
488.389	1143.62
488.607	1109.62
488.825	1187.62
489.043	1077.62
489.261	988.62
489.479	1025.62
489.696	1060.62
489.914	1046.62
490.132	1075.62
490.35	1112.62
490.568	1177.62
490.786	1196.62
491.003	1213.62
491.221	1305.62
491.439	1300.62
491.657	1316.62
491.874	1388.62
492.092	1472.62
492.31	1549.62
492.527	1493.62
492.745	1393.62
492.963	1364.62
493.18	1324.62
493.398	1356.62
493.615	1374.62
493.833	1323.62
494.05	1248.62
494.268	1239.62
494.485	1263.62
494.703	1241.62
494.92	1261.62
495.138	1266.62
495.355	1257.62
495.573	1301.62
495.79	1287.62
496.008	1294.62
496.225	1263.62
496.442	1275.62
496.66	1280.62
496.877	1249.62
497.094	1238.62
497.312	1237.62
497.529	1227.62
497.746	1204.62
497.963	1281.62
498.181	1308.62
498.398	1282.62
498.615	1234.62
498.832	1183.62
499.049	1196.62
499.267	1218.62
499.484	1293.62
499.701	1404.62
499.918	1400.62
500.135	1494.62
500.352	1597.62
500.569	1593.62
500.786	1733.62
501.003	1599.62
501.22	1461.62
501.437	1443.62
501.654	1433.62
501.871	1368.62
502.088	1217.62
502.305	1189.62
502.522	1132.62
502.739	1115.62
502.956	1075.62
503.172	1061.62
503.389	1003.62
503.606	1000.62
503.823	987.62
504.04	1027.62
504.256	1014.62
504.473	1013.62
504.69	1035.62
504.907	1009.62
505.123	984.62
505.34	1098.62
505.557	1437.62
505.773	1135.62
505.99	987.62
506.207	946.62
506.423	919.62
506.64	910.62
506.856	913.62
507.073	1098.62
507.289	1143.62
507.506	1059.62
507.722	924.62
507.939	861.62
508.155	892.62
508.372	883.62
508.588	847.62
508.805	809.62
509.021	797.62
509.238	791.62
509.454	769.62
509.67	785.62
509.887	748.62
510.103	739.62
510.319	744.62
510.536	765.62
510.752	782.62
510.968	753.62
511.184	797.62
511.401	769.62
511.617	709.62
511.833	715.62
512.049	701.62
512.265	716.62
512.481	746.62
512.698	776.62
512.914	769.62
513.13	766.62
513.346	733.62
513.562	723.62
513.778	733.62
513.994	772.62
514.21	785.62
514.426	802.62
514.642	803.62
514.858	792.62
515.074	744.62
515.29	727.62
515.506	769.62
515.721	760.62
515.937	735.62
516.153	807.62
516.369	823.62
516.585	739.62
516.801	743.62
517.016	733.62
517.232	781.62
517.448	783.62
517.664	803.62
517.879	806.62
518.095	832.62
518.311	810.62
518.527	771.62
518.742	751.62
518.958	768.62
519.173	793.62
519.389	798.62
519.605	839.62
519.82	834.62
520.036	789.62
520.251	772.62
520.467	809.62
520.682	828.62
520.898	818.62
521.113	745.62
521.329	703.62
521.544	784.62
521.76	765.62
521.975	719.62
522.19	705.62
522.406	754.62
522.621	958.62
522.836	871.62
523.052	745.62
523.267	739.62
523.482	795.62
523.698	749.62
523.913	730.62
524.128	784.62
524.343	824.62
524.559	863.62
524.774	820.62
524.989	806.62
525.204	759.62
525.419	756.62
525.634	775.62
525.849	755.62
526.064	754.62
526.28	736.62
526.495	685.62
526.71	680.62
526.925	660.62
527.14	671.62
527.355	632.62
527.57	660.62
527.785	663.62
527.999	680.62
528.214	703.62
528.429	735.62
528.644	759.62
528.859	779.62
529.074	843.62
529.289	899.62
529.503	882.62
529.718	845.62
529.933	744.62
530.148	700.62
530.363	636.62
530.577	643.62
530.792	668.62
531.007	641.62
531.221	655.62
531.436	635.62
531.651	663.62
531.865	669.62
532.08	658.62
532.295	627.62
532.509	641.62
532.724	641.62
532.938	668.62
533.153	714.62
533.367	711.62
533.582	745.62
533.796	741.62
534.011	744.62
534.225	688.62
534.44	629.62
534.654	649.62
534.868	660.62
535.083	687.62
535.297	719.62
535.511	726.62
535.726	709.62
535.94	702.62
536.154	652.62
536.369	639.62
536.583	625.62
536.797	611.62
537.011	615.62
537.225	634.62
537.44	631.62
537.654	674.62
537.868	634.62
538.082	626.62
538.296	612.62
538.51	659.62
538.724	693.62
538.938	713.62
539.153	763.62
539.367	764.62
539.581	720.62
539.795	681.62
540.009	645.62
540.222	639.62
540.436	689.62
540.65	743.62
540.864	795.62
541.078	861.62
541.292	880.62
541.506	923.62
541.72	967.62
541.934	1044.62
542.147	1116.62
542.361	1053.62
542.575	930.62
542.789	864.62
543.002	775.62
543.216	766.62
543.43	793.62
543.644	852.62
543.857	887.62
544.071	919.62
544.285	960.62
544.498	941.62
544.712	962.62
544.925	959.62
545.139	981.62
545.352	975.62
545.566	953.62
545.779	941.62
545.993	984.62
546.206	982.62
546.42	991.62
546.633	964.62
546.847	949.62
547.06	970.62
547.274	992.62
547.487	992.62
547.7	1011.62
547.914	994.62
548.127	987.62
548.34	970.62
548.554	967.62
548.767	947.62
548.98	936.62
549.193	924.62
549.407	971.62
549.62	961.62
549.833	962.62
550.046	928.62
550.259	925.62
550.473	929.62
550.686	898.62
550.899	873.62
551.112	869.62
551.325	821.62
551.538	854.62
551.751	895.62
551.964	754.62
552.177	774.62
552.39	819.62
552.603	849.62
552.816	855.62
553.029	927.62
553.242	934.62
553.455	934.62
553.667	933.62
553.88	935.62
554.093	869.62
554.306	880.62
554.519	868.62
554.732	833.62
554.944	856.62
555.157	839.62
555.37	803.62
555.583	791.62
555.795	784.62
556.008	746.62
556.221	738.62
556.433	722.62
556.646	749.62
556.859	729.62
557.071	773.62
557.284	777.62
557.496	764.62
557.709	784.62
557.921	759.62
558.134	733.62
558.346	739.62
558.559	731.62
558.771	723.62
558.984	695.62
559.196	667.62
559.409	678.62
559.621	663.62
559.833	681.62
560.046	676.62
560.258	685.62
560.47	707.62
560.683	683.62
560.895	699.62
561.107	693.62
561.32	687.62
561.532	687.62
561.744	668.62
561.956	711.62
562.168	675.62
562.381	635.62
562.593	671.62
562.805	642.62
563.017	659.62
563.229	637.62
563.441	659.62
563.653	627.62
563.865	630.62
564.077	616.62
564.289	629.62
564.501	608.62
564.713	651.62
564.925	642.62
565.137	663.62
565.349	632.62
565.561	635.62
565.773	588.62
565.985	623.62
566.197	649.62
566.408	705.62
566.62	694.62
566.832	697.62
567.044	678.62
567.255	677.62
567.467	654.62
567.679	675.62
567.891	654.62
568.102	623.62
568.314	614.62
568.526	537.62
568.737	535.62
568.949	507.62
569.161	478.62
569.372	464.62
569.584	474.62
569.795	468.62
570.007	465.62
570.218	458.62
570.43	451.62
570.641	466.62
570.853	478.62
571.064	490.62
571.276	482.62
571.487	489.62
571.698	476.62
571.91	476.62
572.121	466.62
572.333	463.62
572.544	447.62
572.755	417.62
572.966	412.62
573.178	411.62
573.389	393.62
573.6	427.62
573.811	457.62
574.023	405.62
574.234	406.62
574.445	398.62
574.656	401.62
574.867	390.62
575.078	424.62
575.289	416.62
575.501	387.62
575.712	407.62
575.923	405.62
576.134	423.62
576.345	408.62
576.556	420.62
576.767	405.62
576.978	408.62
577.188	399.62
577.399	370.62
577.61	379.62
577.821	394.62
578.032	389.62
578.243	377.62
578.454	365.62
578.665	374.62
578.875	345.62
579.086	346.62
579.297	358.62
579.508	367.62
579.718	345.62
579.929	358.62
580.14	323.62
580.35	344.62
580.561	367.62
580.772	401.62
580.982	391.62
581.193	375.62
581.403	368.62
581.614	361.62
581.825	347.62
582.035	352.62
582.246	355.62
582.456	373.62
582.667	362.62
582.877	342.62
583.087	348.62
583.298	343.62
583.508	352.62
583.719	336.62
583.929	337.62
584.139	337.62
584.35	316.62
584.56	329.62
584.77	339.62
584.981	334.62
585.191	345.62
585.401	338.62
585.611	330.62
585.821	338.62
586.032	328.62
586.242	336.62
586.452	329.62
586.662	319.62
586.872	313.62
587.082	323.62
587.292	339.62
587.502	328.62
587.713	328.62
587.923	303.62
588.133	329.62
588.343	322.62
588.553	331.62
588.762	315.62
588.972	320.62
589.182	319.62
589.392	331.62
589.602	347.62
589.812	329.62
590.022	335.62
590.232	308.62
590.441	315.62
590.651	316.62
590.861	325.62
591.071	309.62
591.281	306.62
591.49	315.62
591.7	311.62
591.91	308.62
592.119	316.62
592.329	319.62
592.539	330.62
592.748	328.62
592.958	325.62
593.167	327.62
593.377	345.62
593.587	328.62
593.796	329.62
594.006	348.62
594.215	340.62
594.424	349.62
594.634	345.62
594.843	350.62
595.053	348.62
595.262	338.62
595.472	324.62
595.681	307.62
595.89	312.62
596.1	329.62
596.309	324.62
596.518	325.62
596.727	341.62
596.937	316.62
597.146	330.62
597.355	316.62
597.564	312.62
597.774	300.62
597.983	297.62
598.192	283.62
598.401	295.62
598.61	295.62
598.819	284.62
599.028	294.62
599.237	317.62
599.446	305.62
599.655	284.62
599.864	287.62
600.073	305.62
600.282	312.62
600.491	309.62
600.7	294.62
600.909	291.62
601.118	309.62
601.327	332.62
601.536	358.62
601.745	361.62
601.953	350.62
602.162	345.62
602.371	368.62
602.58	329.62
602.789	349.62
602.997	355.62
603.206	372.62
603.415	353.62
603.623	365.62
603.832	355.62
604.041	324.62
604.249	340.62
604.458	327.62
604.666	303.62
604.875	323.62
605.084	353.62
605.292	351.62
605.501	356.62
605.709	372.62
605.918	339.62
606.126	371.62
606.334	369.62
606.543	367.62
606.751	374.62
606.96	363.62
607.168	356.62
607.376	357.62
607.585	373.62
607.793	372.62
608.001	357.62
608.21	370.62
608.418	380.62
608.626	367.62
608.834	364.62
609.043	353.62
609.251	347.62
609.459	358.62
609.667	379.62
609.875	383.62
610.083	364.62
610.291	377.62
610.499	380.62
610.707	378.62
610.916	369.62
611.124	387.62
611.332	356.62
611.54	380.62
611.748	375.62
611.955	373.62
612.163	385.62
612.371	361.62
612.579	363.62
612.787	351.62
612.995	378.62
613.203	375.62
613.411	353.62
613.618	359.62
613.826	371.62
614.034	381.62
614.242	369.62
614.449	363.62
614.657	359.62
614.865	375.62
615.072	375.62
615.28	342.62
615.488	353.62
615.695	362.62
615.903	354.62
616.111	374.62
616.318	380.62
616.526	358.62
616.733	362.62
616.941	352.62
617.148	360.62
617.356	352.62
617.563	345.62
617.771	346.62
617.978	333.62
618.185	331.62
618.393	359.62
618.6	347.62
618.807	354.62
619.015	353.62
619.222	349.62
619.429	348.62
619.637	330.62
619.844	298.62
620.051	311.62
620.258	322.62
620.466	308.62
620.673	332.62
620.88	312.62
621.087	321.62
621.294	297.62
621.501	313.62
621.708	314.62
621.915	332.62
622.122	326.62
622.329	344.62
622.536	328.62
622.743	324.62
622.95	318.62
623.157	331.62
623.364	341.62
623.571	326.62
623.778	324.62
623.985	331.62
624.192	328.62
624.399	335.62
624.606	333.62
624.812	326.62
625.019	322.62
625.226	279.62
625.433	289.62
625.639	271.62
625.846	243.62
626.053	260.62
626.259	242.62
626.466	257.62
626.673	249.62
626.879	261.62
627.086	267.62
627.293	269.62
627.499	300.62
627.706	297.62
627.912	309.62
628.119	307.62
628.325	318.62
628.532	302.62
628.738	300.62
628.945	290.62
629.151	285.62
629.357	283.62
629.564	282.62
629.77	290.62
629.976	288.62
630.183	267.62
630.389	281.62
630.595	283.62
630.802	274.62
631.008	278.62
631.214	295.62
631.42	273.62
631.627	250.62
631.833	265.62
632.039	271.62
632.245	269.62
632.451	287.62
632.657	256.62
632.863	286.62
633.069	276.62
633.275	280.62
633.481	269.62
633.688	273.62
633.893	250.62
634.099	257.62
634.305	259.62
634.511	244.62
634.717	251.62
634.923	231.62
635.129	242.62
635.335	244.62
635.541	244.62
635.747	269.62
635.952	248.62
636.158	273.62
636.364	263.62
636.57	263.62
636.775	281.62
636.981	258.62
637.187	267.62
637.392	283.62
637.598	247.62
637.804	281.62
638.009	259.62
638.215	263.62
638.421	252.62
638.626	268.62
638.832	246.62
639.037	247.62
639.243	268.62
639.448	259.62
639.654	250.62
639.859	253.62
640.065	246.62
640.27	242.62
640.475	234.62
640.681	248.62
640.886	263.62
641.091	230.62
641.297	255.62
641.502	255.62
641.707	269.62
641.913	245.62
642.118	254.62
642.323	260.62
642.528	268.62
642.733	256.62
642.939	242.62
643.144	239.62
643.349	246.62
643.554	249.62
643.759	252.62
643.964	241.62
644.169	244.62
644.374	232.62
644.579	268.62
644.784	229.62
644.989	237.62
645.194	220.62
645.399	255.62
645.604	233.62
645.809	234.62
646.014	240.62
646.219	230.62
646.423	244.62
646.628	253.62
646.833	250.62
647.038	239.62
647.243	236.62
647.447	233.62
647.652	257.62
647.857	248.62
648.062	252.62
648.266	229.62
648.471	247.62
648.676	243.62
648.88	224.62
649.085	230.62
649.289	247.62
649.494	252.62
649.698	239.62
649.903	249.62
650.107	240.62
650.312	224.62
650.516	244.62
650.721	236.62
650.925	226.62
651.13	226.62
651.334	214.62
651.539	233.62
651.743	231.62
651.947	226.62
652.152	215.62
652.356	232.62
652.56	220.62
652.764	212.62
652.969	203.62
653.173	224.62
653.377	203.62
653.581	199.62
653.785	218.62
653.99	209.62
654.194	199.62
654.398	207.62
654.602	226.62
654.806	204.62
655.01	205.62
655.214	203.62
655.418	188.62
655.622	218.62
655.826	196.62
656.03	222.62
656.234	226.62
656.438	228.62
656.642	231.62
656.846	232.62
657.049	214.62
657.253	189.62
657.457	185.62
657.661	201.62
657.865	159.62
658.068	167.62
658.272	165.62
658.476	166.62
658.68	147.62
658.883	143.62
659.087	129.62
659.291	137.62
659.494	132.62
659.698	142.62
659.901	136.62
660.105	119.62
660.309	127.62
660.512	133.62
660.716	121.62
660.919	111.62
661.123	128.62
661.326	125.62
661.53	115.62
661.733	120.62
661.936	103.62
662.14	102.62
662.343	94.62
662.546	99.62
662.75	87.62
662.953	109.62
663.156	88.62
663.36	89.62
663.563	91.62
663.766	95.62
663.969	78.62
664.173	83.62
664.376	86.62
664.579	75.62
664.782	87.62
664.985	79.62
665.188	75.62
665.391	86.62
665.594	83.62
665.797	97.62
666	84.62
666.203	83.62
666.406	84.62
666.609	65.62
666.812	80.62
667.015	92.62
667.218	76.62
667.421	78.62
667.624	85.62
667.827	85.62
668.03	92.62
668.232	86.62
668.435	79.62
668.638	76.62
668.841	80.62
669.043	90.62
669.246	80.62
669.449	87.62
669.651	89.62
669.854	87.62
670.057	74.62
670.259	88.62
670.462	99.62
670.665	93.62
670.867	80.62
671.07	63.62
671.272	80.62
671.475	76.62
671.677	73.62
671.88	73.62
672.082	91.62
672.284	88.62
672.487	90.62
672.689	77.62
672.892	84.62
