Data from WStandard_LampEnergy5.5LIBS07252019.E.O._I.C._HRD10591_16-09-26-920.txt Node
Date: Thu Jul 25 16:09:26 EDT 2019
User: cochatt
Spectrometer: HR+D1059
Trigger mode: 1
Integration Time (sec): 1.000000E-1
Scans to average: 1
Electric dark correction enabled: true
Nonlinearity correction enabled: false
Boxcar width: 0
XAxis mode: Wavelengths
Number of Pixels in Spectrum: 2048
>>>>>Begin Spectral Data<<<<<
223.165	-14.81
223.4	-14.81
223.635	-14.81
223.869	-8.81
224.104	-17.81
224.338	-13.81
224.573	-5.81
224.808	-22.81
225.042	-5.81
225.277	-18.81
225.511	-21.81
225.746	8.19
225.98	15.19
226.215	13.19
226.449	8.19
226.683	14.19
226.918	26.19
227.152	45.19
227.387	41.19
227.621	23.19
227.856	45.19
228.09	46.19
228.324	52.19
228.559	67.19
228.793	147.19
229.027	351.19
229.262	331.19
229.496	353.19
229.73	366.19
229.964	413.19
230.199	425.19
230.433	439.19
230.667	471.19
230.901	482.19
231.136	440.19
231.37	427.19
231.604	433.19
231.838	437.19
232.072	441.19
232.306	426.19
232.541	429.19
232.775	515.19
233.009	579.19
233.243	554.19
233.477	494.19
233.711	513.19
233.945	519.19
234.179	516.19
234.413	537.19
234.647	589.19
234.881	561.19
235.115	506.19
235.349	507.19
235.583	557.19
235.817	540.19
236.051	512.19
236.285	521.19
236.519	584.19
236.753	651.19
236.987	677.19
237.221	637.19
237.455	707.19
237.689	650.19
237.922	661.19
238.156	629.19
238.39	615.19
238.624	655.19
238.858	709.19
239.091	758.19
239.325	737.19
239.559	841.19
239.793	917.19
240.027	986.19
240.26	972.19
240.494	719.19
240.728	662.19
240.961	663.19
241.195	681.19
241.429	761.19
241.662	764.19
241.896	710.19
242.13	718.19
242.363	778.19
242.597	863.19
242.83	819.19
243.064	842.19
243.298	902.19
243.531	871.19
243.765	843.19
243.998	868.19
244.232	744.19
244.465	732.19
244.699	750.19
244.932	848.19
245.166	938.19
245.399	949.19
245.633	829.19
245.866	811.19
246.099	887.19
246.333	904.19
246.566	908.19
246.8	971.19
247.033	1092.19
247.266	1011.19
247.5	998.19
247.733	982.19
247.966	1040.19
248.2	1159.19
248.433	1102.19
248.666	1115.19
248.899	1229.19
249.133	1406.19
249.366	1599.19
249.599	1315.19
249.832	1151.19
250.066	1190.19
250.299	1197.19
250.532	1147.19
250.765	1023.19
250.998	1069.19
251.231	1123.19
251.465	1146.19
251.698	1073.19
251.931	1094.19
252.164	1149.19
252.397	1186.19
252.63	1155.19
252.863	1023.19
253.096	1012.19
253.329	1072.19
253.562	1097.19
253.795	1186.19
254.028	1196.19
254.261	1099.19
254.494	1083.19
254.727	1025.19
254.96	1058.19
255.193	1188.19
255.426	1334.19
255.659	1493.19
255.892	1565.19
256.124	1276.19
256.357	1221.19
256.59	1324.19
256.823	1309.19
257.056	1277.19
257.289	1580.19
257.521	1734.19
257.754	1565.19
257.987	1443.19
258.22	1642.19
258.452	1615.19
258.685	1299.19
258.918	1281.19
259.151	1261.19
259.383	1245.19
259.616	1084.19
259.849	1136.19
260.081	1255.19
260.314	1458.19
260.547	1555.19
260.779	1599.19
261.012	1488.19
261.244	1314.19
261.477	1267.19
261.71	1323.19
261.942	1317.19
262.175	1296.19
262.407	1381.19
262.64	1262.19
262.872	1209.19
263.105	1162.19
263.337	1201.19
263.57	1209.19
263.802	1227.19
264.035	1128.19
264.267	1043.19
264.499	1049.19
264.732	1139.19
264.964	1213.19
265.197	1235.19
265.429	1290.19
265.661	1433.19
265.894	1549.19
266.126	1653.19
266.358	1475.19
266.591	1527.19
266.823	1636.19
267.055	1524.19
267.287	1459.19
267.52	1429.19
267.752	1405.19
267.984	1416.19
268.216	1523.19
268.448	1516.19
268.681	1505.19
268.913	1413.19
269.145	1355.19
269.377	1283.19
269.609	1417.19
269.841	1627.19
270.073	1912.19
270.306	2119.19
270.538	2239.19
270.77	1873.19
271.002	1616.19
271.234	1542.19
271.466	1490.19
271.698	1659.19
271.93	2011.19
272.162	2046.19
272.394	1850.19
272.626	1753.19
272.858	1562.19
273.09	1351.19
273.322	1339.19
273.553	1288.19
273.785	1292.19
274.017	1318.19
274.249	1440.19
274.481	1465.19
274.713	1344.19
274.945	1265.19
275.176	1313.19
275.408	1314.19
275.64	1306.19
275.872	1281.19
276.104	1363.19
276.335	1502.19
276.567	1733.19
276.799	1757.19
277.031	1604.19
277.262	1495.19
277.494	1561.19
277.726	1703.19
277.957	1719.19
278.189	1540.19
278.421	1445.19
278.652	1369.19
278.884	1337.19
279.115	1337.19
279.347	1376.19
279.579	1330.19
279.81	1337.19
280.042	1501.19
280.273	1665.19
280.505	1656.19
280.736	1650.19
280.968	1567.19
281.199	1405.19
281.431	1340.19
281.662	1351.19
281.894	1345.19
282.125	1385.19
282.356	1436.19
282.588	1439.19
282.819	1444.19
283.051	1518.19
283.282	1684.19
283.513	1628.19
283.745	1417.19
283.976	1282.19
284.207	1337.19
284.439	1386.19
284.67	1370.19
284.901	1407.19
285.132	1429.19
285.364	1420.19
285.595	1469.19
285.826	1425.19
286.057	1382.19
286.288	1402.19
286.52	1419.19
286.751	1562.19
286.982	1585.19
287.213	1454.19
287.444	1336.19
287.675	1371.19
287.906	1443.19
288.138	1515.19
288.369	1484.19
288.6	1405.19
288.831	1329.19
289.062	1378.19
289.293	1370.19
289.524	1399.19
289.755	1472.19
289.986	1447.19
290.217	1338.19
290.448	1360.19
290.679	1427.19
290.91	1431.19
291.141	1442.19
291.371	1535.19
291.602	1477.19
291.833	1506.19
292.064	1552.19
292.295	1500.19
292.526	1530.19
292.757	1619.19
292.987	1538.19
293.218	1427.19
293.449	1540.19
293.68	1725.19
293.91	1884.19
294.141	1743.19
294.372	1645.19
294.603	1703.19
294.833	1795.19
295.064	1643.19
295.295	1522.19
295.525	1505.19
295.756	1400.19
295.987	1334.19
296.217	1332.19
296.448	1381.19
296.679	1419.19
296.909	1431.19
297.14	1367.19
297.37	1419.19
297.601	1483.19
297.831	1575.19
298.062	1617.19
298.292	1455.19
298.523	1377.19
298.753	1421.19
298.984	1478.19
299.214	1433.19
299.445	1479.19
299.675	1508.19
299.905	1504.19
300.136	1473.19
300.366	1451.19
300.597	1363.19
300.827	1345.19
301.057	1403.19
301.288	1478.19
301.518	1497.19
301.748	1544.19
301.979	1607.19
302.209	1614.19
302.439	1704.19
302.669	1822.19
302.9	1674.19
303.13	1494.19
303.36	1516.19
303.59	1543.19
303.82	1519.19
304.051	1524.19
304.281	1516.19
304.511	1502.19
304.741	1591.19
304.971	1781.19
305.201	1901.19
305.431	1825.19
305.661	1507.19
305.891	1362.19
306.121	1331.19
306.352	1359.19
306.582	1481.19
306.812	1548.19
307.042	1670.19
307.272	1657.19
307.502	1692.19
307.731	1846.19
307.961	2009.19
308.191	1866.19
308.421	1618.19
308.651	1517.19
308.881	1447.19
309.111	1510.19
309.341	1447.19
309.571	1467.19
309.8	1493.19
310.03	1430.19
310.26	1466.19
310.49	1459.19
310.72	1464.19
310.949	1565.19
311.179	1578.19
311.409	1570.19
311.639	1479.19
311.868	1485.19
312.098	1495.19
312.328	1475.19
312.557	1464.19
312.787	1537.19
313.017	1533.19
313.246	1537.19
313.476	1502.19
313.706	1571.19
313.935	1555.19
314.165	1564.19
314.394	1590.19
314.624	1670.19
314.853	1779.19
315.083	1834.19
315.312	1882.19
315.542	1803.19
315.771	1643.19
316.001	1563.19
316.23	1687.19
316.46	1630.19
316.689	1646.19
316.919	1586.19
317.148	1489.19
317.377	1498.19
317.607	1606.19
317.836	1794.19
318.065	1883.19
318.295	1807.19
318.524	1671.19
318.753	1673.19
318.983	1660.19
319.212	1645.19
319.441	1575.19
319.67	1555.19
319.9	1627.19
320.129	1707.19
320.358	1767.19
320.587	1809.19
320.816	1780.19
321.046	1749.19
321.275	1601.19
321.504	1659.19
321.733	1827.19
321.962	1781.19
322.191	1647.19
322.42	1586.19
322.649	1578.19
322.878	1630.19
323.108	1581.19
323.337	1667.19
323.566	1642.19
323.795	1649.19
324.024	1644.19
324.253	1603.19
324.482	1629.19
324.71	1629.19
324.939	1514.19
325.168	1552.19
325.397	1565.19
325.626	1634.19
325.855	1657.19
326.084	1615.19
326.313	1610.19
326.542	1665.19
326.77	1691.19
326.999	1671.19
327.228	1619.19
327.457	1516.19
327.686	1524.19
327.914	1541.19
328.143	1582.19
328.372	1597.19
328.6	1587.19
328.829	1611.19
329.058	1564.19
329.287	1542.19
329.515	1586.19
329.744	1663.19
329.972	1708.19
330.201	1769.19
330.43	1730.19
330.658	1691.19
330.887	1683.19
331.115	1689.19
331.344	1696.19
331.572	1707.19
331.801	1675.19
332.03	1646.19
332.258	1673.19
332.486	1713.19
332.715	1745.19
332.943	1750.19
333.172	1677.19
333.4	1708.19
333.629	1755.19
333.857	1868.19
334.085	2006.19
334.314	2261.19
334.542	2461.19
334.771	2324.19
334.999	2057.19
335.227	1923.19
335.455	1808.19
335.684	1770.19
335.912	1861.19
336.14	1914.19
336.369	1839.19
336.597	1732.19
336.825	1729.19
337.053	1744.19
337.281	1847.19
337.51	1917.19
337.738	2051.19
337.966	1925.19
338.194	1758.19
338.422	1717.19
338.65	1665.19
338.878	1686.19
339.106	1622.19
339.334	1610.19
339.562	1601.19
339.79	1602.19
340.018	1717.19
340.246	1825.19
340.474	1827.19
340.702	1684.19
340.93	1756.19
341.158	1719.19
341.386	1677.19
341.614	1705.19
341.842	1663.19
342.07	1649.19
342.298	1668.19
342.526	1721.19
342.754	1677.19
342.981	1644.19
343.209	1665.19
343.437	1651.19
343.665	1664.19
343.893	1726.19
344.12	1793.19
344.348	1839.19
344.576	1740.19
344.804	1706.19
345.031	1671.19
345.259	1666.19
345.487	1636.19
345.714	1559.19
345.942	1574.19
346.17	1530.19
346.397	1572.19
346.625	1619.19
346.853	1547.19
347.08	1499.19
347.308	1493.19
347.535	1554.19
347.763	1607.19
347.99	1588.19
348.218	1505.19
348.445	1542.19
348.673	1550.19
348.9	1606.19
349.128	1594.19
349.355	1648.19
349.583	1663.19
349.81	1601.19
350.037	1454.19
350.265	1446.19
350.492	1490.19
350.72	1526.19
350.947	1554.19
351.174	1609.19
351.402	1492.19
351.629	1479.19
351.856	1451.19
352.083	1447.19
352.311	1438.19
352.538	1483.19
352.765	1582.19
352.992	1621.19
353.22	1541.19
353.447	1470.19
353.674	1522.19
353.901	1515.19
354.128	1513.19
354.355	1513.19
354.583	1536.19
354.81	1597.19
355.037	1607.19
355.264	1601.19
355.491	1557.19
355.718	1562.19
355.945	1567.19
356.172	1503.19
356.399	1546.19
356.626	1512.19
356.853	1559.19
357.08	1633.19
357.307	1810.19
357.534	1830.19
357.761	1606.19
357.988	1492.19
358.215	1469.19
358.441	1485.19
358.668	1482.19
358.895	1498.19
359.122	1581.19
359.349	1719.19
359.576	1673.19
359.802	1568.19
360.029	1500.19
360.256	1473.19
360.483	1483.19
360.709	1540.19
360.936	1593.19
361.163	1630.19
361.39	1776.19
361.616	1965.19
361.843	1885.19
362.07	1787.19
362.296	1562.19
362.523	1545.19
362.749	1500.19
362.976	1537.19
363.203	1547.19
363.429	1543.19
363.656	1495.19
363.882	1538.19
364.109	1687.19
364.335	1846.19
364.562	1714.19
364.788	1617.19
365.015	1559.19
365.241	1505.19
365.468	1565.19
365.694	1608.19
365.92	1660.19
366.147	1618.19
366.373	1516.19
366.599	1500.19
366.826	1477.19
367.052	1480.19
367.278	1547.19
367.505	1524.19
367.731	1555.19
367.957	1538.19
368.184	1589.19
368.41	1706.19
368.636	1697.19
368.862	1704.19
369.089	1730.19
369.315	1679.19
369.541	1629.19
369.767	1570.19
369.993	1561.19
370.219	1521.19
370.445	1548.19
370.672	1636.19
370.898	1727.19
371.124	1741.19
371.35	1621.19
371.576	1713.19
371.802	1767.19
372.028	1678.19
372.254	1580.19
372.48	1544.19
372.706	1516.19
372.932	1545.19
373.158	1594.19
373.384	1572.19
373.61	1609.19
373.835	1739.19
374.061	1622.19
374.287	1609.19
374.513	1622.19
374.739	1629.19
374.965	1635.19
375.191	1678.19
375.416	1685.19
375.642	1674.19
375.868	1756.19
376.094	1800.19
376.319	1715.19
376.545	1628.19
376.771	1669.19
376.997	1709.19
377.222	1698.19
377.448	1679.19
377.674	1715.19
377.899	1675.19
378.125	1750.19
378.35	1730.19
378.576	1594.19
378.802	1561.19
379.027	1564.19
379.253	1583.19
379.478	1625.19
379.704	1618.19
379.929	1604.19
380.155	1613.19
380.38	1614.19
380.606	1644.19
380.831	1616.19
381.057	1668.19
381.282	1713.19
381.507	1653.19
381.733	1745.19
381.958	1846.19
382.184	1702.19
382.409	1677.19
382.634	1673.19
382.86	1680.19
383.085	1660.19
383.31	1728.19
383.535	1850.19
383.761	1957.19
383.986	1859.19
384.211	1809.19
384.436	1804.19
384.662	1886.19
384.887	1985.19
385.112	1856.19
385.337	1834.19
385.562	1830.19
385.787	1838.19
386.013	1876.19
386.238	1871.19
386.463	1889.19
386.688	1961.19
386.913	2106.19
387.138	2093.19
387.363	1913.19
387.588	1953.19
387.813	1897.19
388.038	1913.19
388.263	1945.19
388.488	1903.19
388.713	1759.19
388.938	1762.19
389.163	1795.19
389.387	1844.19
389.612	1811.19
389.837	1841.19
390.062	1862.19
390.287	1884.19
390.512	1853.19
390.736	1768.19
390.961	1785.19
391.186	1743.19
391.411	1802.19
391.636	1815.19
391.86	1853.19
392.085	1857.19
392.31	1805.19
392.534	1873.19
392.759	1843.19
392.984	1852.19
393.208	1848.19
393.433	1900.19
393.658	1947.19
393.882	1976.19
394.107	1875.19
394.331	1836.19
394.556	1803.19
394.78	1867.19
395.005	1933.19
395.229	1971.19
395.454	2070.19
395.678	2125.19
395.903	2041.19
396.127	1966.19
396.352	1958.19
396.576	2026.19
396.801	2049.19
397.025	2012.19
397.249	2015.19
397.474	1988.19
397.698	1958.19
397.922	2012.19
398.147	2130.19
398.371	2159.19
398.595	2198.19
398.82	2085.19
399.044	2107.19
399.268	2210.19
399.492	2383.19
399.717	2465.19
399.941	2497.19
400.165	2428.19
400.389	2370.19
400.613	2313.19
400.837	2549.19
401.062	2929.19
401.286	2521.19
401.51	2293.19
401.734	2379.19
401.958	2299.19
402.182	2150.19
402.406	2113.19
402.63	2029.19
402.854	2098.19
403.078	2138.19
403.302	2181.19
403.526	2193.19
403.75	2201.19
403.974	2215.19
404.198	2167.19
404.422	2221.19
404.645	2347.19
404.869	2275.19
405.093	2186.19
405.317	2131.19
405.541	2185.19
405.765	2259.19
405.988	2174.19
406.212	2238.19
406.436	2308.19
406.66	2296.19
406.883	2322.19
407.107	2618.19
407.331	2840.19
407.555	3064.19
407.778	2891.19
408.002	2357.19
408.226	2334.19
408.449	2326.19
408.673	2236.19
408.896	2243.19
409.12	2251.19
409.344	2234.19
409.567	2177.19
409.791	2217.19
410.014	2245.19
410.238	2341.19
410.461	2500.19
410.685	2270.19
410.908	2117.19
411.132	2173.19
411.355	2158.19
411.578	2154.19
411.802	2157.19
412.025	2185.19
412.249	2142.19
412.472	2050.19
412.695	2058.19
412.919	2041.19
413.142	2057.19
413.365	2127.19
413.589	2145.19
413.812	2200.19
414.035	2279.19
414.258	2123.19
414.482	2080.19
414.705	2147.19
414.928	2070.19
415.151	2092.19
415.374	2088.19
415.597	2101.19
415.821	2163.19
416.044	2150.19
416.267	2233.19
416.49	2013.19
416.713	2012.19
416.936	2074.19
417.159	2140.19
417.382	2133.19
417.605	2036.19
417.828	2123.19
418.051	2135.19
418.274	2084.19
418.497	2043.19
418.72	2025.19
418.943	2018.19
419.166	2119.19
419.389	2248.19
419.611	2139.19
419.834	2077.19
420.057	2082.19
420.28	2063.19
420.503	2027.19
420.726	2028.19
420.948	2047.19
421.171	2008.19
421.394	2031.19
421.617	2110.19
421.839	2067.19
422.062	2053.19
422.285	1983.19
422.507	1981.19
422.73	1960.19
422.953	1936.19
423.175	1902.19
423.398	1963.19
423.621	2002.19
423.843	2047.19
424.066	2065.19
424.288	2112.19
424.511	2133.19
424.733	2095.19
424.956	1935.19
425.178	1932.19
425.401	1937.19
425.623	1952.19
425.846	1909.19
426.068	2047.19
426.291	2076.19
426.513	2054.19
426.735	2059.19
426.958	2146.19
427.18	2322.19
427.402	2122.19
427.625	2150.19
427.847	2197.19
428.069	2014.19
428.292	1990.19
428.514	1924.19
428.736	1921.19
428.958	1907.19
429.181	1968.19
429.403	2169.19
429.625	2715.19
429.847	2374.19
430.069	2033.19
430.292	2206.19
430.514	2271.19
430.736	2082.19
430.958	2229.19
431.18	2110.19
431.402	1977.19
431.624	1948.19
431.846	1943.19
432.068	1938.19
432.29	1978.19
432.512	1976.19
432.734	1991.19
432.956	2074.19
433.178	2176.19
433.4	2093.19
433.622	2083.19
433.844	2003.19
434.066	1917.19
434.287	1930.19
434.509	1991.19
434.731	2117.19
434.953	2252.19
435.175	2180.19
435.397	2079.19
435.618	2052.19
435.84	2038.19
436.062	2058.19
436.284	1993.19
436.505	2045.19
436.727	2098.19
436.949	1999.19
437.17	1992.19
437.392	1954.19
437.614	1969.19
437.835	1927.19
438.057	2075.19
438.278	2153.19
438.5	1987.19
438.721	1958.19
438.943	1976.19
439.165	1892.19
439.386	1903.19
439.608	1918.19
439.829	1923.19
440.05	1970.19
440.272	1887.19
440.493	1909.19
440.715	1953.19
440.936	2052.19
441.158	2287.19
441.379	2213.19
441.6	2169.19
441.822	2075.19
442.043	2086.19
442.264	2051.19
442.486	1972.19
442.707	1904.19
442.928	1921.19
443.149	2023.19
443.371	2126.19
443.592	2196.19
443.813	2163.19
444.034	2118.19
444.255	2075.19
444.476	2165.19
444.698	2242.19
444.919	2191.19
445.14	2252.19
445.361	2272.19
445.582	2328.19
445.803	2231.19
446.024	2114.19
446.245	2201.19
446.466	2152.19
446.687	2039.19
446.908	1980.19
447.129	1953.19
447.35	1978.19
447.571	1970.19
447.792	1890.19
448.013	1882.19
448.234	1942.19
448.455	2020.19
448.675	2072.19
448.896	1841.19
449.117	1852.19
449.338	1913.19
449.559	1985.19
449.779	2099.19
450	2337.19
450.221	2517.19
450.442	2398.19
450.662	2084.19
450.883	1857.19
451.104	1797.19
451.324	1819.19
451.545	1923.19
451.766	1895.19
451.986	1782.19
452.207	1826.19
452.428	1768.19
452.648	1709.19
452.869	1796.19
453.089	1863.19
453.31	1866.19
453.53	1946.19
453.751	1901.19
453.971	1781.19
454.192	1817.19
454.412	1980.19
454.633	1858.19
454.853	1829.19
455.073	1685.19
455.294	1724.19
455.514	1710.19
455.734	1709.19
455.955	1737.19
456.175	1757.19
456.395	1746.19
456.616	1804.19
456.836	1820.19
457.056	1796.19
457.276	1828.19
457.497	1740.19
457.717	1662.19
457.937	1697.19
458.157	1744.19
458.377	1708.19
458.598	1742.19
458.818	1755.19
459.038	1837.19
459.258	1978.19
459.478	1946.19
459.698	1908.19
459.918	1957.19
460.138	2024.19
460.358	2063.19
460.578	2058.19
460.798	2164.19
461.018	2339.19
461.238	2165.19
461.458	2074.19
461.678	2059.19
461.898	2071.19
462.118	1962.19
462.338	2103.19
462.558	2123.19
462.777	2088.19
462.997	2199.19
463.217	2289.19
463.437	2282.19
463.657	2145.19
463.876	2084.19
464.096	2066.19
464.316	2059.19
464.536	2129.19
464.755	2137.19
464.975	2170.19
465.195	2102.19
465.414	2231.19
465.634	2172.19
465.854	2104.19
466.073	2170.19
466.293	2153.19
466.512	1878.19
466.732	1869.19
466.951	1967.19
467.171	1964.19
467.391	1870.19
467.61	1836.19
467.829	1868.19
468.049	2013.19
468.268	2254.19
468.488	2125.19
468.707	2013.19
468.927	1941.19
469.146	1906.19
469.365	1884.19
469.585	1893.19
469.804	1877.19
470.023	1894.19
470.243	1923.19
470.462	1906.19
470.681	1886.19
470.901	1926.19
471.12	1895.19
471.339	1881.19
471.558	1817.19
471.777	1807.19
471.997	1849.19
472.216	1860.19
472.435	1806.19
472.654	1882.19
472.873	1921.19
473.092	2031.19
473.311	1958.19
473.53	1841.19
473.749	1798.19
473.968	1896.19
474.187	1972.19
474.406	2089.19
474.625	2025.19
474.844	1882.19
475.063	1919.19
475.282	2014.19
475.501	1945.19
475.72	1917.19
475.939	2017.19
476.158	2008.19
476.377	1960.19
476.596	1944.19
476.814	2003.19
477.033	1997.19
477.252	2003.19
477.471	2155.19
477.69	2028.19
477.908	1998.19
478.127	2111.19
478.346	2272.19
478.564	2329.19
478.783	2204.19
479.002	2378.19
479.22	2285.19
479.439	2396.19
479.658	2631.19
479.876	2643.19
480.095	2323.19
480.313	2266.19
480.532	2116.19
480.751	2127.19
480.969	2216.19
481.188	2175.19
481.406	2107.19
481.624	2056.19
481.843	2075.19
482.061	2174.19
482.28	2210.19
482.498	2252.19
482.717	2238.19
482.935	2122.19
483.153	2102.19
483.372	2141.19
483.59	2122.19
483.808	2118.19
484.027	2174.19
484.245	2318.19
484.463	2647.19
484.681	3028.19
484.9	2387.19
485.118	2231.19
485.336	2158.19
485.554	2246.19
485.772	2303.19
485.99	2276.19
486.209	2254.19
486.427	2293.19
486.645	2297.19
486.863	2244.19
487.081	2292.19
487.299	2362.19
487.517	2353.19
487.735	2239.19
487.953	2266.19
488.171	2189.19
488.389	2197.19
488.607	2191.19
488.825	2388.19
489.043	2441.19
489.261	2237.19
489.479	2327.19
489.696	2366.19
489.914	2349.19
490.132	2295.19
490.35	2242.19
490.568	2368.19
490.786	2269.19
491.003	2171.19
491.221	2241.19
491.439	2337.19
491.657	2290.19
491.874	2261.19
492.092	2320.19
492.31	2347.19
492.527	2295.19
492.745	2284.19
492.963	2286.19
493.18	2373.19
493.398	2540.19
493.615	2587.19
493.833	2347.19
494.05	2300.19
494.268	2301.19
494.485	2401.19
494.703	2356.19
494.92	2329.19
495.138	2286.19
495.355	2327.19
495.573	2407.19
495.79	2595.19
496.008	2638.19
496.225	2429.19
496.442	2400.19
496.66	2493.19
496.877	2451.19
497.094	2517.19
497.312	2565.19
497.529	2493.19
497.746	2546.19
497.963	2993.19
498.181	3325.19
498.398	3121.19
498.615	2994.19
498.832	2941.19
499.049	2914.19
499.267	2945.19
499.484	3139.19
499.701	3350.19
499.918	3397.19
500.135	3664.19
500.352	3963.19
500.569	3938.19
500.786	4137.19
501.003	3825.19
501.22	3511.19
501.437	3443.19
501.654	3455.19
501.871	3289.19
502.088	2945.19
502.305	2954.19
502.522	2780.19
502.739	2633.19
502.956	2603.19
503.172	2580.19
503.389	2428.19
503.606	2403.19
503.823	2489.19
504.04	2453.19
504.256	2433.19
504.473	2490.19
504.69	2631.19
504.907	2428.19
505.123	2312.19
505.34	2370.19
505.557	3014.19
505.773	2634.19
505.99	2244.19
506.207	2117.19
506.423	2070.19
506.64	2089.19
506.856	2086.19
507.073	2333.19
507.289	2541.19
507.506	2419.19
507.722	2130.19
507.939	2001.19
508.155	2059.19
508.372	2062.19
508.588	1991.19
508.805	1958.19
509.021	1903.19
509.238	1916.19
509.454	1941.19
509.67	1900.19
509.887	1896.19
510.103	1887.19
510.319	1943.19
510.536	1981.19
510.752	2063.19
510.968	2057.19
511.184	2252.19
511.401	2171.19
511.617	1935.19
511.833	1823.19
512.049	1863.19
512.265	1868.19
512.481	1862.19
512.698	1884.19
512.914	2026.19
513.13	2018.19
513.346	1899.19
513.562	1823.19
513.778	1909.19
513.994	1939.19
514.21	2019.19
514.426	2001.19
514.642	2242.19
514.858	2141.19
515.074	1929.19
515.29	1849.19
515.506	1891.19
515.721	1972.19
515.937	1963.19
516.153	2263.19
516.369	2177.19
516.585	1996.19
516.801	1961.19
517.016	1930.19
517.232	1993.19
517.448	2040.19
517.664	2031.19
517.879	2061.19
518.095	2141.19
518.311	2101.19
518.527	1975.19
518.742	1929.19
518.958	1894.19
519.173	1857.19
519.389	1910.19
519.605	1889.19
519.82	1931.19
520.036	1945.19
520.251	1927.19
520.467	1918.19
520.682	2045.19
520.898	2118.19
521.113	1917.19
521.329	1829.19
521.544	1950.19
521.76	1929.19
521.975	1827.19
522.19	1762.19
522.406	1723.19
522.621	2107.19
522.836	2154.19
523.052	1796.19
523.267	1772.19
523.482	1751.19
523.698	1709.19
523.913	1671.19
524.128	1698.19
524.343	1822.19
524.559	1846.19
524.774	1733.19
524.989	1736.19
525.204	1697.19
525.419	1683.19
525.634	1680.19
525.849	1685.19
526.064	1717.19
526.28	1754.19
526.495	1654.19
526.71	1645.19
526.925	1663.19
527.14	1591.19
527.355	1588.19
527.57	1621.19
527.785	1679.19
527.999	1601.19
528.214	1614.19
528.429	1566.19
528.644	1576.19
528.859	1622.19
529.074	1598.19
529.289	1591.19
529.503	1638.19
529.718	1650.19
529.933	1665.19
530.148	1606.19
530.363	1588.19
530.577	1639.19
530.792	1670.19
531.007	1629.19
531.221	1586.19
531.436	1654.19
531.651	1714.19
531.865	1757.19
532.08	1669.19
532.295	1564.19
532.509	1494.19
532.724	1547.19
532.938	1661.19
533.153	1719.19
533.367	1642.19
533.582	1640.19
533.796	1634.19
534.011	1597.19
534.225	1626.19
534.44	1577.19
534.654	1572.19
534.868	1588.19
535.083	1630.19
535.297	1631.19
535.511	1603.19
535.726	1590.19
535.94	1564.19
536.154	1595.19
536.369	1551.19
536.583	1565.19
536.797	1517.19
537.011	1565.19
537.225	1485.19
537.44	1492.19
537.654	1593.19
537.868	1504.19
538.082	1468.19
538.296	1457.19
538.51	1449.19
538.724	1437.19
538.938	1460.19
539.153	1502.19
539.367	1501.19
539.581	1494.19
539.795	1589.19
540.009	1548.19
540.222	1526.19
540.436	1565.19
540.65	1724.19
540.864	1733.19
541.078	1589.19
541.292	1501.19
541.506	1512.19
541.72	1524.19
541.934	1547.19
542.147	1575.19
542.361	1501.19
542.575	1490.19
542.789	1453.19
543.002	1410.19
543.216	1447.19
543.43	1527.19
543.644	1599.19
543.857	1577.19
544.071	1577.19
544.285	1522.19
544.498	1524.19
544.712	1512.19
544.925	1518.19
545.139	1576.19
545.352	1467.19
545.566	1427.19
545.779	1425.19
545.993	1445.19
546.206	1480.19
546.42	1434.19
546.633	1397.19
546.847	1387.19
547.06	1397.19
547.274	1416.19
547.487	1401.19
547.7	1421.19
547.914	1404.19
548.127	1461.19
548.34	1444.19
548.554	1463.19
548.767	1431.19
548.98	1446.19
549.193	1419.19
549.407	1477.19
549.62	1498.19
549.833	1406.19
550.046	1407.19
550.259	1406.19
550.473	1403.19
550.686	1369.19
550.899	1387.19
551.112	1351.19
551.325	1368.19
551.538	1441.19
551.751	1633.19
551.964	1330.19
552.177	1341.19
552.39	1367.19
552.603	1413.19
552.816	1387.19
553.029	1437.19
553.242	1505.19
553.455	1398.19
553.667	1383.19
553.88	1425.19
554.093	1365.19
554.306	1364.19
554.519	1332.19
554.732	1309.19
554.944	1336.19
555.157	1365.19
555.37	1312.19
555.583	1319.19
555.795	1277.19
556.008	1273.19
556.221	1272.19
556.433	1244.19
556.646	1219.19
556.859	1243.19
557.071	1223.19
557.284	1201.19
557.496	1211.19
557.709	1221.19
557.921	1176.19
558.134	1207.19
558.346	1178.19
558.559	1191.19
558.771	1165.19
558.984	1142.19
559.196	1137.19
559.409	1183.19
559.621	1122.19
559.833	1146.19
560.046	1213.19
560.258	1193.19
560.47	1141.19
560.683	1166.19
560.895	1156.19
561.107	1181.19
561.32	1182.19
561.532	1198.19
561.744	1159.19
561.956	1166.19
562.168	1142.19
562.381	1097.19
562.593	1109.19
562.805	1137.19
563.017	1120.19
563.229	1139.19
563.441	1185.19
563.653	1131.19
563.865	1141.19
564.077	1167.19
564.289	1113.19
564.501	1157.19
564.713	1207.19
564.925	1222.19
565.137	1307.19
565.349	1196.19
565.561	1206.19
565.773	1219.19
565.985	1199.19
566.197	1301.19
566.408	1395.19
566.62	1382.19
566.832	1371.19
567.044	1394.19
567.255	1367.19
567.467	1356.19
567.679	1414.19
567.891	1477.19
568.102	1414.19
568.314	1366.19
568.526	1318.19
568.737	1255.19
568.949	1205.19
569.161	1168.19
569.372	1114.19
569.584	1111.19
569.795	1138.19
570.007	1081.19
570.218	1067.19
570.43	1045.19
570.641	1047.19
570.853	1035.19
571.064	1037.19
571.276	1026.19
571.487	1020.19
571.698	991.19
571.91	991.19
572.121	957.19
572.333	959.19
572.544	926.19
572.755	927.19
572.966	912.19
573.178	947.19
573.389	936.19
573.6	987.19
573.811	982.19
574.023	910.19
574.234	913.19
574.445	872.19
574.656	883.19
574.867	873.19
575.078	897.19
575.289	896.19
575.501	863.19
575.712	859.19
575.923	869.19
576.134	882.19
576.345	845.19
576.556	855.19
576.767	834.19
576.978	820.19
577.188	824.19
577.399	811.19
577.61	831.19
577.821	817.19
578.032	774.19
578.243	770.19
578.454	804.19
578.665	779.19
578.875	799.19
579.086	773.19
579.297	800.19
579.508	809.19
579.718	800.19
579.929	796.19
580.14	768.19
580.35	759.19
580.561	811.19
580.772	843.19
580.982	794.19
581.193	769.19
581.403	762.19
581.614	731.19
581.825	727.19
582.035	745.19
582.246	758.19
582.456	777.19
582.667	769.19
582.877	749.19
583.087	730.19
583.298	712.19
583.508	710.19
583.719	736.19
583.929	781.19
584.139	757.19
584.35	731.19
584.56	725.19
584.77	716.19
584.981	754.19
585.191	716.19
585.401	736.19
585.611	754.19
585.821	711.19
586.032	725.19
586.242	708.19
586.452	716.19
586.662	716.19
586.872	684.19
587.082	718.19
587.292	732.19
587.502	724.19
587.713	740.19
587.923	703.19
588.133	702.19
588.343	730.19
588.553	725.19
588.762	689.19
588.972	679.19
589.182	710.19
589.392	709.19
589.602	690.19
589.812	708.19
590.022	668.19
590.232	669.19
590.441	687.19
590.651	736.19
590.861	709.19
591.071	690.19
591.281	697.19
591.49	694.19
591.7	680.19
591.91	682.19
592.119	697.19
592.329	711.19
592.539	723.19
592.748	731.19
592.958	725.19
593.167	730.19
593.377	731.19
593.587	727.19
593.796	749.19
594.006	719.19
594.215	740.19
594.424	733.19
594.634	702.19
594.843	725.19
595.053	732.19
595.262	694.19
595.472	698.19
595.681	693.19
595.89	644.19
596.1	637.19
596.309	655.19
596.518	669.19
596.727	661.19
596.937	626.19
597.146	633.19
597.355	622.19
597.564	619.19
597.774	598.19
597.983	609.19
598.192	592.19
598.401	588.19
598.61	592.19
598.819	604.19
599.028	598.19
599.237	587.19
599.446	587.19
599.655	579.19
599.864	571.19
600.073	551.19
600.282	579.19
600.491	564.19
600.7	565.19
600.909	580.19
601.118	557.19
601.327	583.19
601.536	588.19
601.745	546.19
601.953	564.19
602.162	576.19
602.371	536.19
602.58	558.19
602.789	534.19
602.997	550.19
603.206	573.19
603.415	567.19
603.623	566.19
603.832	565.19
604.041	566.19
604.249	543.19
604.458	532.19
604.666	551.19
604.875	542.19
605.084	528.19
605.292	547.19
605.501	556.19
605.709	544.19
605.918	533.19
606.126	516.19
606.334	524.19
606.543	520.19
606.751	530.19
606.96	543.19
607.168	527.19
607.376	520.19
607.585	530.19
607.793	501.19
608.001	540.19
608.21	506.19
608.418	519.19
608.626	517.19
608.834	518.19
609.043	536.19
609.251	497.19
609.459	503.19
609.667	522.19
609.875	525.19
610.083	540.19
610.291	530.19
610.499	531.19
610.707	520.19
610.916	501.19
611.124	503.19
611.332	478.19
611.54	500.19
611.748	482.19
611.955	492.19
612.163	477.19
612.371	491.19
612.579	490.19
612.787	477.19
612.995	509.19
613.203	497.19
613.411	499.19
613.618	498.19
613.826	482.19
614.034	493.19
614.242	477.19
614.449	460.19
614.657	514.19
614.865	483.19
615.072	486.19
615.28	477.19
615.488	501.19
615.695	501.19
615.903	501.19
616.111	482.19
616.318	486.19
616.526	480.19
616.733	484.19
616.941	466.19
617.148	481.19
617.356	472.19
617.563	482.19
617.771	481.19
617.978	440.19
618.185	473.19
618.393	456.19
618.6	462.19
618.807	459.19
619.015	462.19
619.222	457.19
619.429	465.19
619.637	458.19
619.844	479.19
620.051	471.19
620.258	437.19
620.466	434.19
620.673	447.19
620.88	429.19
621.087	427.19
621.294	422.19
621.501	427.19
621.708	417.19
621.915	447.19
622.122	441.19
622.329	427.19
622.536	425.19
622.743	453.19
622.95	427.19
623.157	422.19
623.364	438.19
623.571	425.19
623.778	425.19
623.985	463.19
624.192	417.19
624.399	419.19
624.606	411.19
624.812	411.19
625.019	403.19
625.226	398.19
625.433	410.19
625.639	417.19
625.846	400.19
626.053	395.19
626.259	399.19
626.466	419.19
626.673	394.19
626.879	397.19
627.086	387.19
627.293	387.19
627.499	389.19
627.706	384.19
627.912	400.19
628.119	377.19
628.325	382.19
628.532	370.19
628.738	392.19
628.945	374.19
629.151	365.19
629.357	387.19
629.564	393.19
629.77	391.19
629.976	373.19
630.183	364.19
630.389	383.19
630.595	377.19
630.802	364.19
631.008	345.19
631.214	396.19
631.42	362.19
631.627	385.19
631.833	349.19
632.039	362.19
632.245	386.19
632.451	341.19
632.657	363.19
632.863	359.19
633.069	355.19
633.275	362.19
633.481	367.19
633.688	351.19
633.893	353.19
634.099	347.19
634.305	325.19
634.511	323.19
634.717	340.19
634.923	326.19
635.129	342.19
635.335	344.19
635.541	354.19
635.747	358.19
635.952	355.19
636.158	356.19
636.364	353.19
636.57	343.19
636.775	327.19
636.981	322.19
637.187	328.19
637.392	337.19
637.598	311.19
637.804	337.19
638.009	343.19
638.215	330.19
638.421	329.19
638.626	329.19
638.832	321.19
639.037	337.19
639.243	330.19
639.448	326.19
639.654	324.19
639.859	315.19
640.065	312.19
640.27	327.19
640.475	292.19
640.681	325.19
640.886	322.19
641.091	289.19
641.297	310.19
641.502	325.19
641.707	330.19
641.913	312.19
642.118	323.19
642.323	318.19
642.528	313.19
642.733	309.19
642.939	321.19
643.144	298.19
643.349	332.19
643.554	316.19
643.759	306.19
643.964	310.19
644.169	308.19
644.374	301.19
644.579	305.19
644.784	298.19
644.989	292.19
645.194	295.19
645.399	283.19
645.604	286.19
645.809	314.19
646.014	323.19
646.219	311.19
646.423	303.19
646.628	287.19
646.833	296.19
647.038	300.19
647.243	302.19
647.447	300.19
647.652	301.19
647.857	310.19
648.062	301.19
648.266	314.19
648.471	316.19
648.676	299.19
648.88	316.19
649.085	295.19
649.289	288.19
649.494	307.19
649.698	294.19
649.903	284.19
650.107	298.19
650.312	279.19
650.516	275.19
650.721	279.19
650.925	257.19
651.13	287.19
651.334	266.19
651.539	277.19
651.743	252.19
651.947	274.19
652.152	268.19
652.356	240.19
652.56	237.19
652.764	257.19
652.969	245.19
653.173	245.19
653.377	252.19
653.581	244.19
653.785	245.19
653.99	245.19
654.194	209.19
654.398	226.19
654.602	242.19
654.806	241.19
655.01	246.19
655.214	242.19
655.418	227.19
655.622	239.19
655.826	243.19
656.03	258.19
656.234	254.19
656.438	241.19
656.642	263.19
656.846	253.19
657.049	245.19
657.253	212.19
657.457	200.19
657.661	198.19
657.865	182.19
658.068	178.19
658.272	166.19
658.476	158.19
658.68	166.19
658.883	141.19
659.087	145.19
659.291	139.19
659.494	140.19
659.698	141.19
659.901	131.19
660.105	125.19
660.309	124.19
660.512	116.19
660.716	129.19
660.919	111.19
661.123	110.19
661.326	107.19
661.53	119.19
661.733	105.19
661.936	89.19
662.14	101.19
662.343	80.19
662.546	91.19
662.75	97.19
662.953	88.19
663.156	101.19
663.36	84.19
663.563	95.19
663.766	89.19
663.969	84.19
664.173	84.19
664.376	89.19
664.579	88.19
664.782	78.19
664.985	107.19
665.188	89.19
665.391	87.19
665.594	90.19
665.797	89.19
666	89.19
666.203	90.19
666.406	93.19
666.609	84.19
666.812	83.19
667.015	88.19
667.218	79.19
667.421	75.19
667.624	77.19
667.827	95.19
668.03	81.19
668.232	98.19
668.435	70.19
668.638	78.19
668.841	73.19
669.043	82.19
669.246	77.19
669.449	87.19
669.651	94.19
669.854	89.19
670.057	81.19
670.259	76.19
670.462	80.19
670.665	73.19
670.867	83.19
671.07	73.19
671.272	93.19
671.475	86.19
671.677	85.19
671.88	90.19
672.082	84.19
672.284	74.19
672.487	79.19
672.689	65.19
672.892	73.19
