Data from WStandard_LampEnergy10_LIBS07252019.E.O._I.C._HRD10591_15-54-27-928.txt Node
Date: Thu Jul 25 15:54:27 EDT 2019
User: cochatt
Spectrometer: HR+D1059
Trigger mode: 1
Integration Time (sec): 1.000000E-1
Scans to average: 1
Electric dark correction enabled: true
Nonlinearity correction enabled: false
Boxcar width: 0
XAxis mode: Wavelengths
Number of Pixels in Spectrum: 2048
>>>>>Begin Spectral Data<<<<<
223.165	-13.19
223.4	-13.19
223.635	-13.19
223.869	-17.19
224.104	-22.19
224.338	-18.19
224.573	-21.19
224.808	-17.19
225.042	-7.19
225.277	-5.19
225.511	-15.19
225.746	6.81
225.98	14.81
226.215	22.81
226.449	26.81
226.683	9.81
226.918	31.81
227.152	23.81
227.387	29.81
227.621	35.81
227.856	37.81
228.09	44.81
228.324	49.81
228.559	56.81
228.793	78.81
229.027	149.81
229.262	129.81
229.496	150.81
229.73	150.81
229.964	155.81
230.199	170.81
230.433	172.81
230.667	160.81
230.901	188.81
231.136	175.81
231.37	159.81
231.604	162.81
231.838	176.81
232.072	172.81
232.306	176.81
232.541	175.81
232.775	210.81
233.009	205.81
233.243	187.81
233.477	195.81
233.711	184.81
233.945	202.81
234.179	195.81
234.413	208.81
234.647	198.81
234.881	190.81
235.115	185.81
235.349	184.81
235.583	182.81
235.817	200.81
236.051	166.81
236.285	192.81
236.519	195.81
236.753	225.81
236.987	216.81
237.221	214.81
237.455	230.81
237.689	228.81
237.922	223.81
238.156	204.81
238.39	220.81
238.624	223.81
238.858	234.81
239.091	235.81
239.325	257.81
239.559	279.81
239.793	272.81
240.027	313.81
240.26	284.81
240.494	233.81
240.728	232.81
240.961	232.81
241.195	244.81
241.429	244.81
241.662	235.81
241.896	222.81
242.13	254.81
242.363	258.81
242.597	285.81
242.83	276.81
243.064	260.81
243.298	294.81
243.531	286.81
243.765	279.81
243.998	261.81
244.232	243.81
244.465	242.81
244.699	253.81
244.932	270.81
245.166	315.81
245.399	275.81
245.633	288.81
245.866	284.81
246.099	293.81
246.333	302.81
246.566	292.81
246.8	304.81
247.033	315.81
247.266	309.81
247.5	314.81
247.733	319.81
247.966	330.81
248.2	342.81
248.433	372.81
248.666	356.81
248.899	374.81
249.133	414.81
249.366	451.81
249.599	375.81
249.832	343.81
250.066	373.81
250.299	346.81
250.532	325.81
250.765	323.81
250.998	338.81
251.231	322.81
251.465	360.81
251.698	330.81
251.931	340.81
252.164	356.81
252.397	346.81
252.63	334.81
252.863	315.81
253.096	309.81
253.329	335.81
253.562	344.81
253.795	355.81
254.028	332.81
254.261	336.81
254.494	332.81
254.727	319.81
254.96	336.81
255.193	357.81
255.426	386.81
255.659	433.81
255.892	437.81
256.124	371.81
256.357	372.81
256.59	412.81
256.823	401.81
257.056	410.81
257.289	444.81
257.521	494.81
257.754	455.81
257.987	436.81
258.22	451.81
258.452	428.81
258.685	373.81
258.918	397.81
259.151	375.81
259.383	347.81
259.616	343.81
259.849	360.81
260.081	406.81
260.314	447.81
260.547	469.81
260.779	460.81
261.012	434.81
261.244	420.81
261.477	412.81
261.71	397.81
261.942	392.81
262.175	375.81
262.407	412.81
262.64	394.81
262.872	355.81
263.105	348.81
263.337	378.81
263.57	349.81
263.802	363.81
264.035	349.81
264.267	344.81
264.499	339.81
264.732	355.81
264.964	359.81
265.197	385.81
265.429	418.81
265.661	433.81
265.894	462.81
266.126	465.81
266.358	436.81
266.591	454.81
266.823	451.81
267.055	442.81
267.287	422.81
267.52	434.81
267.752	414.81
267.984	448.81
268.216	461.81
268.448	456.81
268.681	434.81
268.913	399.81
269.145	386.81
269.377	417.81
269.609	435.81
269.841	500.81
270.073	564.81
270.306	602.81
270.538	614.81
270.77	556.81
271.002	455.81
271.234	439.81
271.466	476.81
271.698	523.81
271.93	599.81
272.162	567.81
272.394	535.81
272.626	490.81
272.858	470.81
273.09	398.81
273.322	395.81
273.553	379.81
273.785	394.81
274.017	391.81
274.249	430.81
274.481	422.81
274.713	386.81
274.945	416.81
275.176	407.81
275.408	386.81
275.64	394.81
275.872	393.81
276.104	422.81
276.335	464.81
276.567	510.81
276.799	496.81
277.031	473.81
277.262	460.81
277.494	479.81
277.726	470.81
277.957	479.81
278.189	456.81
278.421	424.81
278.652	409.81
278.884	412.81
279.115	420.81
279.347	420.81
279.579	412.81
279.81	424.81
280.042	468.81
280.273	499.81
280.505	514.81
280.736	511.81
280.968	459.81
281.199	430.81
281.431	408.81
281.662	401.81
281.894	404.81
282.125	431.81
282.356	442.81
282.588	443.81
282.819	450.81
283.051	475.81
283.282	473.81
283.513	471.81
283.745	430.81
283.976	415.81
284.207	434.81
284.439	426.81
284.67	443.81
284.901	456.81
285.132	460.81
285.364	433.81
285.595	435.81
285.826	431.81
286.057	434.81
286.288	454.81
286.52	473.81
286.751	489.81
286.982	500.81
287.213	467.81
287.444	439.81
287.675	425.81
287.906	462.81
288.138	465.81
288.369	462.81
288.6	421.81
288.831	422.81
289.062	415.81
289.293	423.81
289.524	459.81
289.755	444.81
289.986	470.81
290.217	422.81
290.448	436.81
290.679	433.81
290.91	436.81
291.141	448.81
291.371	458.81
291.602	479.81
291.833	466.81
292.064	482.81
292.295	489.81
292.526	487.81
292.757	520.81
292.987	479.81
293.218	473.81
293.449	520.81
293.68	561.81
293.91	576.81
294.141	552.81
294.372	512.81
294.603	550.81
294.833	543.81
295.064	526.81
295.295	485.81
295.525	464.81
295.756	439.81
295.987	421.81
296.217	420.81
296.448	467.81
296.679	448.81
296.909	457.81
297.14	446.81
297.37	473.81
297.601	499.81
297.831	531.81
298.062	494.81
298.292	461.81
298.523	467.81
298.753	449.81
298.984	463.81
299.214	460.81
299.445	483.81
299.675	485.81
299.905	486.81
300.136	467.81
300.366	468.81
300.597	460.81
300.827	467.81
301.057	467.81
301.288	512.81
301.518	494.81
301.748	514.81
301.979	532.81
302.209	568.81
302.439	578.81
302.669	558.81
302.9	527.81
303.13	506.81
303.36	497.81
303.59	524.81
303.82	491.81
304.051	514.81
304.281	515.81
304.511	547.81
304.741	551.81
304.971	593.81
305.201	617.81
305.431	540.81
305.661	484.81
305.891	455.81
306.121	448.81
306.352	475.81
306.582	510.81
306.812	538.81
307.042	553.81
307.272	552.81
307.502	586.81
307.731	602.81
307.961	615.81
308.191	563.81
308.421	499.81
308.651	486.81
308.881	479.81
309.111	512.81
309.341	487.81
309.571	493.81
309.8	491.81
310.03	488.81
310.26	485.81
310.49	481.81
310.72	495.81
310.949	532.81
311.179	502.81
311.409	512.81
311.639	495.81
311.868	484.81
312.098	491.81
312.328	498.81
312.557	499.81
312.787	482.81
313.017	507.81
313.246	521.81
313.476	519.81
313.706	510.81
313.935	526.81
314.165	547.81
314.394	566.81
314.624	578.81
314.853	587.81
315.083	603.81
315.312	602.81
315.542	567.81
315.771	518.81
316.001	544.81
316.23	534.81
316.46	565.81
316.689	546.81
316.919	541.81
317.148	512.81
317.377	550.81
317.607	544.81
317.836	619.81
318.065	625.81
318.295	613.81
318.524	580.81
318.753	578.81
318.983	567.81
319.212	544.81
319.441	544.81
319.67	531.81
319.9	559.81
320.129	584.81
320.358	600.81
320.587	603.81
320.816	605.81
321.046	574.81
321.275	574.81
321.504	582.81
321.733	611.81
321.962	604.81
322.191	575.81
322.42	545.81
322.649	523.81
322.878	520.81
323.108	544.81
323.337	560.81
323.566	554.81
323.795	564.81
324.024	586.81
324.253	555.81
324.482	549.81
324.71	540.81
324.939	511.81
325.168	541.81
325.397	567.81
325.626	568.81
325.855	561.81
326.084	541.81
326.313	554.81
326.542	542.81
326.77	589.81
326.999	590.81
327.228	552.81
327.457	536.81
327.686	532.81
327.914	542.81
328.143	572.81
328.372	534.81
328.6	531.81
328.829	536.81
329.058	523.81
329.287	559.81
329.515	544.81
329.744	591.81
329.972	597.81
330.201	611.81
330.43	584.81
330.658	566.81
330.887	581.81
331.115	587.81
331.344	587.81
331.572	603.81
331.801	572.81
332.03	593.81
332.258	585.81
332.486	593.81
332.715	594.81
332.943	585.81
333.172	606.81
333.4	609.81
333.629	619.81
333.857	647.81
334.085	729.81
334.314	818.81
334.542	825.81
334.771	764.81
334.999	685.81
335.227	622.81
335.455	618.81
335.684	632.81
335.912	638.81
336.14	630.81
336.369	632.81
336.597	590.81
336.825	602.81
337.053	612.81
337.281	668.81
337.51	689.81
337.738	667.81
337.966	611.81
338.194	586.81
338.422	578.81
338.65	562.81
338.878	555.81
339.106	546.81
339.334	562.81
339.562	560.81
339.79	574.81
340.018	624.81
340.246	614.81
340.474	611.81
340.702	600.81
340.93	618.81
341.158	614.81
341.386	595.81
341.614	581.81
341.842	583.81
342.07	580.81
342.298	607.81
342.526	583.81
342.754	572.81
342.981	588.81
343.209	571.81
343.437	571.81
343.665	580.81
343.893	594.81
344.12	614.81
344.348	615.81
344.576	596.81
344.804	605.81
345.031	578.81
345.259	607.81
345.487	562.81
345.714	549.81
345.942	515.81
346.17	550.81
346.397	566.81
346.625	548.81
346.853	532.81
347.08	518.81
347.308	530.81
347.535	549.81
347.763	569.81
347.99	571.81
348.218	531.81
348.445	542.81
348.673	555.81
348.9	598.81
349.128	599.81
349.355	585.81
349.583	573.81
349.81	554.81
350.037	526.81
350.265	542.81
350.492	542.81
350.72	546.81
350.947	568.81
351.174	574.81
351.402	519.81
351.629	515.81
351.856	494.81
352.083	523.81
352.311	518.81
352.538	544.81
352.765	562.81
352.992	544.81
353.22	555.81
353.447	526.81
353.674	557.81
353.901	540.81
354.128	528.81
354.355	544.81
354.583	570.81
354.81	594.81
355.037	574.81
355.264	573.81
355.491	555.81
355.718	553.81
355.945	534.81
356.172	530.81
356.399	543.81
356.626	562.81
356.853	589.81
357.08	631.81
357.307	676.81
357.534	638.81
357.761	553.81
357.988	539.81
358.215	536.81
358.441	538.81
358.668	525.81
358.895	555.81
359.122	576.81
359.349	626.81
359.576	618.81
359.802	562.81
360.029	517.81
360.256	544.81
360.483	580.81
360.709	592.81
360.936	599.81
361.163	614.81
361.39	676.81
361.616	711.81
361.843	671.81
362.07	623.81
362.296	565.81
362.523	588.81
362.749	560.81
362.976	607.81
363.203	552.81
363.429	574.81
363.656	530.81
363.882	598.81
364.109	632.81
364.335	660.81
364.562	613.81
364.788	589.81
365.015	561.81
365.241	568.81
365.468	556.81
365.694	601.81
365.92	605.81
366.147	564.81
366.373	537.81
366.599	542.81
366.826	544.81
367.052	561.81
367.278	576.81
367.505	589.81
367.731	585.81
367.957	590.81
368.184	638.81
368.41	654.81
368.636	638.81
368.862	678.81
369.089	657.81
369.315	626.81
369.541	614.81
369.767	581.81
369.993	569.81
370.219	580.81
370.445	612.81
370.672	634.81
370.898	648.81
371.124	658.81
371.35	620.81
371.576	640.81
371.802	630.81
372.028	625.81
372.254	597.81
372.48	607.81
372.706	595.81
372.932	575.81
373.158	598.81
373.384	608.81
373.61	617.81
373.835	675.81
374.061	622.81
374.287	602.81
374.513	621.81
374.739	611.81
374.965	627.81
375.191	624.81
375.416	622.81
375.642	648.81
375.868	701.81
376.094	696.81
376.319	656.81
376.545	632.81
376.771	692.81
376.997	674.81
377.222	672.81
377.448	658.81
377.674	680.81
377.899	658.81
378.125	694.81
378.35	680.81
378.576	650.81
378.802	617.81
379.027	612.81
379.253	627.81
379.478	640.81
379.704	636.81
379.929	638.81
380.155	646.81
380.38	640.81
380.606	635.81
380.831	662.81
381.057	702.81
381.282	678.81
381.507	696.81
381.733	732.81
381.958	711.81
382.184	670.81
382.409	678.81
382.634	677.81
382.86	677.81
383.085	658.81
383.31	707.81
383.535	786.81
383.761	782.81
383.986	743.81
384.211	731.81
384.436	715.81
384.662	731.81
384.887	770.81
385.112	714.81
385.337	736.81
385.562	735.81
385.787	741.81
386.013	768.81
386.238	745.81
386.463	764.81
386.688	819.81
386.913	835.81
387.138	827.81
387.363	758.81
387.588	740.81
387.813	745.81
388.038	763.81
388.263	788.81
388.488	744.81
388.713	710.81
388.938	713.81
389.163	727.81
389.387	735.81
389.612	739.81
389.837	734.81
390.062	741.81
390.287	741.81
390.512	731.81
390.736	723.81
390.961	738.81
391.186	725.81
391.411	756.81
391.636	726.81
391.86	726.81
392.085	761.81
392.31	735.81
392.534	753.81
392.759	747.81
392.984	761.81
393.208	764.81
393.433	781.81
393.658	805.81
393.882	778.81
394.107	757.81
394.331	754.81
394.556	773.81
394.78	771.81
395.005	788.81
395.229	796.81
395.454	863.81
395.678	847.81
395.903	799.81
396.127	803.81
396.352	833.81
396.576	842.81
396.801	808.81
397.025	846.81
397.249	834.81
397.474	826.81
397.698	827.81
397.922	862.81
398.147	884.81
398.371	898.81
398.595	873.81
398.82	862.81
399.044	876.81
399.268	923.81
399.492	969.81
399.717	967.81
399.941	999.81
400.165	971.81
400.389	973.81
400.613	978.81
400.837	1090.81
401.062	1171.81
401.286	991.81
401.51	950.81
401.734	995.81
401.958	923.81
402.182	860.81
402.406	906.81
402.63	848.81
402.854	878.81
403.078	904.81
403.302	878.81
403.526	902.81
403.75	915.81
403.974	942.81
404.198	971.81
404.422	963.81
404.645	1014.81
404.869	972.81
405.093	918.81
405.317	896.81
405.541	921.81
405.765	918.81
405.988	905.81
406.212	961.81
406.436	943.81
406.66	954.81
406.883	999.81
407.107	1125.81
407.331	1201.81
407.555	1245.81
407.778	1135.81
408.002	975.81
408.226	938.81
408.449	942.81
408.673	934.81
408.896	938.81
409.12	913.81
409.344	948.81
409.567	912.81
409.791	909.81
410.014	944.81
410.238	1008.81
410.461	1040.81
410.685	948.81
410.908	937.81
411.132	935.81
411.355	948.81
411.578	930.81
411.802	914.81
412.025	931.81
412.249	929.81
412.472	915.81
412.695	900.81
412.919	893.81
413.142	896.81
413.365	888.81
413.589	936.81
413.812	1015.81
414.035	1007.81
414.258	936.81
414.482	922.81
414.705	930.81
414.928	900.81
415.151	872.81
415.374	910.81
415.597	922.81
415.821	944.81
416.044	933.81
416.267	924.81
416.49	924.81
416.713	875.81
416.936	918.81
417.159	976.81
417.382	942.81
417.605	906.81
417.828	923.81
418.051	967.81
418.274	930.81
418.497	950.81
418.72	946.81
418.943	918.81
419.166	939.81
419.389	938.81
419.611	923.81
419.834	926.81
420.057	945.81
420.28	883.81
420.503	957.81
420.726	930.81
420.948	951.81
421.171	906.81
421.394	933.81
421.617	973.81
421.839	974.81
422.062	969.81
422.285	936.81
422.507	901.81
422.73	877.81
422.953	894.81
423.175	882.81
423.398	884.81
423.621	904.81
423.843	912.81
424.066	974.81
424.288	1034.81
424.511	1050.81
424.733	1020.81
424.956	935.81
425.178	955.81
425.401	935.81
425.623	925.81
425.846	930.81
426.068	956.81
426.291	961.81
426.513	968.81
426.735	958.81
426.958	1052.81
427.18	1044.81
427.402	963.81
427.625	1005.81
427.847	978.81
428.069	943.81
428.292	897.81
428.514	894.81
428.736	893.81
428.958	898.81
429.181	952.81
429.403	1057.81
429.625	1179.81
429.847	1030.81
430.069	939.81
430.292	1029.81
430.514	1033.81
430.736	964.81
430.958	959.81
431.18	894.81
431.402	882.81
431.624	818.81
431.846	780.81
432.068	721.81
432.29	710.81
432.512	793.81
432.734	838.81
432.956	936.81
433.178	975.81
433.4	976.81
433.622	952.81
433.844	878.81
434.066	832.81
434.287	775.81
434.509	795.81
434.731	828.81
434.953	880.81
435.175	930.81
435.397	899.81
435.618	898.81
435.84	816.81
436.062	805.81
436.284	884.81
436.505	925.81
436.727	935.81
436.949	915.81
437.17	898.81
437.392	867.81
437.614	829.81
437.835	774.81
438.057	827.81
438.278	821.81
438.5	848.81
438.721	907.81
438.943	908.81
439.165	900.81
439.386	930.81
439.608	958.81
439.829	921.81
440.05	955.81
440.272	950.81
440.493	953.81
440.715	993.81
440.936	1010.81
441.158	1052.81
441.379	1002.81
441.6	1032.81
441.822	1003.81
442.043	1002.81
442.264	948.81
442.486	958.81
442.707	951.81
442.928	942.81
443.149	964.81
443.371	991.81
443.592	1008.81
443.813	1009.81
444.034	986.81
444.255	1013.81
444.476	1026.81
444.698	1015.81
444.919	1018.81
445.14	1124.81
445.361	1092.81
445.582	1069.81
445.803	1047.81
446.024	1029.81
446.245	1032.81
446.466	1060.81
446.687	1034.81
446.908	1050.81
447.129	1010.81
447.35	1003.81
447.571	1026.81
447.792	948.81
448.013	975.81
448.234	958.81
448.455	988.81
448.675	970.81
448.896	919.81
449.117	906.81
449.338	926.81
449.559	942.81
449.779	963.81
450	1022.81
450.221	1056.81
450.442	1002.81
450.662	935.81
450.883	889.81
451.104	858.81
451.324	862.81
451.545	880.81
451.766	855.81
451.986	820.81
452.207	821.81
452.428	798.81
452.648	772.81
452.869	773.81
453.089	792.81
453.31	787.81
453.53	757.81
453.751	727.81
453.971	690.81
454.192	719.81
454.412	775.81
454.633	795.81
454.853	766.81
455.073	724.81
455.294	766.81
455.514	775.81
455.734	770.81
455.955	743.81
456.175	726.81
456.395	734.81
456.616	737.81
456.836	731.81
457.056	728.81
457.276	736.81
457.497	698.81
457.717	709.81
457.937	705.81
458.157	707.81
458.377	690.81
458.598	679.81
458.818	665.81
459.038	699.81
459.258	696.81
459.478	699.81
459.698	688.81
459.918	725.81
460.138	804.81
460.358	827.81
460.578	837.81
460.798	848.81
461.018	874.81
461.238	884.81
461.458	866.81
461.678	816.81
461.898	796.81
462.118	802.81
462.338	837.81
462.558	832.81
462.777	850.81
462.997	872.81
463.217	898.81
463.437	873.81
463.657	833.81
463.876	839.81
464.096	806.81
464.316	820.81
464.536	852.81
464.755	850.81
464.975	879.81
465.195	862.81
465.414	880.81
465.634	844.81
465.854	872.81
466.073	945.81
466.293	938.81
466.512	858.81
466.732	862.81
466.951	902.81
467.171	878.81
467.391	898.81
467.61	865.81
467.829	898.81
468.049	935.81
468.268	1038.81
468.488	968.81
468.707	902.81
468.927	922.81
469.146	880.81
469.365	900.81
469.585	912.81
469.804	903.81
470.023	942.81
470.243	918.81
470.462	912.81
470.681	914.81
470.901	922.81
471.12	944.81
471.339	921.81
471.558	926.81
471.777	904.81
471.997	877.81
472.216	843.81
472.435	758.81
472.654	747.81
472.873	778.81
473.092	824.81
473.311	824.81
473.53	811.81
473.749	810.81
473.968	827.81
474.187	855.81
474.406	850.81
474.625	843.81
474.844	867.81
475.063	865.81
475.282	859.81
475.501	799.81
475.72	829.81
475.939	889.81
476.158	883.81
476.377	858.81
476.596	841.81
476.814	819.81
477.033	768.81
477.252	819.81
477.471	867.81
477.69	938.81
477.908	930.81
478.127	975.81
478.346	1016.81
478.564	998.81
478.783	965.81
479.002	1003.81
479.22	977.81
479.439	1001.81
479.658	1026.81
479.876	970.81
480.095	914.81
480.313	890.81
480.532	882.81
480.751	883.81
480.969	826.81
481.188	787.81
481.406	760.81
481.624	770.81
481.843	783.81
482.061	834.81
482.28	887.81
482.498	861.81
482.717	844.81
482.935	882.81
483.153	962.81
483.372	1027.81
483.59	1018.81
483.808	957.81
484.027	947.81
484.245	967.81
484.463	1232.81
484.681	1300.81
484.9	1011.81
485.118	959.81
485.336	905.81
485.554	943.81
485.772	906.81
485.99	904.81
486.209	887.81
486.427	912.81
486.645	946.81
486.863	1001.81
487.081	1008.81
487.299	1024.81
487.517	1026.81
487.735	1082.81
487.953	1173.81
488.171	1156.81
488.389	1126.81
488.607	1088.81
488.825	1146.81
489.043	1038.81
489.261	973.81
489.479	1012.81
489.696	1055.81
489.914	1022.81
490.132	1050.81
490.35	1085.81
490.568	1107.81
490.786	1171.81
491.003	1168.81
491.221	1258.81
491.439	1254.81
491.657	1298.81
491.874	1372.81
492.092	1426.81
492.31	1514.81
492.527	1423.81
492.745	1377.81
492.963	1282.81
493.18	1326.81
493.398	1363.81
493.615	1329.81
493.833	1266.81
494.05	1226.81
494.268	1233.81
494.485	1222.81
494.703	1251.81
494.92	1222.81
495.138	1225.81
495.355	1197.81
495.573	1234.81
495.79	1264.81
496.008	1262.81
496.225	1217.81
496.442	1243.81
496.66	1215.81
496.877	1187.81
497.094	1224.81
497.312	1205.81
497.529	1176.81
497.746	1198.81
497.963	1286.81
498.181	1282.81
498.398	1235.81
498.615	1190.81
498.832	1134.81
499.049	1126.81
499.267	1155.81
499.484	1242.81
499.701	1330.81
499.918	1366.81
500.135	1471.81
500.352	1575.81
500.569	1574.81
500.786	1704.81
501.003	1547.81
501.22	1424.81
501.437	1346.81
501.654	1401.81
501.871	1305.81
502.088	1191.81
502.305	1174.81
502.522	1147.81
502.739	1055.81
502.956	1028.81
503.172	1096.81
503.389	1004.81
503.606	984.81
503.823	1003.81
504.04	1006.81
504.256	989.81
504.473	1020.81
504.69	997.81
504.907	976.81
505.123	983.81
505.34	1037.81
505.557	1335.81
505.773	1097.81
505.99	928.81
506.207	882.81
506.423	889.81
506.64	882.81
506.856	895.81
507.073	1019.81
507.289	1089.81
507.506	992.81
507.722	870.81
507.939	830.81
508.155	839.81
508.372	849.81
508.588	826.81
508.805	803.81
509.021	772.81
509.238	784.81
509.454	760.81
509.67	750.81
509.887	740.81
510.103	708.81
510.319	758.81
510.536	772.81
510.752	757.81
510.968	775.81
511.184	805.81
511.401	745.81
511.617	698.81
511.833	705.81
512.049	688.81
512.265	694.81
512.481	696.81
512.698	728.81
512.914	761.81
513.13	743.81
513.346	703.81
513.562	692.81
513.778	712.81
513.994	744.81
514.21	721.81
514.426	755.81
514.642	831.81
514.858	776.81
515.074	725.81
515.29	727.81
515.506	723.81
515.721	739.81
515.937	730.81
516.153	808.81
516.369	759.81
516.585	734.81
516.801	700.81
517.016	733.81
517.232	728.81
517.448	765.81
517.664	779.81
517.879	792.81
518.095	795.81
518.311	773.81
518.527	740.81
518.742	734.81
518.958	709.81
519.173	739.81
519.389	801.81
519.605	790.81
519.82	788.81
520.036	782.81
520.251	798.81
520.467	768.81
520.682	786.81
520.898	777.81
521.113	705.81
521.329	726.81
521.544	766.81
521.76	709.81
521.975	682.81
522.19	715.81
522.406	743.81
522.621	878.81
522.836	850.81
523.052	724.81
523.267	749.81
523.482	739.81
523.698	737.81
523.913	722.81
524.128	773.81
524.343	804.81
524.559	810.81
524.774	760.81
524.989	802.81
525.204	760.81
525.419	702.81
525.634	732.81
525.849	707.81
526.064	700.81
526.28	686.81
526.495	668.81
526.71	648.81
526.925	639.81
527.14	608.81
527.355	600.81
527.57	628.81
527.785	632.81
527.999	648.81
528.214	660.81
528.429	700.81
528.644	740.81
528.859	778.81
529.074	834.81
529.289	860.81
529.503	848.81
529.718	794.81
529.933	715.81
530.148	656.81
530.363	614.81
530.577	627.81
530.792	628.81
531.007	607.81
531.221	628.81
531.436	653.81
531.651	647.81
531.865	673.81
532.08	636.81
532.295	626.81
532.509	601.81
532.724	612.81
532.938	650.81
533.153	682.81
533.367	711.81
533.582	754.81
533.796	731.81
534.011	722.81
534.225	659.81
534.44	627.81
534.654	602.81
534.868	650.81
535.083	670.81
535.297	696.81
535.511	692.81
535.726	676.81
535.94	694.81
536.154	630.81
536.369	632.81
536.583	582.81
536.797	618.81
537.011	616.81
537.225	598.81
537.44	614.81
537.654	634.81
537.868	594.81
538.082	607.81
538.296	610.81
538.51	610.81
538.724	666.81
538.938	702.81
539.153	728.81
539.367	723.81
539.581	696.81
539.795	671.81
540.009	636.81
540.222	628.81
540.436	664.81
540.65	731.81
540.864	793.81
541.078	830.81
541.292	863.81
541.506	911.81
541.72	948.81
541.934	992.81
542.147	1071.81
542.361	991.81
542.575	899.81
542.789	820.81
543.002	741.81
543.216	744.81
543.43	750.81
543.644	792.81
543.857	866.81
544.071	908.81
544.285	942.81
544.498	937.81
544.712	926.81
544.925	953.81
545.139	942.81
545.352	962.81
545.566	912.81
545.779	934.81
545.993	957.81
546.206	940.81
546.42	940.81
546.633	934.81
546.847	930.81
547.06	935.81
547.274	966.81
547.487	955.81
547.7	965.81
547.914	954.81
548.127	947.81
548.34	934.81
548.554	934.81
548.767	932.81
548.98	929.81
549.193	884.81
549.407	920.81
549.62	930.81
549.833	882.81
550.046	912.81
550.259	894.81
550.473	892.81
550.686	856.81
550.899	841.81
551.112	836.81
551.325	821.81
551.538	844.81
551.751	854.81
551.964	692.81
552.177	727.81
552.39	786.81
552.603	848.81
552.816	871.81
553.029	928.81
553.242	916.81
553.455	895.81
553.667	884.81
553.88	884.81
554.093	868.81
554.306	842.81
554.519	842.81
554.732	809.81
554.944	827.81
555.157	828.81
555.37	836.81
555.583	773.81
555.795	757.81
556.008	757.81
556.221	711.81
556.433	732.81
556.646	724.81
556.859	713.81
557.071	748.81
557.284	730.81
557.496	750.81
557.709	729.81
557.921	747.81
558.134	739.81
558.346	721.81
558.559	699.81
558.771	722.81
558.984	704.81
559.196	667.81
559.409	694.81
559.621	648.81
559.833	638.81
560.046	662.81
560.258	666.81
560.47	675.81
560.683	686.81
560.895	673.81
561.107	664.81
561.32	667.81
561.532	686.81
561.744	694.81
561.956	678.81
562.168	653.81
562.381	638.81
562.593	649.81
562.805	647.81
563.017	650.81
563.229	636.81
563.441	630.81
563.653	632.81
563.865	612.81
564.077	617.81
564.289	617.81
564.501	632.81
564.713	632.81
564.925	646.81
565.137	678.81
565.349	615.81
565.561	610.81
565.773	616.81
565.985	617.81
566.197	631.81
566.408	653.81
566.62	641.81
566.832	663.81
567.044	674.81
567.255	666.81
567.467	676.81
567.679	665.81
567.891	662.81
568.102	622.81
568.314	598.81
568.526	542.81
568.737	538.81
568.949	475.81
569.161	457.81
569.372	457.81
569.584	440.81
569.795	435.81
570.007	448.81
570.218	426.81
570.43	427.81
570.641	465.81
570.853	483.81
571.064	488.81
571.276	484.81
571.487	471.81
571.698	463.81
571.91	439.81
572.121	466.81
572.333	424.81
572.544	430.81
572.755	406.81
572.966	404.81
573.178	402.81
573.389	407.81
573.6	392.81
573.811	434.81
574.023	394.81
574.234	385.81
574.445	406.81
574.656	409.81
574.867	401.81
575.078	423.81
575.289	404.81
575.501	404.81
575.712	362.81
575.923	370.81
576.134	403.81
576.345	409.81
576.556	385.81
576.767	398.81
576.978	404.81
577.188	392.81
577.399	380.81
577.61	379.81
577.821	374.81
578.032	366.81
578.243	366.81
578.454	358.81
578.665	372.81
578.875	353.81
579.086	332.81
579.297	344.81
579.508	360.81
579.718	363.81
579.929	348.81
580.14	312.81
580.35	329.81
580.561	349.81
580.772	374.81
580.982	366.81
581.193	351.81
581.403	340.81
581.614	351.81
581.825	331.81
582.035	345.81
582.246	354.81
582.456	341.81
582.667	330.81
582.877	346.81
583.087	322.81
583.298	337.81
583.508	315.81
583.719	312.81
583.929	336.81
584.139	328.81
584.35	315.81
584.56	312.81
584.77	323.81
584.981	342.81
585.191	341.81
585.401	344.81
585.611	343.81
585.821	351.81
586.032	310.81
586.242	310.81
586.452	305.81
586.662	313.81
586.872	323.81
587.082	326.81
587.292	315.81
587.502	338.81
587.713	324.81
587.923	307.81
588.133	326.81
588.343	326.81
588.553	306.81
588.762	306.81
588.972	306.81
589.182	318.81
589.392	297.81
589.602	318.81
589.812	320.81
590.022	294.81
590.232	300.81
590.441	325.81
590.651	306.81
590.861	297.81
591.071	304.81
591.281	299.81
591.49	310.81
591.7	317.81
591.91	322.81
592.119	305.81
592.329	318.81
592.539	329.81
592.748	325.81
592.958	314.81
593.167	300.81
593.377	310.81
593.587	326.81
593.796	309.81
594.006	323.81
594.215	314.81
594.424	330.81
594.634	337.81
594.843	344.81
595.053	330.81
595.262	337.81
595.472	332.81
595.681	321.81
595.89	310.81
596.1	323.81
596.309	336.81
596.518	326.81
596.727	327.81
596.937	326.81
597.146	318.81
597.355	311.81
597.564	311.81
597.774	292.81
597.983	298.81
598.192	290.81
598.401	286.81
598.61	286.81
598.819	273.81
599.028	316.81
599.237	308.81
599.446	288.81
599.655	298.81
599.864	281.81
600.073	286.81
600.282	295.81
600.491	300.81
600.7	288.81
600.909	301.81
601.118	311.81
601.327	331.81
601.536	337.81
601.745	358.81
601.953	318.81
602.162	356.81
602.371	355.81
602.58	330.81
602.789	361.81
602.997	334.81
603.206	347.81
603.415	348.81
603.623	352.81
603.832	348.81
604.041	338.81
604.249	324.81
604.458	278.81
604.666	306.81
604.875	298.81
605.084	322.81
605.292	326.81
605.501	343.81
605.709	347.81
605.918	347.81
606.126	353.81
606.334	357.81
606.543	372.81
606.751	384.81
606.96	360.81
607.168	351.81
607.376	348.81
607.585	350.81
607.793	348.81
608.001	370.81
608.21	346.81
608.418	366.81
608.626	356.81
608.834	333.81
609.043	338.81
609.251	358.81
609.459	361.81
609.667	346.81
609.875	381.81
610.083	380.81
610.291	371.81
610.499	354.81
610.707	363.81
610.916	360.81
611.124	361.81
611.332	372.81
611.54	350.81
611.748	350.81
611.955	367.81
612.163	362.81
612.371	357.81
612.579	349.81
612.787	350.81
612.995	369.81
613.203	355.81
613.411	342.81
613.618	328.81
613.826	348.81
614.034	353.81
614.242	352.81
614.449	363.81
614.657	354.81
614.865	336.81
615.072	366.81
615.28	331.81
615.488	354.81
615.695	370.81
615.903	360.81
616.111	342.81
616.318	347.81
616.526	349.81
616.733	359.81
616.941	343.81
617.148	378.81
617.356	353.81
617.563	334.81
617.771	351.81
617.978	329.81
618.185	336.81
618.393	334.81
618.6	351.81
618.807	352.81
619.015	328.81
619.222	343.81
619.429	316.81
619.637	310.81
619.844	275.81
620.051	312.81
620.258	320.81
620.466	313.81
620.673	312.81
620.88	311.81
621.087	317.81
621.294	309.81
621.501	310.81
621.708	305.81
621.915	314.81
622.122	319.81
622.329	314.81
622.536	323.81
622.743	302.81
622.95	336.81
623.157	312.81
623.364	313.81
623.571	307.81
623.778	313.81
623.985	318.81
624.192	318.81
624.399	321.81
624.606	314.81
624.812	303.81
625.019	304.81
625.226	286.81
625.433	292.81
625.639	281.81
625.846	274.81
626.053	255.81
626.259	241.81
626.466	244.81
626.673	250.81
626.879	234.81
627.086	250.81
627.293	273.81
627.499	276.81
627.706	284.81
627.912	292.81
628.119	302.81
628.325	311.81
628.532	297.81
628.738	278.81
628.945	276.81
629.151	279.81
629.357	276.81
629.564	288.81
629.77	289.81
629.976	264.81
630.183	258.81
630.389	247.81
630.595	278.81
630.802	280.81
631.008	271.81
631.214	282.81
631.42	268.81
631.627	265.81
631.833	234.81
632.039	246.81
632.245	254.81
632.451	268.81
632.657	286.81
632.863	265.81
633.069	276.81
633.275	265.81
633.481	254.81
633.688	258.81
633.893	236.81
634.099	247.81
634.305	255.81
634.511	245.81
634.717	239.81
634.923	197.81
635.129	213.81
635.335	228.81
635.541	240.81
635.747	245.81
635.952	253.81
636.158	269.81
636.364	259.81
636.57	270.81
636.775	266.81
636.981	265.81
637.187	256.81
637.392	255.81
637.598	254.81
637.804	258.81
638.009	267.81
638.215	238.81
638.421	250.81
638.626	247.81
638.832	246.81
639.037	235.81
639.243	246.81
639.448	238.81
639.654	258.81
639.859	264.81
640.065	242.81
640.27	236.81
640.475	224.81
640.681	242.81
640.886	256.81
641.091	279.81
641.297	245.81
641.502	254.81
641.707	252.81
641.913	251.81
642.118	251.81
642.323	256.81
642.528	246.81
642.733	230.81
642.939	247.81
643.144	240.81
643.349	245.81
643.554	246.81
643.759	227.81
643.964	221.81
644.169	238.81
644.374	242.81
644.579	244.81
644.784	238.81
644.989	227.81
645.194	240.81
645.399	228.81
645.604	252.81
645.809	241.81
646.014	252.81
646.219	250.81
646.423	241.81
646.628	259.81
646.833	230.81
647.038	240.81
647.243	246.81
647.447	228.81
647.652	232.81
647.857	254.81
648.062	241.81
648.266	235.81
648.471	241.81
648.676	262.81
648.88	234.81
649.085	238.81
649.289	243.81
649.494	226.81
649.698	245.81
649.903	231.81
650.107	224.81
650.312	239.81
650.516	228.81
650.721	222.81
650.925	214.81
651.13	226.81
651.334	227.81
651.539	207.81
651.743	224.81
651.947	232.81
652.152	224.81
652.356	204.81
652.56	192.81
652.764	217.81
652.969	212.81
653.173	208.81
653.377	208.81
653.581	212.81
653.785	202.81
653.99	200.81
654.194	211.81
654.398	201.81
654.602	198.81
654.806	196.81
655.01	194.81
655.214	216.81
655.418	208.81
655.622	220.81
655.826	202.81
656.03	211.81
656.234	210.81
656.438	225.81
656.642	220.81
656.846	208.81
657.049	195.81
657.253	207.81
657.457	189.81
657.661	182.81
657.865	174.81
658.068	156.81
658.272	168.81
658.476	149.81
658.68	150.81
658.883	146.81
659.087	145.81
659.291	138.81
659.494	134.81
659.698	137.81
659.901	135.81
660.105	110.81
660.309	122.81
660.512	126.81
660.716	114.81
660.919	114.81
661.123	119.81
661.326	110.81
661.53	112.81
661.733	110.81
661.936	100.81
662.14	90.81
662.343	96.81
662.546	87.81
662.75	82.81
662.953	90.81
663.156	78.81
663.36	76.81
663.563	86.81
663.766	78.81
663.969	86.81
664.173	76.81
664.376	73.81
664.579	85.81
664.782	67.81
664.985	71.81
665.188	95.81
665.391	81.81
665.594	77.81
665.797	77.81
666	89.81
666.203	91.81
666.406	81.81
666.609	79.81
666.812	72.81
667.015	83.81
667.218	90.81
667.421	75.81
667.624	87.81
667.827	82.81
668.03	70.81
668.232	100.81
668.435	77.81
668.638	80.81
668.841	90.81
669.043	74.81
669.246	81.81
669.449	80.81
669.651	84.81
669.854	97.81
670.057	83.81
670.259	66.81
670.462	82.81
670.665	71.81
670.867	72.81
671.07	81.81
671.272	76.81
671.475	69.81
671.677	70.81
671.88	91.81
672.082	83.81
672.284	84.81
672.487	71.81
672.689	67.81
672.892	80.81
