Data from WStandard_LampEnergy5.5LIBS07252019.E.O._I.C._HRD10591_16-07-55-920.txt Node
Date: Thu Jul 25 16:07:55 EDT 2019
User: cochatt
Spectrometer: HR+D1059
Trigger mode: 1
Integration Time (sec): 1.000000E-1
Scans to average: 1
Electric dark correction enabled: true
Nonlinearity correction enabled: false
Boxcar width: 0
XAxis mode: Wavelengths
Number of Pixels in Spectrum: 2048
>>>>>Begin Spectral Data<<<<<
223.165	-14.38
223.4	-14.38
223.635	-14.38
223.869	-17.38
224.104	-18.38
224.338	-15.38
224.573	-6.38
224.808	-23.38
225.042	-20.38
225.277	-13.38
225.511	-5.38
225.746	12.62
225.98	6.62
226.215	10.62
226.449	17.62
226.683	19.62
226.918	27.62
227.152	39.62
227.387	40.62
227.621	55.62
227.856	43.62
228.09	55.62
228.324	55.62
228.559	64.62
228.793	142.62
229.027	360.62
229.262	374.62
229.496	382.62
229.73	408.62
229.964	448.62
230.199	457.62
230.433	462.62
230.667	483.62
230.901	530.62
231.136	491.62
231.37	491.62
231.604	480.62
231.838	468.62
232.072	462.62
232.306	469.62
232.541	476.62
232.775	549.62
233.009	591.62
233.243	606.62
233.477	510.62
233.711	531.62
233.945	542.62
234.179	548.62
234.413	588.62
234.647	654.62
234.881	601.62
235.115	548.62
235.349	540.62
235.583	556.62
235.817	577.62
236.051	516.62
236.285	551.62
236.519	607.62
236.753	695.62
236.987	690.62
237.221	644.62
237.455	741.62
237.689	708.62
237.922	695.62
238.156	675.62
238.39	646.62
238.624	723.62
238.858	734.62
239.091	759.62
239.325	794.62
239.559	924.62
239.793	945.62
240.027	1004.62
240.26	1040.62
240.494	759.62
240.728	707.62
240.961	737.62
241.195	746.62
241.429	780.62
241.662	848.62
241.896	776.62
242.13	750.62
242.363	829.62
242.597	889.62
242.83	869.62
243.064	884.62
243.298	938.62
243.531	941.62
243.765	930.62
243.998	947.62
244.232	805.62
244.465	799.62
244.699	824.62
244.932	903.62
245.166	1020.62
245.399	958.62
245.633	904.62
245.866	875.62
246.099	924.62
246.333	925.62
246.566	990.62
246.8	1056.62
247.033	1186.62
247.266	1053.62
247.5	1029.62
247.733	1049.62
247.966	1081.62
248.2	1240.62
248.433	1170.62
248.666	1210.62
248.899	1307.62
249.133	1501.62
249.366	1765.62
249.599	1447.62
249.832	1234.62
250.066	1284.62
250.299	1276.62
250.532	1167.62
250.765	1096.62
250.998	1140.62
251.231	1189.62
251.465	1250.62
251.698	1154.62
251.931	1148.62
252.164	1188.62
252.397	1251.62
252.63	1259.62
252.863	1127.62
253.096	1087.62
253.329	1138.62
253.562	1190.62
253.795	1281.62
254.028	1263.62
254.261	1168.62
254.494	1154.62
254.727	1094.62
254.96	1155.62
255.193	1270.62
255.426	1414.62
255.659	1622.62
255.892	1690.62
256.124	1366.62
256.357	1318.62
256.59	1406.62
256.823	1421.62
257.056	1420.62
257.289	1705.62
257.521	1887.62
257.754	1705.62
257.987	1581.62
258.22	1745.62
258.452	1759.62
258.685	1380.62
258.918	1378.62
259.151	1391.62
259.383	1344.62
259.616	1184.62
259.849	1240.62
260.081	1404.62
260.314	1534.62
260.547	1711.62
260.779	1742.62
261.012	1592.62
261.244	1438.62
261.477	1354.62
261.71	1379.62
261.942	1405.62
262.175	1374.62
262.407	1480.62
262.64	1383.62
262.872	1277.62
263.105	1202.62
263.337	1247.62
263.57	1303.62
263.802	1284.62
264.035	1229.62
264.267	1162.62
264.499	1141.62
264.732	1222.62
264.964	1306.62
265.197	1346.62
265.429	1389.62
265.661	1529.62
265.894	1728.62
266.126	1768.62
266.358	1625.62
266.591	1636.62
266.823	1862.62
267.055	1620.62
267.287	1581.62
267.52	1566.62
267.752	1563.62
267.984	1545.62
268.216	1637.62
268.448	1647.62
268.681	1612.62
268.913	1501.62
269.145	1410.62
269.377	1407.62
269.609	1482.62
269.841	1723.62
270.073	2050.62
270.306	2308.62
270.538	2483.62
270.77	2040.62
271.002	1722.62
271.234	1630.62
271.466	1553.62
271.698	1819.62
271.93	2193.62
272.162	2246.62
272.394	1973.62
272.626	1911.62
272.858	1670.62
273.09	1494.62
273.322	1459.62
273.553	1392.62
273.785	1378.62
274.017	1446.62
274.249	1530.62
274.481	1586.62
274.713	1444.62
274.945	1398.62
275.176	1408.62
275.408	1391.62
275.64	1374.62
275.872	1366.62
276.104	1430.62
276.335	1650.62
276.567	1875.62
276.799	1890.62
277.031	1703.62
277.262	1598.62
277.494	1644.62
277.726	1857.62
277.957	1838.62
278.189	1688.62
278.421	1568.62
278.652	1500.62
278.884	1484.62
279.115	1498.62
279.347	1517.62
279.579	1499.62
279.81	1417.62
280.042	1590.62
280.273	1761.62
280.505	1770.62
280.736	1819.62
280.968	1686.62
281.199	1487.62
281.431	1435.62
281.662	1413.62
281.894	1472.62
282.125	1449.62
282.356	1525.62
282.588	1578.62
282.819	1510.62
283.051	1644.62
283.282	1799.62
283.513	1771.62
283.745	1527.62
283.976	1448.62
284.207	1447.62
284.439	1459.62
284.67	1504.62
284.901	1533.62
285.132	1573.62
285.364	1527.62
285.595	1540.62
285.826	1497.62
286.057	1524.62
286.288	1494.62
286.52	1547.62
286.751	1676.62
286.982	1766.62
287.213	1572.62
287.444	1476.62
287.675	1480.62
287.906	1547.62
288.138	1668.62
288.369	1614.62
288.6	1542.62
288.831	1500.62
289.062	1466.62
289.293	1525.62
289.524	1515.62
289.755	1540.62
289.986	1617.62
290.217	1440.62
290.448	1475.62
290.679	1536.62
290.91	1527.62
291.141	1590.62
291.371	1650.62
291.602	1572.62
291.833	1574.62
292.064	1662.62
292.295	1589.62
292.526	1651.62
292.757	1737.62
292.987	1635.62
293.218	1537.62
293.449	1635.62
293.68	1879.62
293.91	2025.62
294.141	1867.62
294.372	1758.62
294.603	1848.62
294.833	1947.62
295.064	1846.62
295.295	1639.62
295.525	1611.62
295.756	1522.62
295.987	1414.62
296.217	1477.62
296.448	1487.62
296.679	1495.62
296.909	1515.62
297.14	1491.62
297.37	1516.62
297.601	1624.62
297.831	1722.62
298.062	1766.62
298.292	1585.62
298.523	1518.62
298.753	1543.62
298.984	1565.62
299.214	1549.62
299.445	1585.62
299.675	1622.62
299.905	1592.62
300.136	1595.62
300.366	1529.62
300.597	1476.62
300.827	1483.62
301.057	1557.62
301.288	1621.62
301.518	1627.62
301.748	1666.62
301.979	1750.62
302.209	1716.62
302.439	1882.62
302.669	1966.62
302.9	1850.62
303.13	1654.62
303.36	1647.62
303.59	1714.62
303.82	1638.62
304.051	1621.62
304.281	1644.62
304.511	1639.62
304.741	1703.62
304.971	1898.62
305.201	2069.62
305.431	1936.62
305.661	1598.62
305.891	1465.62
306.121	1436.62
306.352	1492.62
306.582	1593.62
306.812	1688.62
307.042	1834.62
307.272	1815.62
307.502	1866.62
307.731	1993.62
307.961	2100.62
308.191	1970.62
308.421	1734.62
308.651	1648.62
308.881	1576.62
309.111	1567.62
309.341	1546.62
309.571	1585.62
309.8	1594.62
310.03	1576.62
310.26	1596.62
310.49	1553.62
310.72	1625.62
310.949	1640.62
311.179	1686.62
311.409	1651.62
311.639	1572.62
311.868	1625.62
312.098	1607.62
312.328	1600.62
312.557	1596.62
312.787	1621.62
313.017	1627.62
313.246	1662.62
313.476	1647.62
313.706	1671.62
313.935	1679.62
314.165	1725.62
314.394	1712.62
314.624	1821.62
314.853	1931.62
315.083	1963.62
315.312	2028.62
315.542	1940.62
315.771	1704.62
316.001	1687.62
316.23	1807.62
316.46	1775.62
316.689	1780.62
316.919	1645.62
317.148	1618.62
317.377	1608.62
317.607	1725.62
317.836	1982.62
318.065	2052.62
318.295	1980.62
318.524	1869.62
318.753	1816.62
318.983	1794.62
319.212	1773.62
319.441	1696.62
319.67	1711.62
319.9	1745.62
320.129	1789.62
320.358	1899.62
320.587	1960.62
320.816	1966.62
321.046	1872.62
321.275	1771.62
321.504	1822.62
321.733	1927.62
321.962	1910.62
322.191	1712.62
322.42	1749.62
322.649	1710.62
322.878	1701.62
323.108	1704.62
323.337	1802.62
323.566	1834.62
323.795	1804.62
324.024	1768.62
324.253	1723.62
324.482	1773.62
324.71	1711.62
324.939	1601.62
325.168	1666.62
325.397	1722.62
325.626	1796.62
325.855	1827.62
326.084	1748.62
326.313	1722.62
326.542	1749.62
326.77	1834.62
326.999	1816.62
327.228	1758.62
327.457	1670.62
327.686	1660.62
327.914	1668.62
328.143	1737.62
328.372	1744.62
328.6	1736.62
328.829	1730.62
329.058	1711.62
329.287	1712.62
329.515	1727.62
329.744	1763.62
329.972	1872.62
330.201	1902.62
330.43	1895.62
330.658	1828.62
330.887	1866.62
331.115	1846.62
331.344	1856.62
331.572	1831.62
331.801	1831.62
332.03	1793.62
332.258	1835.62
332.486	1887.62
332.715	1865.62
332.943	1889.62
333.172	1849.62
333.4	1854.62
333.629	1905.62
333.857	2031.62
334.085	2184.62
334.314	2460.62
334.542	2722.62
334.771	2507.62
334.999	2240.62
335.227	2081.62
335.455	1981.62
335.684	1964.62
335.912	1978.62
336.14	2052.62
336.369	1990.62
336.597	1909.62
336.825	1829.62
337.053	1921.62
337.281	2019.62
337.51	2095.62
337.738	2191.62
337.966	2128.62
338.194	1872.62
338.422	1818.62
338.65	1828.62
338.878	1779.62
339.106	1766.62
339.334	1734.62
339.562	1736.62
339.79	1763.62
340.018	1856.62
340.246	1931.62
340.474	1902.62
340.702	1867.62
340.93	1886.62
341.158	1872.62
341.386	1833.62
341.614	1836.62
341.842	1856.62
342.07	1823.62
342.298	1831.62
342.526	1851.62
342.754	1770.62
342.981	1775.62
343.209	1778.62
343.437	1799.62
343.665	1806.62
343.893	1864.62
344.12	1938.62
344.348	1966.62
344.576	1859.62
344.804	1788.62
345.031	1803.62
345.259	1791.62
345.487	1772.62
345.714	1704.62
345.942	1679.62
346.17	1687.62
346.397	1664.62
346.625	1733.62
346.853	1621.62
347.08	1617.62
347.308	1652.62
347.535	1645.62
347.763	1730.62
347.99	1739.62
348.218	1613.62
348.445	1654.62
348.673	1658.62
348.9	1773.62
349.128	1750.62
349.355	1840.62
349.583	1819.62
349.81	1715.62
350.037	1572.62
350.265	1584.62
350.492	1642.62
350.72	1651.62
350.947	1731.62
351.174	1733.62
351.402	1629.62
351.629	1597.62
351.856	1561.62
352.083	1580.62
352.311	1560.62
352.538	1614.62
352.765	1668.62
352.992	1718.62
353.22	1697.62
353.447	1635.62
353.674	1645.62
353.901	1671.62
354.128	1622.62
354.355	1642.62
354.583	1693.62
354.81	1739.62
355.037	1710.62
355.264	1725.62
355.491	1692.62
355.718	1670.62
355.945	1651.62
356.172	1647.62
356.399	1631.62
356.626	1616.62
356.853	1643.62
357.08	1783.62
357.307	1957.62
357.534	2009.62
357.761	1741.62
357.988	1607.62
358.215	1548.62
358.441	1623.62
358.668	1604.62
358.895	1556.62
359.122	1670.62
359.349	1858.62
359.576	1839.62
359.802	1676.62
360.029	1648.62
360.256	1592.62
360.483	1622.62
360.709	1663.62
360.936	1757.62
361.163	1768.62
361.39	1931.62
361.616	2089.62
361.843	2030.62
362.07	1932.62
362.296	1661.62
362.523	1637.62
362.749	1640.62
362.976	1697.62
363.203	1719.62
363.429	1645.62
363.656	1594.62
363.882	1666.62
364.109	1804.62
364.335	1975.62
364.562	1837.62
364.788	1771.62
365.015	1718.62
365.241	1639.62
365.468	1666.62
365.694	1750.62
365.92	1809.62
366.147	1704.62
366.373	1626.62
366.599	1582.62
366.826	1583.62
367.052	1599.62
367.278	1644.62
367.505	1662.62
367.731	1682.62
367.957	1686.62
368.184	1716.62
368.41	1897.62
368.636	1858.62
368.862	1842.62
369.089	1896.62
369.315	1798.62
369.541	1764.62
369.767	1692.62
369.993	1683.62
370.219	1641.62
370.445	1684.62
370.672	1764.62
370.898	1867.62
371.124	1843.62
371.35	1722.62
371.576	1781.62
371.802	1867.62
372.028	1791.62
372.254	1707.62
372.48	1679.62
372.706	1658.62
372.932	1670.62
373.158	1690.62
373.384	1677.62
373.61	1706.62
373.835	1823.62
374.061	1807.62
374.287	1723.62
374.513	1695.62
374.739	1750.62
374.965	1748.62
375.191	1778.62
375.416	1816.62
375.642	1771.62
375.868	1883.62
376.094	1955.62
376.319	1858.62
376.545	1746.62
376.771	1766.62
376.997	1844.62
377.222	1862.62
377.448	1808.62
377.674	1834.62
377.899	1795.62
378.125	1895.62
378.35	1912.62
378.576	1755.62
378.802	1718.62
379.027	1668.62
379.253	1715.62
379.478	1718.62
379.704	1718.62
379.929	1663.62
380.155	1731.62
380.38	1757.62
380.606	1716.62
380.831	1682.62
381.057	1816.62
381.282	1869.62
381.507	1799.62
381.733	1895.62
381.958	2012.62
382.184	1858.62
382.409	1819.62
382.634	1872.62
382.86	1806.62
383.085	1811.62
383.31	1889.62
383.535	2014.62
383.761	2092.62
383.986	1988.62
384.211	1958.62
384.436	1926.62
384.662	2027.62
384.887	2091.62
385.112	1980.62
385.337	2033.62
385.562	1948.62
385.787	2035.62
386.013	2028.62
386.238	2076.62
386.463	2023.62
386.688	2156.62
386.913	2287.62
387.138	2304.62
387.363	2042.62
387.588	2089.62
387.813	2046.62
388.038	2043.62
388.263	2148.62
388.488	2087.62
388.713	1950.62
388.938	1894.62
389.163	1885.62
389.387	1943.62
389.612	1934.62
389.837	1967.62
390.062	2011.62
390.287	2022.62
390.512	1997.62
390.736	1950.62
390.961	1906.62
391.186	1872.62
391.411	1930.62
391.636	1934.62
391.86	1970.62
392.085	2004.62
392.31	1947.62
392.534	1973.62
392.759	2015.62
392.984	1942.62
393.208	1994.62
393.433	2083.62
393.658	2104.62
393.882	2150.62
394.107	2014.62
394.331	1960.62
394.556	1964.62
394.78	1998.62
395.005	2078.62
395.229	2120.62
395.454	2253.62
395.678	2306.62
395.903	2200.62
396.127	2094.62
396.352	2151.62
396.576	2202.62
396.801	2194.62
397.025	2157.62
397.249	2141.62
397.474	2151.62
397.698	2096.62
397.922	2168.62
398.147	2287.62
398.371	2413.62
398.595	2379.62
398.82	2257.62
399.044	2329.62
399.268	2415.62
399.492	2591.62
399.717	2691.62
399.941	2668.62
400.165	2603.62
400.389	2511.62
400.613	2524.62
400.837	2814.62
401.062	3199.62
401.286	2718.62
401.51	2502.62
401.734	2624.62
401.958	2520.62
402.182	2340.62
402.406	2285.62
402.63	2247.62
402.854	2229.62
403.078	2286.62
403.302	2343.62
403.526	2376.62
403.75	2371.62
403.974	2357.62
404.198	2374.62
404.422	2412.62
404.645	2554.62
404.869	2506.62
405.093	2325.62
405.317	2248.62
405.541	2390.62
405.765	2414.62
405.988	2379.62
406.212	2386.62
406.436	2470.62
406.66	2537.62
406.883	2511.62
407.107	2836.62
407.331	3076.62
407.555	3349.62
407.778	3094.62
408.002	2518.62
408.226	2441.62
408.449	2475.62
408.673	2404.62
408.896	2469.62
409.12	2440.62
409.344	2447.62
409.567	2346.62
409.791	2366.62
410.014	2405.62
410.238	2511.62
410.461	2698.62
410.685	2444.62
410.908	2303.62
411.132	2370.62
411.355	2343.62
411.578	2247.62
411.802	2318.62
412.025	2374.62
412.249	2324.62
412.472	2268.62
412.695	2218.62
412.919	2215.62
413.142	2208.62
413.365	2269.62
413.589	2311.62
413.812	2420.62
414.035	2516.62
414.258	2298.62
414.482	2230.62
414.705	2256.62
414.928	2222.62
415.151	2234.62
415.374	2262.62
415.597	2284.62
415.821	2300.62
416.044	2382.62
416.267	2347.62
416.49	2178.62
416.713	2161.62
416.936	2211.62
417.159	2344.62
417.382	2396.62
417.605	2262.62
417.828	2260.62
418.051	2325.62
418.274	2265.62
418.497	2162.62
418.72	2163.62
418.943	2127.62
419.166	2304.62
419.389	2387.62
419.611	2284.62
419.834	2188.62
420.057	2264.62
420.28	2184.62
420.503	2142.62
420.726	2208.62
420.948	2243.62
421.171	2185.62
421.394	2173.62
421.617	2234.62
421.839	2198.62
422.062	2217.62
422.285	2137.62
422.507	2170.62
422.73	2123.62
422.953	2098.62
423.175	2084.62
423.398	2175.62
423.621	2182.62
423.843	2222.62
424.066	2196.62
424.288	2317.62
424.511	2347.62
424.733	2269.62
424.956	2082.62
425.178	2037.62
425.401	2120.62
425.623	2138.62
425.846	2118.62
426.068	2227.62
426.291	2254.62
426.513	2210.62
426.735	2224.62
426.958	2362.62
427.18	2518.62
427.402	2297.62
427.625	2310.62
427.847	2389.62
428.069	2230.62
428.292	2139.62
428.514	2059.62
428.736	2055.62
428.958	2118.62
429.181	2116.62
429.403	2400.62
429.625	2967.62
429.847	2581.62
430.069	2155.62
430.292	2381.62
430.514	2512.62
430.736	2241.62
430.958	2364.62
431.18	2300.62
431.402	2091.62
431.624	2087.62
431.846	2100.62
432.068	2063.62
432.29	2057.62
432.512	2091.62
432.734	2200.62
432.956	2190.62
433.178	2248.62
433.4	2213.62
433.622	2227.62
433.844	2098.62
434.066	2043.62
434.287	2079.62
434.509	2173.62
434.731	2279.62
434.953	2425.62
435.175	2413.62
435.397	2234.62
435.618	2252.62
435.84	2183.62
436.062	2208.62
436.284	2170.62
436.505	2231.62
436.727	2232.62
436.949	2214.62
437.17	2106.62
437.392	2125.62
437.614	2147.62
437.835	2061.62
438.057	2210.62
438.278	2292.62
438.5	2151.62
438.721	2072.62
438.943	2158.62
439.165	2069.62
439.386	1993.62
439.608	2090.62
439.829	2068.62
440.05	2087.62
440.272	2070.62
440.493	2034.62
440.715	2057.62
440.936	2195.62
441.158	2466.62
441.379	2395.62
441.6	2293.62
441.822	2255.62
442.043	2296.62
442.264	2210.62
442.486	2098.62
442.707	2110.62
442.928	2018.62
443.149	2143.62
443.371	2298.62
443.592	2366.62
443.813	2338.62
444.034	2259.62
444.255	2319.62
444.476	2343.62
444.698	2361.62
444.919	2356.62
445.14	2458.62
445.361	2437.62
445.582	2505.62
445.803	2384.62
446.024	2332.62
446.245	2426.62
446.466	2296.62
446.687	2166.62
446.908	2162.62
447.129	2130.62
447.35	2118.62
447.571	2165.62
447.792	2045.62
448.013	2061.62
448.234	2063.62
448.455	2172.62
448.675	2242.62
448.896	2029.62
449.117	1997.62
449.338	2013.62
449.559	2147.62
449.779	2226.62
450	2500.62
450.221	2672.62
450.442	2567.62
450.662	2258.62
450.883	1982.62
451.104	1978.62
451.324	2013.62
451.545	2077.62
451.766	2071.62
451.986	1949.62
452.207	1951.62
452.428	1870.62
452.648	1865.62
452.869	1937.62
453.089	2037.62
453.31	2066.62
453.53	2127.62
453.751	2034.62
453.971	1974.62
454.192	1951.62
454.412	2054.62
454.633	2019.62
454.853	1987.62
455.073	1870.62
455.294	1799.62
455.514	1840.62
455.734	1828.62
455.955	1874.62
456.175	1848.62
456.395	1874.62
456.616	1923.62
456.836	1972.62
457.056	1930.62
457.276	1904.62
457.497	1862.62
457.717	1808.62
457.937	1823.62
458.157	1914.62
458.377	1879.62
458.598	1860.62
458.818	1849.62
459.038	2025.62
459.258	2127.62
459.478	2121.62
459.698	2046.62
459.918	2082.62
460.138	2192.62
460.358	2241.62
460.578	2228.62
460.798	2347.62
461.018	2434.62
461.238	2322.62
461.458	2235.62
461.678	2232.62
461.898	2190.62
462.118	2111.62
462.338	2270.62
462.558	2249.62
462.777	2240.62
462.997	2364.62
463.217	2486.62
463.437	2479.62
463.657	2300.62
463.876	2252.62
464.096	2221.62
464.316	2288.62
464.536	2354.62
464.755	2310.62
464.975	2384.62
465.195	2278.62
465.414	2369.62
465.634	2372.62
465.854	2246.62
466.073	2370.62
466.293	2347.62
466.512	2094.62
466.732	2042.62
466.951	2143.62
467.171	2108.62
467.391	2023.62
467.61	2010.62
467.829	2034.62
468.049	2217.62
468.268	2391.62
468.488	2273.62
468.707	2208.62
468.927	2090.62
469.146	2051.62
469.365	1992.62
469.585	2022.62
469.804	2078.62
470.023	2023.62
470.243	2075.62
470.462	2047.62
470.681	1998.62
470.901	2059.62
471.12	2041.62
471.339	2037.62
471.558	1954.62
471.777	1965.62
471.997	2031.62
472.216	2037.62
472.435	1934.62
472.654	1997.62
472.873	2073.62
473.092	2172.62
473.311	2088.62
473.53	1930.62
473.749	1880.62
473.968	2052.62
474.187	2135.62
474.406	2231.62
474.625	2076.62
474.844	2025.62
475.063	2046.62
475.282	2139.62
475.501	2082.62
475.72	2082.62
475.939	2159.62
476.158	2146.62
476.377	2076.62
476.596	2074.62
476.814	2155.62
477.033	2151.62
477.252	2240.62
477.471	2332.62
477.69	2174.62
477.908	2189.62
478.127	2264.62
478.346	2486.62
478.564	2467.62
478.783	2392.62
479.002	2537.62
479.22	2472.62
479.439	2539.62
479.658	2863.62
479.876	2900.62
480.095	2471.62
480.313	2400.62
480.532	2283.62
480.751	2283.62
480.969	2360.62
481.188	2332.62
481.406	2323.62
481.624	2257.62
481.843	2280.62
482.061	2348.62
482.28	2365.62
482.498	2454.62
482.717	2380.62
482.935	2265.62
483.153	2255.62
483.372	2243.62
483.59	2233.62
483.808	2304.62
484.027	2364.62
484.245	2502.62
484.463	2832.62
484.681	3255.62
484.9	2520.62
485.118	2379.62
485.336	2356.62
485.554	2429.62
485.772	2541.62
485.99	2473.62
486.209	2502.62
486.427	2490.62
486.645	2426.62
486.863	2416.62
487.081	2484.62
487.299	2520.62
487.517	2530.62
487.735	2357.62
487.953	2374.62
488.171	2382.62
488.389	2389.62
488.607	2358.62
488.825	2631.62
489.043	2694.62
489.261	2438.62
489.479	2512.62
489.696	2551.62
489.914	2534.62
490.132	2503.62
490.35	2414.62
490.568	2502.62
490.786	2399.62
491.003	2317.62
491.221	2443.62
491.439	2531.62
491.657	2446.62
491.874	2527.62
492.092	2510.62
492.31	2468.62
492.527	2503.62
492.745	2487.62
492.963	2443.62
493.18	2518.62
493.398	2671.62
493.615	2740.62
493.833	2592.62
494.05	2474.62
494.268	2526.62
494.485	2635.62
494.703	2496.62
494.92	2462.62
495.138	2429.62
495.355	2524.62
495.573	2605.62
495.79	2763.62
496.008	2808.62
496.225	2587.62
496.442	2616.62
496.66	2679.62
496.877	2638.62
497.094	2720.62
497.312	2747.62
497.529	2667.62
497.746	2696.62
497.963	3197.62
498.181	3647.62
498.398	3367.62
498.615	3308.62
498.832	3210.62
499.049	3198.62
499.267	3237.62
499.484	3373.62
499.701	3626.62
499.918	3720.62
500.135	4004.62
500.352	4297.62
500.569	4174.62
500.786	4478.62
501.003	4201.62
501.22	3814.62
501.437	3686.62
501.654	3659.62
501.871	3600.62
502.088	3172.62
502.305	3160.62
502.522	3044.62
502.739	2855.62
502.956	2768.62
503.172	2726.62
503.389	2727.62
503.606	2625.62
503.823	2613.62
504.04	2660.62
504.256	2613.62
504.473	2599.62
504.69	2722.62
504.907	2602.62
505.123	2502.62
505.34	2566.62
505.557	3392.62
505.773	2899.62
505.99	2406.62
506.207	2290.62
506.423	2236.62
506.64	2239.62
506.856	2223.62
507.073	2550.62
507.289	2750.62
507.506	2682.62
507.722	2328.62
507.939	2202.62
508.155	2177.62
508.372	2238.62
508.588	2149.62
508.805	2116.62
509.021	2098.62
509.238	2035.62
509.454	2028.62
509.67	2054.62
509.887	2053.62
510.103	2036.62
510.319	2058.62
510.536	2139.62
510.752	2181.62
510.968	2221.62
511.184	2335.62
511.401	2330.62
511.617	2020.62
511.833	1952.62
512.049	1995.62
512.265	1978.62
512.481	1965.62
512.698	2061.62
512.914	2153.62
513.13	2135.62
513.346	2005.62
513.562	1929.62
513.778	1991.62
513.994	2114.62
514.21	2190.62
514.426	2164.62
514.642	2393.62
514.858	2308.62
515.074	2071.62
515.29	2029.62
515.506	2065.62
515.721	2071.62
515.937	2126.62
516.153	2378.62
516.369	2302.62
516.585	2162.62
516.801	2121.62
517.016	2094.62
517.232	2149.62
517.448	2159.62
517.664	2221.62
517.879	2184.62
518.095	2368.62
518.311	2245.62
518.527	2120.62
518.742	2076.62
518.958	2022.62
519.173	2002.62
519.389	2062.62
519.605	2056.62
519.82	2078.62
520.036	2078.62
520.251	2030.62
520.467	2070.62
520.682	2189.62
520.898	2268.62
521.113	2024.62
521.329	1996.62
521.544	2133.62
521.76	2045.62
521.975	1959.62
522.19	1912.62
522.406	1916.62
522.621	2319.62
522.836	2338.62
523.052	1894.62
523.267	1878.62
523.482	1944.62
523.698	1820.62
523.913	1774.62
524.128	1832.62
524.343	1954.62
524.559	1986.62
524.774	1884.62
524.989	1814.62
525.204	1815.62
525.419	1795.62
525.634	1809.62
525.849	1906.62
526.064	1882.62
526.28	1851.62
526.495	1775.62
526.71	1775.62
526.925	1784.62
527.14	1778.62
527.355	1750.62
527.57	1746.62
527.785	1818.62
527.999	1755.62
528.214	1680.62
528.429	1701.62
528.644	1704.62
528.859	1707.62
529.074	1743.62
529.289	1768.62
529.503	1761.62
529.718	1728.62
529.933	1724.62
530.148	1699.62
530.363	1675.62
530.577	1708.62
530.792	1721.62
531.007	1732.62
531.221	1739.62
531.436	1815.62
531.651	1817.62
531.865	1900.62
532.08	1795.62
532.295	1697.62
532.509	1621.62
532.724	1692.62
532.938	1772.62
533.153	1856.62
533.367	1819.62
533.582	1752.62
533.796	1714.62
534.011	1759.62
534.225	1746.62
534.44	1703.62
534.654	1695.62
534.868	1703.62
535.083	1745.62
535.297	1776.62
535.511	1700.62
535.726	1697.62
535.94	1723.62
536.154	1700.62
536.369	1656.62
536.583	1685.62
536.797	1639.62
537.011	1715.62
537.225	1638.62
537.44	1632.62
537.654	1715.62
537.868	1662.62
538.082	1577.62
538.296	1562.62
538.51	1527.62
538.724	1581.62
538.938	1547.62
539.153	1598.62
539.367	1620.62
539.581	1627.62
539.795	1694.62
540.009	1659.62
540.222	1666.62
540.436	1673.62
540.65	1782.62
540.864	1802.62
541.078	1714.62
541.292	1612.62
541.506	1608.62
541.72	1624.62
541.934	1653.62
542.147	1643.62
542.361	1618.62
542.575	1562.62
542.789	1552.62
543.002	1530.62
543.216	1531.62
543.43	1635.62
543.644	1681.62
543.857	1763.62
544.071	1710.62
544.285	1662.62
544.498	1622.62
544.712	1596.62
544.925	1622.62
545.139	1663.62
545.352	1561.62
545.566	1506.62
545.779	1566.62
545.993	1539.62
546.206	1578.62
546.42	1540.62
546.633	1500.62
546.847	1507.62
547.06	1515.62
547.274	1492.62
547.487	1480.62
547.7	1513.62
547.914	1527.62
548.127	1560.62
548.34	1565.62
548.554	1566.62
548.767	1522.62
548.98	1554.62
549.193	1538.62
549.407	1598.62
549.62	1644.62
549.833	1522.62
550.046	1554.62
550.259	1576.62
550.473	1531.62
550.686	1489.62
550.899	1513.62
551.112	1498.62
551.325	1432.62
551.538	1567.62
551.751	1836.62
551.964	1492.62
552.177	1468.62
552.39	1449.62
552.603	1538.62
552.816	1528.62
553.029	1543.62
553.242	1607.62
553.455	1572.62
553.667	1509.62
553.88	1534.62
554.093	1485.62
554.306	1479.62
554.519	1446.62
554.732	1374.62
554.944	1417.62
555.157	1452.62
555.37	1408.62
555.583	1434.62
555.795	1406.62
556.008	1367.62
556.221	1340.62
556.433	1319.62
556.646	1319.62
556.859	1310.62
557.071	1291.62
557.284	1315.62
557.496	1282.62
557.709	1255.62
557.921	1247.62
558.134	1262.62
558.346	1262.62
558.559	1255.62
558.771	1223.62
558.984	1261.62
559.196	1229.62
559.409	1239.62
559.621	1228.62
559.833	1231.62
560.046	1287.62
560.258	1253.62
560.47	1192.62
560.683	1241.62
560.895	1244.62
561.107	1203.62
561.32	1227.62
561.532	1292.62
561.744	1240.62
561.956	1257.62
562.168	1222.62
562.381	1202.62
562.593	1194.62
562.805	1236.62
563.017	1200.62
563.229	1221.62
563.441	1250.62
563.653	1209.62
563.865	1267.62
564.077	1232.62
564.289	1202.62
564.501	1232.62
564.713	1252.62
564.925	1334.62
565.137	1408.62
565.349	1333.62
565.561	1260.62
565.773	1316.62
565.985	1369.62
566.197	1394.62
566.408	1491.62
566.62	1489.62
566.832	1444.62
567.044	1471.62
567.255	1484.62
567.467	1488.62
567.679	1525.62
567.891	1562.62
568.102	1567.62
568.314	1511.62
568.526	1409.62
568.737	1356.62
568.949	1319.62
569.161	1240.62
569.372	1189.62
569.584	1195.62
569.795	1219.62
570.007	1193.62
570.218	1152.62
570.43	1112.62
570.641	1138.62
570.853	1114.62
571.064	1092.62
571.276	1076.62
571.487	1065.62
571.698	1058.62
571.91	1055.62
572.121	1019.62
572.333	989.62
572.544	1032.62
572.755	964.62
572.966	981.62
573.178	994.62
573.389	1003.62
573.6	1036.62
573.811	1090.62
574.023	1026.62
574.234	962.62
574.445	947.62
574.656	938.62
574.867	922.62
575.078	980.62
575.289	961.62
575.501	918.62
575.712	916.62
575.923	942.62
576.134	958.62
576.345	907.62
576.556	911.62
576.767	893.62
576.978	894.62
577.188	877.62
577.399	870.62
577.61	889.62
577.821	872.62
578.032	866.62
578.243	846.62
578.454	858.62
578.665	861.62
578.875	828.62
579.086	842.62
579.297	849.62
579.508	892.62
579.718	862.62
579.929	832.62
580.14	836.62
580.35	801.62
580.561	848.62
580.772	917.62
580.982	866.62
581.193	835.62
581.403	805.62
581.614	808.62
581.825	810.62
582.035	794.62
582.246	800.62
582.456	807.62
582.667	805.62
582.877	774.62
583.087	778.62
583.298	760.62
583.508	790.62
583.719	773.62
583.929	782.62
584.139	798.62
584.35	758.62
584.56	755.62
584.77	773.62
584.981	802.62
585.191	810.62
585.401	839.62
585.611	784.62
585.821	768.62
586.032	774.62
586.242	770.62
586.452	760.62
586.662	770.62
586.872	782.62
587.082	757.62
587.292	785.62
587.502	788.62
587.713	781.62
587.923	727.62
588.133	750.62
588.343	742.62
588.553	754.62
588.762	767.62
588.972	739.62
589.182	774.62
589.392	754.62
589.602	788.62
589.812	757.62
590.022	741.62
590.232	731.62
590.441	740.62
590.651	742.62
590.861	757.62
591.071	695.62
591.281	712.62
591.49	739.62
591.7	747.62
591.91	733.62
592.119	766.62
592.329	750.62
592.539	767.62
592.748	772.62
592.958	748.62
593.167	791.62
593.377	778.62
593.587	792.62
593.796	797.62
594.006	765.62
594.215	794.62
594.424	782.62
594.634	766.62
594.843	771.62
595.053	777.62
595.262	734.62
595.472	721.62
595.681	732.62
595.89	707.62
596.1	692.62
596.309	709.62
596.518	688.62
596.727	698.62
596.937	694.62
597.146	660.62
597.355	655.62
597.564	669.62
597.774	647.62
597.983	644.62
598.192	646.62
598.401	650.62
598.61	646.62
598.819	641.62
599.028	651.62
599.237	636.62
599.446	618.62
599.655	623.62
599.864	631.62
600.073	595.62
600.282	604.62
600.491	614.62
600.7	615.62
600.909	602.62
601.118	618.62
601.327	619.62
601.536	607.62
601.745	606.62
601.953	626.62
602.162	616.62
602.371	621.62
602.58	597.62
602.789	599.62
602.997	592.62
603.206	610.62
603.415	586.62
603.623	611.62
603.832	585.62
604.041	595.62
604.249	570.62
604.458	569.62
604.666	599.62
604.875	586.62
605.084	579.62
605.292	596.62
605.501	560.62
605.709	551.62
605.918	568.62
606.126	575.62
606.334	553.62
606.543	558.62
606.751	571.62
606.96	575.62
607.168	547.62
607.376	548.62
607.585	564.62
607.793	554.62
608.001	564.62
608.21	538.62
608.418	538.62
608.626	588.62
608.834	567.62
609.043	547.62
609.251	542.62
609.459	550.62
609.667	544.62
609.875	578.62
610.083	582.62
610.291	568.62
610.499	553.62
610.707	520.62
610.916	546.62
611.124	538.62
611.332	523.62
611.54	532.62
611.748	518.62
611.955	538.62
612.163	509.62
612.371	511.62
612.579	532.62
612.787	508.62
612.995	528.62
613.203	544.62
613.411	525.62
613.618	523.62
613.826	532.62
614.034	531.62
614.242	521.62
614.449	506.62
614.657	525.62
614.865	515.62
615.072	527.62
615.28	520.62
615.488	520.62
615.695	558.62
615.903	515.62
616.111	516.62
616.318	518.62
616.526	529.62
616.733	532.62
616.941	500.62
617.148	503.62
617.356	507.62
617.563	516.62
617.771	499.62
617.978	488.62
618.185	512.62
618.393	486.62
618.6	505.62
618.807	473.62
619.015	485.62
619.222	487.62
619.429	487.62
619.637	475.62
619.844	477.62
620.051	483.62
620.258	485.62
620.466	469.62
620.673	470.62
620.88	459.62
621.087	465.62
621.294	463.62
621.501	488.62
621.708	486.62
621.915	468.62
622.122	463.62
622.329	488.62
622.536	463.62
622.743	463.62
622.95	460.62
623.157	461.62
623.364	449.62
623.571	439.62
623.778	457.62
623.985	468.62
624.192	462.62
624.399	469.62
624.606	449.62
624.812	440.62
625.019	440.62
625.226	456.62
625.433	455.62
625.639	440.62
625.846	448.62
626.053	423.62
626.259	416.62
626.466	419.62
626.673	420.62
626.879	426.62
627.086	424.62
627.293	416.62
627.499	423.62
627.706	418.62
627.912	406.62
628.119	424.62
628.325	416.62
628.532	418.62
628.738	426.62
628.945	415.62
629.151	398.62
629.357	416.62
629.564	430.62
629.77	400.62
629.976	391.62
630.183	424.62
630.389	385.62
630.595	388.62
630.802	408.62
631.008	387.62
631.214	390.62
631.42	391.62
631.627	387.62
631.833	366.62
632.039	389.62
632.245	378.62
632.451	373.62
632.657	362.62
632.863	397.62
633.069	386.62
633.275	382.62
633.481	371.62
633.688	371.62
633.893	364.62
634.099	356.62
634.305	366.62
634.511	361.62
634.717	366.62
634.923	327.62
635.129	353.62
635.335	378.62
635.541	349.62
635.747	374.62
635.952	355.62
636.158	346.62
636.364	352.62
636.57	354.62
636.775	344.62
636.981	370.62
637.187	357.62
637.392	358.62
637.598	359.62
637.804	349.62
638.009	345.62
638.215	346.62
638.421	339.62
638.626	344.62
638.832	351.62
639.037	356.62
639.243	327.62
639.448	321.62
639.654	338.62
639.859	339.62
640.065	334.62
640.27	344.62
640.475	326.62
640.681	341.62
640.886	319.62
641.091	319.62
641.297	330.62
641.502	329.62
641.707	338.62
641.913	321.62
642.118	323.62
642.323	329.62
642.528	354.62
642.733	326.62
642.939	316.62
643.144	308.62
643.349	334.62
643.554	340.62
643.759	322.62
643.964	326.62
644.169	330.62
644.374	307.62
644.579	338.62
644.784	312.62
644.989	316.62
645.194	327.62
645.399	304.62
645.604	315.62
645.809	327.62
646.014	317.62
646.219	325.62
646.423	323.62
646.628	327.62
646.833	325.62
647.038	335.62
647.243	313.62
647.447	309.62
647.652	318.62
647.857	323.62
648.062	317.62
648.266	323.62
648.471	334.62
648.676	295.62
648.88	332.62
649.085	331.62
649.289	307.62
649.494	331.62
649.698	308.62
649.903	295.62
650.107	290.62
650.312	315.62
650.516	302.62
650.721	301.62
650.925	286.62
651.13	290.62
651.334	297.62
651.539	287.62
651.743	271.62
651.947	273.62
652.152	279.62
652.356	271.62
652.56	273.62
652.764	272.62
652.969	268.62
653.173	251.62
653.377	243.62
653.581	242.62
653.785	262.62
653.99	259.62
654.194	254.62
654.398	230.62
654.602	239.62
654.806	234.62
655.01	271.62
655.214	267.62
655.418	269.62
655.622	254.62
655.826	260.62
656.03	262.62
656.234	275.62
656.438	257.62
656.642	278.62
656.846	252.62
657.049	247.62
657.253	234.62
657.457	216.62
657.661	199.62
657.865	199.62
658.068	183.62
658.272	175.62
658.476	165.62
658.68	155.62
658.883	169.62
659.087	135.62
659.291	142.62
659.494	128.62
659.698	134.62
659.901	148.62
660.105	126.62
660.309	133.62
660.512	107.62
660.716	113.62
660.919	100.62
661.123	128.62
661.326	121.62
661.53	109.62
661.733	116.62
661.936	104.62
662.14	100.62
662.343	109.62
662.546	104.62
662.75	106.62
662.953	97.62
663.156	98.62
663.36	80.62
663.563	109.62
663.766	85.62
663.969	101.62
664.173	85.62
664.376	99.62
664.579	88.62
664.782	87.62
664.985	84.62
665.188	92.62
665.391	80.62
665.594	85.62
665.797	84.62
666	92.62
666.203	100.62
666.406	82.62
666.609	83.62
666.812	84.62
667.015	101.62
667.218	87.62
667.421	93.62
667.624	95.62
667.827	87.62
668.03	80.62
668.232	84.62
668.435	89.62
668.638	82.62
668.841	94.62
669.043	68.62
669.246	84.62
669.449	89.62
669.651	90.62
669.854	86.62
670.057	83.62
670.259	102.62
670.462	91.62
670.665	78.62
670.867	77.62
671.07	84.62
671.272	72.62
671.475	82.62
671.677	78.62
671.88	89.62
672.082	75.62
672.284	74.62
672.487	80.62
672.689	61.62
672.892	72.62
