Data from WStandard_LampEnergy5.5LIBS07252019.E.O._I.C._HRD10591_16-08-05-920.txt Node
Date: Thu Jul 25 16:08:05 EDT 2019
User: cochatt
Spectrometer: HR+D1059
Trigger mode: 1
Integration Time (sec): 1.000000E-1
Scans to average: 1
Electric dark correction enabled: true
Nonlinearity correction enabled: false
Boxcar width: 0
XAxis mode: Wavelengths
Number of Pixels in Spectrum: 2048
>>>>>Begin Spectral Data<<<<<
223.165	-0.31
223.4	-0.31
223.635	-0.31
223.869	-14.31
224.104	-16.31
224.338	-26.31
224.573	-12.31
224.808	-10.31
225.042	-4.31
225.277	-8.31
225.511	0.69
225.746	-5.31
225.98	9.69
226.215	0.69
226.449	10.69
226.683	23.69
226.918	22.69
227.152	29.69
227.387	39.69
227.621	40.69
227.856	44.69
228.09	42.69
228.324	56.69
228.559	59.69
228.793	136.69
229.027	363.69
229.262	367.69
229.496	387.69
229.73	406.69
229.964	472.69
230.199	462.69
230.433	480.69
230.667	500.69
230.901	535.69
231.136	499.69
231.37	466.69
231.604	465.69
231.838	467.69
232.072	501.69
232.306	470.69
232.541	495.69
232.775	562.69
233.009	624.69
233.243	583.69
233.477	539.69
233.711	550.69
233.945	570.69
234.179	545.69
234.413	611.69
234.647	663.69
234.881	604.69
235.115	555.69
235.349	570.69
235.583	559.69
235.817	572.69
236.051	542.69
236.285	569.69
236.519	585.69
236.753	675.69
236.987	680.69
237.221	660.69
237.455	767.69
237.689	730.69
237.922	682.69
238.156	667.69
238.39	673.69
238.624	700.69
238.858	771.69
239.091	791.69
239.325	801.69
239.559	934.69
239.793	957.69
240.027	1081.69
240.26	1074.69
240.494	779.69
240.728	715.69
240.961	740.69
241.195	732.69
241.429	840.69
241.662	806.69
241.896	749.69
242.13	761.69
242.363	884.69
242.597	921.69
242.83	890.69
243.064	927.69
243.298	959.69
243.531	921.69
243.765	945.69
243.998	962.69
244.232	827.69
244.465	795.69
244.699	784.69
244.932	905.69
245.166	1060.69
245.399	972.69
245.633	919.69
245.866	898.69
246.099	956.69
246.333	966.69
246.566	980.69
246.8	1050.69
247.033	1174.69
247.266	1103.69
247.5	1096.69
247.733	1077.69
247.966	1130.69
248.2	1274.69
248.433	1208.69
248.666	1240.69
248.899	1336.69
249.133	1580.69
249.366	1784.69
249.599	1427.69
249.832	1246.69
250.066	1294.69
250.299	1343.69
250.532	1201.69
250.765	1098.69
250.998	1156.69
251.231	1222.69
251.465	1242.69
251.698	1194.69
251.931	1176.69
252.164	1217.69
252.397	1295.69
252.63	1271.69
252.863	1138.69
253.096	1097.69
253.329	1191.69
253.562	1179.69
253.795	1288.69
254.028	1288.69
254.261	1185.69
254.494	1179.69
254.727	1135.69
254.96	1162.69
255.193	1269.69
255.426	1427.69
255.659	1658.69
255.892	1737.69
256.124	1436.69
256.357	1329.69
256.59	1433.69
256.823	1447.69
257.056	1477.69
257.289	1724.69
257.521	1921.69
257.754	1685.69
257.987	1594.69
258.22	1785.69
258.452	1769.69
258.685	1459.69
258.918	1372.69
259.151	1409.69
259.383	1337.69
259.616	1173.69
259.849	1261.69
260.081	1417.69
260.314	1593.69
260.547	1724.69
260.779	1734.69
261.012	1632.69
261.244	1447.69
261.477	1384.69
261.71	1464.69
261.942	1413.69
262.175	1381.69
262.407	1480.69
262.64	1404.69
262.872	1317.69
263.105	1263.69
263.337	1296.69
263.57	1316.69
263.802	1321.69
264.035	1228.69
264.267	1155.69
264.499	1132.69
264.732	1241.69
264.964	1301.69
265.197	1361.69
265.429	1430.69
265.661	1611.69
265.894	1764.69
266.126	1826.69
266.358	1634.69
266.591	1641.69
266.823	1843.69
267.055	1671.69
267.287	1651.69
267.52	1570.69
267.752	1555.69
267.984	1548.69
268.216	1640.69
268.448	1684.69
268.681	1676.69
268.913	1535.69
269.145	1437.69
269.377	1393.69
269.609	1522.69
269.841	1790.69
270.073	2050.69
270.306	2296.69
270.538	2504.69
270.77	2079.69
271.002	1754.69
271.234	1647.69
271.466	1661.69
271.698	1828.69
271.93	2212.69
272.162	2228.69
272.394	1987.69
272.626	1962.69
272.858	1720.69
273.09	1488.69
273.322	1467.69
273.553	1401.69
273.785	1407.69
274.017	1469.69
274.249	1603.69
274.481	1617.69
274.713	1481.69
274.945	1420.69
275.176	1469.69
275.408	1441.69
275.64	1361.69
275.872	1367.69
276.104	1446.69
276.335	1649.69
276.567	1917.69
276.799	1952.69
277.031	1761.69
277.262	1634.69
277.494	1662.69
277.726	1853.69
277.957	1936.69
278.189	1727.69
278.421	1597.69
278.652	1528.69
278.884	1491.69
279.115	1486.69
279.347	1536.69
279.579	1457.69
279.81	1461.69
280.042	1627.69
280.273	1847.69
280.505	1776.69
280.736	1860.69
280.968	1755.69
281.199	1537.69
281.431	1473.69
281.662	1455.69
281.894	1434.69
282.125	1507.69
282.356	1565.69
282.588	1570.69
282.819	1540.69
283.051	1643.69
283.282	1773.69
283.513	1810.69
283.745	1545.69
283.976	1396.69
284.207	1425.69
284.439	1493.69
284.67	1495.69
284.901	1542.69
285.132	1578.69
285.364	1576.69
285.595	1570.69
285.826	1529.69
286.057	1562.69
286.288	1500.69
286.52	1569.69
286.751	1700.69
286.982	1772.69
287.213	1621.69
287.444	1491.69
287.675	1451.69
287.906	1547.69
288.138	1650.69
288.369	1619.69
288.6	1528.69
288.831	1490.69
289.062	1457.69
289.293	1523.69
289.524	1525.69
289.755	1581.69
289.986	1593.69
290.217	1470.69
290.448	1519.69
290.679	1576.69
290.91	1538.69
291.141	1621.69
291.371	1653.69
291.602	1632.69
291.833	1601.69
292.064	1709.69
292.295	1625.69
292.526	1655.69
292.757	1735.69
292.987	1680.69
293.218	1563.69
293.449	1697.69
293.68	1885.69
293.91	2066.69
294.141	1951.69
294.372	1789.69
294.603	1867.69
294.833	1941.69
295.064	1859.69
295.295	1673.69
295.525	1594.69
295.756	1497.69
295.987	1426.69
296.217	1477.69
296.448	1517.69
296.679	1530.69
296.909	1562.69
297.14	1523.69
297.37	1520.69
297.601	1626.69
297.831	1706.69
298.062	1744.69
298.292	1623.69
298.523	1499.69
298.753	1582.69
298.984	1566.69
299.214	1568.69
299.445	1612.69
299.675	1649.69
299.905	1634.69
300.136	1589.69
300.366	1568.69
300.597	1522.69
300.827	1499.69
301.057	1536.69
301.288	1637.69
301.518	1641.69
301.748	1671.69
301.979	1788.69
302.209	1769.69
302.439	1884.69
302.669	2014.69
302.9	1880.69
303.13	1665.69
303.36	1623.69
303.59	1667.69
303.82	1683.69
304.051	1623.69
304.281	1649.69
304.511	1653.69
304.741	1766.69
304.971	1891.69
305.201	2090.69
305.431	1985.69
305.661	1661.69
305.891	1430.69
306.121	1436.69
306.352	1500.69
306.582	1583.69
306.812	1743.69
307.042	1862.69
307.272	1828.69
307.502	1892.69
307.731	2001.69
307.961	2173.69
308.191	2032.69
308.421	1753.69
308.651	1645.69
308.881	1619.69
309.111	1596.69
309.341	1570.69
309.571	1606.69
309.8	1610.69
310.03	1613.69
310.26	1592.69
310.49	1579.69
310.72	1597.69
310.949	1653.69
311.179	1696.69
311.409	1674.69
311.639	1657.69
311.868	1598.69
312.098	1617.69
312.328	1632.69
312.557	1584.69
312.787	1648.69
313.017	1693.69
313.246	1662.69
313.476	1656.69
313.706	1738.69
313.935	1672.69
314.165	1710.69
314.394	1776.69
314.624	1846.69
314.853	1929.69
315.083	2013.69
315.312	2072.69
315.542	1974.69
315.771	1728.69
316.001	1721.69
316.23	1840.69
316.46	1813.69
316.689	1756.69
316.919	1703.69
317.148	1604.69
317.377	1641.69
317.607	1747.69
317.836	1974.69
318.065	2054.69
318.295	1991.69
318.524	1831.69
318.753	1817.69
318.983	1774.69
319.212	1781.69
319.441	1719.69
319.67	1719.69
319.9	1765.69
320.129	1860.69
320.358	1871.69
320.587	1980.69
320.816	1951.69
321.046	1907.69
321.275	1821.69
321.504	1780.69
321.733	1926.69
321.962	1924.69
322.191	1748.69
322.42	1740.69
322.649	1734.69
322.878	1694.69
323.108	1739.69
323.337	1784.69
323.566	1777.69
323.795	1756.69
324.024	1825.69
324.253	1773.69
324.482	1762.69
324.71	1741.69
324.939	1656.69
325.168	1692.69
325.397	1727.69
325.626	1813.69
325.855	1811.69
326.084	1737.69
326.313	1747.69
326.542	1768.69
326.77	1832.69
326.999	1828.69
327.228	1792.69
327.457	1684.69
327.686	1627.69
327.914	1700.69
328.143	1756.69
328.372	1741.69
328.6	1728.69
328.829	1716.69
329.058	1707.69
329.287	1673.69
329.515	1728.69
329.744	1766.69
329.972	1805.69
330.201	1943.69
330.43	1887.69
330.658	1821.69
330.887	1845.69
331.115	1840.69
331.344	1865.69
331.572	1808.69
331.801	1833.69
332.03	1834.69
332.258	1863.69
332.486	1823.69
332.715	1866.69
332.943	1884.69
333.172	1859.69
333.4	1868.69
333.629	1912.69
333.857	2018.69
334.085	2267.69
334.314	2472.69
334.542	2794.69
334.771	2559.69
334.999	2209.69
335.227	2155.69
335.455	2004.69
335.684	1958.69
335.912	1986.69
336.14	2083.69
336.369	2039.69
336.597	1939.69
336.825	1873.69
337.053	1917.69
337.281	2007.69
337.51	2091.69
337.738	2211.69
337.966	2103.69
338.194	1905.69
338.422	1860.69
338.65	1841.69
338.878	1819.69
339.106	1777.69
339.334	1760.69
339.562	1707.69
339.79	1762.69
340.018	1884.69
340.246	1957.69
340.474	1936.69
340.702	1881.69
340.93	1945.69
341.158	1869.69
341.386	1888.69
341.614	1875.69
341.842	1797.69
342.07	1850.69
342.298	1827.69
342.526	1845.69
342.754	1780.69
342.981	1787.69
343.209	1857.69
343.437	1807.69
343.665	1805.69
343.893	1887.69
344.12	1923.69
344.348	1939.69
344.576	1886.69
344.804	1815.69
345.031	1842.69
345.259	1860.69
345.487	1776.69
345.714	1714.69
345.942	1632.69
346.17	1666.69
346.397	1722.69
346.625	1729.69
346.853	1670.69
347.08	1634.69
347.308	1625.69
347.535	1686.69
347.763	1753.69
347.99	1720.69
348.218	1639.69
348.445	1646.69
348.673	1647.69
348.9	1713.69
349.128	1775.69
349.355	1837.69
349.583	1807.69
349.81	1692.69
350.037	1592.69
350.265	1544.69
350.492	1612.69
350.72	1654.69
350.947	1691.69
351.174	1718.69
351.402	1636.69
351.629	1575.69
351.856	1604.69
352.083	1591.69
352.311	1615.69
352.538	1618.69
352.765	1695.69
352.992	1761.69
353.22	1660.69
353.447	1618.69
353.674	1650.69
353.901	1705.69
354.128	1647.69
354.355	1617.69
354.583	1677.69
354.81	1715.69
355.037	1705.69
355.264	1730.69
355.491	1663.69
355.718	1652.69
355.945	1650.69
356.172	1633.69
356.399	1595.69
356.626	1605.69
356.853	1632.69
357.08	1793.69
357.307	2036.69
357.534	1975.69
357.761	1772.69
357.988	1624.69
358.215	1576.69
358.441	1616.69
358.668	1579.69
358.895	1593.69
359.122	1657.69
359.349	1891.69
359.576	1847.69
359.802	1689.69
360.029	1621.69
360.256	1621.69
360.483	1640.69
360.709	1671.69
360.936	1735.69
361.163	1757.69
361.39	1916.69
361.616	2044.69
361.843	2058.69
362.07	1946.69
362.296	1696.69
362.523	1614.69
362.749	1641.69
362.976	1681.69
363.203	1742.69
363.429	1667.69
363.656	1597.69
363.882	1663.69
364.109	1817.69
364.335	1945.69
364.562	1836.69
364.788	1781.69
365.015	1656.69
365.241	1583.69
365.468	1663.69
365.694	1762.69
365.92	1803.69
366.147	1752.69
366.373	1612.69
366.599	1587.69
366.826	1578.69
367.052	1628.69
367.278	1623.69
367.505	1705.69
367.731	1705.69
367.957	1701.69
368.184	1756.69
368.41	1852.69
368.636	1871.69
368.862	1871.69
369.089	1901.69
369.315	1823.69
369.541	1760.69
369.767	1719.69
369.993	1644.69
370.219	1687.69
370.445	1712.69
370.672	1773.69
370.898	1873.69
371.124	1843.69
371.35	1771.69
371.576	1803.69
371.802	1900.69
372.028	1792.69
372.254	1745.69
372.48	1683.69
372.706	1648.69
372.932	1688.69
373.158	1716.69
373.384	1722.69
373.61	1754.69
373.835	1859.69
374.061	1764.69
374.287	1719.69
374.513	1745.69
374.739	1749.69
374.965	1751.69
375.191	1795.69
375.416	1803.69
375.642	1790.69
375.868	1899.69
376.094	1957.69
376.319	1897.69
376.545	1740.69
376.771	1815.69
376.997	1893.69
377.222	1856.69
377.448	1784.69
377.674	1835.69
377.899	1813.69
378.125	1911.69
378.35	1898.69
378.576	1763.69
378.802	1691.69
379.027	1691.69
379.253	1701.69
379.478	1736.69
379.704	1747.69
379.929	1721.69
380.155	1727.69
380.38	1730.69
380.606	1808.69
380.831	1747.69
381.057	1784.69
381.282	1888.69
381.507	1839.69
381.733	1892.69
381.958	2014.69
382.184	1883.69
382.409	1795.69
382.634	1860.69
382.86	1809.69
383.085	1795.69
383.31	1801.69
383.535	1948.69
383.761	2121.69
383.986	2031.69
384.211	1989.69
384.436	1944.69
384.662	2006.69
384.887	2098.69
385.112	2022.69
385.337	2000.69
385.562	1964.69
385.787	1985.69
386.013	2036.69
386.238	2061.69
386.463	2043.69
386.688	2112.69
386.913	2247.69
387.138	2239.69
387.363	2073.69
387.588	2051.69
387.813	2016.69
388.038	2077.69
388.263	2149.69
388.488	2065.69
388.713	1889.69
388.938	1890.69
389.163	1963.69
389.387	1951.69
389.612	1952.69
389.837	1989.69
390.062	2041.69
390.287	2036.69
390.512	1919.69
390.736	1925.69
390.961	1891.69
391.186	1909.69
391.411	1975.69
391.636	1933.69
391.86	1988.69
392.085	1966.69
392.31	1961.69
392.534	1960.69
392.759	2047.69
392.984	2011.69
393.208	1987.69
393.433	2063.69
393.658	2137.69
393.882	2138.69
394.107	2051.69
394.331	1947.69
394.556	1969.69
394.78	2012.69
395.005	2081.69
395.229	2114.69
395.454	2244.69
395.678	2308.69
395.903	2154.69
396.127	2148.69
396.352	2136.69
396.576	2178.69
396.801	2183.69
397.025	2146.69
397.249	2183.69
397.474	2141.69
397.698	2126.69
397.922	2190.69
398.147	2275.69
398.371	2363.69
398.595	2359.69
398.82	2339.69
399.044	2377.69
399.268	2458.69
399.492	2581.69
399.717	2684.69
399.941	2726.69
400.165	2658.69
400.389	2570.69
400.613	2515.69
400.837	2730.69
401.062	3225.69
401.286	2743.69
401.51	2483.69
401.734	2583.69
401.958	2539.69
402.182	2376.69
402.406	2256.69
402.63	2241.69
402.854	2236.69
403.078	2290.69
403.302	2363.69
403.526	2349.69
403.75	2332.69
403.974	2377.69
404.198	2374.69
404.422	2444.69
404.645	2507.69
404.869	2507.69
405.093	2387.69
405.317	2263.69
405.541	2421.69
405.765	2393.69
405.988	2382.69
406.212	2462.69
406.436	2451.69
406.66	2508.69
406.883	2569.69
407.107	2804.69
407.331	3062.69
407.555	3314.69
407.778	3089.69
408.002	2603.69
408.226	2487.69
408.449	2526.69
408.673	2435.69
408.896	2401.69
409.12	2455.69
409.344	2419.69
409.567	2351.69
409.791	2411.69
410.014	2417.69
410.238	2512.69
410.461	2642.69
410.685	2450.69
410.908	2312.69
411.132	2395.69
411.355	2354.69
411.578	2298.69
411.802	2322.69
412.025	2335.69
412.249	2307.69
412.472	2244.69
412.695	2260.69
412.919	2228.69
413.142	2220.69
413.365	2279.69
413.589	2363.69
413.812	2374.69
414.035	2505.69
414.258	2299.69
414.482	2255.69
414.705	2263.69
414.928	2238.69
415.151	2232.69
415.374	2284.69
415.597	2249.69
415.821	2314.69
416.044	2417.69
416.267	2394.69
416.49	2179.69
416.713	2198.69
416.936	2216.69
417.159	2325.69
417.382	2331.69
417.605	2217.69
417.828	2281.69
418.051	2339.69
418.274	2282.69
418.497	2156.69
418.72	2172.69
418.943	2148.69
419.166	2313.69
419.389	2442.69
419.611	2284.69
419.834	2210.69
420.057	2256.69
420.28	2182.69
420.503	2199.69
420.726	2197.69
420.948	2208.69
421.171	2160.69
421.394	2205.69
421.617	2313.69
421.839	2224.69
422.062	2193.69
422.285	2170.69
422.507	2137.69
422.73	2073.69
422.953	2079.69
423.175	2063.69
423.398	2197.69
423.621	2150.69
423.843	2169.69
424.066	2242.69
424.288	2280.69
424.511	2336.69
424.733	2247.69
424.956	2064.69
425.178	2051.69
425.401	2124.69
425.623	2091.69
425.846	2077.69
426.068	2223.69
426.291	2309.69
426.513	2220.69
426.735	2201.69
426.958	2316.69
427.18	2532.69
427.402	2328.69
427.625	2331.69
427.847	2359.69
428.069	2201.69
428.292	2155.69
428.514	2065.69
428.736	2047.69
428.958	2137.69
429.181	2159.69
429.403	2360.69
429.625	2955.69
429.847	2594.69
430.069	2161.69
430.292	2374.69
430.514	2395.69
430.736	2260.69
430.958	2432.69
431.18	2321.69
431.402	2113.69
431.624	2087.69
431.846	2101.69
432.068	2039.69
432.29	2128.69
432.512	2156.69
432.734	2159.69
432.956	2195.69
433.178	2262.69
433.4	2238.69
433.622	2263.69
433.844	2124.69
434.066	2091.69
434.287	2081.69
434.509	2161.69
434.731	2309.69
434.953	2461.69
435.175	2396.69
435.397	2228.69
435.618	2248.69
435.84	2212.69
436.062	2210.69
436.284	2211.69
436.505	2175.69
436.727	2269.69
436.949	2171.69
437.17	2133.69
437.392	2107.69
437.614	2123.69
437.835	2087.69
438.057	2177.69
438.278	2282.69
438.5	2115.69
438.721	2083.69
438.943	2105.69
439.165	2077.69
439.386	2050.69
439.608	2037.69
439.829	2073.69
440.05	2129.69
440.272	2090.69
440.493	2040.69
440.715	2125.69
440.936	2241.69
441.158	2472.69
441.379	2393.69
441.6	2346.69
441.822	2296.69
442.043	2288.69
442.264	2209.69
442.486	2089.69
442.707	2069.69
442.928	2121.69
443.149	2156.69
443.371	2268.69
443.592	2378.69
443.813	2284.69
444.034	2280.69
444.255	2349.69
444.476	2327.69
444.698	2373.69
444.919	2423.69
445.14	2446.69
445.361	2424.69
445.582	2563.69
445.803	2385.69
446.024	2329.69
446.245	2419.69
446.466	2287.69
446.687	2221.69
446.908	2208.69
447.129	2148.69
447.35	2204.69
447.571	2156.69
447.792	2098.69
448.013	2049.69
448.234	2086.69
448.455	2201.69
448.675	2161.69
448.896	2004.69
449.117	1999.69
449.338	2080.69
449.559	2122.69
449.779	2293.69
450	2459.69
450.221	2704.69
450.442	2593.69
450.662	2293.69
450.883	2018.69
451.104	1979.69
451.324	2001.69
451.545	2061.69
451.766	2055.69
451.986	1932.69
452.207	1923.69
452.428	1894.69
452.648	1868.69
452.869	1934.69
453.089	2031.69
453.31	2050.69
453.53	2107.69
453.751	2027.69
453.971	1905.69
454.192	1971.69
454.412	2064.69
454.633	2038.69
454.853	1972.69
455.073	1831.69
455.294	1791.69
455.514	1802.69
455.734	1855.69
455.955	1911.69
456.175	1874.69
456.395	1913.69
456.616	1957.69
456.836	1994.69
457.056	1925.69
457.276	1928.69
457.497	1871.69
457.717	1859.69
457.937	1895.69
458.157	1917.69
458.377	1887.69
458.598	1895.69
458.818	1884.69
459.038	1997.69
459.258	2128.69
459.478	2124.69
459.698	2088.69
459.918	2128.69
460.138	2220.69
460.358	2235.69
460.578	2266.69
460.798	2308.69
461.018	2448.69
461.238	2351.69
461.458	2249.69
461.678	2251.69
461.898	2221.69
462.118	2175.69
462.338	2289.69
462.558	2265.69
462.777	2271.69
462.997	2321.69
463.217	2511.69
463.437	2461.69
463.657	2305.69
463.876	2277.69
464.096	2263.69
464.316	2267.69
464.536	2344.69
464.755	2338.69
464.975	2387.69
465.195	2259.69
465.414	2355.69
465.634	2419.69
465.854	2223.69
466.073	2356.69
466.293	2335.69
466.512	2087.69
466.732	2063.69
466.951	2131.69
467.171	2143.69
467.391	2109.69
467.61	2046.69
467.829	2017.69
468.049	2166.69
468.268	2460.69
468.488	2277.69
468.707	2208.69
468.927	2149.69
469.146	2077.69
469.365	2046.69
469.585	2099.69
469.804	2026.69
470.023	2056.69
470.243	2087.69
470.462	2081.69
470.681	2015.69
470.901	2053.69
471.12	2029.69
471.339	2083.69
471.558	1977.69
471.777	1999.69
471.997	1995.69
472.216	2003.69
472.435	1958.69
472.654	1968.69
472.873	2073.69
473.092	2220.69
473.311	2080.69
473.53	2002.69
473.749	1988.69
473.968	2017.69
474.187	2172.69
474.406	2268.69
474.625	2095.69
474.844	2063.69
475.063	2092.69
475.282	2141.69
475.501	2101.69
475.72	2078.69
475.939	2195.69
476.158	2133.69
476.377	2062.69
476.596	2104.69
476.814	2146.69
477.033	2143.69
477.252	2282.69
477.471	2330.69
477.69	2155.69
477.908	2164.69
478.127	2282.69
478.346	2500.69
478.564	2501.69
478.783	2424.69
479.002	2545.69
479.22	2431.69
479.439	2547.69
479.658	2885.69
479.876	2921.69
480.095	2499.69
480.313	2368.69
480.532	2259.69
480.751	2314.69
480.969	2372.69
481.188	2336.69
481.406	2298.69
481.624	2240.69
481.843	2257.69
482.061	2351.69
482.28	2350.69
482.498	2445.69
482.717	2407.69
482.935	2321.69
483.153	2298.69
483.372	2277.69
483.59	2261.69
483.808	2303.69
484.027	2309.69
484.245	2471.69
484.463	2831.69
484.681	3274.69
484.9	2580.69
485.118	2371.69
485.336	2387.69
485.554	2452.69
485.772	2532.69
485.99	2458.69
486.209	2505.69
486.427	2457.69
486.645	2496.69
486.863	2468.69
487.081	2494.69
487.299	2577.69
487.517	2527.69
487.735	2404.69
487.953	2369.69
488.171	2343.69
488.389	2343.69
488.607	2395.69
488.825	2598.69
489.043	2691.69
489.261	2415.69
489.479	2524.69
489.696	2579.69
489.914	2575.69
490.132	2456.69
490.35	2427.69
490.568	2544.69
490.786	2407.69
491.003	2341.69
491.221	2430.69
491.439	2529.69
491.657	2452.69
491.874	2474.69
492.092	2503.69
492.31	2513.69
492.527	2496.69
492.745	2473.69
492.963	2427.69
493.18	2535.69
493.398	2744.69
493.615	2820.69
493.833	2581.69
494.05	2473.69
494.268	2501.69
494.485	2628.69
494.703	2540.69
494.92	2465.69
495.138	2506.69
495.355	2513.69
495.573	2611.69
495.79	2718.69
496.008	2801.69
496.225	2632.69
496.442	2574.69
496.66	2683.69
496.877	2646.69
497.094	2788.69
497.312	2764.69
497.529	2723.69
497.746	2768.69
497.963	3253.69
498.181	3609.69
498.398	3375.69
498.615	3317.69
498.832	3227.69
499.049	3224.69
499.267	3159.69
499.484	3389.69
499.701	3708.69
499.918	3695.69
500.135	3989.69
500.352	4265.69
500.569	4222.69
500.786	4424.69
501.003	4260.69
501.22	3836.69
501.437	3773.69
501.654	3770.69
501.871	3615.69
502.088	3215.69
502.305	3163.69
502.522	3041.69
502.739	2863.69
502.956	2775.69
503.172	2773.69
503.389	2705.69
503.606	2629.69
503.823	2621.69
504.04	2641.69
504.256	2687.69
504.473	2651.69
504.69	2735.69
504.907	2626.69
505.123	2483.69
505.34	2601.69
505.557	3377.69
505.773	2910.69
505.99	2437.69
506.207	2271.69
506.423	2268.69
506.64	2251.69
506.856	2255.69
507.073	2516.69
507.289	2778.69
507.506	2660.69
507.722	2297.69
507.939	2165.69
508.155	2211.69
508.372	2253.69
508.588	2128.69
508.805	2112.69
509.021	2070.69
509.238	2060.69
509.454	2035.69
509.67	2048.69
509.887	2001.69
510.103	2029.69
510.319	2062.69
510.536	2162.69
510.752	2220.69
510.968	2239.69
511.184	2355.69
511.401	2314.69
511.617	2077.69
511.833	2008.69
512.049	2001.69
512.265	2024.69
512.481	1954.69
512.698	2033.69
512.914	2248.69
513.13	2126.69
513.346	2007.69
513.562	2009.69
513.778	2061.69
513.994	2119.69
514.21	2153.69
514.426	2190.69
514.642	2422.69
514.858	2309.69
515.074	2140.69
515.29	2058.69
515.506	2084.69
515.721	2140.69
515.937	2123.69
516.153	2452.69
516.369	2298.69
516.585	2154.69
516.801	2079.69
517.016	2083.69
517.232	2180.69
517.448	2188.69
517.664	2180.69
517.879	2195.69
518.095	2399.69
518.311	2219.69
518.527	2121.69
518.742	2087.69
518.958	2036.69
519.173	1971.69
519.389	2052.69
519.605	2087.69
519.82	2063.69
520.036	2107.69
520.251	2036.69
520.467	2002.69
520.682	2201.69
520.898	2332.69
521.113	2056.69
521.329	2039.69
521.544	2140.69
521.76	2034.69
521.975	1965.69
522.19	1919.69
522.406	1916.69
522.621	2289.69
522.836	2317.69
523.052	1895.69
523.267	1910.69
523.482	1931.69
523.698	1820.69
523.913	1778.69
524.128	1835.69
524.343	2008.69
524.559	2008.69
524.774	1859.69
524.989	1839.69
525.204	1829.69
525.419	1780.69
525.634	1796.69
525.849	1832.69
526.064	1863.69
526.28	1854.69
526.495	1743.69
526.71	1752.69
526.925	1767.69
527.14	1748.69
527.355	1754.69
527.57	1745.69
527.785	1777.69
527.999	1754.69
528.214	1723.69
528.429	1707.69
528.644	1719.69
528.859	1766.69
529.074	1716.69
529.289	1784.69
529.503	1785.69
529.718	1775.69
529.933	1779.69
530.148	1696.69
530.363	1676.69
530.577	1696.69
530.792	1772.69
531.007	1747.69
531.221	1737.69
531.436	1754.69
531.651	1843.69
531.865	1937.69
532.08	1799.69
532.295	1721.69
532.509	1667.69
532.724	1678.69
532.938	1760.69
533.153	1884.69
533.367	1797.69
533.582	1775.69
533.796	1694.69
534.011	1721.69
534.225	1722.69
534.44	1725.69
534.654	1712.69
534.868	1688.69
535.083	1768.69
535.297	1762.69
535.511	1724.69
535.726	1697.69
535.94	1699.69
536.154	1697.69
536.369	1687.69
536.583	1660.69
536.797	1660.69
537.011	1721.69
537.225	1655.69
537.44	1587.69
537.654	1689.69
537.868	1642.69
538.082	1547.69
538.296	1510.69
538.51	1555.69
538.724	1554.69
538.938	1585.69
539.153	1619.69
539.367	1656.69
539.581	1639.69
539.795	1751.69
540.009	1664.69
540.222	1631.69
540.436	1649.69
540.65	1782.69
540.864	1834.69
541.078	1738.69
541.292	1633.69
541.506	1594.69
541.72	1635.69
541.934	1612.69
542.147	1646.69
542.361	1633.69
542.575	1606.69
542.789	1566.69
543.002	1539.69
543.216	1585.69
543.43	1675.69
543.644	1736.69
543.857	1764.69
544.071	1700.69
544.285	1673.69
544.498	1590.69
544.712	1605.69
544.925	1637.69
545.139	1647.69
545.352	1573.69
545.566	1533.69
545.779	1568.69
545.993	1587.69
546.206	1587.69
546.42	1527.69
546.633	1504.69
546.847	1469.69
547.06	1532.69
547.274	1505.69
547.487	1490.69
547.7	1539.69
547.914	1467.69
548.127	1561.69
548.34	1599.69
548.554	1557.69
548.767	1535.69
548.98	1547.69
549.193	1552.69
549.407	1635.69
549.62	1624.69
549.833	1544.69
550.046	1515.69
550.259	1519.69
550.473	1482.69
550.686	1522.69
550.899	1489.69
551.112	1412.69
551.325	1454.69
551.538	1547.69
551.751	1794.69
551.964	1489.69
552.177	1437.69
552.39	1430.69
552.603	1542.69
552.816	1516.69
553.029	1549.69
553.242	1600.69
553.455	1524.69
553.667	1505.69
553.88	1522.69
554.093	1506.69
554.306	1466.69
554.519	1421.69
554.732	1390.69
554.944	1417.69
555.157	1468.69
555.37	1381.69
555.583	1426.69
555.795	1375.69
556.008	1343.69
556.221	1357.69
556.433	1358.69
556.646	1289.69
556.859	1323.69
557.071	1312.69
557.284	1290.69
557.496	1300.69
557.709	1261.69
557.921	1248.69
558.134	1237.69
558.346	1250.69
558.559	1285.69
558.771	1277.69
558.984	1211.69
559.196	1226.69
559.409	1223.69
559.621	1258.69
559.833	1239.69
560.046	1293.69
560.258	1268.69
560.47	1246.69
560.683	1267.69
560.895	1212.69
561.107	1265.69
561.32	1272.69
561.532	1244.69
561.744	1234.69
561.956	1255.69
562.168	1205.69
562.381	1192.69
562.593	1197.69
562.805	1194.69
563.017	1175.69
563.229	1207.69
563.441	1234.69
563.653	1205.69
563.865	1222.69
564.077	1207.69
564.289	1202.69
564.501	1232.69
564.713	1262.69
564.925	1320.69
565.137	1403.69
565.349	1290.69
565.561	1245.69
565.773	1313.69
565.985	1310.69
566.197	1386.69
566.408	1491.69
566.62	1483.69
566.832	1456.69
567.044	1491.69
567.255	1439.69
567.467	1443.69
567.679	1522.69
567.891	1582.69
568.102	1545.69
568.314	1475.69
568.526	1425.69
568.737	1361.69
568.949	1314.69
569.161	1245.69
569.372	1207.69
569.584	1201.69
569.795	1175.69
570.007	1157.69
570.218	1079.69
570.43	1088.69
570.641	1136.69
570.853	1130.69
571.064	1087.69
571.276	1091.69
571.487	1075.69
571.698	1052.69
571.91	1086.69
572.121	1020.69
572.333	1021.69
572.544	990.69
572.755	972.69
572.966	953.69
573.178	982.69
573.389	991.69
573.6	1009.69
573.811	1119.69
574.023	984.69
574.234	943.69
574.445	1004.69
574.656	915.69
574.867	922.69
575.078	948.69
575.289	945.69
575.501	905.69
575.712	908.69
575.923	894.69
576.134	929.69
576.345	892.69
576.556	895.69
576.767	868.69
576.978	870.69
577.188	890.69
577.399	880.69
577.61	867.69
577.821	864.69
578.032	833.69
578.243	887.69
578.454	884.69
578.665	853.69
578.875	844.69
579.086	835.69
579.297	840.69
579.508	891.69
579.718	886.69
579.929	851.69
580.14	814.69
580.35	828.69
580.561	855.69
580.772	905.69
580.982	869.69
581.193	800.69
581.403	817.69
581.614	828.69
581.825	792.69
582.035	775.69
582.246	795.69
582.456	816.69
582.667	818.69
582.877	775.69
583.087	779.69
583.298	796.69
583.508	795.69
583.719	779.69
583.929	782.69
584.139	790.69
584.35	747.69
584.56	772.69
584.77	773.69
584.981	747.69
585.191	787.69
585.401	828.69
585.611	767.69
585.821	741.69
586.032	744.69
586.242	730.69
586.452	751.69
586.662	757.69
586.872	757.69
587.082	763.69
587.292	775.69
587.502	816.69
587.713	805.69
587.923	771.69
588.133	753.69
588.343	756.69
588.553	724.69
588.762	748.69
588.972	755.69
589.182	737.69
589.392	744.69
589.602	751.69
589.812	769.69
590.022	717.69
590.232	706.69
590.441	764.69
590.651	748.69
590.861	745.69
591.071	706.69
591.281	729.69
591.49	741.69
591.7	736.69
591.91	732.69
592.119	732.69
592.329	745.69
592.539	771.69
592.748	743.69
592.958	771.69
593.167	780.69
593.377	774.69
593.587	789.69
593.796	791.69
594.006	765.69
594.215	772.69
594.424	784.69
594.634	768.69
594.843	751.69
595.053	787.69
595.262	727.69
595.472	734.69
595.681	734.69
595.89	713.69
596.1	707.69
596.309	712.69
596.518	703.69
596.727	683.69
596.937	693.69
597.146	660.69
597.355	671.69
597.564	687.69
597.774	683.69
597.983	638.69
598.192	637.69
598.401	616.69
598.61	628.69
598.819	624.69
599.028	632.69
599.237	628.69
599.446	590.69
599.655	601.69
599.864	627.69
600.073	631.69
600.282	597.69
600.491	595.69
600.7	588.69
600.909	597.69
601.118	618.69
601.327	610.69
601.536	609.69
601.745	598.69
601.953	586.69
602.162	604.69
602.371	594.69
602.58	615.69
602.789	591.69
602.997	571.69
603.206	570.69
603.415	580.69
603.623	605.69
603.832	598.69
604.041	566.69
604.249	555.69
604.458	561.69
604.666	595.69
604.875	571.69
605.084	588.69
605.292	562.69
605.501	559.69
605.709	593.69
605.918	577.69
606.126	572.69
606.334	567.69
606.543	567.69
606.751	570.69
606.96	570.69
607.168	567.69
607.376	556.69
607.585	565.69
607.793	551.69
608.001	559.69
608.21	559.69
608.418	554.69
608.626	545.69
608.834	567.69
609.043	527.69
609.251	554.69
609.459	525.69
609.667	544.69
609.875	552.69
610.083	563.69
610.291	569.69
610.499	566.69
610.707	565.69
610.916	538.69
611.124	535.69
611.332	509.69
611.54	525.69
611.748	539.69
611.955	504.69
612.163	519.69
612.371	533.69
612.579	529.69
612.787	517.69
612.995	512.69
613.203	544.69
613.411	518.69
613.618	503.69
613.826	537.69
614.034	527.69
614.242	508.69
614.449	512.69
614.657	519.69
614.865	517.69
615.072	525.69
615.28	496.69
615.488	521.69
615.695	564.69
615.903	538.69
616.111	519.69
616.318	498.69
616.526	521.69
616.733	522.69
616.941	503.69
617.148	509.69
617.356	502.69
617.563	492.69
617.771	513.69
617.978	520.69
618.185	512.69
618.393	521.69
618.6	500.69
618.807	501.69
619.015	521.69
619.222	508.69
619.429	487.69
619.637	484.69
619.844	475.69
620.051	489.69
620.258	487.69
620.466	462.69
620.673	472.69
620.88	443.69
621.087	436.69
621.294	461.69
621.501	452.69
621.708	473.69
621.915	471.69
622.122	460.69
622.329	491.69
622.536	445.69
622.743	459.69
622.95	473.69
623.157	465.69
623.364	444.69
623.571	460.69
623.778	458.69
623.985	466.69
624.192	437.69
624.399	456.69
624.606	442.69
624.812	434.69
625.019	412.69
625.226	426.69
625.433	424.69
625.639	418.69
625.846	420.69
626.053	426.69
626.259	411.69
626.466	411.69
626.673	423.69
626.879	395.69
627.086	414.69
627.293	411.69
627.499	412.69
627.706	398.69
627.912	411.69
628.119	408.69
628.325	424.69
628.532	418.69
628.738	400.69
628.945	397.69
629.151	407.69
629.357	417.69
629.564	406.69
629.77	396.69
629.976	378.69
630.183	400.69
630.389	401.69
630.595	420.69
630.802	379.69
631.008	388.69
631.214	395.69
631.42	362.69
631.627	383.69
631.833	364.69
632.039	370.69
632.245	373.69
632.451	368.69
632.657	380.69
632.863	383.69
633.069	375.69
633.275	377.69
633.481	341.69
633.688	365.69
633.893	341.69
634.099	359.69
634.305	385.69
634.511	362.69
634.717	348.69
634.923	355.69
635.129	358.69
635.335	361.69
635.541	348.69
635.747	350.69
635.952	340.69
636.158	355.69
636.364	362.69
636.57	361.69
636.775	347.69
636.981	344.69
637.187	358.69
637.392	352.69
637.598	348.69
637.804	352.69
638.009	338.69
638.215	352.69
638.421	340.69
638.626	327.69
638.832	344.69
639.037	324.69
639.243	335.69
639.448	330.69
639.654	321.69
639.859	338.69
640.065	319.69
640.27	339.69
640.475	332.69
640.681	320.69
640.886	353.69
641.091	326.69
641.297	334.69
641.502	324.69
641.707	309.69
641.913	328.69
642.118	323.69
642.323	327.69
642.528	338.69
642.733	319.69
642.939	307.69
643.144	314.69
643.349	322.69
643.554	325.69
643.759	328.69
643.964	335.69
644.169	337.69
644.374	315.69
644.579	330.69
644.784	324.69
644.989	322.69
645.194	293.69
645.399	304.69
645.604	292.69
645.809	305.69
646.014	323.69
646.219	329.69
646.423	322.69
646.628	304.69
646.833	321.69
647.038	315.69
647.243	301.69
647.447	326.69
647.652	324.69
647.857	342.69
648.062	326.69
648.266	313.69
648.471	330.69
648.676	333.69
648.88	327.69
649.085	330.69
649.289	307.69
649.494	314.69
649.698	316.69
649.903	304.69
650.107	289.69
650.312	308.69
650.516	297.69
650.721	303.69
650.925	295.69
651.13	287.69
651.334	291.69
651.539	278.69
651.743	265.69
651.947	266.69
652.152	279.69
652.356	265.69
652.56	268.69
652.764	271.69
652.969	285.69
653.173	239.69
653.377	248.69
653.581	264.69
653.785	257.69
653.99	262.69
654.194	227.69
654.398	238.69
654.602	242.69
654.806	248.69
655.01	237.69
655.214	237.69
655.418	252.69
655.622	249.69
655.826	247.69
656.03	267.69
656.234	263.69
656.438	256.69
656.642	264.69
656.846	254.69
657.049	248.69
657.253	232.69
657.457	209.69
657.661	204.69
657.865	196.69
658.068	191.69
658.272	170.69
658.476	159.69
658.68	161.69
658.883	150.69
659.087	144.69
659.291	156.69
659.494	128.69
659.698	128.69
659.901	136.69
660.105	119.69
660.309	120.69
660.512	124.69
660.716	125.69
660.919	102.69
661.123	111.69
661.326	95.69
661.53	101.69
661.733	106.69
661.936	99.69
662.14	100.69
662.343	95.69
662.546	87.69
662.75	83.69
662.953	87.69
663.156	91.69
663.36	86.69
663.563	91.69
663.766	80.69
663.969	82.69
664.173	86.69
664.376	83.69
664.579	79.69
664.782	87.69
664.985	69.69
665.188	76.69
665.391	96.69
665.594	79.69
665.797	87.69
666	72.69
666.203	79.69
666.406	75.69
666.609	78.69
666.812	84.69
667.015	81.69
667.218	81.69
667.421	75.69
667.624	86.69
667.827	79.69
668.03	85.69
668.232	75.69
668.435	83.69
668.638	78.69
668.841	83.69
669.043	79.69
669.246	79.69
669.449	81.69
669.651	75.69
669.854	83.69
670.057	82.69
670.259	78.69
670.462	77.69
670.665	84.69
670.867	74.69
671.07	79.69
671.272	81.69
671.475	96.69
671.677	79.69
671.88	75.69
672.082	86.69
672.284	72.69
672.487	86.69
672.689	80.69
672.892	95.69
