Data from WStandard_LampEnergy10_LIBS07252019.E.O._I.C._HRD10591_15-55-06-928.txt Node
Date: Thu Jul 25 15:55:06 EDT 2019
User: cochatt
Spectrometer: HR+D1059
Trigger mode: 1
Integration Time (sec): 1.000000E-1
Scans to average: 1
Electric dark correction enabled: true
Nonlinearity correction enabled: false
Boxcar width: 0
XAxis mode: Wavelengths
Number of Pixels in Spectrum: 2048
>>>>>Begin Spectral Data<<<<<
223.165	-21.62
223.4	-21.62
223.635	-21.62
223.869	-20.62
224.104	-33.62
224.338	-17.62
224.573	-22.62
224.808	-18.62
225.042	2.38
225.277	-2.62
225.511	-3.62
225.746	6.38
225.98	27.38
226.215	8.38
226.449	17.38
226.683	25.38
226.918	27.38
227.152	26.38
227.387	35.38
227.621	34.38
227.856	42.38
228.09	43.38
228.324	56.38
228.559	58.38
228.793	92.38
229.027	129.38
229.262	142.38
229.496	148.38
229.73	162.38
229.964	160.38
230.199	155.38
230.433	155.38
230.667	182.38
230.901	191.38
231.136	178.38
231.37	175.38
231.604	181.38
231.838	193.38
232.072	176.38
232.306	178.38
232.541	158.38
232.775	198.38
233.009	208.38
233.243	203.38
233.477	184.38
233.711	190.38
233.945	205.38
234.179	208.38
234.413	200.38
234.647	219.38
234.881	200.38
235.115	186.38
235.349	197.38
235.583	205.38
235.817	205.38
236.051	204.38
236.285	182.38
236.519	210.38
236.753	222.38
236.987	219.38
237.221	214.38
237.455	226.38
237.689	232.38
237.922	218.38
238.156	208.38
238.39	214.38
238.624	230.38
238.858	258.38
239.091	258.38
239.325	252.38
239.559	289.38
239.793	298.38
240.027	310.38
240.26	315.38
240.494	253.38
240.728	226.38
240.961	230.38
241.195	238.38
241.429	252.38
241.662	246.38
241.896	243.38
242.13	257.38
242.363	253.38
242.597	271.38
242.83	267.38
243.064	278.38
243.298	282.38
243.531	265.38
243.765	267.38
243.998	281.38
244.232	258.38
244.465	247.38
244.699	257.38
244.932	284.38
245.166	312.38
245.399	302.38
245.633	266.38
245.866	282.38
246.099	276.38
246.333	279.38
246.566	302.38
246.8	316.38
247.033	324.38
247.266	325.38
247.5	323.38
247.733	322.38
247.966	338.38
248.2	365.38
248.433	368.38
248.666	368.38
248.899	391.38
249.133	439.38
249.366	455.38
249.599	403.38
249.832	367.38
250.066	372.38
250.299	363.38
250.532	350.38
250.765	318.38
250.998	330.38
251.231	356.38
251.465	347.38
251.698	349.38
251.931	339.38
252.164	341.38
252.397	357.38
252.63	363.38
252.863	329.38
253.096	345.38
253.329	335.38
253.562	325.38
253.795	364.38
254.028	358.38
254.261	341.38
254.494	321.38
254.727	317.38
254.96	356.38
255.193	372.38
255.426	408.38
255.659	453.38
255.892	455.38
256.124	407.38
256.357	382.38
256.59	412.38
256.823	396.38
257.056	418.38
257.289	452.38
257.521	513.38
257.754	468.38
257.987	452.38
258.22	468.38
258.452	450.38
258.685	410.38
258.918	393.38
259.151	398.38
259.383	395.38
259.616	352.38
259.849	359.38
260.081	406.38
260.314	450.38
260.547	482.38
260.779	475.38
261.012	437.38
261.244	410.38
261.477	394.38
261.71	399.38
261.942	400.38
262.175	398.38
262.407	391.38
262.64	380.38
262.872	343.38
263.105	363.38
263.337	376.38
263.57	382.38
263.802	362.38
264.035	372.38
264.267	352.38
264.499	324.38
264.732	360.38
264.964	394.38
265.197	388.38
265.429	434.38
265.661	455.38
265.894	469.38
266.126	494.38
266.358	456.38
266.591	483.38
266.823	495.38
267.055	446.38
267.287	451.38
267.52	448.38
267.752	422.38
267.984	439.38
268.216	473.38
268.448	463.38
268.681	427.38
268.913	418.38
269.145	404.38
269.377	408.38
269.609	461.38
269.841	510.38
270.073	580.38
270.306	604.38
270.538	618.38
270.77	537.38
271.002	487.38
271.234	487.38
271.466	476.38
271.698	528.38
271.93	608.38
272.162	605.38
272.394	551.38
272.626	516.38
272.858	471.38
273.09	404.38
273.322	399.38
273.553	409.38
273.785	401.38
274.017	436.38
274.249	460.38
274.481	426.38
274.713	438.38
274.945	409.38
275.176	422.38
275.408	412.38
275.64	397.38
275.872	412.38
276.104	442.38
276.335	486.38
276.567	537.38
276.799	523.38
277.031	470.38
277.262	476.38
277.494	506.38
277.726	516.38
277.957	500.38
278.189	475.38
278.421	432.38
278.652	399.38
278.884	428.38
279.115	423.38
279.347	439.38
279.579	440.38
279.81	437.38
280.042	486.38
280.273	498.38
280.505	495.38
280.736	508.38
280.968	462.38
281.199	440.38
281.431	410.38
281.662	423.38
281.894	406.38
282.125	432.38
282.356	468.38
282.588	453.38
282.819	468.38
283.051	489.38
283.282	519.38
283.513	494.38
283.745	436.38
283.976	407.38
284.207	430.38
284.439	442.38
284.67	452.38
284.901	456.38
285.132	458.38
285.364	454.38
285.595	449.38
285.826	441.38
286.057	452.38
286.288	447.38
286.52	484.38
286.751	480.38
286.982	492.38
287.213	451.38
287.444	445.38
287.675	442.38
287.906	478.38
288.138	478.38
288.369	473.38
288.6	439.38
288.831	410.38
289.062	434.38
289.293	453.38
289.524	440.38
289.755	473.38
289.986	452.38
290.217	429.38
290.448	427.38
290.679	443.38
290.91	458.38
291.141	466.38
291.371	471.38
291.602	490.38
291.833	473.38
292.064	503.38
292.295	490.38
292.526	516.38
292.757	490.38
292.987	478.38
293.218	485.38
293.449	508.38
293.68	594.38
293.91	575.38
294.141	552.38
294.372	539.38
294.603	549.38
294.833	568.38
295.064	534.38
295.295	496.38
295.525	456.38
295.756	452.38
295.987	446.38
296.217	436.38
296.448	478.38
296.679	454.38
296.909	445.38
297.14	452.38
297.37	463.38
297.601	515.38
297.831	513.38
298.062	519.38
298.292	475.38
298.523	464.38
298.753	456.38
298.984	469.38
299.214	487.38
299.445	480.38
299.675	512.38
299.905	518.38
300.136	479.38
300.366	458.38
300.597	446.38
300.827	465.38
301.057	494.38
301.288	506.38
301.518	513.38
301.748	510.38
301.979	548.38
302.209	566.38
302.439	572.38
302.669	566.38
302.9	541.38
303.13	507.38
303.36	508.38
303.59	538.38
303.82	532.38
304.051	482.38
304.281	511.38
304.511	535.38
304.741	564.38
304.971	611.38
305.201	631.38
305.431	538.38
305.661	469.38
305.891	463.38
306.121	454.38
306.352	483.38
306.582	504.38
306.812	527.38
307.042	562.38
307.272	564.38
307.502	598.38
307.731	605.38
307.961	633.38
308.191	565.38
308.421	511.38
308.651	516.38
308.881	511.38
309.111	512.38
309.341	505.38
309.571	500.38
309.8	514.38
310.03	490.38
310.26	485.38
310.49	494.38
310.72	520.38
310.949	543.38
311.179	538.38
311.409	522.38
311.639	507.38
311.868	511.38
312.098	498.38
312.328	511.38
312.557	507.38
312.787	527.38
313.017	504.38
313.246	516.38
313.476	547.38
313.706	527.38
313.935	503.38
314.165	538.38
314.394	578.38
314.624	596.38
314.853	593.38
315.083	616.38
315.312	618.38
315.542	583.38
315.771	557.38
316.001	544.38
316.23	581.38
316.46	576.38
316.689	556.38
316.919	532.38
317.148	533.38
317.377	527.38
317.607	582.38
317.836	643.38
318.065	623.38
318.295	637.38
318.524	592.38
318.753	564.38
318.983	551.38
319.212	544.38
319.441	555.38
319.67	556.38
319.9	574.38
320.129	588.38
320.358	600.38
320.587	641.38
320.816	608.38
321.046	592.38
321.275	576.38
321.504	609.38
321.733	628.38
321.962	606.38
322.191	574.38
322.42	544.38
322.649	556.38
322.878	565.38
323.108	564.38
323.337	583.38
323.566	541.38
323.795	558.38
324.024	586.38
324.253	560.38
324.482	555.38
324.71	550.38
324.939	540.38
325.168	547.38
325.397	545.38
325.626	565.38
325.855	590.38
326.084	549.38
326.313	575.38
326.542	582.38
326.77	572.38
326.999	587.38
327.228	533.38
327.457	516.38
327.686	530.38
327.914	529.38
328.143	566.38
328.372	556.38
328.6	545.38
328.829	552.38
329.058	532.38
329.287	557.38
329.515	548.38
329.744	582.38
329.972	583.38
330.201	615.38
330.43	598.38
330.658	609.38
330.887	602.38
331.115	602.38
331.344	592.38
331.572	590.38
331.801	578.38
332.03	584.38
332.258	588.38
332.486	599.38
332.715	589.38
332.943	601.38
333.172	599.38
333.4	633.38
333.629	614.38
333.857	690.38
334.085	740.38
334.314	810.38
334.542	861.38
334.771	746.38
334.999	683.38
335.227	633.38
335.455	649.38
335.684	623.38
335.912	676.38
336.14	660.38
336.369	604.38
336.597	596.38
336.825	605.38
337.053	626.38
337.281	675.38
337.51	690.38
337.738	700.38
337.966	656.38
338.194	608.38
338.422	567.38
338.65	598.38
338.878	570.38
339.106	568.38
339.334	573.38
339.562	562.38
339.79	580.38
340.018	621.38
340.246	638.38
340.474	630.38
340.702	615.38
340.93	623.38
341.158	586.38
341.386	628.38
341.614	597.38
341.842	591.38
342.07	596.38
342.298	599.38
342.526	593.38
342.754	590.38
342.981	598.38
343.209	579.38
343.437	593.38
343.665	602.38
343.893	621.38
344.12	618.38
344.348	623.38
344.576	636.38
344.804	579.38
345.031	577.38
345.259	592.38
345.487	585.38
345.714	551.38
345.942	562.38
346.17	568.38
346.397	560.38
346.625	571.38
346.853	516.38
347.08	537.38
347.308	572.38
347.535	573.38
347.763	572.38
347.99	581.38
348.218	532.38
348.445	566.38
348.673	591.38
348.9	589.38
349.128	612.38
349.355	615.38
349.583	603.38
349.81	594.38
350.037	514.38
350.265	526.38
350.492	555.38
350.72	560.38
350.947	555.38
351.174	597.38
351.402	556.38
351.629	520.38
351.856	532.38
352.083	537.38
352.311	541.38
352.538	544.38
352.765	571.38
352.992	564.38
353.22	569.38
353.447	549.38
353.674	581.38
353.901	562.38
354.128	551.38
354.355	559.38
354.583	584.38
354.81	597.38
355.037	596.38
355.264	583.38
355.491	574.38
355.718	576.38
355.945	570.38
356.172	553.38
356.399	549.38
356.626	574.38
356.853	586.38
357.08	634.38
357.307	675.38
357.534	641.38
357.761	565.38
357.988	559.38
358.215	527.38
358.441	540.38
358.668	547.38
358.895	590.38
359.122	623.38
359.349	632.38
359.576	634.38
359.802	569.38
360.029	537.38
360.256	538.38
360.483	579.38
360.709	597.38
360.936	606.38
361.163	614.38
361.39	670.38
361.616	701.38
361.843	697.38
362.07	633.38
362.296	575.38
362.523	575.38
362.749	572.38
362.976	612.38
363.203	605.38
363.429	571.38
363.656	566.38
363.882	603.38
364.109	659.38
364.335	679.38
364.562	613.38
364.788	613.38
365.015	588.38
365.241	576.38
365.468	584.38
365.694	598.38
365.92	600.38
366.147	589.38
366.373	563.38
366.599	582.38
366.826	556.38
367.052	564.38
367.278	555.38
367.505	588.38
367.731	604.38
367.957	597.38
368.184	618.38
368.41	674.38
368.636	652.38
368.862	666.38
369.089	662.38
369.315	637.38
369.541	588.38
369.767	600.38
369.993	587.38
370.219	603.38
370.445	610.38
370.672	630.38
370.898	666.38
371.124	653.38
371.35	644.38
371.576	664.38
371.802	651.38
372.028	635.38
372.254	624.38
372.48	586.38
372.706	600.38
372.932	593.38
373.158	621.38
373.384	619.38
373.61	649.38
373.835	662.38
374.061	634.38
374.287	623.38
374.513	612.38
374.739	620.38
374.965	623.38
375.191	636.38
375.416	641.38
375.642	667.38
375.868	706.38
376.094	719.38
376.319	683.38
376.545	648.38
376.771	661.38
376.997	698.38
377.222	682.38
377.448	685.38
377.674	687.38
377.899	679.38
378.125	716.38
378.35	699.38
378.576	629.38
378.802	633.38
379.027	632.38
379.253	646.38
379.478	626.38
379.704	650.38
379.929	662.38
380.155	649.38
380.38	655.38
380.606	670.38
380.831	650.38
381.057	696.38
381.282	686.38
381.507	710.38
381.733	720.38
381.958	735.38
382.184	693.38
382.409	682.38
382.634	700.38
382.86	698.38
383.085	695.38
383.31	711.38
383.535	787.38
383.761	781.38
383.986	776.38
384.211	708.38
384.436	762.38
384.662	780.38
384.887	779.38
385.112	746.38
385.337	750.38
385.562	738.38
385.787	726.38
386.013	761.38
386.238	758.38
386.463	772.38
386.688	827.38
386.913	862.38
387.138	828.38
387.363	812.38
387.588	757.38
387.813	754.38
388.038	776.38
388.263	799.38
388.488	760.38
388.713	731.38
388.938	715.38
389.163	716.38
389.387	737.38
389.612	718.38
389.837	794.38
390.062	754.38
390.287	767.38
390.512	756.38
390.736	732.38
390.961	722.38
391.186	711.38
391.411	703.38
391.636	734.38
391.86	718.38
392.085	730.38
392.31	750.38
392.534	747.38
392.759	756.38
392.984	764.38
393.208	772.38
393.433	796.38
393.658	827.38
393.882	826.38
394.107	776.38
394.331	782.38
394.556	750.38
394.78	777.38
395.005	826.38
395.229	832.38
395.454	867.38
395.678	855.38
395.903	807.38
396.127	804.38
396.352	822.38
396.576	832.38
396.801	828.38
397.025	824.38
397.249	848.38
397.474	826.38
397.698	846.38
397.922	858.38
398.147	898.38
398.371	896.38
398.595	896.38
398.82	869.38
399.044	896.38
399.268	918.38
399.492	965.38
399.717	1006.38
399.941	958.38
400.165	947.38
400.389	962.38
400.613	1006.38
400.837	1131.38
401.062	1172.38
401.286	1037.38
401.51	964.38
401.734	1006.38
401.958	962.38
402.182	899.38
402.406	893.38
402.63	881.38
402.854	896.38
403.078	873.38
403.302	882.38
403.526	898.38
403.75	919.38
403.974	945.38
404.198	943.38
404.422	994.38
404.645	1003.38
404.869	956.38
405.093	896.38
405.317	897.38
405.541	940.38
405.765	928.38
405.988	942.38
406.212	954.38
406.436	966.38
406.66	1016.38
406.883	1039.38
407.107	1137.38
407.331	1216.38
407.555	1284.38
407.778	1108.38
408.002	966.38
408.226	948.38
408.449	938.38
408.673	969.38
408.896	950.38
409.12	925.38
409.344	931.38
409.567	929.38
409.791	947.38
410.014	965.38
410.238	1048.38
410.461	1064.38
410.685	979.38
410.908	935.38
411.132	936.38
411.355	973.38
411.578	943.38
411.802	938.38
412.025	937.38
412.249	925.38
412.472	920.38
412.695	923.38
412.919	904.38
413.142	908.38
413.365	929.38
413.589	955.38
413.812	985.38
414.035	973.38
414.258	946.38
414.482	930.38
414.705	939.38
414.928	919.38
415.151	884.38
415.374	908.38
415.597	932.38
415.821	938.38
416.044	952.38
416.267	939.38
416.49	902.38
416.713	882.38
416.936	934.38
417.159	1001.38
417.382	943.38
417.605	907.38
417.828	946.38
418.051	917.38
418.274	938.38
418.497	927.38
418.72	959.38
418.943	925.38
419.166	950.38
419.389	994.38
419.611	971.38
419.834	938.38
420.057	950.38
420.28	930.38
420.503	952.38
420.726	962.38
420.948	925.38
421.171	920.38
421.394	933.38
421.617	985.38
421.839	988.38
422.062	967.38
422.285	939.38
422.507	932.38
422.73	878.38
422.953	852.38
423.175	887.38
423.398	909.38
423.621	936.38
423.843	953.38
424.066	948.38
424.288	1011.38
424.511	1048.38
424.733	998.38
424.956	906.38
425.178	921.38
425.401	961.38
425.623	961.38
425.846	923.38
426.068	958.38
426.291	946.38
426.513	960.38
426.735	979.38
426.958	1056.38
427.18	1066.38
427.402	992.38
427.625	1018.38
427.847	981.38
428.069	938.38
428.292	915.38
428.514	899.38
428.736	890.38
428.958	894.38
429.181	940.38
429.403	1075.38
429.625	1206.38
429.847	1042.38
430.069	926.38
430.292	1039.38
430.514	999.38
430.736	995.38
430.958	980.38
431.18	906.38
431.402	861.38
431.624	843.38
431.846	816.38
432.068	730.38
432.29	731.38
432.512	796.38
432.734	880.38
432.956	938.38
433.178	995.38
433.4	958.38
433.622	924.38
433.844	902.38
434.066	828.38
434.287	791.38
434.509	779.38
434.731	830.38
434.953	900.38
435.175	934.38
435.397	905.38
435.618	877.38
435.84	853.38
436.062	834.38
436.284	925.38
436.505	946.38
436.727	932.38
436.949	902.38
437.17	890.38
437.392	865.38
437.614	856.38
437.835	814.38
438.057	823.38
438.278	840.38
438.5	864.38
438.721	909.38
438.943	928.38
439.165	912.38
439.386	923.38
439.608	951.38
439.829	973.38
440.05	966.38
440.272	951.38
440.493	986.38
440.715	973.38
440.936	1026.38
441.158	1050.38
441.379	1041.38
441.6	1043.38
441.822	1027.38
442.043	1023.38
442.264	994.38
442.486	964.38
442.707	926.38
442.928	935.38
443.149	964.38
443.371	1004.38
443.592	1024.38
443.813	984.38
444.034	1054.38
444.255	999.38
444.476	1024.38
444.698	1017.38
444.919	1004.38
445.14	1172.38
445.361	1074.38
445.582	1070.38
445.803	1090.38
446.024	1065.38
446.245	1077.38
446.466	1031.38
446.687	1026.38
446.908	1060.38
447.129	1034.38
447.35	999.38
447.571	982.38
447.792	958.38
448.013	957.38
448.234	963.38
448.455	1003.38
448.675	968.38
448.896	922.38
449.117	902.38
449.338	918.38
449.559	954.38
449.779	1000.38
450	999.38
450.221	1044.38
450.442	1031.38
450.662	926.38
450.883	875.38
451.104	862.38
451.324	873.38
451.545	894.38
451.766	887.38
451.986	844.38
452.207	820.38
452.428	799.38
452.648	798.38
452.869	780.38
453.089	777.38
453.31	768.38
453.53	757.38
453.751	744.38
453.971	718.38
454.192	723.38
454.412	770.38
454.633	772.38
454.853	785.38
455.073	731.38
455.294	763.38
455.514	763.38
455.734	762.38
455.955	767.38
456.175	761.38
456.395	759.38
456.616	747.38
456.836	754.38
457.056	741.38
457.276	729.38
457.497	691.38
457.717	707.38
457.937	732.38
458.157	733.38
458.377	701.38
458.598	679.38
458.818	682.38
459.038	715.38
459.258	714.38
459.478	738.38
459.698	696.38
459.918	733.38
460.138	811.38
460.358	822.38
460.578	836.38
460.798	848.38
461.018	902.38
461.238	853.38
461.458	827.38
461.678	835.38
461.898	808.38
462.118	836.38
462.338	835.38
462.558	855.38
462.777	827.38
462.997	883.38
463.217	898.38
463.437	867.38
463.657	852.38
463.876	859.38
464.096	843.38
464.316	852.38
464.536	860.38
464.755	842.38
464.975	879.38
465.195	828.38
465.414	870.38
465.634	882.38
465.854	869.38
466.073	966.38
466.293	950.38
466.512	857.38
466.732	854.38
466.951	891.38
467.171	902.38
467.391	884.38
467.61	892.38
467.829	887.38
468.049	1005.38
468.268	1027.38
468.488	971.38
468.707	946.38
468.927	930.38
469.146	902.38
469.365	909.38
469.585	936.38
469.804	942.38
470.023	957.38
470.243	922.38
470.462	944.38
470.681	953.38
470.901	938.38
471.12	934.38
471.339	918.38
471.558	934.38
471.777	889.38
471.997	881.38
472.216	856.38
472.435	797.38
472.654	781.38
472.873	772.38
473.092	831.38
473.311	824.38
473.53	800.38
473.749	821.38
473.968	877.38
474.187	850.38
474.406	864.38
474.625	866.38
474.844	882.38
475.063	910.38
475.282	870.38
475.501	822.38
475.72	839.38
475.939	921.38
476.158	868.38
476.377	834.38
476.596	823.38
476.814	843.38
477.033	822.38
477.252	863.38
477.471	902.38
477.69	926.38
477.908	932.38
478.127	1006.38
478.346	990.38
478.564	1020.38
478.783	982.38
479.002	1007.38
479.22	1000.38
479.439	1006.38
479.658	1052.38
479.876	990.38
480.095	907.38
480.313	890.38
480.532	875.38
480.751	861.38
480.969	823.38
481.188	805.38
481.406	776.38
481.624	787.38
481.843	792.38
482.061	826.38
482.28	868.38
482.498	897.38
482.717	868.38
482.935	908.38
483.153	960.38
483.372	1040.38
483.59	1007.38
483.808	960.38
484.027	930.38
484.245	1002.38
484.463	1216.38
484.681	1286.38
484.9	1051.38
485.118	999.38
485.336	919.38
485.554	911.38
485.772	883.38
485.99	882.38
486.209	924.38
486.427	902.38
486.645	950.38
486.863	989.38
487.081	1044.38
487.299	1019.38
487.517	1028.38
487.735	1095.38
487.953	1178.38
488.171	1156.38
488.389	1118.38
488.607	1103.38
488.825	1160.38
489.043	1044.38
489.261	966.38
489.479	1005.38
489.696	1070.38
489.914	1058.38
490.132	1050.38
490.35	1101.38
490.568	1151.38
490.786	1156.38
491.003	1190.38
491.221	1234.38
491.439	1285.38
491.657	1290.38
491.874	1342.38
492.092	1409.38
492.31	1503.38
492.527	1456.38
492.745	1391.38
492.963	1312.38
493.18	1297.38
493.398	1369.38
493.615	1369.38
493.833	1288.38
494.05	1221.38
494.268	1236.38
494.485	1243.38
494.703	1238.38
494.92	1197.38
495.138	1211.38
495.355	1234.38
495.573	1230.38
495.79	1289.38
496.008	1288.38
496.225	1223.38
496.442	1191.38
496.66	1232.38
496.877	1217.38
497.094	1228.38
497.312	1196.38
497.529	1223.38
497.746	1191.38
497.963	1300.38
498.181	1288.38
498.398	1249.38
498.615	1225.38
498.832	1142.38
499.049	1139.38
499.267	1180.38
499.484	1278.38
499.701	1335.38
499.918	1370.38
500.135	1469.38
500.352	1559.38
500.569	1574.38
500.786	1708.38
501.003	1578.38
501.22	1437.38
501.437	1397.38
501.654	1465.38
501.871	1332.38
502.088	1195.38
502.305	1202.38
502.522	1116.38
502.739	1086.38
502.956	1078.38
503.172	1060.38
503.389	1026.38
503.606	992.38
503.823	1008.38
504.04	1005.38
504.256	1024.38
504.473	1012.38
504.69	1017.38
504.907	995.38
505.123	976.38
505.34	1078.38
505.557	1356.38
505.773	1104.38
505.99	964.38
506.207	885.38
506.423	884.38
506.64	894.38
506.856	873.38
507.073	1028.38
507.289	1086.38
507.506	1014.38
507.722	892.38
507.939	844.38
508.155	842.38
508.372	863.38
508.588	812.38
508.805	777.38
509.021	780.38
509.238	763.38
509.454	774.38
509.67	764.38
509.887	758.38
510.103	698.38
510.319	721.38
510.536	737.38
510.752	764.38
510.968	751.38
511.184	829.38
511.401	746.38
511.617	715.38
511.833	721.38
512.049	694.38
512.265	719.38
512.481	708.38
512.698	759.38
512.914	780.38
513.13	745.38
513.346	716.38
513.562	714.38
513.778	730.38
513.994	742.38
514.21	747.38
514.426	780.38
514.642	834.38
514.858	770.38
515.074	725.38
515.29	700.38
515.506	733.38
515.721	725.38
515.937	783.38
516.153	794.38
516.369	764.38
516.585	758.38
516.801	726.38
517.016	739.38
517.232	770.38
517.448	790.38
517.664	791.38
517.879	796.38
518.095	815.38
518.311	780.38
518.527	773.38
518.742	770.38
518.958	759.38
519.173	761.38
519.389	806.38
519.605	790.38
519.82	766.38
520.036	788.38
520.251	766.38
520.467	778.38
520.682	818.38
520.898	780.38
521.113	719.38
521.329	700.38
521.544	723.38
521.76	728.38
521.975	716.38
522.19	720.38
522.406	754.38
522.621	913.38
522.836	883.38
523.052	718.38
523.267	740.38
523.482	744.38
523.698	691.38
523.913	734.38
524.128	774.38
524.343	809.38
524.559	818.38
524.774	782.38
524.989	774.38
525.204	778.38
525.419	749.38
525.634	718.38
525.849	728.38
526.064	712.38
526.28	713.38
526.495	685.38
526.71	632.38
526.925	623.38
527.14	612.38
527.355	622.38
527.57	626.38
527.785	654.38
527.999	679.38
528.214	695.38
528.429	716.38
528.644	739.38
528.859	761.38
529.074	827.38
529.289	856.38
529.503	843.38
529.718	830.38
529.933	725.38
530.148	674.38
530.363	649.38
530.577	639.38
530.792	636.38
531.007	647.38
531.221	610.38
531.436	623.38
531.651	657.38
531.865	674.38
532.08	661.38
532.295	630.38
532.509	612.38
532.724	633.38
532.938	672.38
533.153	706.38
533.367	687.38
533.582	737.38
533.796	729.38
534.011	698.38
534.225	678.38
534.44	647.38
534.654	633.38
534.868	642.38
535.083	693.38
535.297	700.38
535.511	677.38
535.726	671.38
535.94	687.38
536.154	637.38
536.369	642.38
536.583	621.38
536.797	608.38
537.011	612.38
537.225	605.38
537.44	614.38
537.654	630.38
537.868	627.38
538.082	603.38
538.296	620.38
538.51	638.38
538.724	682.38
538.938	722.38
539.153	726.38
539.367	736.38
539.581	700.38
539.795	674.38
540.009	650.38
540.222	676.38
540.436	674.38
540.65	739.38
540.864	813.38
541.078	818.38
541.292	858.38
541.506	891.38
541.72	947.38
541.934	1021.38
542.147	1068.38
542.361	967.38
542.575	898.38
542.789	838.38
543.002	736.38
543.216	731.38
543.43	759.38
543.644	808.38
543.857	891.38
544.071	909.38
544.285	932.38
544.498	918.38
544.712	937.38
544.925	929.38
545.139	952.38
545.352	914.38
545.566	909.38
545.779	932.38
545.993	927.38
546.206	947.38
546.42	943.38
546.633	952.38
546.847	962.38
547.06	952.38
547.274	964.38
547.487	1016.38
547.7	1003.38
547.914	975.38
548.127	966.38
548.34	969.38
548.554	898.38
548.767	933.38
548.98	934.38
549.193	933.38
549.407	959.38
549.62	939.38
549.833	929.38
550.046	913.38
550.259	914.38
550.473	908.38
550.686	898.38
550.899	857.38
551.112	861.38
551.325	806.38
551.538	863.38
551.751	880.38
551.964	716.38
552.177	740.38
552.39	788.38
552.603	828.38
552.816	831.38
553.029	867.38
553.242	918.38
553.455	890.38
553.667	914.38
553.88	905.38
554.093	896.38
554.306	846.38
554.519	841.38
554.732	842.38
554.944	814.38
555.157	839.38
555.37	781.38
555.583	789.38
555.795	779.38
556.008	754.38
556.221	719.38
556.433	715.38
556.646	736.38
556.859	751.38
557.071	747.38
557.284	745.38
557.496	776.38
557.709	749.38
557.921	760.38
558.134	746.38
558.346	739.38
558.559	717.38
558.771	724.38
558.984	694.38
559.196	683.38
559.409	679.38
559.621	644.38
559.833	651.38
560.046	647.38
560.258	674.38
560.47	683.38
560.683	674.38
560.895	660.38
561.107	679.38
561.32	668.38
561.532	681.38
561.744	667.38
561.956	680.38
562.168	679.38
562.381	626.38
562.593	653.38
562.805	648.38
563.017	643.38
563.229	630.38
563.441	640.38
563.653	607.38
563.865	626.38
564.077	609.38
564.289	612.38
564.501	610.38
564.713	623.38
564.925	615.38
565.137	656.38
565.349	615.38
565.561	632.38
565.773	614.38
565.985	640.38
566.197	655.38
566.408	689.38
566.62	676.38
566.832	685.38
567.044	686.38
567.255	672.38
567.467	656.38
567.679	668.38
567.891	668.38
568.102	619.38
568.314	590.38
568.526	525.38
568.737	521.38
568.949	484.38
569.161	478.38
569.372	467.38
569.584	476.38
569.795	467.38
570.007	465.38
570.218	426.38
570.43	452.38
570.641	482.38
570.853	474.38
571.064	485.38
571.276	502.38
571.487	484.38
571.698	500.38
571.91	470.38
572.121	436.38
572.333	452.38
572.544	446.38
572.755	440.38
572.966	394.38
573.178	395.38
573.389	379.38
573.6	403.38
573.811	437.38
574.023	414.38
574.234	372.38
574.445	402.38
574.656	380.38
574.867	421.38
575.078	419.38
575.289	430.38
575.501	400.38
575.712	379.38
575.923	397.38
576.134	395.38
576.345	399.38
576.556	426.38
576.767	390.38
576.978	394.38
577.188	377.38
577.399	381.38
577.61	368.38
577.821	382.38
578.032	377.38
578.243	370.38
578.454	365.38
578.665	357.38
578.875	371.38
579.086	328.38
579.297	336.38
579.508	352.38
579.718	342.38
579.929	356.38
580.14	338.38
580.35	328.38
580.561	355.38
580.772	406.38
580.982	388.38
581.193	370.38
581.403	358.38
581.614	323.38
581.825	341.38
582.035	353.38
582.246	359.38
582.456	345.38
582.667	387.38
582.877	336.38
583.087	348.38
583.298	330.38
583.508	326.38
583.719	330.38
583.929	316.38
584.139	340.38
584.35	323.38
584.56	314.38
584.77	333.38
584.981	338.38
585.191	335.38
585.401	356.38
585.611	343.38
585.821	338.38
586.032	319.38
586.242	303.38
586.452	314.38
586.662	331.38
586.872	319.38
587.082	331.38
587.292	330.38
587.502	318.38
587.713	323.38
587.923	317.38
588.133	311.38
588.343	326.38
588.553	314.38
588.762	308.38
588.972	298.38
589.182	304.38
589.392	303.38
589.602	319.38
589.812	325.38
590.022	301.38
590.232	293.38
590.441	313.38
590.651	332.38
590.861	308.38
591.071	315.38
591.281	308.38
591.49	313.38
591.7	314.38
591.91	312.38
592.119	319.38
592.329	316.38
592.539	316.38
592.748	328.38
592.958	330.38
593.167	325.38
593.377	320.38
593.587	322.38
593.796	330.38
594.006	330.38
594.215	334.38
594.424	322.38
594.634	320.38
594.843	344.38
595.053	356.38
595.262	331.38
595.472	327.38
595.681	323.38
595.89	322.38
596.1	324.38
596.309	336.38
596.518	339.38
596.727	339.38
596.937	322.38
597.146	311.38
597.355	311.38
597.564	318.38
597.774	290.38
597.983	288.38
598.192	277.38
598.401	285.38
598.61	291.38
598.819	308.38
599.028	303.38
599.237	303.38
599.446	298.38
599.655	293.38
599.864	287.38
600.073	304.38
600.282	304.38
600.491	294.38
600.7	283.38
600.909	298.38
601.118	298.38
601.327	319.38
601.536	337.38
601.745	336.38
601.953	335.38
602.162	347.38
602.371	341.38
602.58	360.38
602.789	354.38
602.997	357.38
603.206	351.38
603.415	353.38
603.623	354.38
603.832	337.38
604.041	331.38
604.249	313.38
604.458	304.38
604.666	302.38
604.875	300.38
605.084	311.38
605.292	329.38
605.501	346.38
605.709	368.38
605.918	370.38
606.126	358.38
606.334	374.38
606.543	357.38
606.751	363.38
606.96	364.38
607.168	357.38
607.376	360.38
607.585	360.38
607.793	357.38
608.001	372.38
608.21	378.38
608.418	356.38
608.626	361.38
608.834	366.38
609.043	358.38
609.251	366.38
609.459	340.38
609.667	370.38
609.875	383.38
610.083	388.38
610.291	361.38
610.499	363.38
610.707	362.38
610.916	363.38
611.124	350.38
611.332	375.38
611.54	347.38
611.748	358.38
611.955	357.38
612.163	352.38
612.371	374.38
612.579	349.38
612.787	352.38
612.995	344.38
613.203	358.38
613.411	347.38
613.618	355.38
613.826	360.38
614.034	370.38
614.242	358.38
614.449	358.38
614.657	356.38
614.865	360.38
615.072	351.38
615.28	355.38
615.488	351.38
615.695	372.38
615.903	367.38
616.111	358.38
616.318	359.38
616.526	372.38
616.733	348.38
616.941	339.38
617.148	367.38
617.356	354.38
617.563	331.38
617.771	336.38
617.978	329.38
618.185	348.38
618.393	342.38
618.6	342.38
618.807	364.38
619.015	359.38
619.222	343.38
619.429	322.38
619.637	306.38
619.844	286.38
620.051	320.38
620.258	312.38
620.466	343.38
620.673	309.38
620.88	320.38
621.087	314.38
621.294	299.38
621.501	318.38
621.708	287.38
621.915	310.38
622.122	328.38
622.329	341.38
622.536	345.38
622.743	317.38
622.95	317.38
623.157	321.38
623.364	328.38
623.571	318.38
623.778	307.38
623.985	330.38
624.192	322.38
624.399	326.38
624.606	312.38
624.812	314.38
625.019	297.38
625.226	292.38
625.433	292.38
625.639	282.38
625.846	279.38
626.053	254.38
626.259	234.38
626.466	242.38
626.673	248.38
626.879	244.38
627.086	240.38
627.293	273.38
627.499	295.38
627.706	286.38
627.912	306.38
628.119	303.38
628.325	303.38
628.532	310.38
628.738	279.38
628.945	286.38
629.151	287.38
629.357	285.38
629.564	279.38
629.77	280.38
629.976	267.38
630.183	265.38
630.389	259.38
630.595	276.38
630.802	295.38
631.008	296.38
631.214	272.38
631.42	278.38
631.627	251.38
631.833	264.38
632.039	250.38
632.245	276.38
632.451	260.38
632.657	262.38
632.863	276.38
633.069	268.38
633.275	252.38
633.481	268.38
633.688	244.38
633.893	274.38
634.099	263.38
634.305	250.38
634.511	247.38
634.717	247.38
634.923	236.38
635.129	215.38
635.335	238.38
635.541	232.38
635.747	246.38
635.952	257.38
636.158	270.38
636.364	260.38
636.57	277.38
636.775	268.38
636.981	248.38
637.187	282.38
637.392	271.38
637.598	253.38
637.804	270.38
638.009	262.38
638.215	266.38
638.421	269.38
638.626	257.38
638.832	268.38
639.037	273.38
639.243	262.38
639.448	256.38
639.654	250.38
639.859	246.38
640.065	254.38
640.27	245.38
640.475	240.38
640.681	270.38
640.886	250.38
641.091	260.38
641.297	268.38
641.502	251.38
641.707	247.38
641.913	247.38
642.118	258.38
642.323	252.38
642.528	260.38
642.733	248.38
642.939	235.38
643.144	237.38
643.349	244.38
643.554	246.38
643.759	233.38
643.964	246.38
644.169	252.38
644.374	232.38
644.579	250.38
644.784	256.38
644.989	248.38
645.194	246.38
645.399	267.38
645.604	244.38
645.809	248.38
646.014	246.38
646.219	227.38
646.423	235.38
646.628	235.38
646.833	242.38
647.038	237.38
647.243	250.38
647.447	252.38
647.652	256.38
647.857	239.38
648.062	238.38
648.266	224.38
648.471	249.38
648.676	251.38
648.88	269.38
649.085	241.38
649.289	239.38
649.494	223.38
649.698	244.38
649.903	240.38
650.107	223.38
650.312	233.38
650.516	246.38
650.721	226.38
650.925	231.38
651.13	224.38
651.334	222.38
651.539	238.38
651.743	245.38
651.947	226.38
652.152	225.38
652.356	237.38
652.56	210.38
652.764	208.38
652.969	220.38
653.173	202.38
653.377	212.38
653.581	194.38
653.785	210.38
653.99	213.38
654.194	212.38
654.398	212.38
654.602	211.38
654.806	201.38
655.01	205.38
655.214	204.38
655.418	209.38
655.622	208.38
655.826	203.38
656.03	214.38
656.234	219.38
656.438	245.38
656.642	233.38
656.846	243.38
657.049	206.38
657.253	190.38
657.457	203.38
657.661	191.38
657.865	168.38
658.068	166.38
658.272	153.38
658.476	154.38
658.68	142.38
658.883	155.38
659.087	157.38
659.291	146.38
659.494	143.38
659.698	151.38
659.901	148.38
660.105	144.38
660.309	130.38
660.512	127.38
660.716	116.38
660.919	110.38
661.123	124.38
661.326	120.38
661.53	111.38
661.733	122.38
661.936	90.38
662.14	104.38
662.343	107.38
662.546	94.38
662.75	84.38
662.953	107.38
663.156	94.38
663.36	100.38
663.563	81.38
663.766	88.38
663.969	91.38
664.173	98.38
664.376	96.38
664.579	66.38
664.782	78.38
664.985	88.38
665.188	95.38
665.391	90.38
665.594	92.38
665.797	87.38
666	79.38
666.203	93.38
666.406	89.38
666.609	92.38
666.812	94.38
667.015	75.38
667.218	86.38
667.421	87.38
667.624	83.38
667.827	91.38
668.03	87.38
668.232	72.38
668.435	78.38
668.638	72.38
668.841	81.38
669.043	75.38
669.246	85.38
669.449	81.38
669.651	88.38
669.854	79.38
670.057	80.38
670.259	78.38
670.462	93.38
670.665	71.38
670.867	88.38
671.07	90.38
671.272	89.38
671.475	79.38
671.677	88.38
671.88	84.38
672.082	85.38
672.284	76.38
672.487	85.38
672.689	84.38
672.892	90.38
