Data from WStandard_LampEnergy5.5LIBS07252019.E.O._I.C._HRD10591_16-07-50-921.txt Node
Date: Thu Jul 25 16:07:50 EDT 2019
User: cochatt
Spectrometer: HR+D1059
Trigger mode: 1
Integration Time (sec): 1.000000E-1
Scans to average: 1
Electric dark correction enabled: true
Nonlinearity correction enabled: false
Boxcar width: 0
XAxis mode: Wavelengths
Number of Pixels in Spectrum: 2048
>>>>>Begin Spectral Data<<<<<
223.165	-11.62
223.4	-11.62
223.635	-11.62
223.869	-21.62
224.104	-7.62
224.338	-15.62
224.573	-12.62
224.808	-11.62
225.042	-11.62
225.277	-8.62
225.511	-1.62
225.746	-5.62
225.98	10.38
226.215	20.38
226.449	5.38
226.683	21.38
226.918	26.38
227.152	24.38
227.387	34.38
227.621	37.38
227.856	40.38
228.09	47.38
228.324	54.38
228.559	59.38
228.793	153.38
229.027	369.38
229.262	389.38
229.496	403.38
229.73	400.38
229.964	459.38
230.199	476.38
230.433	487.38
230.667	533.38
230.901	560.38
231.136	510.38
231.37	488.38
231.604	473.38
231.838	475.38
232.072	481.38
232.306	446.38
232.541	488.38
232.775	575.38
233.009	617.38
233.243	578.38
233.477	548.38
233.711	532.38
233.945	602.38
234.179	573.38
234.413	571.38
234.647	645.38
234.881	643.38
235.115	569.38
235.349	584.38
235.583	566.38
235.817	582.38
236.051	552.38
236.285	567.38
236.519	578.38
236.753	665.38
236.987	698.38
237.221	699.38
237.455	774.38
237.689	745.38
237.922	707.38
238.156	675.38
238.39	689.38
238.624	736.38
238.858	780.38
239.091	810.38
239.325	817.38
239.559	950.38
239.793	1010.38
240.027	1071.38
240.26	1086.38
240.494	793.38
240.728	726.38
240.961	743.38
241.195	759.38
241.429	848.38
241.662	878.38
241.896	790.38
242.13	790.38
242.363	917.38
242.597	947.38
242.83	930.38
243.064	915.38
243.298	978.38
243.531	936.38
243.765	958.38
243.998	962.38
244.232	829.38
244.465	800.38
244.699	801.38
244.932	926.38
245.166	1093.38
245.399	1003.38
245.633	937.38
245.866	903.38
246.099	986.38
246.333	983.38
246.566	1008.38
246.8	1083.38
247.033	1217.38
247.266	1111.38
247.5	1093.38
247.733	1085.38
247.966	1173.38
248.2	1258.38
248.433	1237.38
248.666	1267.38
248.899	1391.38
249.133	1575.38
249.366	1823.38
249.599	1505.38
249.832	1294.38
250.066	1311.38
250.299	1334.38
250.532	1241.38
250.765	1113.38
250.998	1179.38
251.231	1248.38
251.465	1255.38
251.698	1206.38
251.931	1220.38
252.164	1250.38
252.397	1346.38
252.63	1317.38
252.863	1146.38
253.096	1102.38
253.329	1215.38
253.562	1233.38
253.795	1320.38
254.028	1303.38
254.261	1233.38
254.494	1206.38
254.727	1139.38
254.96	1189.38
255.193	1301.38
255.426	1511.38
255.659	1686.38
255.892	1752.38
256.124	1420.38
256.357	1348.38
256.59	1475.38
256.823	1473.38
257.056	1475.38
257.289	1760.38
257.521	1941.38
257.754	1785.38
257.987	1661.38
258.22	1847.38
258.452	1801.38
258.685	1462.38
258.918	1413.38
259.151	1433.38
259.383	1394.38
259.616	1202.38
259.849	1293.38
260.081	1427.38
260.314	1599.38
260.547	1763.38
260.779	1800.38
261.012	1678.38
261.244	1498.38
261.477	1409.38
261.71	1484.38
261.942	1434.38
262.175	1385.38
262.407	1497.38
262.64	1438.38
262.872	1342.38
263.105	1303.38
263.337	1322.38
263.57	1307.38
263.802	1365.38
264.035	1281.38
264.267	1169.38
264.499	1161.38
264.732	1230.38
264.964	1320.38
265.197	1393.38
265.429	1427.38
265.661	1619.38
265.894	1764.38
266.126	1845.38
266.358	1629.38
266.591	1727.38
266.823	1853.38
267.055	1696.38
267.287	1647.38
267.52	1636.38
267.752	1615.38
267.984	1598.38
268.216	1699.38
268.448	1703.38
268.681	1700.38
268.913	1605.38
269.145	1470.38
269.377	1426.38
269.609	1557.38
269.841	1795.38
270.073	2082.38
270.306	2330.38
270.538	2537.38
270.77	2143.38
271.002	1800.38
271.234	1719.38
271.466	1729.38
271.698	1921.38
271.93	2292.38
272.162	2334.38
272.394	2072.38
272.626	1983.38
272.858	1764.38
273.09	1526.38
273.322	1487.38
273.553	1401.38
273.785	1419.38
274.017	1473.38
274.249	1627.38
274.481	1632.38
274.713	1490.38
274.945	1447.38
275.176	1493.38
275.408	1445.38
275.64	1455.38
275.872	1415.38
276.104	1464.38
276.335	1672.38
276.567	1915.38
276.799	2011.38
277.031	1804.38
277.262	1692.38
277.494	1702.38
277.726	1955.38
277.957	1938.38
278.189	1718.38
278.421	1572.38
278.652	1538.38
278.884	1518.38
279.115	1564.38
279.347	1590.38
279.579	1498.38
279.81	1497.38
280.042	1665.38
280.273	1823.38
280.505	1842.38
280.736	1906.38
280.968	1786.38
281.199	1554.38
281.431	1490.38
281.662	1475.38
281.894	1498.38
282.125	1507.38
282.356	1553.38
282.588	1583.38
282.819	1597.38
283.051	1743.38
283.282	1850.38
283.513	1804.38
283.745	1565.38
283.976	1435.38
284.207	1490.38
284.439	1535.38
284.67	1541.38
284.901	1567.38
285.132	1616.38
285.364	1570.38
285.595	1603.38
285.826	1564.38
286.057	1549.38
286.288	1534.38
286.52	1592.38
286.751	1732.38
286.982	1799.38
287.213	1661.38
287.444	1529.38
287.675	1491.38
287.906	1597.38
288.138	1713.38
288.369	1661.38
288.6	1621.38
288.831	1491.38
289.062	1494.38
289.293	1584.38
289.524	1546.38
289.755	1605.38
289.986	1626.38
290.217	1502.38
290.448	1517.38
290.679	1589.38
290.91	1587.38
291.141	1651.38
291.371	1654.38
291.602	1647.38
291.833	1659.38
292.064	1714.38
292.295	1698.38
292.526	1688.38
292.757	1830.38
292.987	1716.38
293.218	1587.38
293.449	1726.38
293.68	1948.38
293.91	2100.38
294.141	1966.38
294.372	1806.38
294.603	1864.38
294.833	1931.38
295.064	1885.38
295.295	1713.38
295.525	1668.38
295.756	1561.38
295.987	1456.38
296.217	1517.38
296.448	1553.38
296.679	1557.38
296.909	1566.38
297.14	1534.38
297.37	1559.38
297.601	1594.38
297.831	1785.38
298.062	1825.38
298.292	1629.38
298.523	1549.38
298.753	1561.38
298.984	1620.38
299.214	1575.38
299.445	1596.38
299.675	1699.38
299.905	1652.38
300.136	1606.38
300.366	1553.38
300.597	1516.38
300.827	1514.38
301.057	1587.38
301.288	1685.38
301.518	1671.38
301.748	1670.38
301.979	1768.38
302.209	1814.38
302.439	1936.38
302.669	2011.38
302.9	1878.38
303.13	1695.38
303.36	1709.38
303.59	1710.38
303.82	1688.38
304.051	1731.38
304.281	1689.38
304.511	1710.38
304.741	1774.38
304.971	2017.38
305.201	2166.38
305.431	2032.38
305.661	1637.38
305.891	1489.38
306.121	1465.38
306.352	1551.38
306.582	1646.38
306.812	1728.38
307.042	1872.38
307.272	1861.38
307.502	1934.38
307.731	2022.38
307.961	2253.38
308.191	2074.38
308.421	1763.38
308.651	1652.38
308.881	1595.38
309.111	1628.38
309.341	1566.38
309.571	1608.38
309.8	1650.38
310.03	1663.38
310.26	1587.38
310.49	1589.38
310.72	1656.38
310.949	1722.38
311.179	1724.38
311.409	1731.38
311.639	1667.38
311.868	1623.38
312.098	1663.38
312.328	1638.38
312.557	1624.38
312.787	1646.38
313.017	1684.38
313.246	1681.38
313.476	1676.38
313.706	1726.38
313.935	1714.38
314.165	1744.38
314.394	1815.38
314.624	1837.38
314.853	1955.38
315.083	2089.38
315.312	2098.38
315.542	1974.38
315.771	1763.38
316.001	1738.38
316.23	1862.38
316.46	1864.38
316.689	1840.38
316.919	1659.38
317.148	1664.38
317.377	1658.38
317.607	1780.38
317.836	2035.38
318.065	2135.38
318.295	2027.38
318.524	1993.38
318.753	1841.38
318.983	1809.38
319.212	1777.38
319.441	1773.38
319.67	1713.38
319.9	1766.38
320.129	1896.38
320.358	1958.38
320.587	1981.38
320.816	1968.38
321.046	1926.38
321.275	1815.38
321.504	1839.38
321.733	2001.38
321.962	1941.38
322.191	1775.38
322.42	1797.38
322.649	1753.38
322.878	1717.38
323.108	1775.38
323.337	1856.38
323.566	1824.38
323.795	1850.38
324.024	1873.38
324.253	1761.38
324.482	1853.38
324.71	1762.38
324.939	1671.38
325.168	1729.38
325.397	1775.38
325.626	1849.38
325.855	1833.38
326.084	1733.38
326.313	1771.38
326.542	1807.38
326.77	1819.38
326.999	1887.38
327.228	1812.38
327.457	1668.38
327.686	1651.38
327.914	1749.38
328.143	1764.38
328.372	1780.38
328.6	1787.38
328.829	1784.38
329.058	1753.38
329.287	1740.38
329.515	1795.38
329.744	1797.38
329.972	1895.38
330.201	1993.38
330.43	1933.38
330.658	1887.38
330.887	1870.38
331.115	1887.38
331.344	1901.38
331.572	1885.38
331.801	1874.38
332.03	1875.38
332.258	1877.38
332.486	1897.38
332.715	1923.38
332.943	1909.38
333.172	1878.38
333.4	1913.38
333.629	1927.38
333.857	2023.38
334.085	2272.38
334.314	2560.38
334.542	2823.38
334.771	2627.38
334.999	2250.38
335.227	2153.38
335.455	1987.38
335.684	2036.38
335.912	2017.38
336.14	2171.38
336.369	2069.38
336.597	1958.38
336.825	1931.38
337.053	1963.38
337.281	2072.38
337.51	2170.38
337.738	2237.38
337.966	2181.38
338.194	1934.38
338.422	1880.38
338.65	1890.38
338.878	1854.38
339.106	1795.38
339.334	1736.38
339.562	1742.38
339.79	1777.38
340.018	1893.38
340.246	1977.38
340.474	1955.38
340.702	1924.38
340.93	1931.38
341.158	1927.38
341.386	1878.38
341.614	1897.38
341.842	1878.38
342.07	1885.38
342.298	1918.38
342.526	1892.38
342.754	1833.38
342.981	1827.38
343.209	1869.38
343.437	1854.38
343.665	1843.38
343.893	1898.38
344.12	1962.38
344.348	2024.38
344.576	1945.38
344.804	1877.38
345.031	1814.38
345.259	1897.38
345.487	1776.38
345.714	1743.38
345.942	1665.38
346.17	1679.38
346.397	1807.38
346.625	1781.38
346.853	1672.38
347.08	1668.38
347.308	1685.38
347.535	1674.38
347.763	1769.38
347.99	1746.38
348.218	1670.38
348.445	1681.38
348.673	1724.38
348.9	1752.38
349.128	1820.38
349.355	1882.38
349.583	1844.38
349.81	1772.38
350.037	1603.38
350.265	1605.38
350.492	1655.38
350.72	1700.38
350.947	1739.38
351.174	1795.38
351.402	1690.38
351.629	1617.38
351.856	1565.38
352.083	1600.38
352.311	1617.38
352.538	1646.38
352.765	1770.38
352.992	1798.38
353.22	1729.38
353.447	1677.38
353.674	1704.38
353.901	1715.38
354.128	1695.38
354.355	1650.38
354.583	1729.38
354.81	1801.38
355.037	1786.38
355.264	1770.38
355.491	1696.38
355.718	1756.38
355.945	1711.38
356.172	1675.38
356.399	1667.38
356.626	1657.38
356.853	1665.38
357.08	1814.38
357.307	2033.38
357.534	2040.38
357.761	1789.38
357.988	1659.38
358.215	1601.38
358.441	1623.38
358.668	1604.38
358.895	1648.38
359.122	1758.38
359.349	1902.38
359.576	1937.38
359.802	1723.38
360.029	1646.38
360.256	1621.38
360.483	1657.38
360.709	1711.38
360.936	1781.38
361.163	1848.38
361.39	2001.38
361.616	2159.38
361.843	2120.38
362.07	1975.38
362.296	1703.38
362.523	1663.38
362.749	1680.38
362.976	1713.38
363.203	1774.38
363.429	1713.38
363.656	1665.38
363.882	1653.38
364.109	1909.38
364.335	2071.38
364.562	1914.38
364.788	1807.38
365.015	1703.38
365.241	1683.38
365.468	1685.38
365.694	1839.38
365.92	1829.38
366.147	1801.38
366.373	1679.38
366.599	1638.38
366.826	1663.38
367.052	1674.38
367.278	1695.38
367.505	1681.38
367.731	1749.38
367.957	1763.38
368.184	1783.38
368.41	1853.38
368.636	1933.38
368.862	1890.38
369.089	1965.38
369.315	1832.38
369.541	1784.38
369.767	1722.38
369.993	1631.38
370.219	1659.38
370.445	1746.38
370.672	1861.38
370.898	1933.38
371.124	1898.38
371.35	1803.38
371.576	1805.38
371.802	1909.38
372.028	1805.38
372.254	1753.38
372.48	1705.38
372.706	1715.38
372.932	1689.38
373.158	1699.38
373.384	1773.38
373.61	1776.38
373.835	1862.38
374.061	1791.38
374.287	1802.38
374.513	1800.38
374.739	1766.38
374.965	1779.38
375.191	1782.38
375.416	1852.38
375.642	1789.38
375.868	1935.38
376.094	1968.38
376.319	1871.38
376.545	1807.38
376.771	1805.38
376.997	1930.38
377.222	1900.38
377.448	1824.38
377.674	1851.38
377.899	1803.38
378.125	1947.38
378.35	2023.38
378.576	1782.38
378.802	1706.38
379.027	1727.38
379.253	1734.38
379.478	1750.38
379.704	1762.38
379.929	1774.38
380.155	1721.38
380.38	1804.38
380.606	1863.38
380.831	1795.38
381.057	1891.38
381.282	1920.38
381.507	1853.38
381.733	1938.38
381.958	2084.38
382.184	1918.38
382.409	1829.38
382.634	1837.38
382.86	1824.38
383.085	1839.38
383.31	1885.38
383.535	2041.38
383.761	2150.38
383.986	2087.38
384.211	2026.38
384.436	1965.38
384.662	2111.38
384.887	2145.38
385.112	2039.38
385.337	2021.38
385.562	2016.38
385.787	2032.38
386.013	2093.38
386.238	2092.38
386.463	2053.38
386.688	2147.38
386.913	2317.38
387.138	2250.38
387.363	2103.38
387.588	2088.38
387.813	2081.38
388.038	2079.38
388.263	2142.38
388.488	2117.38
388.713	1941.38
388.938	1935.38
389.163	1966.38
389.387	2020.38
389.612	1983.38
389.837	2075.38
390.062	2091.38
390.287	2059.38
390.512	2023.38
390.736	1985.38
390.961	1968.38
391.186	1944.38
391.411	1929.38
391.636	1996.38
391.86	2004.38
392.085	2029.38
392.31	2001.38
392.534	2004.38
392.759	2069.38
392.984	2037.38
393.208	2066.38
393.433	2139.38
393.658	2168.38
393.882	2209.38
394.107	2061.38
394.331	2014.38
394.556	2008.38
394.78	2026.38
395.005	2094.38
395.229	2186.38
395.454	2322.38
395.678	2327.38
395.903	2242.38
396.127	2157.38
396.352	2145.38
396.576	2234.38
396.801	2241.38
397.025	2213.38
397.249	2165.38
397.474	2185.38
397.698	2201.38
397.922	2243.38
398.147	2368.38
398.371	2418.38
398.595	2442.38
398.82	2327.38
399.044	2331.38
399.268	2460.38
399.492	2615.38
399.717	2702.38
399.941	2753.38
400.165	2695.38
400.389	2585.38
400.613	2580.38
400.837	2821.38
401.062	3292.38
401.286	2863.38
401.51	2561.38
401.734	2713.38
401.958	2600.38
402.182	2410.38
402.406	2293.38
402.63	2292.38
402.854	2309.38
403.078	2324.38
403.302	2449.38
403.526	2457.38
403.75	2397.38
403.974	2390.38
404.198	2386.38
404.422	2471.38
404.645	2652.38
404.869	2601.38
405.093	2375.38
405.317	2335.38
405.541	2401.38
405.765	2440.38
405.988	2399.38
406.212	2487.38
406.436	2513.38
406.66	2619.38
406.883	2564.38
407.107	2923.38
407.331	3177.38
407.555	3465.38
407.778	3169.38
408.002	2631.38
408.226	2530.38
408.449	2563.38
408.673	2475.38
408.896	2475.38
409.12	2527.38
409.344	2469.38
409.567	2384.38
409.791	2419.38
410.014	2433.38
410.238	2583.38
410.461	2709.38
410.685	2463.38
410.908	2275.38
411.132	2398.38
411.355	2379.38
411.578	2371.38
411.802	2339.38
412.025	2375.38
412.249	2395.38
412.472	2299.38
412.695	2294.38
412.919	2303.38
413.142	2260.38
413.365	2323.38
413.589	2359.38
413.812	2456.38
414.035	2579.38
414.258	2399.38
414.482	2281.38
414.705	2351.38
414.928	2287.38
415.151	2293.38
415.374	2282.38
415.597	2400.38
415.821	2343.38
416.044	2413.38
416.267	2471.38
416.49	2236.38
416.713	2184.38
416.936	2269.38
417.159	2363.38
417.382	2379.38
417.605	2285.38
417.828	2333.38
418.051	2401.38
418.274	2306.38
418.497	2223.38
418.72	2220.38
418.943	2221.38
419.166	2376.38
419.389	2497.38
419.611	2292.38
419.834	2290.38
420.057	2355.38
420.28	2204.38
420.503	2199.38
420.726	2316.38
420.948	2336.38
421.171	2186.38
421.394	2202.38
421.617	2293.38
421.839	2289.38
422.062	2219.38
422.285	2165.38
422.507	2167.38
422.73	2171.38
422.953	2118.38
423.175	2146.38
423.398	2226.38
423.621	2210.38
423.843	2214.38
424.066	2266.38
424.288	2371.38
424.511	2387.38
424.733	2306.38
424.956	2137.38
425.178	2112.38
425.401	2159.38
425.623	2220.38
425.846	2110.38
426.068	2258.38
426.291	2344.38
426.513	2288.38
426.735	2277.38
426.958	2377.38
427.18	2608.38
427.402	2386.38
427.625	2417.38
427.847	2407.38
428.069	2267.38
428.292	2177.38
428.514	2109.38
428.736	2120.38
428.958	2143.38
429.181	2169.38
429.403	2416.38
429.625	3069.38
429.847	2690.38
430.069	2227.38
430.292	2437.38
430.514	2546.38
430.736	2380.38
430.958	2425.38
431.18	2355.38
431.402	2175.38
431.624	2123.38
431.846	2165.38
432.068	2097.38
432.29	2117.38
432.512	2117.38
432.734	2188.38
432.956	2245.38
433.178	2314.38
433.4	2393.38
433.622	2323.38
433.844	2208.38
434.066	2111.38
434.287	2103.38
434.509	2179.38
434.731	2323.38
434.953	2507.38
435.175	2423.38
435.397	2293.38
435.618	2274.38
435.84	2264.38
436.062	2271.38
436.284	2223.38
436.505	2293.38
436.727	2279.38
436.949	2242.38
437.17	2148.38
437.392	2161.38
437.614	2154.38
437.835	2119.38
438.057	2287.38
438.278	2368.38
438.5	2206.38
438.721	2125.38
438.943	2174.38
439.165	2115.38
439.386	2102.38
439.608	2126.38
439.829	2147.38
440.05	2148.38
440.272	2126.38
440.493	2098.38
440.715	2168.38
440.936	2266.38
441.158	2523.38
441.379	2447.38
441.6	2367.38
441.822	2322.38
442.043	2305.38
442.264	2211.38
442.486	2122.38
442.707	2153.38
442.928	2105.38
443.149	2208.38
443.371	2294.38
443.592	2387.38
443.813	2383.38
444.034	2327.38
444.255	2361.38
444.476	2382.38
444.698	2447.38
444.919	2428.38
445.14	2459.38
445.361	2515.38
445.582	2574.38
445.803	2457.38
446.024	2350.38
446.245	2450.38
446.466	2353.38
446.687	2235.38
446.908	2204.38
447.129	2202.38
447.35	2202.38
447.571	2181.38
447.792	2110.38
448.013	2087.38
448.234	2126.38
448.455	2232.38
448.675	2264.38
448.896	2075.38
449.117	2023.38
449.338	2084.38
449.559	2200.38
449.779	2333.38
450	2539.38
450.221	2760.38
450.442	2659.38
450.662	2326.38
450.883	2073.38
451.104	2012.38
451.324	2053.38
451.545	2144.38
451.766	2104.38
451.986	2045.38
452.207	2003.38
452.428	1941.38
452.648	1869.38
452.869	1959.38
453.089	2102.38
453.31	2134.38
453.53	2195.38
453.751	2076.38
453.971	1930.38
454.192	1994.38
454.412	2130.38
454.633	2067.38
454.853	2016.38
455.073	1918.38
455.294	1847.38
455.514	1921.38
455.734	1896.38
455.955	1914.38
456.175	1938.38
456.395	1912.38
456.616	1986.38
456.836	1995.38
457.056	1963.38
457.276	1985.38
457.497	1917.38
457.717	1885.38
457.937	1909.38
458.157	1930.38
458.377	1880.38
458.598	1890.38
458.818	1900.38
459.038	2060.38
459.258	2247.38
459.478	2215.38
459.698	2089.38
459.918	2161.38
460.138	2280.38
460.358	2338.38
460.578	2315.38
460.798	2379.38
461.018	2548.38
461.238	2464.38
461.458	2287.38
461.678	2309.38
461.898	2263.38
462.118	2110.38
462.338	2274.38
462.558	2288.38
462.777	2305.38
462.997	2435.38
463.217	2566.38
463.437	2562.38
463.657	2322.38
463.876	2353.38
464.096	2341.38
464.316	2281.38
464.536	2367.38
464.755	2409.38
464.975	2447.38
465.195	2329.38
465.414	2476.38
465.634	2443.38
465.854	2253.38
466.073	2435.38
466.293	2363.38
466.512	2133.38
466.732	2091.38
466.951	2162.38
467.171	2201.38
467.391	2067.38
467.61	2054.38
467.829	2083.38
468.049	2239.38
468.268	2542.38
468.488	2336.38
468.707	2246.38
468.927	2185.38
469.146	2152.38
469.365	2074.38
469.585	2095.38
469.804	2058.38
470.023	2109.38
470.243	2177.38
470.462	2143.38
470.681	2078.38
470.901	2109.38
471.12	2110.38
471.339	2089.38
471.558	2018.38
471.777	2073.38
471.997	2077.38
472.216	2054.38
472.435	2029.38
472.654	2041.38
472.873	2090.38
473.092	2232.38
473.311	2201.38
473.53	2000.38
473.749	2005.38
473.968	2056.38
474.187	2140.38
474.406	2291.38
474.625	2145.38
474.844	2105.38
475.063	2088.38
475.282	2188.38
475.501	2132.38
475.72	2155.38
475.939	2223.38
476.158	2186.38
476.377	2126.38
476.596	2105.38
476.814	2237.38
477.033	2216.38
477.252	2304.38
477.471	2330.38
477.69	2239.38
477.908	2205.38
478.127	2323.38
478.346	2554.38
478.564	2543.38
478.783	2439.38
479.002	2627.38
479.22	2529.38
479.439	2588.38
479.658	2961.38
479.876	2958.38
480.095	2574.38
480.313	2438.38
480.532	2311.38
480.751	2374.38
480.969	2404.38
481.188	2382.38
481.406	2354.38
481.624	2279.38
481.843	2361.38
482.061	2424.38
482.28	2401.38
482.498	2453.38
482.717	2476.38
482.935	2342.38
483.153	2303.38
483.372	2337.38
483.59	2300.38
483.808	2335.38
484.027	2378.38
484.245	2553.38
484.463	2938.38
484.681	3420.38
484.9	2633.38
485.118	2431.38
485.336	2377.38
485.554	2457.38
485.772	2594.38
485.99	2514.38
486.209	2550.38
486.427	2517.38
486.645	2534.38
486.863	2461.38
487.081	2559.38
487.299	2579.38
487.517	2544.38
487.735	2451.38
487.953	2381.38
488.171	2421.38
488.389	2428.38
488.607	2453.38
488.825	2678.38
489.043	2774.38
489.261	2454.38
489.479	2582.38
489.696	2626.38
489.914	2584.38
490.132	2511.38
490.35	2462.38
490.568	2578.38
490.786	2457.38
491.003	2357.38
491.221	2429.38
491.439	2567.38
491.657	2516.38
491.874	2537.38
492.092	2598.38
492.31	2568.38
492.527	2538.38
492.745	2499.38
492.963	2511.38
493.18	2614.38
493.398	2761.38
493.615	2896.38
493.833	2602.38
494.05	2551.38
494.268	2584.38
494.485	2621.38
494.703	2565.38
494.92	2519.38
495.138	2483.38
495.355	2519.38
495.573	2666.38
495.79	2827.38
496.008	2848.38
496.225	2682.38
496.442	2703.38
496.66	2730.38
496.877	2691.38
497.094	2794.38
497.312	2839.38
497.529	2800.38
497.746	2815.38
497.963	3249.38
498.181	3749.38
498.398	3441.38
498.615	3364.38
498.832	3280.38
499.049	3285.38
499.267	3276.38
499.484	3421.38
499.701	3712.38
499.918	3813.38
500.135	4071.38
500.352	4410.38
500.569	4322.38
500.786	4668.38
501.003	4271.38
501.22	3908.38
501.437	3803.38
501.654	3757.38
501.871	3662.38
502.088	3245.38
502.305	3292.38
502.522	3147.38
502.739	2891.38
502.956	2819.38
503.172	2850.38
503.389	2719.38
503.606	2693.38
503.823	2681.38
504.04	2717.38
504.256	2708.38
504.473	2724.38
504.69	2843.38
504.907	2708.38
505.123	2510.38
505.34	2659.38
505.557	3500.38
505.773	2976.38
505.99	2471.38
506.207	2358.38
506.423	2330.38
506.64	2296.38
506.856	2313.38
507.073	2637.38
507.289	2865.38
507.506	2746.38
507.722	2357.38
507.939	2210.38
508.155	2243.38
508.372	2264.38
508.588	2197.38
508.805	2145.38
509.021	2099.38
509.238	2095.38
509.454	2094.38
509.67	2103.38
509.887	2098.38
510.103	2073.38
510.319	2081.38
510.536	2266.38
510.752	2301.38
510.968	2256.38
511.184	2438.38
511.401	2391.38
511.617	2073.38
511.833	2085.38
512.049	2022.38
512.265	2037.38
512.481	2013.38
512.698	2121.38
512.914	2283.38
513.13	2187.38
513.346	2070.38
513.562	2055.38
513.778	2052.38
513.994	2162.38
514.21	2233.38
514.426	2251.38
514.642	2485.38
514.858	2347.38
515.074	2113.38
515.29	2092.38
515.506	2115.38
515.721	2148.38
515.937	2201.38
516.153	2501.38
516.369	2392.38
516.585	2244.38
516.801	2129.38
517.016	2126.38
517.232	2166.38
517.448	2249.38
517.664	2277.38
517.879	2248.38
518.095	2358.38
518.311	2297.38
518.527	2147.38
518.742	2110.38
518.958	2063.38
519.173	2079.38
519.389	2098.38
519.605	2081.38
519.82	2090.38
520.036	2135.38
520.251	2051.38
520.467	2113.38
520.682	2229.38
520.898	2359.38
521.113	2126.38
521.329	2065.38
521.544	2202.38
521.76	2107.38
521.975	2023.38
522.19	1956.38
522.406	1960.38
522.621	2423.38
522.836	2391.38
523.052	1963.38
523.267	1955.38
523.482	1960.38
523.698	1899.38
523.913	1817.38
524.128	1866.38
524.343	2011.38
524.559	2054.38
524.774	1928.38
524.989	1875.38
525.204	1907.38
525.419	1853.38
525.634	1813.38
525.849	1856.38
526.064	1900.38
526.28	1909.38
526.495	1839.38
526.71	1801.38
526.925	1821.38
527.14	1814.38
527.355	1776.38
527.57	1771.38
527.785	1831.38
527.999	1778.38
528.214	1768.38
528.429	1744.38
528.644	1695.38
528.859	1779.38
529.074	1782.38
529.289	1754.38
529.503	1804.38
529.718	1849.38
529.933	1769.38
530.148	1746.38
530.363	1733.38
530.577	1743.38
530.792	1795.38
531.007	1819.38
531.221	1755.38
531.436	1778.38
531.651	1847.38
531.865	1965.38
532.08	1849.38
532.295	1723.38
532.509	1698.38
532.724	1739.38
532.938	1814.38
533.153	1917.38
533.367	1833.38
533.582	1799.38
533.796	1752.38
534.011	1749.38
534.225	1782.38
534.44	1743.38
534.654	1712.38
534.868	1702.38
535.083	1812.38
535.297	1839.38
535.511	1795.38
535.726	1756.38
535.94	1730.38
536.154	1694.38
536.369	1733.38
536.583	1677.38
536.797	1680.38
537.011	1757.38
537.225	1664.38
537.44	1647.38
537.654	1732.38
537.868	1683.38
538.082	1619.38
538.296	1587.38
538.51	1621.38
538.724	1618.38
538.938	1577.38
539.153	1681.38
539.367	1671.38
539.581	1655.38
539.795	1766.38
540.009	1722.38
540.222	1664.38
540.436	1692.38
540.65	1873.38
540.864	1894.38
541.078	1749.38
541.292	1671.38
541.506	1633.38
541.72	1642.38
541.934	1668.38
542.147	1757.38
542.361	1658.38
542.575	1611.38
542.789	1557.38
543.002	1545.38
543.216	1590.38
543.43	1701.38
543.644	1743.38
543.857	1793.38
544.071	1714.38
544.285	1685.38
544.498	1653.38
544.712	1647.38
544.925	1685.38
545.139	1682.38
545.352	1636.38
545.566	1559.38
545.779	1533.38
545.993	1581.38
546.206	1601.38
546.42	1577.38
546.633	1522.38
546.847	1539.38
547.06	1554.38
547.274	1517.38
547.487	1536.38
547.7	1593.38
547.914	1606.38
548.127	1611.38
548.34	1607.38
548.554	1618.38
548.767	1573.38
548.98	1533.38
549.193	1597.38
549.407	1648.38
549.62	1668.38
549.833	1583.38
550.046	1589.38
550.259	1559.38
550.473	1541.38
550.686	1533.38
550.899	1510.38
551.112	1478.38
551.325	1473.38
551.538	1561.38
551.751	1889.38
551.964	1526.38
552.177	1466.38
552.39	1529.38
552.603	1512.38
552.816	1523.38
553.029	1576.38
553.242	1622.38
553.455	1524.38
553.667	1521.38
553.88	1544.38
554.093	1512.38
554.306	1475.38
554.519	1441.38
554.732	1435.38
554.944	1445.38
555.157	1464.38
555.37	1416.38
555.583	1447.38
555.795	1451.38
556.008	1401.38
556.221	1369.38
556.433	1330.38
556.646	1375.38
556.859	1327.38
557.071	1355.38
557.284	1347.38
557.496	1342.38
557.709	1301.38
557.921	1251.38
558.134	1279.38
558.346	1289.38
558.559	1268.38
558.771	1297.38
558.984	1266.38
559.196	1239.38
559.409	1227.38
559.621	1277.38
559.833	1263.38
560.046	1302.38
560.258	1295.38
560.47	1277.38
560.683	1274.38
560.895	1264.38
561.107	1297.38
561.32	1293.38
561.532	1309.38
561.744	1250.38
561.956	1289.38
562.168	1239.38
562.381	1195.38
562.593	1209.38
562.805	1207.38
563.017	1214.38
563.229	1229.38
563.441	1276.38
563.653	1256.38
563.865	1265.38
564.077	1261.38
564.289	1236.38
564.501	1248.38
564.713	1300.38
564.925	1342.38
565.137	1434.38
565.349	1295.38
565.561	1321.38
565.773	1351.38
565.985	1343.38
566.197	1430.38
566.408	1511.38
566.62	1545.38
566.832	1495.38
567.044	1532.38
567.255	1510.38
567.467	1510.38
567.679	1566.38
567.891	1586.38
568.102	1538.38
568.314	1511.38
568.526	1423.38
568.737	1419.38
568.949	1331.38
569.161	1308.38
569.372	1197.38
569.584	1193.38
569.795	1237.38
570.007	1176.38
570.218	1108.38
570.43	1152.38
570.641	1153.38
570.853	1115.38
571.064	1107.38
571.276	1113.38
571.487	1111.38
571.698	1064.38
571.91	1084.38
572.121	1062.38
572.333	1051.38
572.544	1049.38
572.755	1007.38
572.966	980.38
573.178	1030.38
573.389	1028.38
573.6	1056.38
573.811	1151.38
574.023	1053.38
574.234	1011.38
574.445	975.38
574.656	917.38
574.867	949.38
575.078	950.38
575.289	963.38
575.501	932.38
575.712	938.38
575.923	949.38
576.134	923.38
576.345	926.38
576.556	905.38
576.767	901.38
576.978	901.38
577.188	887.38
577.399	873.38
577.61	892.38
577.821	887.38
578.032	866.38
578.243	853.38
578.454	877.38
578.665	868.38
578.875	828.38
579.086	849.38
579.297	875.38
579.508	910.38
579.718	882.38
579.929	841.38
580.14	835.38
580.35	825.38
580.561	858.38
580.772	929.38
580.982	895.38
581.193	837.38
581.403	817.38
581.614	819.38
581.825	843.38
582.035	807.38
582.246	815.38
582.456	829.38
582.667	832.38
582.877	800.38
583.087	800.38
583.298	794.38
583.508	795.38
583.719	815.38
583.929	829.38
584.139	805.38
584.35	770.38
584.56	785.38
584.77	811.38
584.981	803.38
585.191	813.38
585.401	812.38
585.611	800.38
585.821	790.38
586.032	778.38
586.242	755.38
586.452	776.38
586.662	784.38
586.872	770.38
587.082	761.38
587.292	825.38
587.502	793.38
587.713	797.38
587.923	776.38
588.133	775.38
588.343	788.38
588.553	756.38
588.762	768.38
588.972	742.38
589.182	776.38
589.392	797.38
589.602	797.38
589.812	786.38
590.022	769.38
590.232	727.38
590.441	752.38
590.651	763.38
590.861	765.38
591.071	741.38
591.281	738.38
591.49	730.38
591.7	737.38
591.91	734.38
592.119	754.38
592.329	756.38
592.539	785.38
592.748	765.38
592.958	782.38
593.167	793.38
593.377	800.38
593.587	790.38
593.796	808.38
594.006	793.38
594.215	756.38
594.424	791.38
594.634	797.38
594.843	785.38
595.053	818.38
595.262	753.38
595.472	746.38
595.681	727.38
595.89	742.38
596.1	698.38
596.309	719.38
596.518	692.38
596.727	700.38
596.937	665.38
597.146	672.38
597.355	692.38
597.564	668.38
597.774	653.38
597.983	658.38
598.192	650.38
598.401	659.38
598.61	646.38
598.819	635.38
599.028	659.38
599.237	639.38
599.446	644.38
599.655	649.38
599.864	614.38
600.073	617.38
600.282	610.38
600.491	633.38
600.7	606.38
600.909	586.38
601.118	627.38
601.327	621.38
601.536	627.38
601.745	606.38
601.953	587.38
602.162	626.38
602.371	637.38
602.58	614.38
602.789	589.38
602.997	595.38
603.206	615.38
603.415	608.38
603.623	619.38
603.832	614.38
604.041	601.38
604.249	614.38
604.458	566.38
604.666	593.38
604.875	590.38
605.084	588.38
605.292	623.38
605.501	593.38
605.709	587.38
605.918	586.38
606.126	554.38
606.334	563.38
606.543	568.38
606.751	573.38
606.96	583.38
607.168	573.38
607.376	547.38
607.585	533.38
607.793	553.38
608.001	552.38
608.21	551.38
608.418	571.38
608.626	554.38
608.834	559.38
609.043	594.38
609.251	579.38
609.459	576.38
609.667	567.38
609.875	563.38
610.083	568.38
610.291	567.38
610.499	571.38
610.707	547.38
610.916	549.38
611.124	559.38
611.332	550.38
611.54	542.38
611.748	562.38
611.955	533.38
612.163	531.38
612.371	519.38
612.579	544.38
612.787	535.38
612.995	548.38
613.203	544.38
613.411	553.38
613.618	525.38
613.826	514.38
614.034	535.38
614.242	541.38
614.449	517.38
614.657	545.38
614.865	516.38
615.072	534.38
615.28	530.38
615.488	550.38
615.695	569.38
615.903	535.38
616.111	534.38
616.318	555.38
616.526	519.38
616.733	510.38
616.941	517.38
617.148	507.38
617.356	498.38
617.563	499.38
617.771	491.38
617.978	489.38
618.185	517.38
618.393	520.38
618.6	530.38
618.807	503.38
619.015	514.38
619.222	503.38
619.429	498.38
619.637	491.38
619.844	499.38
620.051	478.38
620.258	486.38
620.466	492.38
620.673	445.38
620.88	442.38
621.087	443.38
621.294	472.38
621.501	459.38
621.708	465.38
621.915	460.38
622.122	479.38
622.329	474.38
622.536	462.38
622.743	475.38
622.95	489.38
623.157	467.38
623.364	484.38
623.571	474.38
623.778	461.38
623.985	465.38
624.192	449.38
624.399	470.38
624.606	465.38
624.812	456.38
625.019	436.38
625.226	473.38
625.433	424.38
625.639	447.38
625.846	431.38
626.053	426.38
626.259	423.38
626.466	407.38
626.673	425.38
626.879	415.38
627.086	418.38
627.293	414.38
627.499	436.38
627.706	428.38
627.912	413.38
628.119	418.38
628.325	442.38
628.532	411.38
628.738	410.38
628.945	417.38
629.151	441.38
629.357	437.38
629.564	431.38
629.77	394.38
629.976	403.38
630.183	403.38
630.389	411.38
630.595	417.38
630.802	407.38
631.008	379.38
631.214	385.38
631.42	371.38
631.627	416.38
631.833	385.38
632.039	391.38
632.245	391.38
632.451	381.38
632.657	383.38
632.863	406.38
633.069	350.38
633.275	381.38
633.481	373.38
633.688	356.38
633.893	361.38
634.099	365.38
634.305	365.38
634.511	359.38
634.717	373.38
634.923	374.38
635.129	337.38
635.335	359.38
635.541	371.38
635.747	358.38
635.952	353.38
636.158	363.38
636.364	366.38
636.57	342.38
636.775	369.38
636.981	377.38
637.187	353.38
637.392	362.38
637.598	346.38
637.804	369.38
638.009	353.38
638.215	330.38
638.421	338.38
638.626	351.38
638.832	324.38
639.037	334.38
639.243	335.38
639.448	337.38
639.654	331.38
639.859	317.38
640.065	330.38
640.27	331.38
640.475	339.38
640.681	344.38
640.886	326.38
641.091	311.38
641.297	326.38
641.502	337.38
641.707	346.38
641.913	343.38
642.118	338.38
642.323	333.38
642.528	340.38
642.733	306.38
642.939	324.38
643.144	329.38
643.349	325.38
643.554	330.38
643.759	325.38
643.964	311.38
644.169	313.38
644.374	315.38
644.579	311.38
644.784	307.38
644.989	325.38
645.194	339.38
645.399	324.38
645.604	314.38
645.809	317.38
646.014	321.38
646.219	310.38
646.423	336.38
646.628	331.38
646.833	322.38
647.038	320.38
647.243	334.38
647.447	330.38
647.652	315.38
647.857	325.38
648.062	327.38
648.266	321.38
648.471	308.38
648.676	324.38
648.88	351.38
649.085	332.38
649.289	318.38
649.494	326.38
649.698	314.38
649.903	296.38
650.107	292.38
650.312	302.38
650.516	293.38
650.721	306.38
650.925	283.38
651.13	291.38
651.334	268.38
651.539	285.38
651.743	292.38
651.947	283.38
652.152	288.38
652.356	268.38
652.56	271.38
652.764	247.38
652.969	259.38
653.173	243.38
653.377	260.38
653.581	263.38
653.785	259.38
653.99	242.38
654.194	232.38
654.398	239.38
654.602	253.38
654.806	253.38
655.01	244.38
655.214	251.38
655.418	271.38
655.622	245.38
655.826	263.38
656.03	255.38
656.234	277.38
656.438	280.38
656.642	263.38
656.846	273.38
657.049	254.38
657.253	230.38
657.457	214.38
657.661	190.38
657.865	197.38
658.068	195.38
658.272	181.38
658.476	166.38
658.68	167.38
658.883	142.38
659.087	149.38
659.291	142.38
659.494	146.38
659.698	136.38
659.901	139.38
660.105	149.38
660.309	126.38
660.512	106.38
660.716	114.38
660.919	120.38
661.123	119.38
661.326	124.38
661.53	118.38
661.733	94.38
661.936	95.38
662.14	95.38
662.343	93.38
662.546	103.38
662.75	89.38
662.953	69.38
663.156	87.38
663.36	82.38
663.563	95.38
663.766	83.38
663.969	81.38
664.173	81.38
664.376	75.38
664.579	78.38
664.782	97.38
664.985	84.38
665.188	87.38
665.391	71.38
665.594	85.38
665.797	77.38
666	88.38
666.203	78.38
666.406	72.38
666.609	79.38
666.812	85.38
667.015	88.38
667.218	89.38
667.421	85.38
667.624	82.38
667.827	85.38
668.03	82.38
668.232	68.38
668.435	86.38
668.638	90.38
668.841	92.38
669.043	77.38
669.246	83.38
669.449	83.38
669.651	81.38
669.854	78.38
670.057	73.38
670.259	74.38
670.462	78.38
670.665	78.38
670.867	71.38
671.07	88.38
671.272	85.38
671.475	73.38
671.677	78.38
671.88	87.38
672.082	91.38
672.284	84.38
672.487	61.38
672.689	81.38
672.892	85.38
