Data from WStandard_LampEnergy10_LIBS07252019.E.O._I.C._HRD10591_15-54-36-928.txt Node
Date: Thu Jul 25 15:54:36 EDT 2019
User: cochatt
Spectrometer: HR+D1059
Trigger mode: 1
Integration Time (sec): 1.000000E-1
Scans to average: 1
Electric dark correction enabled: true
Nonlinearity correction enabled: false
Boxcar width: 0
XAxis mode: Wavelengths
Number of Pixels in Spectrum: 2048
>>>>>Begin Spectral Data<<<<<
223.165	-20.69
223.4	-20.69
223.635	-20.69
223.869	-19.69
224.104	-8.69
224.338	-9.69
224.573	-19.69
224.808	-9.69
225.042	-12.69
225.277	-0.69
225.511	-6.69
225.746	3.31
225.98	17.31
226.215	0.31
226.449	-3.69
226.683	35.31
226.918	34.31
227.152	21.31
227.387	28.31
227.621	24.31
227.856	44.31
228.09	47.31
228.324	57.31
228.559	50.31
228.793	83.31
229.027	128.31
229.262	137.31
229.496	144.31
229.73	151.31
229.964	151.31
230.199	165.31
230.433	173.31
230.667	180.31
230.901	177.31
231.136	178.31
231.37	162.31
231.604	186.31
231.838	161.31
232.072	177.31
232.306	163.31
232.541	188.31
232.775	194.31
233.009	206.31
233.243	207.31
233.477	177.31
233.711	177.31
233.945	191.31
234.179	196.31
234.413	204.31
234.647	228.31
234.881	207.31
235.115	203.31
235.349	201.31
235.583	184.31
235.817	200.31
236.051	183.31
236.285	196.31
236.519	207.31
236.753	224.31
236.987	228.31
237.221	229.31
237.455	217.31
237.689	225.31
237.922	241.31
238.156	252.31
238.39	215.31
238.624	236.31
238.858	240.31
239.091	246.31
239.325	256.31
239.559	295.31
239.793	273.31
240.027	304.31
240.26	287.31
240.494	226.31
240.728	236.31
240.961	221.31
241.195	247.31
241.429	267.31
241.662	251.31
241.896	248.31
242.13	235.31
242.363	271.31
242.597	260.31
242.83	267.31
243.064	268.31
243.298	285.31
243.531	278.31
243.765	273.31
243.998	267.31
244.232	247.31
244.465	236.31
244.699	251.31
244.932	283.31
245.166	299.31
245.399	304.31
245.633	284.31
245.866	286.31
246.099	290.31
246.333	285.31
246.566	295.31
246.8	321.31
247.033	328.31
247.266	304.31
247.5	287.31
247.733	315.31
247.966	327.31
248.2	334.31
248.433	340.31
248.666	359.31
248.899	395.31
249.133	421.31
249.366	440.31
249.599	369.31
249.832	351.31
250.066	360.31
250.299	355.31
250.532	324.31
250.765	316.31
250.998	336.31
251.231	351.31
251.465	355.31
251.698	322.31
251.931	328.31
252.164	331.31
252.397	347.31
252.63	351.31
252.863	336.31
253.096	321.31
253.329	325.31
253.562	364.31
253.795	341.31
254.028	350.31
254.261	336.31
254.494	334.31
254.727	309.31
254.96	327.31
255.193	380.31
255.426	406.31
255.659	434.31
255.892	441.31
256.124	382.31
256.357	360.31
256.59	377.31
256.823	396.31
257.056	420.31
257.289	474.31
257.521	491.31
257.754	439.31
257.987	439.31
258.22	472.31
258.452	453.31
258.685	404.31
258.918	373.31
259.151	377.31
259.383	375.31
259.616	352.31
259.849	365.31
260.081	396.31
260.314	412.31
260.547	441.31
260.779	441.31
261.012	432.31
261.244	372.31
261.477	401.31
261.71	406.31
261.942	404.31
262.175	388.31
262.407	382.31
262.64	357.31
262.872	360.31
263.105	359.31
263.337	359.31
263.57	363.31
263.802	360.31
264.035	332.31
264.267	340.31
264.499	331.31
264.732	364.31
264.964	398.31
265.197	385.31
265.429	404.31
265.661	452.31
265.894	479.31
266.126	472.31
266.358	443.31
266.591	475.31
266.823	492.31
267.055	443.31
267.287	434.31
267.52	442.31
267.752	448.31
267.984	441.31
268.216	450.31
268.448	449.31
268.681	457.31
268.913	405.31
269.145	413.31
269.377	409.31
269.609	428.31
269.841	512.31
270.073	572.31
270.306	583.31
270.538	617.31
270.77	525.31
271.002	467.31
271.234	467.31
271.466	464.31
271.698	525.31
271.93	576.31
272.162	564.31
272.394	521.31
272.626	493.31
272.858	431.31
273.09	423.31
273.322	394.31
273.553	390.31
273.785	404.31
274.017	409.31
274.249	433.31
274.481	418.31
274.713	377.31
274.945	414.31
275.176	392.31
275.408	403.31
275.64	395.31
275.872	397.31
276.104	438.31
276.335	476.31
276.567	520.31
276.799	507.31
277.031	459.31
277.262	473.31
277.494	469.31
277.726	501.31
277.957	488.31
278.189	437.31
278.421	439.31
278.652	437.31
278.884	417.31
279.115	436.31
279.347	449.31
279.579	434.31
279.81	448.31
280.042	464.31
280.273	496.31
280.505	515.31
280.736	500.31
280.968	468.31
281.199	413.31
281.431	421.31
281.662	417.31
281.894	439.31
282.125	431.31
282.356	464.31
282.588	449.31
282.819	423.31
283.051	483.31
283.282	478.31
283.513	493.31
283.745	432.31
283.976	411.31
284.207	421.31
284.439	425.31
284.67	420.31
284.901	443.31
285.132	456.31
285.364	420.31
285.595	457.31
285.826	440.31
286.057	428.31
286.288	431.31
286.52	465.31
286.751	485.31
286.982	499.31
287.213	437.31
287.444	418.31
287.675	421.31
287.906	458.31
288.138	481.31
288.369	450.31
288.6	428.31
288.831	441.31
289.062	431.31
289.293	445.31
289.524	450.31
289.755	465.31
289.986	469.31
290.217	445.31
290.448	453.31
290.679	439.31
290.91	455.31
291.141	471.31
291.371	468.31
291.602	440.31
291.833	478.31
292.064	461.31
292.295	492.31
292.526	491.31
292.757	501.31
292.987	475.31
293.218	477.31
293.449	538.31
293.68	546.31
293.91	562.31
294.141	560.31
294.372	509.31
294.603	533.31
294.833	551.31
295.064	517.31
295.295	488.31
295.525	470.31
295.756	439.31
295.987	439.31
296.217	438.31
296.448	422.31
296.679	456.31
296.909	442.31
297.14	441.31
297.37	493.31
297.601	495.31
297.831	513.31
298.062	508.31
298.292	483.31
298.523	470.31
298.753	453.31
298.984	439.31
299.214	475.31
299.445	487.31
299.675	474.31
299.905	480.31
300.136	487.31
300.366	455.31
300.597	449.31
300.827	455.31
301.057	464.31
301.288	490.31
301.518	488.31
301.748	491.31
301.979	537.31
302.209	561.31
302.439	567.31
302.669	575.31
302.9	552.31
303.13	511.31
303.36	496.31
303.59	507.31
303.82	486.31
304.051	506.31
304.281	515.31
304.511	509.31
304.741	577.31
304.971	588.31
305.201	609.31
305.431	548.31
305.661	451.31
305.891	445.31
306.121	437.31
306.352	475.31
306.582	524.31
306.812	543.31
307.042	561.31
307.272	553.31
307.502	591.31
307.731	614.31
307.961	617.31
308.191	574.31
308.421	528.31
308.651	495.31
308.881	495.31
309.111	491.31
309.341	490.31
309.571	489.31
309.8	484.31
310.03	469.31
310.26	464.31
310.49	490.31
310.72	498.31
310.949	505.31
311.179	508.31
311.409	494.31
311.639	492.31
311.868	490.31
312.098	498.31
312.328	500.31
312.557	483.31
312.787	507.31
313.017	506.31
313.246	539.31
313.476	512.31
313.706	524.31
313.935	524.31
314.165	508.31
314.394	551.31
314.624	576.31
314.853	613.31
315.083	611.31
315.312	616.31
315.542	587.31
315.771	546.31
316.001	529.31
316.23	554.31
316.46	547.31
316.689	538.31
316.919	527.31
317.148	529.31
317.377	556.31
317.607	562.31
317.836	633.31
318.065	613.31
318.295	584.31
318.524	592.31
318.753	550.31
318.983	553.31
319.212	571.31
319.441	547.31
319.67	535.31
319.9	544.31
320.129	604.31
320.358	573.31
320.587	602.31
320.816	600.31
321.046	577.31
321.275	570.31
321.504	589.31
321.733	603.31
321.962	592.31
322.191	562.31
322.42	548.31
322.649	529.31
322.878	553.31
323.108	556.31
323.337	588.31
323.566	582.31
323.795	594.31
324.024	561.31
324.253	571.31
324.482	561.31
324.71	539.31
324.939	529.31
325.168	575.31
325.397	553.31
325.626	557.31
325.855	556.31
326.084	533.31
326.313	569.31
326.542	575.31
326.77	571.31
326.999	566.31
327.228	529.31
327.457	536.31
327.686	525.31
327.914	538.31
328.143	553.31
328.372	548.31
328.6	565.31
328.829	513.31
329.058	545.31
329.287	552.31
329.515	563.31
329.744	588.31
329.972	626.31
330.201	607.31
330.43	573.31
330.658	601.31
330.887	586.31
331.115	577.31
331.344	581.31
331.572	571.31
331.801	571.31
332.03	568.31
332.258	589.31
332.486	605.31
332.715	613.31
332.943	611.31
333.172	598.31
333.4	603.31
333.629	618.31
333.857	664.31
334.085	713.31
334.314	810.31
334.542	844.31
334.771	749.31
334.999	657.31
335.227	634.31
335.455	641.31
335.684	645.31
335.912	646.31
336.14	652.31
336.369	621.31
336.597	590.31
336.825	603.31
337.053	626.31
337.281	646.31
337.51	690.31
337.738	671.31
337.966	621.31
338.194	582.31
338.422	597.31
338.65	597.31
338.878	576.31
339.106	561.31
339.334	574.31
339.562	559.31
339.79	589.31
340.018	619.31
340.246	634.31
340.474	605.31
340.702	612.31
340.93	619.31
341.158	595.31
341.386	587.31
341.614	607.31
341.842	572.31
342.07	589.31
342.298	613.31
342.526	606.31
342.754	599.31
342.981	573.31
343.209	584.31
343.437	588.31
343.665	583.31
343.893	593.31
344.12	625.31
344.348	617.31
344.576	601.31
344.804	597.31
345.031	589.31
345.259	587.31
345.487	554.31
345.714	519.31
345.942	521.31
346.17	548.31
346.397	559.31
346.625	562.31
346.853	529.31
347.08	523.31
347.308	560.31
347.535	553.31
347.763	579.31
347.99	532.31
348.218	542.31
348.445	552.31
348.673	580.31
348.9	599.31
349.128	596.31
349.355	629.31
349.583	578.31
349.81	535.31
350.037	517.31
350.265	537.31
350.492	530.31
350.72	551.31
350.947	579.31
351.174	556.31
351.402	536.31
351.629	521.31
351.856	543.31
352.083	544.31
352.311	524.31
352.538	551.31
352.765	587.31
352.992	566.31
353.22	546.31
353.447	526.31
353.674	567.31
353.901	561.31
354.128	573.31
354.355	557.31
354.583	561.31
354.81	574.31
355.037	584.31
355.264	556.31
355.491	570.31
355.718	565.31
355.945	552.31
356.172	539.31
356.399	545.31
356.626	558.31
356.853	571.31
357.08	645.31
357.307	647.31
357.534	620.31
357.761	570.31
357.988	545.31
358.215	534.31
358.441	547.31
358.668	533.31
358.895	556.31
359.122	613.31
359.349	655.31
359.576	621.31
359.802	563.31
360.029	535.31
360.256	517.31
360.483	551.31
360.709	587.31
360.936	595.31
361.163	614.31
361.39	671.31
361.616	689.31
361.843	677.31
362.07	625.31
362.296	554.31
362.523	550.31
362.749	572.31
362.976	581.31
363.203	566.31
363.429	570.31
363.656	548.31
363.882	608.31
364.109	646.31
364.335	673.31
364.562	616.31
364.788	593.31
365.015	552.31
365.241	549.31
365.468	579.31
365.694	584.31
365.92	613.31
366.147	580.31
366.373	562.31
366.599	568.31
366.826	544.31
367.052	560.31
367.278	536.31
367.505	581.31
367.731	602.31
367.957	587.31
368.184	629.31
368.41	661.31
368.636	651.31
368.862	646.31
369.089	648.31
369.315	626.31
369.541	623.31
369.767	609.31
369.993	577.31
370.219	576.31
370.445	632.31
370.672	649.31
370.898	641.31
371.124	651.31
371.35	629.31
371.576	628.31
371.802	647.31
372.028	641.31
372.254	590.31
372.48	604.31
372.706	594.31
372.932	597.31
373.158	618.31
373.384	606.31
373.61	651.31
373.835	619.31
374.061	604.31
374.287	637.31
374.513	629.31
374.739	646.31
374.965	643.31
375.191	612.31
375.416	651.31
375.642	665.31
375.868	692.31
376.094	693.31
376.319	682.31
376.545	623.31
376.771	650.31
376.997	710.31
377.222	675.31
377.448	663.31
377.674	657.31
377.899	680.31
378.125	696.31
378.35	687.31
378.576	634.31
378.802	620.31
379.027	628.31
379.253	623.31
379.478	616.31
379.704	611.31
379.929	636.31
380.155	637.31
380.38	632.31
380.606	661.31
380.831	651.31
381.057	697.31
381.282	697.31
381.507	691.31
381.733	736.31
381.958	728.31
382.184	667.31
382.409	667.31
382.634	681.31
382.86	696.31
383.085	679.31
383.31	708.31
383.535	738.31
383.761	819.31
383.986	785.31
384.211	738.31
384.436	749.31
384.662	775.31
384.887	780.31
385.112	706.31
385.337	729.31
385.562	740.31
385.787	739.31
386.013	736.31
386.238	752.31
386.463	745.31
386.688	801.31
386.913	857.31
387.138	789.31
387.363	786.31
387.588	752.31
387.813	761.31
388.038	787.31
388.263	776.31
388.488	760.31
388.713	723.31
388.938	717.31
389.163	702.31
389.387	719.31
389.612	752.31
389.837	763.31
390.062	741.31
390.287	760.31
390.512	751.31
390.736	729.31
390.961	729.31
391.186	712.31
391.411	761.31
391.636	737.31
391.86	739.31
392.085	752.31
392.31	723.31
392.534	760.31
392.759	748.31
392.984	760.31
393.208	767.31
393.433	784.31
393.658	808.31
393.882	803.31
394.107	755.31
394.331	743.31
394.556	770.31
394.78	791.31
395.005	805.31
395.229	828.31
395.454	867.31
395.678	867.31
395.903	799.31
396.127	793.31
396.352	808.31
396.576	850.31
396.801	827.31
397.025	844.31
397.249	836.31
397.474	805.31
397.698	817.31
397.922	841.31
398.147	899.31
398.371	911.31
398.595	892.31
398.82	849.31
399.044	889.31
399.268	919.31
399.492	940.31
399.717	965.31
399.941	1008.31
400.165	947.31
400.389	943.31
400.613	972.31
400.837	1077.31
401.062	1159.31
401.286	1010.31
401.51	949.31
401.734	972.31
401.958	927.31
402.182	884.31
402.406	907.31
402.63	897.31
402.854	882.31
403.078	885.31
403.302	899.31
403.526	932.31
403.75	905.31
403.974	935.31
404.198	931.31
404.422	973.31
404.645	1024.31
404.869	948.31
405.093	886.31
405.317	878.31
405.541	917.31
405.765	938.31
405.988	939.31
406.212	929.31
406.436	961.31
406.66	998.31
406.883	1007.31
407.107	1155.31
407.331	1187.31
407.555	1277.31
407.778	1127.31
408.002	961.31
408.226	944.31
408.449	969.31
408.673	903.31
408.896	943.31
409.12	960.31
409.344	953.31
409.567	927.31
409.791	948.31
410.014	983.31
410.238	1019.31
410.461	1052.31
410.685	953.31
410.908	925.31
411.132	938.31
411.355	921.31
411.578	909.31
411.802	928.31
412.025	919.31
412.249	940.31
412.472	892.31
412.695	895.31
412.919	902.31
413.142	894.31
413.365	922.31
413.589	975.31
413.812	969.31
414.035	981.31
414.258	920.31
414.482	913.31
414.705	933.31
414.928	912.31
415.151	909.31
415.374	900.31
415.597	914.31
415.821	925.31
416.044	921.31
416.267	937.31
416.49	918.31
416.713	875.31
416.936	947.31
417.159	942.31
417.382	949.31
417.605	921.31
417.828	928.31
418.051	948.31
418.274	937.31
418.497	930.31
418.72	915.31
418.943	938.31
419.166	952.31
419.389	991.31
419.611	960.31
419.834	924.31
420.057	936.31
420.28	940.31
420.503	931.31
420.726	943.31
420.948	944.31
421.171	928.31
421.394	937.31
421.617	964.31
421.839	976.31
422.062	964.31
422.285	926.31
422.507	899.31
422.73	895.31
422.953	895.31
423.175	904.31
423.398	890.31
423.621	920.31
423.843	942.31
424.066	981.31
424.288	1015.31
424.511	1030.31
424.733	994.31
424.956	924.31
425.178	947.31
425.401	941.31
425.623	900.31
425.846	928.31
426.068	976.31
426.291	980.31
426.513	930.31
426.735	947.31
426.958	1031.31
427.18	1067.31
427.402	994.31
427.625	1006.31
427.847	986.31
428.069	918.31
428.292	909.31
428.514	890.31
428.736	876.31
428.958	875.31
429.181	924.31
429.403	1066.31
429.625	1195.31
429.847	1039.31
430.069	973.31
430.292	1028.31
430.514	1035.31
430.736	927.31
430.958	958.31
431.18	952.31
431.402	863.31
431.624	843.31
431.846	787.31
432.068	711.31
432.29	738.31
432.512	810.31
432.734	902.31
432.956	911.31
433.178	925.31
433.4	956.31
433.622	969.31
433.844	907.31
434.066	840.31
434.287	813.31
434.509	729.31
434.731	805.31
434.953	881.31
435.175	917.31
435.397	895.31
435.618	832.31
435.84	822.31
436.062	854.31
436.284	906.31
436.505	951.31
436.727	951.31
436.949	916.31
437.17	872.31
437.392	882.31
437.614	859.31
437.835	797.31
438.057	797.31
438.278	827.31
438.5	845.31
438.721	893.31
438.943	947.31
439.165	929.31
439.386	907.31
439.608	932.31
439.829	927.31
440.05	951.31
440.272	929.31
440.493	940.31
440.715	949.31
440.936	986.31
441.158	1039.31
441.379	1027.31
441.6	1048.31
441.822	1039.31
442.043	999.31
442.264	967.31
442.486	928.31
442.707	931.31
442.928	973.31
443.149	977.31
443.371	1010.31
443.592	1004.31
443.813	1033.31
444.034	990.31
444.255	1023.31
444.476	1014.31
444.698	1015.31
444.919	1033.31
445.14	1164.31
445.361	1099.31
445.582	1068.31
445.803	1043.31
446.024	1036.31
446.245	1047.31
446.466	1019.31
446.687	1034.31
446.908	1039.31
447.129	1032.31
447.35	1009.31
447.571	985.31
447.792	979.31
448.013	927.31
448.234	966.31
448.455	945.31
448.675	991.31
448.896	909.31
449.117	866.31
449.338	923.31
449.559	934.31
449.779	952.31
450	975.31
450.221	1043.31
450.442	1006.31
450.662	932.31
450.883	872.31
451.104	861.31
451.324	865.31
451.545	887.31
451.766	868.31
451.986	854.31
452.207	832.31
452.428	805.31
452.648	762.31
452.869	761.31
453.089	772.31
453.31	776.31
453.53	758.31
453.751	721.31
453.971	708.31
454.192	720.31
454.412	757.31
454.633	784.31
454.853	776.31
455.073	753.31
455.294	757.31
455.514	761.31
455.734	766.31
455.955	775.31
456.175	753.31
456.395	703.31
456.616	742.31
456.836	722.31
457.056	735.31
457.276	708.31
457.497	722.31
457.717	674.31
457.937	709.31
458.157	725.31
458.377	684.31
458.598	658.31
458.818	677.31
459.038	720.31
459.258	709.31
459.478	722.31
459.698	681.31
459.918	731.31
460.138	805.31
460.358	795.31
460.578	827.31
460.798	858.31
461.018	884.31
461.238	851.31
461.458	855.31
461.678	856.31
461.898	828.31
462.118	779.31
462.338	834.31
462.558	856.31
462.777	809.31
462.997	866.31
463.217	870.31
463.437	884.31
463.657	850.31
463.876	837.31
464.096	824.31
464.316	831.31
464.536	876.31
464.755	861.31
464.975	866.31
465.195	860.31
465.414	869.31
465.634	879.31
465.854	888.31
466.073	955.31
466.293	953.31
466.512	843.31
466.732	879.31
466.951	891.31
467.171	884.31
467.391	875.31
467.61	876.31
467.829	894.31
468.049	959.31
468.268	1040.31
468.488	959.31
468.707	906.31
468.927	915.31
469.146	913.31
469.365	919.31
469.585	919.31
469.804	907.31
470.023	935.31
470.243	918.31
470.462	938.31
470.681	913.31
470.901	914.31
471.12	900.31
471.339	929.31
471.558	906.31
471.777	905.31
471.997	897.31
472.216	848.31
472.435	768.31
472.654	782.31
472.873	780.31
473.092	845.31
473.311	845.31
473.53	805.31
473.749	807.31
473.968	844.31
474.187	828.31
474.406	852.31
474.625	845.31
474.844	863.31
475.063	865.31
475.282	863.31
475.501	823.31
475.72	812.31
475.939	897.31
476.158	897.31
476.377	890.31
476.596	838.31
476.814	802.31
477.033	803.31
477.252	827.31
477.471	879.31
477.69	921.31
477.908	915.31
478.127	943.31
478.346	993.31
478.564	990.31
478.783	974.31
479.002	1037.31
479.22	992.31
479.439	1011.31
479.658	1035.31
479.876	981.31
480.095	884.31
480.313	906.31
480.532	864.31
480.751	866.31
480.969	826.31
481.188	786.31
481.406	775.31
481.624	748.31
481.843	764.31
482.061	802.31
482.28	856.31
482.498	903.31
482.717	841.31
482.935	881.31
483.153	953.31
483.372	1005.31
483.59	1015.31
483.808	961.31
484.027	936.31
484.245	961.31
484.463	1162.31
484.681	1270.31
484.9	1040.31
485.118	965.31
485.336	920.31
485.554	893.31
485.772	861.31
485.99	864.31
486.209	889.31
486.427	913.31
486.645	933.31
486.863	1003.31
487.081	1009.31
487.299	985.31
487.517	1001.31
487.735	1051.31
487.953	1164.31
488.171	1153.31
488.389	1141.31
488.607	1068.31
488.825	1101.31
489.043	1017.31
489.261	998.31
489.479	1016.31
489.696	1073.31
489.914	1039.31
490.132	999.31
490.35	1114.31
490.568	1157.31
490.786	1158.31
491.003	1185.31
491.221	1265.31
491.439	1283.31
491.657	1288.31
491.874	1367.31
492.092	1419.31
492.31	1473.31
492.527	1439.31
492.745	1342.31
492.963	1316.31
493.18	1337.31
493.398	1364.31
493.615	1299.31
493.833	1254.31
494.05	1213.31
494.268	1221.31
494.485	1213.31
494.703	1195.31
494.92	1232.31
495.138	1205.31
495.355	1220.31
495.573	1251.31
495.79	1273.31
496.008	1273.31
496.225	1206.31
496.442	1236.31
496.66	1192.31
496.877	1217.31
497.094	1240.31
497.312	1229.31
497.529	1177.31
497.746	1194.31
497.963	1256.31
498.181	1259.31
498.398	1263.31
498.615	1207.31
498.832	1138.31
499.049	1153.31
499.267	1145.31
499.484	1239.31
499.701	1355.31
499.918	1370.31
500.135	1498.31
500.352	1550.31
500.569	1559.31
500.786	1701.31
501.003	1557.31
501.22	1455.31
501.437	1382.31
501.654	1398.31
501.871	1356.31
502.088	1196.31
502.305	1165.31
502.522	1118.31
502.739	1075.31
502.956	1041.31
503.172	1046.31
503.389	1035.31
503.606	1010.31
503.823	1000.31
504.04	984.31
504.256	1005.31
504.473	980.31
504.69	1009.31
504.907	971.31
505.123	954.31
505.34	1059.31
505.557	1322.31
505.773	1088.31
505.99	931.31
506.207	896.31
506.423	865.31
506.64	875.31
506.856	909.31
507.073	994.31
507.289	1069.31
507.506	995.31
507.722	881.31
507.939	851.31
508.155	834.31
508.372	826.31
508.588	800.31
508.805	799.31
509.021	780.31
509.238	772.31
509.454	757.31
509.67	765.31
509.887	714.31
510.103	714.31
510.319	712.31
510.536	744.31
510.752	753.31
510.968	728.31
511.184	772.31
511.401	739.31
511.617	692.31
511.833	688.31
512.049	697.31
512.265	727.31
512.481	711.31
512.698	770.31
512.914	770.31
513.13	752.31
513.346	708.31
513.562	673.31
513.778	703.31
513.994	732.31
514.21	739.31
514.426	755.31
514.642	816.31
514.858	770.31
515.074	729.31
515.29	714.31
515.506	743.31
515.721	767.31
515.937	736.31
516.153	823.31
516.369	751.31
516.585	711.31
516.801	688.31
517.016	724.31
517.232	745.31
517.448	763.31
517.664	780.31
517.879	812.31
518.095	798.31
518.311	771.31
518.527	741.31
518.742	767.31
518.958	709.31
519.173	748.31
519.389	780.31
519.605	808.31
519.82	802.31
520.036	758.31
520.251	745.31
520.467	781.31
520.682	795.31
520.898	802.31
521.113	715.31
521.329	734.31
521.544	791.31
521.76	740.31
521.975	694.31
522.19	717.31
522.406	738.31
522.621	875.31
522.836	834.31
523.052	725.31
523.267	730.31
523.482	743.31
523.698	717.31
523.913	741.31
524.128	792.31
524.343	799.31
524.559	801.31
524.774	787.31
524.989	769.31
525.204	761.31
525.419	726.31
525.634	737.31
525.849	738.31
526.064	754.31
526.28	695.31
526.495	662.31
526.71	668.31
526.925	642.31
527.14	613.31
527.355	604.31
527.57	635.31
527.785	653.31
527.999	654.31
528.214	663.31
528.429	688.31
528.644	744.31
528.859	789.31
529.074	821.31
529.289	877.31
529.503	872.31
529.718	808.31
529.933	716.31
530.148	639.31
530.363	652.31
530.577	647.31
530.792	634.31
531.007	594.31
531.221	611.31
531.436	615.31
531.651	628.31
531.865	654.31
532.08	658.31
532.295	633.31
532.509	601.31
532.724	621.31
532.938	635.31
533.153	690.31
533.367	727.31
533.582	734.31
533.796	735.31
534.011	710.31
534.225	663.31
534.44	637.31
534.654	632.31
534.868	611.31
535.083	661.31
535.297	687.31
535.511	661.31
535.726	669.31
535.94	675.31
536.154	620.31
536.369	610.31
536.583	597.31
536.797	592.31
537.011	587.31
537.225	595.31
537.44	618.31
537.654	651.31
537.868	601.31
538.082	594.31
538.296	605.31
538.51	642.31
538.724	683.31
538.938	703.31
539.153	742.31
539.367	733.31
539.581	690.31
539.795	660.31
540.009	651.31
540.222	634.31
540.436	650.31
540.65	752.31
540.864	777.31
541.078	797.31
541.292	834.31
541.506	878.31
541.72	928.31
541.934	1017.31
542.147	1041.31
542.361	997.31
542.575	879.31
542.789	832.31
543.002	778.31
543.216	736.31
543.43	767.31
543.644	804.31
543.857	848.31
544.071	896.31
544.285	933.31
544.498	923.31
544.712	943.31
544.925	927.31
545.139	938.31
545.352	877.31
545.566	930.31
545.779	959.31
545.993	941.31
546.206	953.31
546.42	974.31
546.633	947.31
546.847	946.31
547.06	940.31
547.274	949.31
547.487	988.31
547.7	994.31
547.914	973.31
548.127	953.31
548.34	952.31
548.554	931.31
548.767	915.31
548.98	903.31
549.193	896.31
549.407	935.31
549.62	934.31
549.833	917.31
550.046	904.31
550.259	907.31
550.473	886.31
550.686	893.31
550.899	856.31
551.112	858.31
551.325	810.31
551.538	835.31
551.751	851.31
551.964	700.31
552.177	727.31
552.39	794.31
552.603	826.31
552.816	849.31
553.029	915.31
553.242	908.31
553.455	906.31
553.667	879.31
553.88	871.31
554.093	843.31
554.306	843.31
554.519	848.31
554.732	812.31
554.944	832.31
555.157	822.31
555.37	811.31
555.583	809.31
555.795	773.31
556.008	733.31
556.221	723.31
556.433	700.31
556.646	719.31
556.859	714.31
557.071	723.31
557.284	763.31
557.496	735.31
557.709	745.31
557.921	740.31
558.134	730.31
558.346	726.31
558.559	724.31
558.771	719.31
558.984	697.31
559.196	670.31
559.409	647.31
559.621	671.31
559.833	659.31
560.046	672.31
560.258	672.31
560.47	670.31
560.683	674.31
560.895	681.31
561.107	648.31
561.32	672.31
561.532	679.31
561.744	649.31
561.956	655.31
562.168	649.31
562.381	628.31
562.593	631.31
562.805	629.31
563.017	618.31
563.229	644.31
563.441	637.31
563.653	616.31
563.865	629.31
564.077	625.31
564.289	615.31
564.501	634.31
564.713	601.31
564.925	625.31
565.137	663.31
565.349	630.31
565.561	601.31
565.773	603.31
565.985	613.31
566.197	660.31
566.408	663.31
566.62	657.31
566.832	691.31
567.044	671.31
567.255	657.31
567.467	667.31
567.679	644.31
567.891	641.31
568.102	621.31
568.314	577.31
568.526	532.31
568.737	503.31
568.949	459.31
569.161	470.31
569.372	476.31
569.584	465.31
569.795	453.31
570.007	460.31
570.218	413.31
570.43	435.31
570.641	429.31
570.853	467.31
571.064	474.31
571.276	471.31
571.487	488.31
571.698	470.31
571.91	461.31
572.121	454.31
572.333	436.31
572.544	428.31
572.755	418.31
572.966	400.31
573.178	391.31
573.389	385.31
573.6	421.31
573.811	420.31
574.023	392.31
574.234	385.31
574.445	382.31
574.656	387.31
574.867	394.31
575.078	411.31
575.289	394.31
575.501	404.31
575.712	383.31
575.923	394.31
576.134	401.31
576.345	405.31
576.556	392.31
576.767	391.31
576.978	404.31
577.188	385.31
577.399	380.31
577.61	371.31
577.821	360.31
578.032	346.31
578.243	376.31
578.454	361.31
578.665	361.31
578.875	343.31
579.086	336.31
579.297	357.31
579.508	360.31
579.718	340.31
579.929	351.31
580.14	356.31
580.35	327.31
580.561	351.31
580.772	376.31
580.982	351.31
581.193	348.31
581.403	327.31
581.614	350.31
581.825	345.31
582.035	351.31
582.246	335.31
582.456	339.31
582.667	344.31
582.877	343.31
583.087	331.31
583.298	340.31
583.508	337.31
583.719	320.31
583.929	331.31
584.139	342.31
584.35	329.31
584.56	307.31
584.77	331.31
584.981	344.31
585.191	316.31
585.401	332.31
585.611	332.31
585.821	305.31
586.032	318.31
586.242	318.31
586.452	309.31
586.662	322.31
586.872	301.31
587.082	304.31
587.292	314.31
587.502	322.31
587.713	319.31
587.923	304.31
588.133	322.31
588.343	327.31
588.553	298.31
588.762	317.31
588.972	313.31
589.182	308.31
589.392	315.31
589.602	319.31
589.812	311.31
590.022	314.31
590.232	299.31
590.441	304.31
590.651	314.31
590.861	309.31
591.071	302.31
591.281	319.31
591.49	314.31
591.7	307.31
591.91	318.31
592.119	306.31
592.329	311.31
592.539	323.31
592.748	320.31
592.958	329.31
593.167	316.31
593.377	335.31
593.587	326.31
593.796	321.31
594.006	319.31
594.215	329.31
594.424	315.31
594.634	335.31
594.843	357.31
595.053	337.31
595.262	329.31
595.472	328.31
595.681	344.31
595.89	328.31
596.1	333.31
596.309	313.31
596.518	315.31
596.727	320.31
596.937	323.31
597.146	315.31
597.355	308.31
597.564	331.31
597.774	281.31
597.983	299.31
598.192	296.31
598.401	277.31
598.61	295.31
598.819	282.31
599.028	301.31
599.237	293.31
599.446	289.31
599.655	300.31
599.864	288.31
600.073	281.31
600.282	300.31
600.491	293.31
600.7	284.31
600.909	308.31
601.118	318.31
601.327	333.31
601.536	337.31
601.745	343.31
601.953	341.31
602.162	350.31
602.371	356.31
602.58	356.31
602.789	359.31
602.997	338.31
603.206	348.31
603.415	370.31
603.623	340.31
603.832	352.31
604.041	338.31
604.249	310.31
604.458	299.31
604.666	305.31
604.875	301.31
605.084	300.31
605.292	317.31
605.501	362.31
605.709	367.31
605.918	380.31
606.126	363.31
606.334	357.31
606.543	372.31
606.751	359.31
606.96	360.31
607.168	365.31
607.376	353.31
607.585	357.31
607.793	352.31
608.001	366.31
608.21	342.31
608.418	343.31
608.626	359.31
608.834	339.31
609.043	340.31
609.251	349.31
609.459	360.31
609.667	393.31
609.875	367.31
610.083	359.31
610.291	365.31
610.499	360.31
610.707	360.31
610.916	370.31
611.124	372.31
611.332	368.31
611.54	379.31
611.748	370.31
611.955	371.31
612.163	355.31
612.371	351.31
612.579	353.31
612.787	352.31
612.995	364.31
613.203	342.31
613.411	379.31
613.618	360.31
613.826	355.31
614.034	340.31
614.242	346.31
614.449	348.31
614.657	353.31
614.865	344.31
615.072	353.31
615.28	367.31
615.488	369.31
615.695	350.31
615.903	359.31
616.111	343.31
616.318	338.31
616.526	346.31
616.733	363.31
616.941	357.31
617.148	351.31
617.356	354.31
617.563	353.31
617.771	349.31
617.978	352.31
618.185	343.31
618.393	321.31
618.6	365.31
618.807	340.31
619.015	332.31
619.222	331.31
619.429	348.31
619.637	301.31
619.844	303.31
620.051	315.31
620.258	311.31
620.466	311.31
620.673	321.31
620.88	316.31
621.087	298.31
621.294	307.31
621.501	301.31
621.708	300.31
621.915	308.31
622.122	324.31
622.329	330.31
622.536	337.31
622.743	313.31
622.95	304.31
623.157	326.31
623.364	315.31
623.571	300.31
623.778	311.31
623.985	323.31
624.192	326.31
624.399	321.31
624.606	305.31
624.812	318.31
625.019	323.31
625.226	302.31
625.433	270.31
625.639	299.31
625.846	282.31
626.053	246.31
626.259	246.31
626.466	225.31
626.673	250.31
626.879	233.31
627.086	252.31
627.293	262.31
627.499	296.31
627.706	294.31
627.912	298.31
628.119	274.31
628.325	317.31
628.532	284.31
628.738	301.31
628.945	300.31
629.151	290.31
629.357	301.31
629.564	284.31
629.77	286.31
629.976	276.31
630.183	263.31
630.389	253.31
630.595	272.31
630.802	312.31
631.008	267.31
631.214	288.31
631.42	269.31
631.627	244.31
631.833	254.31
632.039	260.31
632.245	243.31
632.451	267.31
632.657	273.31
632.863	255.31
633.069	260.31
633.275	261.31
633.481	275.31
633.688	248.31
633.893	251.31
634.099	258.31
634.305	265.31
634.511	244.31
634.717	229.31
634.923	229.31
635.129	234.31
635.335	217.31
635.541	256.31
635.747	241.31
635.952	244.31
636.158	260.31
636.364	249.31
636.57	246.31
636.775	276.31
636.981	270.31
637.187	249.31
637.392	261.31
637.598	252.31
637.804	240.31
638.009	249.31
638.215	258.31
638.421	255.31
638.626	243.31
638.832	250.31
639.037	233.31
639.243	251.31
639.448	247.31
639.654	257.31
639.859	255.31
640.065	256.31
640.27	263.31
640.475	244.31
640.681	243.31
640.886	249.31
641.091	262.31
641.297	243.31
641.502	256.31
641.707	240.31
641.913	263.31
642.118	240.31
642.323	237.31
642.528	243.31
642.733	255.31
642.939	236.31
643.144	239.31
643.349	240.31
643.554	238.31
643.759	257.31
643.964	253.31
644.169	243.31
644.374	243.31
644.579	241.31
644.784	237.31
644.989	235.31
645.194	224.31
645.399	249.31
645.604	233.31
645.809	253.31
646.014	243.31
646.219	231.31
646.423	225.31
646.628	262.31
646.833	260.31
647.038	247.31
647.243	243.31
647.447	241.31
647.652	246.31
647.857	249.31
648.062	240.31
648.266	229.31
648.471	223.31
648.676	253.31
648.88	251.31
649.085	263.31
649.289	241.31
649.494	243.31
649.698	241.31
649.903	215.31
650.107	243.31
650.312	231.31
650.516	236.31
650.721	218.31
650.925	253.31
651.13	217.31
651.334	211.31
651.539	215.31
651.743	207.31
651.947	211.31
652.152	226.31
652.356	215.31
652.56	214.31
652.764	222.31
652.969	224.31
653.173	210.31
653.377	205.31
653.581	216.31
653.785	195.31
653.99	216.31
654.194	199.31
654.398	194.31
654.602	210.31
654.806	190.31
655.01	195.31
655.214	209.31
655.418	194.31
655.622	207.31
655.826	190.31
656.03	202.31
656.234	193.31
656.438	231.31
656.642	218.31
656.846	215.31
657.049	191.31
657.253	195.31
657.457	188.31
657.661	185.31
657.865	175.31
658.068	175.31
658.272	162.31
658.476	154.31
658.68	159.31
658.883	145.31
659.087	135.31
659.291	149.31
659.494	137.31
659.698	151.31
659.901	124.31
660.105	119.31
660.309	143.31
660.512	124.31
660.716	121.31
660.919	112.31
661.123	115.31
661.326	110.31
661.53	113.31
661.733	114.31
661.936	125.31
662.14	102.31
662.343	104.31
662.546	113.31
662.75	101.31
662.953	103.31
663.156	104.31
663.36	100.31
663.563	91.31
663.766	112.31
663.969	94.31
664.173	90.31
664.376	80.31
664.579	86.31
664.782	91.31
664.985	89.31
665.188	84.31
665.391	87.31
665.594	105.31
665.797	95.31
666	83.31
666.203	95.31
666.406	69.31
666.609	86.31
666.812	90.31
667.015	84.31
667.218	83.31
667.421	91.31
667.624	85.31
667.827	75.31
668.03	81.31
668.232	92.31
668.435	81.31
668.638	86.31
668.841	73.31
669.043	94.31
669.246	85.31
669.449	91.31
669.651	75.31
669.854	87.31
670.057	87.31
670.259	95.31
670.462	75.31
670.665	95.31
670.867	77.31
671.07	77.31
671.272	76.31
671.475	80.31
671.677	78.31
671.88	80.31
672.082	89.31
672.284	88.31
672.487	82.31
672.689	79.31
672.892	92.31
