Data from WStandard_LampEnergy8_LIBS07252019.E.O._I.C._HRD10591_15-58-47-929.txt Node
Date: Thu Jul 25 15:58:47 EDT 2019
User: cochatt
Spectrometer: HR+D1059
Trigger mode: 1
Integration Time (sec): 1.000000E-1
Scans to average: 1
Electric dark correction enabled: true
Nonlinearity correction enabled: false
Boxcar width: 0
XAxis mode: Wavelengths
Number of Pixels in Spectrum: 2048
>>>>>Begin Spectral Data<<<<<
223.165	0.88
223.4	0.88
223.635	0.88
223.869	-10.12
224.104	-13.12
224.338	-13.12
224.573	-12.12
224.808	-31.12
225.042	-15.12
225.277	-10.12
225.511	-11.12
225.746	1.88
225.98	6.88
226.215	15.88
226.449	20.88
226.683	27.88
226.918	16.88
227.152	24.88
227.387	39.88
227.621	40.88
227.856	33.88
228.09	33.88
228.324	45.88
228.559	50.88
228.793	92.88
229.027	198.88
229.262	199.88
229.496	205.88
229.73	221.88
229.964	242.88
230.199	268.88
230.433	284.88
230.667	272.88
230.901	282.88
231.136	268.88
231.37	268.88
231.604	269.88
231.838	259.88
232.072	282.88
232.306	249.88
232.541	268.88
232.775	299.88
233.009	325.88
233.243	323.88
233.477	299.88
233.711	294.88
233.945	324.88
234.179	320.88
234.413	317.88
234.647	339.88
234.881	339.88
235.115	304.88
235.349	299.88
235.583	315.88
235.817	299.88
236.051	291.88
236.285	303.88
236.519	321.88
236.753	348.88
236.987	365.88
237.221	358.88
237.455	380.88
237.689	368.88
237.922	359.88
238.156	341.88
238.39	360.88
238.624	370.88
238.858	388.88
239.091	393.88
239.325	426.88
239.559	464.88
239.793	483.88
240.027	504.88
240.26	472.88
240.494	387.88
240.728	358.88
240.961	346.88
241.195	392.88
241.429	424.88
241.662	413.88
241.896	375.88
242.13	401.88
242.363	427.88
242.597	470.88
242.83	453.88
243.064	450.88
243.298	451.88
243.531	459.88
243.765	461.88
243.998	462.88
244.232	439.88
244.465	376.88
244.699	389.88
244.932	454.88
245.166	508.88
245.399	470.88
245.633	479.88
245.866	445.88
246.099	473.88
246.333	476.88
246.566	503.88
246.8	536.88
247.033	579.88
247.266	534.88
247.5	517.88
247.733	526.88
247.966	567.88
248.2	601.88
248.433	590.88
248.666	617.88
248.899	674.88
249.133	714.88
249.366	816.88
249.599	654.88
249.832	630.88
250.066	635.88
250.299	605.88
250.532	594.88
250.765	573.88
250.998	565.88
251.231	590.88
251.465	606.88
251.698	579.88
251.931	565.88
252.164	614.88
252.397	620.88
252.63	580.88
252.863	528.88
253.096	537.88
253.329	568.88
253.562	584.88
253.795	610.88
254.028	617.88
254.261	565.88
254.494	572.88
254.727	561.88
254.96	602.88
255.193	654.88
255.426	698.88
255.659	779.88
255.892	760.88
256.124	689.88
256.357	672.88
256.59	690.88
256.823	693.88
257.056	732.88
257.289	821.88
257.521	914.88
257.754	806.88
257.987	765.88
258.22	829.88
258.452	814.88
258.685	684.88
258.918	656.88
259.151	666.88
259.383	651.88
259.616	588.88
259.849	652.88
260.081	705.88
260.314	745.88
260.547	826.88
260.779	782.88
261.012	777.88
261.244	700.88
261.477	628.88
261.71	686.88
261.942	676.88
262.175	665.88
262.407	700.88
262.64	664.88
262.872	646.88
263.105	622.88
263.337	629.88
263.57	615.88
263.802	622.88
264.035	604.88
264.267	570.88
264.499	551.88
264.732	600.88
264.964	645.88
265.197	653.88
265.429	722.88
265.661	776.88
265.894	846.88
266.126	877.88
266.358	776.88
266.591	805.88
266.823	835.88
267.055	784.88
267.287	776.88
267.52	753.88
267.752	762.88
267.984	756.88
268.216	771.88
268.448	795.88
268.681	779.88
268.913	715.88
269.145	687.88
269.377	702.88
269.609	729.88
269.841	864.88
270.073	1005.88
270.306	1104.88
270.538	1139.88
270.77	958.88
271.002	841.88
271.234	808.88
271.466	817.88
271.698	884.88
271.93	1043.88
272.162	1033.88
272.394	944.88
272.626	906.88
272.858	790.88
273.09	714.88
273.322	688.88
273.553	656.88
273.785	691.88
274.017	720.88
274.249	752.88
274.481	746.88
274.713	696.88
274.945	707.88
275.176	694.88
275.408	676.88
275.64	683.88
275.872	705.88
276.104	746.88
276.335	841.88
276.567	920.88
276.799	904.88
277.031	825.88
277.262	794.88
277.494	838.88
277.726	896.88
277.957	886.88
278.189	777.88
278.421	748.88
278.652	726.88
278.884	749.88
279.115	737.88
279.347	747.88
279.579	759.88
279.81	740.88
280.042	805.88
280.273	887.88
280.505	900.88
280.736	869.88
280.968	818.88
281.199	758.88
281.431	697.88
281.662	724.88
281.894	734.88
282.125	724.88
282.356	772.88
282.588	762.88
282.819	777.88
283.051	862.88
283.282	869.88
283.513	846.88
283.745	746.88
283.976	705.88
284.207	717.88
284.439	742.88
284.67	756.88
284.901	791.88
285.132	770.88
285.364	770.88
285.595	782.88
285.826	775.88
286.057	762.88
286.288	756.88
286.52	795.88
286.751	834.88
286.982	854.88
287.213	773.88
287.444	687.88
287.675	747.88
287.906	816.88
288.138	814.88
288.369	820.88
288.6	732.88
288.831	714.88
289.062	756.88
289.293	757.88
289.524	768.88
289.755	779.88
289.986	780.88
290.217	725.88
290.448	748.88
290.679	749.88
290.91	788.88
291.141	797.88
291.371	828.88
291.602	826.88
291.833	813.88
292.064	826.88
292.295	818.88
292.526	810.88
292.757	850.88
292.987	822.88
293.218	797.88
293.449	888.88
293.68	973.88
293.91	984.88
294.141	976.88
294.372	898.88
294.603	946.88
294.833	968.88
295.064	907.88
295.295	842.88
295.525	798.88
295.756	758.88
295.987	747.88
296.217	718.88
296.448	740.88
296.679	780.88
296.909	758.88
297.14	777.88
297.37	798.88
297.601	847.88
297.831	882.88
298.062	875.88
298.292	820.88
298.523	778.88
298.753	762.88
298.984	792.88
299.214	789.88
299.445	819.88
299.675	835.88
299.905	839.88
300.136	822.88
300.366	779.88
300.597	742.88
300.827	758.88
301.057	816.88
301.288	845.88
301.518	829.88
301.748	863.88
301.979	913.88
302.209	948.88
302.439	970.88
302.669	1005.88
302.9	919.88
303.13	863.88
303.36	893.88
303.59	889.88
303.82	867.88
304.051	834.88
304.281	856.88
304.511	863.88
304.741	941.88
304.971	1036.88
305.201	1080.88
305.431	956.88
305.661	822.88
305.891	739.88
306.121	769.88
306.352	820.88
306.582	835.88
306.812	904.88
307.042	960.88
307.272	954.88
307.502	998.88
307.731	1036.88
307.961	1071.88
308.191	987.88
308.421	884.88
308.651	827.88
308.881	820.88
309.111	819.88
309.341	811.88
309.571	811.88
309.8	813.88
310.03	826.88
310.26	806.88
310.49	837.88
310.72	849.88
310.949	854.88
311.179	899.88
311.409	864.88
311.639	852.88
311.868	841.88
312.098	880.88
312.328	841.88
312.557	812.88
312.787	849.88
313.017	882.88
313.246	857.88
313.476	877.88
313.706	886.88
313.935	884.88
314.165	891.88
314.394	951.88
314.624	984.88
314.853	1008.88
315.083	1060.88
315.312	1070.88
315.542	971.88
315.771	917.88
316.001	884.88
316.23	936.88
316.46	925.88
316.689	950.88
316.919	888.88
317.148	844.88
317.377	888.88
317.607	974.88
317.836	1075.88
318.065	1051.88
318.295	1024.88
318.524	984.88
318.753	974.88
318.983	944.88
319.212	932.88
319.441	876.88
319.67	898.88
319.9	957.88
320.129	1001.88
320.358	1017.88
320.587	1055.88
320.816	1042.88
321.046	970.88
321.275	949.88
321.504	995.88
321.733	1023.88
321.962	1008.88
322.191	916.88
322.42	932.88
322.649	939.88
322.878	902.88
323.108	907.88
323.337	944.88
323.566	918.88
323.795	936.88
324.024	975.88
324.253	953.88
324.482	923.88
324.71	904.88
324.939	862.88
325.168	891.88
325.397	951.88
325.626	945.88
325.855	954.88
326.084	926.88
326.313	920.88
326.542	941.88
326.77	981.88
326.999	957.88
327.228	889.88
327.457	851.88
327.686	859.88
327.914	896.88
328.143	905.88
328.372	913.88
328.6	932.88
328.829	891.88
329.058	896.88
329.287	921.88
329.515	955.88
329.744	946.88
329.972	1016.88
330.201	1034.88
330.43	1016.88
330.658	977.88
330.887	960.88
331.115	977.88
331.344	1000.88
331.572	974.88
331.801	979.88
332.03	954.88
332.258	1000.88
332.486	986.88
332.715	989.88
332.943	1017.88
333.172	965.88
333.4	981.88
333.629	1008.88
333.857	1108.88
334.085	1203.88
334.314	1383.88
334.542	1417.88
334.771	1266.88
334.999	1172.88
335.227	1082.88
335.455	1044.88
335.684	1068.88
335.912	1091.88
336.14	1096.88
336.369	1037.88
336.597	1006.88
336.825	975.88
337.053	1034.88
337.281	1088.88
337.51	1137.88
337.738	1154.88
337.966	1042.88
338.194	1001.88
338.422	1024.88
338.65	970.88
338.878	956.88
339.106	938.88
339.334	924.88
339.562	903.88
339.79	960.88
340.018	1028.88
340.246	1072.88
340.474	1055.88
340.702	985.88
340.93	997.88
341.158	1005.88
341.386	972.88
341.614	1000.88
341.842	972.88
342.07	972.88
342.298	1003.88
342.526	982.88
342.754	957.88
342.981	996.88
343.209	978.88
343.437	960.88
343.665	976.88
343.893	1005.88
344.12	1067.88
344.348	1060.88
344.576	993.88
344.804	962.88
345.031	974.88
345.259	949.88
345.487	917.88
345.714	902.88
345.942	889.88
346.17	905.88
346.397	946.88
346.625	925.88
346.853	867.88
347.08	867.88
347.308	885.88
347.535	913.88
347.763	926.88
347.99	905.88
348.218	906.88
348.445	909.88
348.673	943.88
348.9	971.88
349.128	996.88
349.355	1024.88
349.583	985.88
349.81	948.88
350.037	883.88
350.265	827.88
350.492	871.88
350.72	912.88
350.947	937.88
351.174	940.88
351.402	880.88
351.629	846.88
351.856	850.88
352.083	843.88
352.311	852.88
352.538	888.88
352.765	935.88
352.992	930.88
353.22	894.88
353.447	918.88
353.674	911.88
353.901	907.88
354.128	867.88
354.355	904.88
354.583	944.88
354.81	980.88
355.037	924.88
355.264	937.88
355.491	916.88
355.718	918.88
355.945	906.88
356.172	885.88
356.399	882.88
356.626	932.88
356.853	932.88
357.08	998.88
357.307	1137.88
357.534	1072.88
357.761	946.88
357.988	877.88
358.215	861.88
358.441	860.88
358.668	895.88
358.895	900.88
359.122	978.88
359.349	1044.88
359.576	985.88
359.802	930.88
360.029	884.88
360.256	857.88
360.483	912.88
360.709	919.88
360.936	977.88
361.163	981.88
361.39	1087.88
361.616	1160.88
361.843	1130.88
362.07	1039.88
362.296	897.88
362.523	921.88
362.749	904.88
362.976	952.88
363.203	926.88
363.429	910.88
363.656	891.88
363.882	934.88
364.109	1014.88
364.335	1080.88
364.562	1015.88
364.788	987.88
365.015	943.88
365.241	925.88
365.468	940.88
365.694	968.88
365.92	1014.88
366.147	938.88
366.373	880.88
366.599	893.88
366.826	898.88
367.052	915.88
367.278	920.88
367.505	937.88
367.731	944.88
367.957	961.88
368.184	996.88
368.41	1036.88
368.636	1069.88
368.862	1069.88
369.089	1013.88
369.315	1018.88
369.541	978.88
369.767	946.88
369.993	943.88
370.219	911.88
370.445	958.88
370.672	1000.88
370.898	1064.88
371.124	1005.88
371.35	993.88
371.576	1021.88
371.802	1010.88
372.028	1000.88
372.254	971.88
372.48	942.88
372.706	927.88
372.932	920.88
373.158	934.88
373.384	982.88
373.61	994.88
373.835	1034.88
374.061	974.88
374.287	974.88
374.513	980.88
374.739	968.88
374.965	1004.88
375.191	1002.88
375.416	990.88
375.642	999.88
375.868	1091.88
376.094	1094.88
376.319	1034.88
376.545	997.88
376.771	1003.88
376.997	1084.88
377.222	1053.88
377.448	1012.88
377.674	1045.88
377.899	1058.88
378.125	1097.88
378.35	1054.88
378.576	974.88
378.802	941.88
379.027	955.88
379.253	960.88
379.478	971.88
379.704	968.88
379.929	978.88
380.155	952.88
380.38	998.88
380.606	992.88
380.831	1020.88
381.057	1072.88
381.282	1066.88
381.507	1048.88
381.733	1095.88
381.958	1140.88
382.184	1055.88
382.409	1022.88
382.634	1053.88
382.86	1034.88
383.085	1021.88
383.31	1079.88
383.535	1177.88
383.761	1192.88
383.986	1170.88
384.211	1120.88
384.436	1095.88
384.662	1160.88
384.887	1190.88
385.112	1128.88
385.337	1125.88
385.562	1126.88
385.787	1119.88
386.013	1153.88
386.238	1128.88
386.463	1139.88
386.688	1233.88
386.913	1292.88
387.138	1228.88
387.363	1161.88
387.588	1142.88
387.813	1132.88
388.038	1195.88
388.263	1212.88
388.488	1154.88
388.713	1081.88
388.938	1060.88
389.163	1103.88
389.387	1109.88
389.612	1143.88
389.837	1113.88
390.062	1093.88
390.287	1148.88
390.512	1114.88
390.736	1095.88
390.961	1077.88
391.186	1095.88
391.411	1091.88
391.636	1097.88
391.86	1102.88
392.085	1090.88
392.31	1117.88
392.534	1127.88
392.759	1126.88
392.984	1101.88
393.208	1150.88
393.433	1179.88
393.658	1228.88
393.882	1216.88
394.107	1134.88
394.331	1124.88
394.556	1131.88
394.78	1150.88
395.005	1170.88
395.229	1226.88
395.454	1320.88
395.678	1288.88
395.903	1216.88
396.127	1180.88
396.352	1217.88
396.576	1240.88
396.801	1251.88
397.025	1246.88
397.249	1253.88
397.474	1227.88
397.698	1194.88
397.922	1261.88
398.147	1318.88
398.371	1368.88
398.595	1340.88
398.82	1297.88
399.044	1331.88
399.268	1381.88
399.492	1478.88
399.717	1462.88
399.941	1479.88
400.165	1461.88
400.389	1416.88
400.613	1450.88
400.837	1653.88
401.062	1799.88
401.286	1550.88
401.51	1458.88
401.734	1440.88
401.958	1410.88
402.182	1330.88
402.406	1271.88
402.63	1260.88
402.854	1265.88
403.078	1307.88
403.302	1281.88
403.526	1301.88
403.75	1354.88
403.974	1349.88
404.198	1405.88
404.422	1430.88
404.645	1475.88
404.869	1439.88
405.093	1336.88
405.317	1299.88
405.541	1316.88
405.765	1332.88
405.988	1341.88
406.212	1350.88
406.436	1369.88
406.66	1428.88
406.883	1466.88
407.107	1657.88
407.331	1802.88
407.555	1862.88
407.778	1636.88
408.002	1396.88
408.226	1415.88
408.449	1399.88
408.673	1344.88
408.896	1392.88
409.12	1412.88
409.344	1373.88
409.567	1326.88
409.791	1366.88
410.014	1386.88
410.238	1467.88
410.461	1515.88
410.685	1376.88
410.908	1326.88
411.132	1355.88
411.355	1313.88
411.578	1258.88
411.802	1346.88
412.025	1352.88
412.249	1347.88
412.472	1278.88
412.695	1285.88
412.919	1243.88
413.142	1284.88
413.365	1300.88
413.589	1316.88
413.812	1379.88
414.035	1426.88
414.258	1288.88
414.482	1269.88
414.705	1303.88
414.928	1300.88
415.151	1290.88
415.374	1300.88
415.597	1326.88
415.821	1365.88
416.044	1332.88
416.267	1320.88
416.49	1252.88
416.713	1248.88
416.936	1326.88
417.159	1393.88
417.382	1348.88
417.605	1292.88
417.828	1312.88
418.051	1328.88
418.274	1312.88
418.497	1264.88
418.72	1279.88
418.943	1233.88
419.166	1330.88
419.389	1371.88
419.611	1305.88
419.834	1300.88
420.057	1342.88
420.28	1270.88
420.503	1301.88
420.726	1333.88
420.948	1282.88
421.171	1258.88
421.394	1290.88
421.617	1299.88
421.839	1309.88
422.062	1302.88
422.285	1284.88
422.507	1266.88
422.73	1221.88
422.953	1224.88
423.175	1182.88
423.398	1238.88
423.621	1251.88
423.843	1255.88
424.066	1289.88
424.288	1387.88
424.511	1399.88
424.733	1346.88
424.956	1252.88
425.178	1228.88
425.401	1236.88
425.623	1272.88
425.846	1245.88
426.068	1317.88
426.291	1336.88
426.513	1302.88
426.735	1304.88
426.958	1419.88
427.18	1469.88
427.402	1337.88
427.625	1407.88
427.847	1381.88
428.069	1248.88
428.292	1229.88
428.514	1245.88
428.736	1207.88
428.958	1243.88
429.181	1254.88
429.403	1449.88
429.625	1787.88
429.847	1488.88
430.069	1306.88
430.292	1462.88
430.514	1410.88
430.736	1341.88
430.958	1382.88
431.18	1266.88
431.402	1203.88
431.624	1191.88
431.846	1179.88
432.068	1145.88
432.29	1181.88
432.512	1173.88
432.734	1249.88
432.956	1269.88
433.178	1331.88
433.4	1274.88
433.622	1293.88
433.844	1248.88
434.066	1208.88
434.287	1195.88
434.509	1204.88
434.731	1291.88
434.953	1336.88
435.175	1307.88
435.397	1286.88
435.618	1225.88
435.84	1213.88
436.062	1228.88
436.284	1250.88
436.505	1290.88
436.727	1310.88
436.949	1240.88
437.17	1223.88
437.392	1207.88
437.614	1209.88
437.835	1163.88
438.057	1205.88
438.278	1266.88
438.5	1203.88
438.721	1207.88
438.943	1246.88
439.165	1200.88
439.386	1198.88
439.608	1237.88
439.829	1213.88
440.05	1225.88
440.272	1219.88
440.493	1196.88
440.715	1269.88
440.936	1345.88
441.158	1421.88
441.379	1381.88
441.6	1352.88
441.822	1357.88
442.043	1308.88
442.264	1334.88
442.486	1248.88
442.707	1247.88
442.928	1278.88
443.149	1265.88
443.371	1370.88
443.592	1349.88
443.813	1362.88
444.034	1354.88
444.255	1362.88
444.476	1375.88
444.698	1390.88
444.919	1394.88
445.14	1499.88
445.361	1445.88
445.582	1457.88
445.803	1404.88
446.024	1381.88
446.245	1414.88
446.466	1366.88
446.687	1295.88
446.908	1317.88
447.129	1282.88
447.35	1288.88
447.571	1280.88
447.792	1212.88
448.013	1225.88
448.234	1258.88
448.455	1309.88
448.675	1274.88
448.896	1195.88
449.117	1190.88
449.338	1245.88
449.559	1260.88
449.779	1333.88
450	1388.88
450.221	1453.88
450.442	1383.88
450.662	1268.88
450.883	1165.88
451.104	1152.88
451.324	1172.88
451.545	1236.88
451.766	1188.88
451.986	1111.88
452.207	1163.88
452.428	1119.88
452.648	1078.88
452.869	1092.88
453.089	1149.88
453.31	1129.88
453.53	1154.88
453.751	1108.88
453.971	1058.88
454.192	1125.88
454.412	1138.88
454.633	1131.88
454.853	1112.88
455.073	1041.88
455.294	1031.88
455.514	1063.88
455.734	1112.88
455.955	1074.88
456.175	1071.88
456.395	1029.88
456.616	1099.88
456.836	1092.88
457.056	1067.88
457.276	1105.88
457.497	1050.88
457.717	1028.88
457.937	1025.88
458.157	1062.88
458.377	1052.88
458.598	1020.88
458.818	1060.88
459.038	1114.88
459.258	1144.88
459.478	1136.88
459.698	1088.88
459.918	1150.88
460.138	1193.88
460.358	1246.88
460.578	1208.88
460.798	1283.88
461.018	1339.88
461.238	1294.88
461.458	1257.88
461.678	1227.88
461.898	1211.88
462.118	1194.88
462.338	1261.88
462.558	1251.88
462.777	1226.88
462.997	1300.88
463.217	1381.88
463.437	1341.88
463.657	1312.88
463.876	1236.88
464.096	1234.88
464.316	1250.88
464.536	1288.88
464.755	1323.88
464.975	1300.88
465.195	1246.88
465.414	1288.88
465.634	1306.88
465.854	1271.88
466.073	1404.88
466.293	1308.88
466.512	1193.88
466.732	1157.88
466.951	1268.88
467.171	1220.88
467.391	1161.88
467.61	1166.88
467.829	1226.88
468.049	1303.88
468.268	1448.88
468.488	1310.88
468.707	1244.88
468.927	1226.88
469.146	1179.88
469.365	1226.88
469.585	1204.88
469.804	1204.88
470.023	1236.88
470.243	1229.88
470.462	1224.88
470.681	1195.88
470.901	1214.88
471.12	1225.88
471.339	1231.88
471.558	1186.88
471.777	1149.88
471.997	1203.88
472.216	1164.88
472.435	1110.88
472.654	1124.88
472.873	1140.88
473.092	1212.88
473.311	1195.88
473.53	1138.88
473.749	1130.88
473.968	1168.88
474.187	1172.88
474.406	1240.88
474.625	1205.88
474.844	1184.88
475.063	1169.88
475.282	1234.88
475.501	1194.88
475.72	1223.88
475.939	1265.88
476.158	1244.88
476.377	1200.88
476.596	1205.88
476.814	1206.88
477.033	1207.88
477.252	1266.88
477.471	1305.88
477.69	1264.88
477.908	1256.88
478.127	1338.88
478.346	1441.88
478.564	1398.88
478.783	1390.88
479.002	1433.88
479.22	1381.88
479.439	1449.88
479.658	1551.88
479.876	1517.88
480.095	1379.88
480.313	1330.88
480.532	1312.88
480.751	1273.88
480.969	1259.88
481.188	1220.88
481.406	1268.88
481.624	1221.88
481.843	1269.88
482.061	1244.88
482.28	1325.88
482.498	1324.88
482.717	1289.88
482.935	1279.88
483.153	1349.88
483.372	1372.88
483.59	1344.88
483.808	1384.88
484.027	1367.88
484.245	1451.88
484.463	1702.88
484.681	1910.88
484.9	1462.88
485.118	1337.88
485.336	1344.88
485.554	1344.88
485.772	1368.88
485.99	1393.88
486.209	1376.88
486.427	1356.88
486.645	1428.88
486.863	1411.88
487.081	1473.88
487.299	1434.88
487.517	1386.88
487.735	1454.88
487.953	1480.88
488.171	1468.88
488.389	1451.88
488.607	1429.88
488.825	1597.88
489.043	1538.88
489.261	1361.88
489.479	1443.88
489.696	1478.88
489.914	1417.88
490.132	1412.88
490.35	1451.88
490.568	1538.88
490.786	1481.88
491.003	1456.88
491.221	1549.88
491.439	1604.88
491.657	1576.88
491.874	1612.88
492.092	1657.88
492.31	1695.88
492.527	1650.88
492.745	1573.88
492.963	1564.88
493.18	1613.88
493.398	1701.88
493.615	1687.88
493.833	1558.88
494.05	1546.88
494.268	1545.88
494.485	1560.88
494.703	1560.88
494.92	1490.88
495.138	1551.88
495.355	1564.88
495.573	1617.88
495.79	1670.88
496.008	1651.88
496.225	1563.88
496.442	1576.88
496.66	1603.88
496.877	1584.88
497.094	1606.88
497.312	1627.88
497.529	1620.88
497.746	1625.88
497.963	1819.88
498.181	1981.88
498.398	1880.88
498.615	1817.88
498.832	1783.88
499.049	1740.88
499.267	1739.88
499.484	1858.88
499.701	1975.88
499.918	2029.88
500.135	2181.88
500.352	2296.88
500.569	2280.88
500.786	2502.88
501.003	2311.88
501.22	2088.88
501.437	2045.88
501.654	2075.88
501.871	1995.88
502.088	1743.88
502.305	1734.88
502.522	1656.88
502.739	1583.88
502.956	1561.88
503.172	1547.88
503.389	1522.88
503.606	1465.88
503.823	1488.88
504.04	1464.88
504.256	1471.88
504.473	1472.88
504.69	1517.88
504.907	1471.88
505.123	1411.88
505.34	1562.88
505.557	1988.88
505.773	1641.88
505.99	1368.88
506.207	1316.88
506.423	1284.88
506.64	1266.88
506.856	1297.88
507.073	1524.88
507.289	1598.88
507.506	1498.88
507.722	1302.88
507.939	1250.88
508.155	1253.88
508.372	1214.88
508.588	1234.88
508.805	1170.88
509.021	1157.88
509.238	1142.88
509.454	1166.88
509.67	1136.88
509.887	1119.88
510.103	1124.88
510.319	1143.88
510.536	1195.88
510.752	1244.88
510.968	1213.88
511.184	1247.88
511.401	1211.88
511.617	1105.88
511.833	1108.88
512.049	1116.88
512.265	1095.88
512.481	1110.88
512.698	1148.88
512.914	1172.88
513.13	1182.88
513.346	1111.88
513.562	1084.88
513.778	1095.88
513.994	1173.88
514.21	1184.88
514.426	1203.88
514.642	1304.88
514.858	1208.88
515.074	1129.88
515.29	1115.88
515.506	1145.88
515.721	1185.88
515.937	1191.88
516.153	1297.88
516.369	1234.88
516.585	1172.88
516.801	1131.88
517.016	1146.88
517.232	1170.88
517.448	1174.88
517.664	1205.88
517.879	1223.88
518.095	1235.88
518.311	1211.88
518.527	1165.88
518.742	1144.88
518.958	1124.88
519.173	1160.88
519.389	1144.88
519.605	1161.88
519.82	1125.88
520.036	1158.88
520.251	1137.88
520.467	1142.88
520.682	1212.88
520.898	1249.88
521.113	1104.88
521.329	1113.88
521.544	1175.88
521.76	1132.88
521.975	1094.88
522.19	1088.88
522.406	1099.88
522.621	1392.88
522.836	1323.88
523.052	1089.88
523.267	1100.88
523.482	1096.88
523.698	1067.88
523.913	1070.88
524.128	1088.88
524.343	1170.88
524.559	1175.88
524.774	1084.88
524.989	1074.88
525.204	1064.88
525.419	1066.88
525.634	1041.88
525.849	1047.88
526.064	1064.88
526.28	1052.88
526.495	979.88
526.71	973.88
526.925	978.88
527.14	974.88
527.355	944.88
527.57	940.88
527.785	1024.88
527.999	1018.88
528.214	971.88
528.429	980.88
528.644	1018.88
528.859	1068.88
529.074	1069.88
529.289	1085.88
529.503	1104.88
529.718	1072.88
529.933	1036.88
530.148	974.88
530.363	976.88
530.577	947.88
530.792	1003.88
531.007	965.88
531.221	978.88
531.436	989.88
531.651	995.88
531.865	1043.88
532.08	1020.88
532.295	925.88
532.509	914.88
532.724	950.88
532.938	1003.88
533.153	1068.88
533.367	1037.88
533.582	1038.88
533.796	998.88
534.011	1014.88
534.225	990.88
534.44	954.88
534.654	954.88
534.868	973.88
535.083	1027.88
535.297	982.88
535.511	956.88
535.726	996.88
535.94	970.88
536.154	958.88
536.369	961.88
536.583	946.88
536.797	948.88
537.011	965.88
537.225	948.88
537.44	938.88
537.654	925.88
537.868	909.88
538.082	911.88
538.296	912.88
538.51	932.88
538.724	929.88
538.938	948.88
539.153	975.88
539.367	995.88
539.581	949.88
539.795	1002.88
540.009	934.88
540.222	939.88
540.436	964.88
540.65	1043.88
540.864	1082.88
541.078	1047.88
541.292	1017.88
541.506	1039.88
541.72	1100.88
541.934	1142.88
542.147	1164.88
542.361	1116.88
542.575	1040.88
542.789	1016.88
543.002	935.88
543.216	961.88
543.43	996.88
543.644	1049.88
543.857	1082.88
544.071	1069.88
544.285	1084.88
544.498	1105.88
544.712	1078.88
544.925	1093.88
545.139	1130.88
545.352	1101.88
545.566	1011.88
545.779	1060.88
545.993	1065.88
546.206	1124.88
546.42	1056.88
546.633	1038.88
546.847	1035.88
547.06	1057.88
547.274	1054.88
547.487	1084.88
547.7	1088.88
547.914	1080.88
548.127	1063.88
548.34	1102.88
548.554	1060.88
548.767	1076.88
548.98	1041.88
549.193	1064.88
549.407	1104.88
549.62	1110.88
549.833	1048.88
550.046	1005.88
550.259	1033.88
550.473	1022.88
550.686	1006.88
550.899	1024.88
551.112	979.88
551.325	952.88
551.538	1044.88
551.751	1149.88
551.964	936.88
552.177	928.88
552.39	937.88
552.603	1001.88
552.816	1014.88
553.029	1092.88
553.242	1084.88
553.455	1056.88
553.667	1030.88
553.88	1054.88
554.093	1020.88
554.306	981.88
554.519	952.88
554.732	932.88
554.944	948.88
555.157	964.88
555.37	951.88
555.583	957.88
555.795	909.88
556.008	885.88
556.221	853.88
556.433	891.88
556.646	924.88
556.859	861.88
557.071	885.88
557.284	866.88
557.496	882.88
557.709	855.88
557.921	875.88
558.134	880.88
558.346	848.88
558.559	843.88
558.771	848.88
558.984	824.88
559.196	802.88
559.409	803.88
559.621	791.88
559.833	793.88
560.046	834.88
560.258	804.88
560.47	805.88
560.683	807.88
560.895	829.88
561.107	816.88
561.32	845.88
561.532	821.88
561.744	805.88
561.956	822.88
562.168	807.88
562.381	782.88
562.593	758.88
562.805	797.88
563.017	792.88
563.229	794.88
563.441	802.88
563.653	787.88
563.865	797.88
564.077	773.88
564.289	761.88
564.501	773.88
564.713	796.88
564.925	818.88
565.137	841.88
565.349	800.88
565.561	779.88
565.773	806.88
565.985	835.88
566.197	882.88
566.408	897.88
566.62	905.88
566.832	892.88
567.044	891.88
567.255	885.88
567.467	926.88
567.679	917.88
567.891	917.88
568.102	867.88
568.314	838.88
568.526	794.88
568.737	772.88
568.949	749.88
569.161	719.88
569.372	693.88
569.584	678.88
569.795	672.88
570.007	686.88
570.218	664.88
570.43	639.88
570.641	636.88
570.853	671.88
571.064	642.88
571.276	655.88
571.487	636.88
571.698	626.88
571.91	618.88
572.121	624.88
572.333	584.88
572.544	591.88
572.755	573.88
572.966	580.88
573.178	558.88
573.389	603.88
573.6	584.88
573.811	669.88
574.023	584.88
574.234	550.88
574.445	566.88
574.656	554.88
574.867	560.88
575.078	566.88
575.289	552.88
575.501	562.88
575.712	544.88
575.923	539.88
576.134	557.88
576.345	534.88
576.556	539.88
576.767	528.88
576.978	513.88
577.188	523.88
577.399	540.88
577.61	501.88
577.821	503.88
578.032	522.88
578.243	518.88
578.454	521.88
578.665	500.88
578.875	486.88
579.086	497.88
579.297	507.88
579.508	520.88
579.718	499.88
579.929	516.88
580.14	501.88
580.35	488.88
580.561	513.88
580.772	538.88
580.982	506.88
581.193	481.88
581.403	472.88
581.614	483.88
581.825	481.88
582.035	488.88
582.246	453.88
582.456	494.88
582.667	521.88
582.877	473.88
583.087	489.88
583.298	469.88
583.508	468.88
583.719	461.88
583.929	455.88
584.139	459.88
584.35	454.88
584.56	451.88
584.77	477.88
584.981	454.88
585.191	484.88
585.401	469.88
585.611	455.88
585.821	460.88
586.032	453.88
586.242	462.88
586.452	445.88
586.662	445.88
586.872	452.88
587.082	430.88
587.292	449.88
587.502	446.88
587.713	450.88
587.923	444.88
588.133	448.88
588.343	460.88
588.553	429.88
588.762	443.88
588.972	449.88
589.182	436.88
589.392	435.88
589.602	422.88
589.812	448.88
590.022	437.88
590.232	439.88
590.441	434.88
590.651	434.88
590.861	446.88
591.071	411.88
591.281	419.88
591.49	441.88
591.7	460.88
591.91	436.88
592.119	441.88
592.329	445.88
592.539	472.88
592.748	461.88
592.958	462.88
593.167	456.88
593.377	467.88
593.587	459.88
593.796	451.88
594.006	476.88
594.215	477.88
594.424	453.88
594.634	447.88
594.843	465.88
595.053	465.88
595.262	435.88
595.472	446.88
595.681	434.88
595.89	440.88
596.1	417.88
596.309	419.88
596.518	402.88
596.727	460.88
596.937	421.88
597.146	430.88
597.355	422.88
597.564	425.88
597.774	401.88
597.983	411.88
598.192	381.88
598.401	381.88
598.61	393.88
598.819	390.88
599.028	404.88
599.237	391.88
599.446	393.88
599.655	405.88
599.864	388.88
600.073	383.88
600.282	398.88
600.491	390.88
600.7	389.88
600.909	376.88
601.118	404.88
601.327	409.88
601.536	406.88
601.745	398.88
601.953	410.88
602.162	410.88
602.371	416.88
602.58	414.88
602.789	399.88
602.997	400.88
603.206	403.88
603.415	418.88
603.623	396.88
603.832	405.88
604.041	386.88
604.249	390.88
604.458	371.88
604.666	386.88
604.875	380.88
605.084	377.88
605.292	393.88
605.501	396.88
605.709	407.88
605.918	396.88
606.126	409.88
606.334	413.88
606.543	413.88
606.751	385.88
606.96	420.88
607.168	400.88
607.376	400.88
607.585	389.88
607.793	403.88
608.001	396.88
608.21	393.88
608.418	402.88
608.626	414.88
608.834	389.88
609.043	396.88
609.251	386.88
609.459	394.88
609.667	396.88
609.875	394.88
610.083	419.88
610.291	413.88
610.499	402.88
610.707	383.88
610.916	396.88
611.124	395.88
611.332	398.88
611.54	409.88
611.748	410.88
611.955	387.88
612.163	377.88
612.371	379.88
612.579	398.88
612.787	384.88
612.995	378.88
613.203	393.88
613.411	382.88
613.618	373.88
613.826	374.88
614.034	394.88
614.242	380.88
614.449	378.88
614.657	393.88
614.865	395.88
615.072	387.88
615.28	378.88
615.488	378.88
615.695	420.88
615.903	406.88
616.111	391.88
616.318	385.88
616.526	389.88
616.733	381.88
616.941	366.88
617.148	378.88
617.356	373.88
617.563	372.88
617.771	366.88
617.978	365.88
618.185	378.88
618.393	372.88
618.6	393.88
618.807	383.88
619.015	381.88
619.222	353.88
619.429	373.88
619.637	349.88
619.844	326.88
620.051	349.88
620.258	356.88
620.466	348.88
620.673	350.88
620.88	341.88
621.087	343.88
621.294	344.88
621.501	331.88
621.708	331.88
621.915	343.88
622.122	376.88
622.329	365.88
622.536	353.88
622.743	334.88
622.95	338.88
623.157	345.88
623.364	354.88
623.571	346.88
623.778	346.88
623.985	353.88
624.192	353.88
624.399	327.88
624.606	325.88
624.812	344.88
625.019	323.88
625.226	317.88
625.433	329.88
625.639	323.88
625.846	323.88
626.053	296.88
626.259	289.88
626.466	293.88
626.673	288.88
626.879	293.88
627.086	287.88
627.293	288.88
627.499	307.88
627.706	328.88
627.912	318.88
628.119	333.88
628.325	321.88
628.532	323.88
628.738	317.88
628.945	316.88
629.151	307.88
629.357	321.88
629.564	285.88
629.77	308.88
629.976	301.88
630.183	283.88
630.389	271.88
630.595	314.88
630.802	315.88
631.008	296.88
631.214	302.88
631.42	306.88
631.627	289.88
631.833	293.88
632.039	294.88
632.245	280.88
632.451	283.88
632.657	284.88
632.863	284.88
633.069	299.88
633.275	270.88
633.481	282.88
633.688	269.88
633.893	281.88
634.099	284.88
634.305	284.88
634.511	276.88
634.717	265.88
634.923	251.88
635.129	259.88
635.335	274.88
635.541	277.88
635.747	292.88
635.952	275.88
636.158	278.88
636.364	285.88
636.57	290.88
636.775	290.88
636.981	277.88
637.187	282.88
637.392	268.88
637.598	267.88
637.804	266.88
638.009	280.88
638.215	278.88
638.421	278.88
638.626	269.88
638.832	295.88
639.037	260.88
639.243	261.88
639.448	271.88
639.654	276.88
639.859	279.88
640.065	241.88
640.27	282.88
640.475	264.88
640.681	260.88
640.886	249.88
641.091	267.88
641.297	266.88
641.502	279.88
641.707	261.88
641.913	273.88
642.118	260.88
642.323	268.88
642.528	251.88
642.733	273.88
642.939	286.88
643.144	249.88
643.349	267.88
643.554	274.88
643.759	248.88
643.964	262.88
644.169	253.88
644.374	258.88
644.579	250.88
644.784	235.88
644.989	272.88
645.194	258.88
645.399	241.88
645.604	257.88
645.809	249.88
646.014	273.88
646.219	269.88
646.423	254.88
646.628	255.88
646.833	263.88
647.038	264.88
647.243	266.88
647.447	266.88
647.652	241.88
647.857	253.88
648.062	253.88
648.266	247.88
648.471	249.88
648.676	264.88
648.88	246.88
649.085	240.88
649.289	263.88
649.494	246.88
649.698	248.88
649.903	250.88
650.107	241.88
650.312	244.88
650.516	235.88
650.721	276.88
650.925	258.88
651.13	247.88
651.334	221.88
651.539	229.88
651.743	249.88
651.947	232.88
652.152	244.88
652.356	241.88
652.56	229.88
652.764	223.88
652.969	222.88
653.173	235.88
653.377	220.88
653.581	215.88
653.785	216.88
653.99	239.88
654.194	224.88
654.398	228.88
654.602	228.88
654.806	213.88
655.01	234.88
655.214	217.88
655.418	213.88
655.622	227.88
655.826	213.88
656.03	233.88
656.234	252.88
656.438	252.88
656.642	246.88
656.846	235.88
657.049	230.88
657.253	204.88
657.457	224.88
657.661	188.88
657.865	182.88
658.068	173.88
658.272	164.88
658.476	159.88
658.68	160.88
658.883	145.88
659.087	146.88
659.291	158.88
659.494	139.88
659.698	141.88
659.901	141.88
660.105	113.88
660.309	137.88
660.512	127.88
660.716	118.88
660.919	106.88
661.123	108.88
661.326	117.88
661.53	122.88
661.733	106.88
661.936	116.88
662.14	99.88
662.343	104.88
662.546	100.88
662.75	90.88
662.953	93.88
663.156	84.88
663.36	105.88
663.563	97.88
663.766	94.88
663.969	107.88
664.173	93.88
664.376	82.88
664.579	76.88
664.782	87.88
664.985	92.88
665.188	82.88
665.391	86.88
665.594	91.88
665.797	89.88
666	95.88
666.203	89.88
666.406	81.88
666.609	96.88
666.812	89.88
667.015	97.88
667.218	74.88
667.421	73.88
667.624	80.88
667.827	85.88
668.03	81.88
668.232	78.88
668.435	83.88
668.638	91.88
668.841	83.88
669.043	72.88
669.246	89.88
669.449	85.88
669.651	78.88
669.854	70.88
670.057	82.88
670.259	86.88
670.462	82.88
670.665	94.88
670.867	83.88
671.07	90.88
671.272	83.88
671.475	97.88
671.677	85.88
671.88	88.88
672.082	75.88
672.284	84.88
672.487	88.88
672.689	75.88
672.892	79.88
