Data from WStandard_LampEnergy8_LIBS07252019.E.O._I.C._HRD10591_16-00-52-930.txt Node
Date: Thu Jul 25 16:00:52 EDT 2019
User: cochatt
Spectrometer: HR+D1059
Trigger mode: 1
Integration Time (sec): 1.000000E-1
Scans to average: 1
Electric dark correction enabled: true
Nonlinearity correction enabled: false
Boxcar width: 0
XAxis mode: Wavelengths
Number of Pixels in Spectrum: 2048
>>>>>Begin Spectral Data<<<<<
223.165	-38.44
223.4	-38.44
223.635	-38.44
223.869	-10.44
224.104	-19.44
224.338	-15.44
224.573	-15.44
224.808	-14.44
225.042	-12.44
225.277	3.56
225.511	3.56
225.746	3.56
225.98	-2.44
226.215	9.56
226.449	14.56
226.683	42.56
226.918	31.56
227.152	19.56
227.387	24.56
227.621	27.56
227.856	36.56
228.09	48.56
228.324	42.56
228.559	50.56
228.793	94.56
229.027	199.56
229.262	211.56
229.496	194.56
229.73	217.56
229.964	215.56
230.199	257.56
230.433	257.56
230.667	259.56
230.901	281.56
231.136	242.56
231.37	261.56
231.604	235.56
231.838	246.56
232.072	267.56
232.306	245.56
232.541	252.56
232.775	282.56
233.009	311.56
233.243	310.56
233.477	293.56
233.711	271.56
233.945	292.56
234.179	289.56
234.413	316.56
234.647	329.56
234.881	318.56
235.115	277.56
235.349	280.56
235.583	280.56
235.817	273.56
236.051	290.56
236.285	305.56
236.519	314.56
236.753	336.56
236.987	349.56
237.221	342.56
237.455	363.56
237.689	361.56
237.922	350.56
238.156	335.56
238.39	352.56
238.624	333.56
238.858	388.56
239.091	404.56
239.325	405.56
239.559	457.56
239.793	473.56
240.027	506.56
240.26	461.56
240.494	362.56
240.728	349.56
240.961	358.56
241.195	357.56
241.429	377.56
241.662	399.56
241.896	383.56
242.13	386.56
242.363	423.56
242.597	455.56
242.83	411.56
243.064	432.56
243.298	457.56
243.531	444.56
243.765	446.56
243.998	451.56
244.232	400.56
244.465	381.56
244.699	396.56
244.932	443.56
245.166	478.56
245.399	467.56
245.633	426.56
245.866	437.56
246.099	442.56
246.333	468.56
246.566	474.56
246.8	495.56
247.033	542.56
247.266	506.56
247.5	510.56
247.733	502.56
247.966	552.56
248.2	589.56
248.433	579.56
248.666	588.56
248.899	653.56
249.133	755.56
249.366	773.56
249.599	654.56
249.832	608.56
250.066	598.56
250.299	593.56
250.532	568.56
250.765	508.56
250.998	542.56
251.231	581.56
251.465	597.56
251.698	555.56
251.931	555.56
252.164	577.56
252.397	597.56
252.63	571.56
252.863	535.56
253.096	559.56
253.329	551.56
253.562	569.56
253.795	598.56
254.028	580.56
254.261	549.56
254.494	544.56
254.727	546.56
254.96	553.56
255.193	614.56
255.426	680.56
255.659	763.56
255.892	741.56
256.124	657.56
256.357	645.56
256.59	674.56
256.823	689.56
257.056	687.56
257.289	761.56
257.521	871.56
257.754	793.56
257.987	725.56
258.22	817.56
258.452	789.56
258.685	666.56
258.918	652.56
259.151	635.56
259.383	603.56
259.616	575.56
259.849	610.56
260.081	666.56
260.314	740.56
260.547	783.56
260.779	773.56
261.012	746.56
261.244	673.56
261.477	639.56
261.71	673.56
261.942	670.56
262.175	647.56
262.407	659.56
262.64	635.56
262.872	640.56
263.105	610.56
263.337	603.56
263.57	601.56
263.802	598.56
264.035	596.56
264.267	561.56
264.499	549.56
264.732	558.56
264.964	603.56
265.197	646.56
265.429	691.56
265.661	763.56
265.894	803.56
266.126	843.56
266.358	754.56
266.591	782.56
266.823	792.56
267.055	745.56
267.287	751.56
267.52	745.56
267.752	707.56
267.984	718.56
268.216	782.56
268.448	776.56
268.681	753.56
268.913	699.56
269.145	670.56
269.377	672.56
269.609	737.56
269.841	849.56
270.073	968.56
270.306	1060.56
270.538	1071.56
270.77	893.56
271.002	790.56
271.234	763.56
271.466	784.56
271.698	897.56
271.93	1015.56
272.162	987.56
272.394	930.56
272.626	870.56
272.858	765.56
273.09	690.56
273.322	674.56
273.553	639.56
273.785	658.56
274.017	677.56
274.249	740.56
274.481	745.56
274.713	694.56
274.945	642.56
275.176	645.56
275.408	664.56
275.64	649.56
275.872	666.56
276.104	726.56
276.335	784.56
276.567	887.56
276.799	875.56
277.031	804.56
277.262	762.56
277.494	814.56
277.726	880.56
277.957	845.56
278.189	797.56
278.421	719.56
278.652	706.56
278.884	701.56
279.115	722.56
279.347	716.56
279.579	734.56
279.81	753.56
280.042	808.56
280.273	868.56
280.505	854.56
280.736	851.56
280.968	803.56
281.199	693.56
281.431	711.56
281.662	673.56
281.894	683.56
282.125	727.56
282.356	738.56
282.588	722.56
282.819	736.56
283.051	790.56
283.282	847.56
283.513	841.56
283.745	747.56
283.976	701.56
284.207	691.56
284.439	698.56
284.67	715.56
284.901	736.56
285.132	749.56
285.364	741.56
285.595	741.56
285.826	719.56
286.057	734.56
286.288	769.56
286.52	781.56
286.751	813.56
286.982	827.56
287.213	757.56
287.444	733.56
287.675	719.56
287.906	773.56
288.138	828.56
288.369	764.56
288.6	728.56
288.831	705.56
289.062	708.56
289.293	734.56
289.524	742.56
289.755	769.56
289.986	746.56
290.217	706.56
290.448	719.56
290.679	715.56
290.91	763.56
291.141	793.56
291.371	782.56
291.602	792.56
291.833	785.56
292.064	799.56
292.295	806.56
292.526	824.56
292.757	834.56
292.987	798.56
293.218	771.56
293.449	857.56
293.68	925.56
293.91	970.56
294.141	905.56
294.372	877.56
294.603	908.56
294.833	937.56
295.064	914.56
295.295	803.56
295.525	800.56
295.756	726.56
295.987	681.56
296.217	732.56
296.448	749.56
296.679	747.56
296.909	780.56
297.14	737.56
297.37	767.56
297.601	827.56
297.831	879.56
298.062	837.56
298.292	778.56
298.523	781.56
298.753	767.56
298.984	760.56
299.214	781.56
299.445	808.56
299.675	797.56
299.905	803.56
300.136	806.56
300.366	773.56
300.597	738.56
300.827	777.56
301.057	819.56
301.288	847.56
301.518	831.56
301.748	875.56
301.979	912.56
302.209	897.56
302.439	947.56
302.669	970.56
302.9	895.56
303.13	851.56
303.36	821.56
303.59	839.56
303.82	831.56
304.051	848.56
304.281	846.56
304.511	841.56
304.741	936.56
304.971	981.56
305.201	1042.56
305.431	936.56
305.661	791.56
305.891	761.56
306.121	738.56
306.352	779.56
306.582	850.56
306.812	882.56
307.042	907.56
307.272	907.56
307.502	945.56
307.731	1061.56
307.961	1055.56
308.191	970.56
308.421	872.56
308.651	797.56
308.881	814.56
309.111	827.56
309.341	777.56
309.571	783.56
309.8	803.56
310.03	813.56
310.26	789.56
310.49	793.56
310.72	833.56
310.949	874.56
311.179	858.56
311.409	851.56
311.639	808.56
311.868	835.56
312.098	819.56
312.328	828.56
312.557	833.56
312.787	819.56
313.017	830.56
313.246	854.56
313.476	822.56
313.706	875.56
313.935	857.56
314.165	851.56
314.394	892.56
314.624	953.56
314.853	990.56
315.083	1023.56
315.312	1030.56
315.542	942.56
315.771	888.56
316.001	890.56
316.23	935.56
316.46	887.56
316.689	880.56
316.919	855.56
317.148	857.56
317.377	855.56
317.607	961.56
317.836	1047.56
318.065	1039.56
318.295	990.56
318.524	956.56
318.753	923.56
318.983	935.56
319.212	910.56
319.441	887.56
319.67	871.56
319.9	917.56
320.129	969.56
320.358	989.56
320.587	1013.56
320.816	1005.56
321.046	983.56
321.275	931.56
321.504	955.56
321.733	1043.56
321.962	971.56
322.191	917.56
322.42	931.56
322.649	899.56
322.878	890.56
323.108	895.56
323.337	941.56
323.566	927.56
323.795	934.56
324.024	921.56
324.253	907.56
324.482	913.56
324.71	907.56
324.939	842.56
325.168	903.56
325.397	925.56
325.626	917.56
325.855	913.56
326.084	900.56
326.313	905.56
326.542	910.56
326.77	954.56
326.999	934.56
327.228	901.56
327.457	838.56
327.686	856.56
327.914	865.56
328.143	918.56
328.372	903.56
328.6	899.56
328.829	893.56
329.058	888.56
329.287	872.56
329.515	938.56
329.744	934.56
329.972	995.56
330.201	1014.56
330.43	986.56
330.658	942.56
330.887	957.56
331.115	937.56
331.344	990.56
331.572	970.56
331.801	937.56
332.03	941.56
332.258	946.56
332.486	953.56
332.715	967.56
332.943	1000.56
333.172	981.56
333.4	993.56
333.629	979.56
333.857	1069.56
334.085	1186.56
334.314	1303.56
334.542	1374.56
334.771	1269.56
334.999	1128.56
335.227	1061.56
335.455	1028.56
335.684	1030.56
335.912	1033.56
336.14	1059.56
336.369	999.56
336.597	970.56
336.825	971.56
337.053	1021.56
337.281	1077.56
337.51	1097.56
337.738	1155.56
337.966	1062.56
338.194	1003.56
338.422	948.56
338.65	945.56
338.878	913.56
339.106	934.56
339.334	899.56
339.562	914.56
339.79	941.56
340.018	989.56
340.246	1037.56
340.474	1023.56
340.702	992.56
340.93	1016.56
341.158	981.56
341.386	974.56
341.614	955.56
341.842	966.56
342.07	1007.56
342.298	986.56
342.526	939.56
342.754	953.56
342.981	937.56
343.209	929.56
343.437	954.56
343.665	949.56
343.893	1015.56
344.12	1018.56
344.348	1019.56
344.576	978.56
344.804	921.56
345.031	960.56
345.259	955.56
345.487	955.56
345.714	894.56
345.942	891.56
346.17	905.56
346.397	906.56
346.625	891.56
346.853	866.56
347.08	872.56
347.308	864.56
347.535	911.56
347.763	946.56
347.99	885.56
348.218	874.56
348.445	906.56
348.673	926.56
348.9	938.56
349.128	957.56
349.355	943.56
349.583	953.56
349.81	916.56
350.037	871.56
350.265	889.56
350.492	867.56
350.72	900.56
350.947	925.56
351.174	917.56
351.402	874.56
351.629	829.56
351.856	850.56
352.083	849.56
352.311	851.56
352.538	871.56
352.765	901.56
352.992	927.56
353.22	894.56
353.447	870.56
353.674	889.56
353.901	897.56
354.128	882.56
354.355	894.56
354.583	948.56
354.81	936.56
355.037	941.56
355.264	925.56
355.491	890.56
355.718	909.56
355.945	883.56
356.172	917.56
356.399	877.56
356.626	869.56
356.853	950.56
357.08	1002.56
357.307	1069.56
357.534	1043.56
357.761	921.56
357.988	869.56
358.215	891.56
358.441	897.56
358.668	827.56
358.895	889.56
359.122	949.56
359.349	1044.56
359.576	965.56
359.802	906.56
360.029	866.56
360.256	883.56
360.483	866.56
360.709	920.56
360.936	949.56
361.163	1002.56
361.39	1067.56
361.616	1129.56
361.843	1105.56
362.07	1003.56
362.296	907.56
362.523	890.56
362.749	921.56
362.976	905.56
363.203	938.56
363.429	928.56
363.656	858.56
363.882	927.56
364.109	1018.56
364.335	1064.56
364.562	989.56
364.788	931.56
365.015	890.56
365.241	895.56
365.468	904.56
365.694	950.56
365.92	979.56
366.147	927.56
366.373	892.56
366.599	905.56
366.826	863.56
367.052	890.56
367.278	921.56
367.505	915.56
367.731	953.56
367.957	936.56
368.184	961.56
368.41	1025.56
368.636	1039.56
368.862	1055.56
369.089	1027.56
369.315	979.56
369.541	955.56
369.767	922.56
369.993	936.56
370.219	903.56
370.445	943.56
370.672	997.56
370.898	1031.56
371.124	1005.56
371.35	975.56
371.576	990.56
371.802	1011.56
372.028	979.56
372.254	954.56
372.48	926.56
372.706	903.56
372.932	925.56
373.158	953.56
373.384	969.56
373.61	1013.56
373.835	1007.56
374.061	973.56
374.287	969.56
374.513	970.56
374.739	970.56
374.965	945.56
375.191	987.56
375.416	1015.56
375.642	1032.56
375.868	1055.56
376.094	1064.56
376.319	1010.56
376.545	987.56
376.771	1025.56
376.997	1053.56
377.222	1021.56
377.448	993.56
377.674	986.56
377.899	1005.56
378.125	1080.56
378.35	1040.56
378.576	919.56
378.802	925.56
379.027	938.56
379.253	966.56
379.478	962.56
379.704	990.56
379.929	962.56
380.155	971.56
380.38	1000.56
380.606	952.56
380.831	1009.56
381.057	1043.56
381.282	1045.56
381.507	1028.56
381.733	1137.56
381.958	1133.56
382.184	1017.56
382.409	979.56
382.634	1008.56
382.86	989.56
383.085	1036.56
383.31	1072.56
383.535	1168.56
383.761	1160.56
383.986	1132.56
384.211	1094.56
384.436	1091.56
384.662	1151.56
384.887	1174.56
385.112	1073.56
385.337	1099.56
385.562	1120.56
385.787	1114.56
386.013	1161.56
386.238	1153.56
386.463	1140.56
386.688	1227.56
386.913	1264.56
387.138	1235.56
387.363	1167.56
387.588	1153.56
387.813	1134.56
388.038	1209.56
388.263	1169.56
388.488	1130.56
388.713	1071.56
388.938	1062.56
389.163	1069.56
389.387	1097.56
389.612	1082.56
389.837	1101.56
390.062	1139.56
390.287	1139.56
390.512	1113.56
390.736	1077.56
390.961	1054.56
391.186	1062.56
391.411	1087.56
391.636	1108.56
391.86	1138.56
392.085	1117.56
392.31	1124.56
392.534	1128.56
392.759	1125.56
392.984	1102.56
393.208	1123.56
393.433	1134.56
393.658	1222.56
393.882	1182.56
394.107	1126.56
394.331	1127.56
394.556	1108.56
394.78	1149.56
395.005	1146.56
395.229	1231.56
395.454	1289.56
395.678	1264.56
395.903	1225.56
396.127	1186.56
396.352	1173.56
396.576	1238.56
396.801	1228.56
397.025	1197.56
397.249	1190.56
397.474	1185.56
397.698	1214.56
397.922	1240.56
398.147	1319.56
398.371	1330.56
398.595	1313.56
398.82	1252.56
399.044	1279.56
399.268	1353.56
399.492	1412.56
399.717	1447.56
399.941	1453.56
400.165	1461.56
400.389	1377.56
400.613	1417.56
400.837	1601.56
401.062	1769.56
401.286	1500.56
401.51	1418.56
401.734	1412.56
401.958	1341.56
402.182	1321.56
402.406	1213.56
402.63	1240.56
402.854	1265.56
403.078	1290.56
403.302	1297.56
403.526	1326.56
403.75	1326.56
403.974	1334.56
404.198	1313.56
404.422	1403.56
404.645	1474.56
404.869	1393.56
405.093	1303.56
405.317	1309.56
405.541	1319.56
405.765	1389.56
405.988	1313.56
406.212	1348.56
406.436	1351.56
406.66	1431.56
406.883	1473.56
407.107	1624.56
407.331	1783.56
407.555	1895.56
407.778	1649.56
408.002	1393.56
408.226	1366.56
408.449	1368.56
408.673	1344.56
408.896	1373.56
409.12	1360.56
409.344	1337.56
409.567	1341.56
409.791	1321.56
410.014	1382.56
410.238	1441.56
410.461	1501.56
410.685	1388.56
410.908	1296.56
411.132	1341.56
411.355	1296.56
411.578	1335.56
411.802	1293.56
412.025	1329.56
412.249	1299.56
412.472	1274.56
412.695	1277.56
412.919	1231.56
413.142	1268.56
413.365	1277.56
413.589	1349.56
413.812	1396.56
414.035	1401.56
414.258	1292.56
414.482	1265.56
414.705	1284.56
414.928	1263.56
415.151	1306.56
415.374	1279.56
415.597	1334.56
415.821	1347.56
416.044	1288.56
416.267	1346.56
416.49	1248.56
416.713	1230.56
416.936	1286.56
417.159	1346.56
417.382	1320.56
417.605	1289.56
417.828	1306.56
418.051	1325.56
418.274	1258.56
418.497	1253.56
418.72	1261.56
418.943	1256.56
419.166	1327.56
419.389	1321.56
419.611	1296.56
419.834	1299.56
420.057	1291.56
420.28	1271.56
420.503	1261.56
420.726	1291.56
420.948	1299.56
421.171	1252.56
421.394	1243.56
421.617	1323.56
421.839	1283.56
422.062	1297.56
422.285	1247.56
422.507	1233.56
422.73	1245.56
422.953	1205.56
423.175	1188.56
423.398	1248.56
423.621	1245.56
423.843	1295.56
424.066	1327.56
424.288	1322.56
424.511	1359.56
424.733	1301.56
424.956	1195.56
425.178	1251.56
425.401	1264.56
425.623	1263.56
425.846	1239.56
426.068	1289.56
426.291	1322.56
426.513	1321.56
426.735	1296.56
426.958	1389.56
427.18	1464.56
427.402	1331.56
427.625	1371.56
427.847	1363.56
428.069	1280.56
428.292	1238.56
428.514	1221.56
428.736	1206.56
428.958	1227.56
429.181	1255.56
429.403	1461.56
429.625	1701.56
429.847	1431.56
430.069	1306.56
430.292	1443.56
430.514	1415.56
430.736	1340.56
430.958	1364.56
431.18	1299.56
431.402	1193.56
431.624	1197.56
431.846	1169.56
432.068	1130.56
432.29	1137.56
432.512	1159.56
432.734	1234.56
432.956	1267.56
433.178	1284.56
433.4	1312.56
433.622	1270.56
433.844	1240.56
434.066	1206.56
434.287	1175.56
434.509	1147.56
434.731	1241.56
434.953	1327.56
435.175	1307.56
435.397	1261.56
435.618	1240.56
435.84	1221.56
436.062	1164.56
436.284	1248.56
436.505	1263.56
436.727	1304.56
436.949	1257.56
437.17	1217.56
437.392	1204.56
437.614	1187.56
437.835	1149.56
438.057	1226.56
438.278	1221.56
438.5	1204.56
438.721	1187.56
438.943	1219.56
439.165	1178.56
439.386	1174.56
439.608	1253.56
439.829	1229.56
440.05	1264.56
440.272	1231.56
440.493	1186.56
440.715	1259.56
440.936	1300.56
441.158	1392.56
441.379	1380.56
441.6	1354.56
441.822	1327.56
442.043	1332.56
442.264	1297.56
442.486	1224.56
442.707	1217.56
442.928	1236.56
443.149	1267.56
443.371	1317.56
443.592	1352.56
443.813	1352.56
444.034	1343.56
444.255	1341.56
444.476	1336.56
444.698	1386.56
444.919	1363.56
445.14	1453.56
445.361	1417.56
445.582	1405.56
445.803	1369.56
446.024	1354.56
446.245	1367.56
446.466	1325.56
446.687	1308.56
446.908	1305.56
447.129	1266.56
447.35	1311.56
447.571	1272.56
447.792	1221.56
448.013	1207.56
448.234	1223.56
448.455	1285.56
448.675	1288.56
448.896	1181.56
449.117	1169.56
449.338	1153.56
449.559	1239.56
449.779	1288.56
450	1400.56
450.221	1478.56
450.442	1393.56
450.662	1245.56
450.883	1175.56
451.104	1125.56
451.324	1174.56
451.545	1193.56
451.766	1161.56
451.986	1118.56
452.207	1129.56
452.428	1103.56
452.648	1056.56
452.869	1106.56
453.089	1093.56
453.31	1139.56
453.53	1100.56
453.751	1098.56
453.971	1054.56
454.192	1061.56
454.412	1147.56
454.633	1106.56
454.853	1121.56
455.073	1037.56
455.294	1034.56
455.514	1044.56
455.734	1055.56
455.955	1059.56
456.175	1032.56
456.395	1059.56
456.616	1060.56
456.836	1072.56
457.056	1073.56
457.276	1071.56
457.497	1060.56
457.717	997.56
457.937	989.56
458.157	1016.56
458.377	987.56
458.598	1019.56
458.818	1017.56
459.038	1091.56
459.258	1097.56
459.478	1109.56
459.698	1107.56
459.918	1135.56
460.138	1174.56
460.358	1207.56
460.578	1207.56
460.798	1243.56
461.018	1321.56
461.238	1259.56
461.458	1250.56
461.678	1243.56
461.898	1193.56
462.118	1183.56
462.338	1224.56
462.558	1248.56
462.777	1210.56
462.997	1276.56
463.217	1310.56
463.437	1344.56
463.657	1278.56
463.876	1229.56
464.096	1219.56
464.316	1218.56
464.536	1302.56
464.755	1281.56
464.975	1297.56
465.195	1283.56
465.414	1316.56
465.634	1270.56
465.854	1278.56
466.073	1327.56
466.293	1290.56
466.512	1171.56
466.732	1171.56
466.951	1227.56
467.171	1229.56
467.391	1172.56
467.61	1152.56
467.829	1193.56
468.049	1304.56
468.268	1388.56
468.488	1333.56
468.707	1225.56
468.927	1224.56
469.146	1215.56
469.365	1229.56
469.585	1197.56
469.804	1190.56
470.023	1211.56
470.243	1203.56
470.462	1226.56
470.681	1183.56
470.901	1210.56
471.12	1221.56
471.339	1197.56
471.558	1181.56
471.777	1187.56
471.997	1165.56
472.216	1134.56
472.435	1098.56
472.654	1095.56
472.873	1171.56
473.092	1200.56
473.311	1161.56
473.53	1102.56
473.749	1127.56
473.968	1156.56
474.187	1185.56
474.406	1209.56
474.625	1183.56
474.844	1203.56
475.063	1199.56
475.282	1179.56
475.501	1197.56
475.72	1189.56
475.939	1251.56
476.158	1230.56
476.377	1176.56
476.596	1191.56
476.814	1180.56
477.033	1193.56
477.252	1218.56
477.471	1309.56
477.69	1275.56
477.908	1229.56
478.127	1319.56
478.346	1407.56
478.564	1369.56
478.783	1414.56
479.002	1430.56
479.22	1383.56
479.439	1388.56
479.658	1555.56
479.876	1494.56
480.095	1342.56
480.313	1289.56
480.532	1274.56
480.751	1305.56
480.969	1304.56
481.188	1260.56
481.406	1242.56
481.624	1216.56
481.843	1213.56
482.061	1277.56
482.28	1318.56
482.498	1301.56
482.717	1283.56
482.935	1249.56
483.153	1303.56
483.372	1313.56
483.59	1350.56
483.808	1330.56
484.027	1335.56
484.245	1418.56
484.463	1683.56
484.681	1821.56
484.9	1408.56
485.118	1363.56
485.336	1322.56
485.554	1324.56
485.772	1337.56
485.99	1345.56
486.209	1353.56
486.427	1332.56
486.645	1392.56
486.863	1399.56
487.081	1413.56
487.299	1447.56
487.517	1437.56
487.735	1446.56
487.953	1451.56
488.171	1460.56
488.389	1445.56
488.607	1442.56
488.825	1524.56
489.043	1494.56
489.261	1405.56
489.479	1424.56
489.696	1484.56
489.914	1422.56
490.132	1413.56
490.35	1469.56
490.568	1518.56
490.786	1517.56
491.003	1469.56
491.221	1513.56
491.439	1537.56
491.657	1556.56
491.874	1615.56
492.092	1655.56
492.31	1658.56
492.527	1626.56
492.745	1593.56
492.963	1603.56
493.18	1574.56
493.398	1636.56
493.615	1659.56
493.833	1565.56
494.05	1483.56
494.268	1536.56
494.485	1524.56
494.703	1521.56
494.92	1507.56
495.138	1510.56
495.355	1479.56
495.573	1538.56
495.79	1689.56
496.008	1690.56
496.225	1540.56
496.442	1605.56
496.66	1603.56
496.877	1565.56
497.094	1610.56
497.312	1620.56
497.529	1582.56
497.746	1616.56
497.963	1825.56
498.181	1922.56
498.398	1856.56
498.615	1806.56
498.832	1768.56
499.049	1707.56
499.267	1730.56
499.484	1887.56
499.701	2008.56
499.918	2009.56
500.135	2171.56
500.352	2339.56
500.569	2314.56
500.786	2487.56
501.003	2275.56
501.22	2081.56
501.437	2008.56
501.654	2041.56
501.871	1960.56
502.088	1717.56
502.305	1732.56
502.522	1665.56
502.739	1563.56
502.956	1533.56
503.172	1496.56
503.389	1482.56
503.606	1470.56
503.823	1449.56
504.04	1461.56
504.256	1448.56
504.473	1488.56
504.69	1484.56
504.907	1420.56
505.123	1392.56
505.34	1507.56
505.557	1927.56
505.773	1579.56
505.99	1333.56
506.207	1287.56
506.423	1273.56
506.64	1270.56
506.856	1290.56
507.073	1490.56
507.289	1537.56
507.506	1442.56
507.722	1299.56
507.939	1208.56
508.155	1240.56
508.372	1211.56
508.588	1131.56
508.805	1159.56
509.021	1175.56
509.238	1155.56
509.454	1122.56
509.67	1112.56
509.887	1139.56
510.103	1115.56
510.319	1127.56
510.536	1143.56
510.752	1197.56
510.968	1193.56
511.184	1266.56
511.401	1219.56
511.617	1099.56
511.833	1087.56
512.049	1089.56
512.265	1078.56
512.481	1122.56
512.698	1133.56
512.914	1173.56
513.13	1126.56
513.346	1106.56
513.562	1091.56
513.778	1085.56
513.994	1135.56
514.21	1173.56
514.426	1205.56
514.642	1250.56
514.858	1214.56
515.074	1121.56
515.29	1073.56
515.506	1145.56
515.721	1143.56
515.937	1165.56
516.153	1274.56
516.369	1237.56
516.585	1171.56
516.801	1098.56
517.016	1136.56
517.232	1130.56
517.448	1189.56
517.664	1212.56
517.879	1187.56
518.095	1250.56
518.311	1204.56
518.527	1171.56
518.742	1102.56
518.958	1102.56
519.173	1121.56
519.389	1133.56
519.605	1161.56
519.82	1169.56
520.036	1151.56
520.251	1114.56
520.467	1167.56
520.682	1226.56
520.898	1245.56
521.113	1081.56
521.329	1094.56
521.544	1173.56
521.76	1116.56
521.975	1097.56
522.19	1072.56
522.406	1088.56
522.621	1319.56
522.836	1292.56
523.052	1060.56
523.267	1086.56
523.482	1097.56
523.698	1058.56
523.913	1045.56
524.128	1057.56
524.343	1141.56
524.559	1114.56
524.774	1061.56
524.989	1066.56
525.204	1052.56
525.419	1015.56
525.634	1048.56
525.849	1039.56
526.064	1025.56
526.28	1042.56
526.495	987.56
526.71	986.56
526.925	988.56
527.14	943.56
527.355	956.56
527.57	980.56
527.785	1002.56
527.999	963.56
528.214	984.56
528.429	962.56
528.644	996.56
528.859	1033.56
529.074	1079.56
529.289	1092.56
529.503	1093.56
529.718	1060.56
529.933	1025.56
530.148	957.56
530.363	962.56
530.577	977.56
530.792	965.56
531.007	958.56
531.221	959.56
531.436	963.56
531.651	1030.56
531.865	1046.56
532.08	994.56
532.295	954.56
532.509	926.56
532.724	966.56
532.938	973.56
533.153	1039.56
533.367	1006.56
533.582	998.56
533.796	1002.56
534.011	1010.56
534.225	1000.56
534.44	941.56
534.654	975.56
534.868	966.56
535.083	993.56
535.297	995.56
535.511	977.56
535.726	981.56
535.94	970.56
536.154	927.56
536.369	909.56
536.583	923.56
536.797	902.56
537.011	951.56
537.225	918.56
537.44	926.56
537.654	939.56
537.868	918.56
538.082	879.56
538.296	880.56
538.51	904.56
538.724	921.56
538.938	948.56
539.153	968.56
539.367	973.56
539.581	966.56
539.795	987.56
540.009	975.56
540.222	906.56
540.436	943.56
540.65	1041.56
540.864	1058.56
541.078	1030.56
541.292	1026.56
541.506	1042.56
541.72	1084.56
541.934	1122.56
542.147	1143.56
542.361	1102.56
542.575	1051.56
542.789	1004.56
543.002	969.56
543.216	956.56
543.43	993.56
543.644	1046.56
543.857	1097.56
544.071	1118.56
544.285	1105.56
544.498	1090.56
544.712	1085.56
544.925	1067.56
545.139	1101.56
545.352	1062.56
545.566	1059.56
545.779	1057.56
545.993	1086.56
546.206	1089.56
546.42	1053.56
546.633	1051.56
546.847	1038.56
547.06	1038.56
547.274	1057.56
547.487	1072.56
547.7	1083.56
547.914	1061.56
548.127	1047.56
548.34	1057.56
548.554	1039.56
548.767	1056.56
548.98	1046.56
549.193	1045.56
549.407	1086.56
549.62	1101.56
549.833	1047.56
550.046	1050.56
550.259	991.56
550.473	1031.56
550.686	1023.56
550.899	984.56
551.112	946.56
551.325	955.56
551.538	1000.56
551.751	1105.56
551.964	886.56
552.177	928.56
552.39	951.56
552.603	959.56
552.816	987.56
553.029	1030.56
553.242	1075.56
553.455	1042.56
553.667	1028.56
553.88	1009.56
554.093	1012.56
554.306	965.56
554.519	967.56
554.732	929.56
554.944	978.56
555.157	962.56
555.37	929.56
555.583	934.56
555.795	882.56
556.008	874.56
556.221	858.56
556.433	882.56
556.646	890.56
556.859	847.56
557.071	886.56
557.284	869.56
557.496	863.56
557.709	870.56
557.921	811.56
558.134	846.56
558.346	853.56
558.559	863.56
558.771	838.56
558.984	791.56
559.196	789.56
559.409	798.56
559.621	818.56
559.833	803.56
560.046	831.56
560.258	806.56
560.47	797.56
560.683	820.56
560.895	819.56
561.107	808.56
561.32	806.56
561.532	848.56
561.744	797.56
561.956	815.56
562.168	809.56
562.381	741.56
562.593	740.56
562.805	788.56
563.017	759.56
563.229	780.56
563.441	795.56
563.653	769.56
563.865	774.56
564.077	768.56
564.289	763.56
564.501	769.56
564.713	781.56
564.925	787.56
565.137	837.56
565.349	806.56
565.561	806.56
565.773	793.56
565.985	799.56
566.197	830.56
566.408	874.56
566.62	880.56
566.832	901.56
567.044	865.56
567.255	863.56
567.467	872.56
567.679	900.56
567.891	929.56
568.102	897.56
568.314	829.56
568.526	773.56
568.737	738.56
568.949	745.56
569.161	706.56
569.372	671.56
569.584	688.56
569.795	681.56
570.007	658.56
570.218	625.56
570.43	645.56
570.641	619.56
570.853	643.56
571.064	670.56
571.276	644.56
571.487	655.56
571.698	635.56
571.91	635.56
572.121	644.56
572.333	618.56
572.544	605.56
572.755	569.56
572.966	598.56
573.178	554.56
573.389	594.56
573.6	606.56
573.811	627.56
574.023	567.56
574.234	585.56
574.445	560.56
574.656	551.56
574.867	563.56
575.078	569.56
575.289	548.56
575.501	548.56
575.712	549.56
575.923	542.56
576.134	546.56
576.345	560.56
576.556	527.56
576.767	541.56
576.978	528.56
577.188	529.56
577.399	511.56
577.61	538.56
577.821	506.56
578.032	528.56
578.243	523.56
578.454	518.56
578.665	503.56
578.875	482.56
579.086	484.56
579.297	495.56
579.508	493.56
579.718	499.56
579.929	473.56
580.14	490.56
580.35	484.56
580.561	502.56
580.772	534.56
580.982	519.56
581.193	477.56
581.403	515.56
581.614	489.56
581.825	462.56
582.035	475.56
582.246	459.56
582.456	498.56
582.667	485.56
582.877	474.56
583.087	450.56
583.298	453.56
583.508	465.56
583.719	469.56
583.929	482.56
584.139	467.56
584.35	445.56
584.56	457.56
584.77	471.56
584.981	470.56
585.191	478.56
585.401	466.56
585.611	442.56
585.821	461.56
586.032	458.56
586.242	453.56
586.452	432.56
586.662	451.56
586.872	429.56
587.082	426.56
587.292	454.56
587.502	442.56
587.713	462.56
587.923	446.56
588.133	445.56
588.343	447.56
588.553	438.56
588.762	446.56
588.972	445.56
589.182	448.56
589.392	437.56
589.602	456.56
589.812	440.56
590.022	425.56
590.232	443.56
590.441	459.56
590.651	449.56
590.861	426.56
591.071	421.56
591.281	437.56
591.49	438.56
591.7	432.56
591.91	440.56
592.119	444.56
592.329	466.56
592.539	457.56
592.748	433.56
592.958	454.56
593.167	447.56
593.377	459.56
593.587	456.56
593.796	444.56
594.006	466.56
594.215	456.56
594.424	438.56
594.634	459.56
594.843	459.56
595.053	478.56
595.262	449.56
595.472	438.56
595.681	419.56
595.89	429.56
596.1	431.56
596.309	423.56
596.518	438.56
596.727	427.56
596.937	422.56
597.146	415.56
597.355	406.56
597.564	402.56
597.774	387.56
597.983	382.56
598.192	403.56
598.401	402.56
598.61	395.56
598.819	390.56
599.028	388.56
599.237	374.56
599.446	394.56
599.655	399.56
599.864	379.56
600.073	375.56
600.282	358.56
600.491	374.56
600.7	370.56
600.909	378.56
601.118	395.56
601.327	396.56
601.536	417.56
601.745	411.56
601.953	395.56
602.162	386.56
602.371	416.56
602.58	418.56
602.789	383.56
602.997	400.56
603.206	395.56
603.415	400.56
603.623	399.56
603.832	411.56
604.041	363.56
604.249	380.56
604.458	385.56
604.666	385.56
604.875	376.56
605.084	395.56
605.292	403.56
605.501	404.56
605.709	406.56
605.918	395.56
606.126	391.56
606.334	391.56
606.543	393.56
606.751	385.56
606.96	417.56
607.168	405.56
607.376	383.56
607.585	380.56
607.793	380.56
608.001	399.56
608.21	394.56
608.418	379.56
608.626	398.56
608.834	374.56
609.043	400.56
609.251	416.56
609.459	375.56
609.667	396.56
609.875	391.56
610.083	423.56
610.291	405.56
610.499	406.56
610.707	395.56
610.916	396.56
611.124	404.56
611.332	402.56
611.54	376.56
611.748	383.56
611.955	389.56
612.163	380.56
612.371	374.56
612.579	376.56
612.787	377.56
612.995	408.56
613.203	407.56
613.411	378.56
613.618	382.56
613.826	393.56
614.034	386.56
614.242	376.56
614.449	374.56
614.657	397.56
614.865	386.56
615.072	376.56
615.28	394.56
615.488	385.56
615.695	407.56
615.903	391.56
616.111	373.56
616.318	392.56
616.526	407.56
616.733	371.56
616.941	379.56
617.148	409.56
617.356	381.56
617.563	373.56
617.771	389.56
617.978	375.56
618.185	367.56
618.393	374.56
618.6	368.56
618.807	375.56
619.015	377.56
619.222	359.56
619.429	377.56
619.637	367.56
619.844	342.56
620.051	325.56
620.258	356.56
620.466	347.56
620.673	362.56
620.88	344.56
621.087	322.56
621.294	324.56
621.501	333.56
621.708	329.56
621.915	336.56
622.122	361.56
622.329	347.56
622.536	336.56
622.743	344.56
622.95	351.56
623.157	329.56
623.364	369.56
623.571	354.56
623.778	341.56
623.985	331.56
624.192	353.56
624.399	330.56
624.606	339.56
624.812	336.56
625.019	334.56
625.226	313.56
625.433	312.56
625.639	318.56
625.846	303.56
626.053	291.56
626.259	293.56
626.466	288.56
626.673	276.56
626.879	272.56
627.086	286.56
627.293	295.56
627.499	309.56
627.706	312.56
627.912	306.56
628.119	334.56
628.325	297.56
628.532	315.56
628.738	320.56
628.945	302.56
629.151	310.56
629.357	301.56
629.564	307.56
629.77	294.56
629.976	283.56
630.183	293.56
630.389	309.56
630.595	319.56
630.802	298.56
631.008	311.56
631.214	307.56
631.42	307.56
631.627	268.56
631.833	275.56
632.039	289.56
632.245	288.56
632.451	276.56
632.657	296.56
632.863	284.56
633.069	286.56
633.275	298.56
633.481	270.56
633.688	281.56
633.893	280.56
634.099	281.56
634.305	269.56
634.511	269.56
634.717	264.56
634.923	265.56
635.129	253.56
635.335	262.56
635.541	253.56
635.747	266.56
635.952	277.56
636.158	269.56
636.364	294.56
636.57	277.56
636.775	274.56
636.981	278.56
637.187	270.56
637.392	273.56
637.598	281.56
637.804	272.56
638.009	278.56
638.215	272.56
638.421	269.56
638.626	257.56
638.832	266.56
639.037	265.56
639.243	270.56
639.448	264.56
639.654	253.56
639.859	260.56
640.065	247.56
640.27	267.56
640.475	272.56
640.681	265.56
640.886	272.56
641.091	259.56
641.297	267.56
641.502	274.56
641.707	268.56
641.913	267.56
642.118	269.56
642.323	264.56
642.528	258.56
642.733	267.56
642.939	260.56
643.144	229.56
643.349	266.56
643.554	269.56
643.759	271.56
643.964	254.56
644.169	261.56
644.374	242.56
644.579	256.56
644.784	259.56
644.989	270.56
645.194	247.56
645.399	244.56
645.604	249.56
645.809	262.56
646.014	275.56
646.219	238.56
646.423	261.56
646.628	256.56
646.833	256.56
647.038	253.56
647.243	249.56
647.447	243.56
647.652	270.56
647.857	266.56
648.062	263.56
648.266	250.56
648.471	259.56
648.676	258.56
648.88	247.56
649.085	267.56
649.289	257.56
649.494	231.56
649.698	253.56
649.903	231.56
650.107	251.56
650.312	239.56
650.516	221.56
650.721	229.56
650.925	240.56
651.13	245.56
651.334	226.56
651.539	243.56
651.743	232.56
651.947	233.56
652.152	216.56
652.356	235.56
652.56	212.56
652.764	205.56
652.969	214.56
653.173	225.56
653.377	214.56
653.581	219.56
653.785	206.56
653.99	221.56
654.194	229.56
654.398	217.56
654.602	219.56
654.806	206.56
655.01	223.56
655.214	202.56
655.418	211.56
655.622	214.56
655.826	206.56
656.03	226.56
656.234	247.56
656.438	230.56
656.642	246.56
656.846	258.56
657.049	225.56
657.253	202.56
657.457	198.56
657.661	194.56
657.865	192.56
658.068	171.56
658.272	179.56
658.476	169.56
658.68	167.56
658.883	132.56
659.087	150.56
659.291	139.56
659.494	139.56
659.698	140.56
659.901	131.56
660.105	134.56
660.309	127.56
660.512	128.56
660.716	125.56
660.919	116.56
661.123	120.56
661.326	91.56
661.53	99.56
661.733	107.56
661.936	109.56
662.14	96.56
662.343	110.56
662.546	100.56
662.75	90.56
662.953	103.56
663.156	96.56
663.36	99.56
663.563	91.56
663.766	83.56
663.969	103.56
664.173	77.56
664.376	101.56
664.579	80.56
664.782	79.56
664.985	85.56
665.188	73.56
665.391	88.56
665.594	82.56
665.797	81.56
666	86.56
666.203	86.56
666.406	79.56
666.609	97.56
666.812	76.56
667.015	86.56
667.218	88.56
667.421	75.56
667.624	75.56
667.827	90.56
668.03	77.56
668.232	89.56
668.435	71.56
668.638	70.56
668.841	86.56
669.043	87.56
669.246	81.56
669.449	81.56
669.651	63.56
669.854	74.56
670.057	80.56
670.259	81.56
670.462	66.56
670.665	67.56
670.867	81.56
671.07	89.56
671.272	77.56
671.475	86.56
671.677	81.56
671.88	79.56
672.082	73.56
672.284	79.56
672.487	72.56
672.689	73.56
672.892	84.56
