Data from WStandard_LampEnergy5.5LIBS07252019.E.O._I.C._HRD10591_16-08-17-920.txt Node
Date: Thu Jul 25 16:08:17 EDT 2019
User: cochatt
Spectrometer: HR+D1059
Trigger mode: 1
Integration Time (sec): 1.000000E-1
Scans to average: 1
Electric dark correction enabled: true
Nonlinearity correction enabled: false
Boxcar width: 0
XAxis mode: Wavelengths
Number of Pixels in Spectrum: 2048
>>>>>Begin Spectral Data<<<<<
223.165	-20.31
223.4	-20.31
223.635	-20.31
223.869	-13.31
224.104	-24.31
224.338	-18.31
224.573	-21.31
224.808	-10.31
225.042	-21.31
225.277	5.69
225.511	-0.31
225.746	1.69
225.98	8.69
226.215	12.69
226.449	11.69
226.683	37.69
226.918	31.69
227.152	19.69
227.387	38.69
227.621	34.69
227.856	26.69
228.09	49.69
228.324	37.69
228.559	48.69
228.793	129.69
229.027	353.69
229.262	364.69
229.496	380.69
229.73	380.69
229.964	424.69
230.199	433.69
230.433	424.69
230.667	470.69
230.901	535.69
231.136	459.69
231.37	457.69
231.604	429.69
231.838	464.69
232.072	455.69
232.306	433.69
232.541	466.69
232.775	540.69
233.009	592.69
233.243	565.69
233.477	513.69
233.711	536.69
233.945	533.69
234.179	549.69
234.413	574.69
234.647	607.69
234.881	575.69
235.115	555.69
235.349	537.69
235.583	534.69
235.817	542.69
236.051	535.69
236.285	538.69
236.519	594.69
236.753	660.69
236.987	666.69
237.221	677.69
237.455	725.69
237.689	689.69
237.922	645.69
238.156	626.69
238.39	649.69
238.624	678.69
238.858	700.69
239.091	723.69
239.325	767.69
239.559	893.69
239.793	933.69
240.027	1043.69
240.26	991.69
240.494	728.69
240.728	710.69
240.961	704.69
241.195	706.69
241.429	792.69
241.662	821.69
241.896	743.69
242.13	718.69
242.363	811.69
242.597	885.69
242.83	869.69
243.064	874.69
243.298	904.69
243.531	925.69
243.765	897.69
243.998	916.69
244.232	785.69
244.465	767.69
244.699	774.69
244.932	854.69
245.166	990.69
245.399	958.69
245.633	882.69
245.866	873.69
246.099	933.69
246.333	894.69
246.566	940.69
246.8	1013.69
247.033	1115.69
247.266	1054.69
247.5	1027.69
247.733	993.69
247.966	1073.69
248.2	1179.69
248.433	1157.69
248.666	1193.69
248.899	1293.69
249.133	1479.69
249.366	1675.69
249.599	1396.69
249.832	1197.69
250.066	1247.69
250.299	1227.69
250.532	1168.69
250.765	1069.69
250.998	1103.69
251.231	1176.69
251.465	1202.69
251.698	1121.69
251.931	1127.69
252.164	1189.69
252.397	1227.69
252.63	1179.69
252.863	1075.69
253.096	1066.69
253.329	1104.69
253.562	1146.69
253.795	1255.69
254.028	1234.69
254.261	1151.69
254.494	1145.69
254.727	1071.69
254.96	1119.69
255.193	1208.69
255.426	1325.69
255.659	1575.69
255.892	1636.69
256.124	1358.69
256.357	1282.69
256.59	1371.69
256.823	1433.69
257.056	1378.69
257.289	1641.69
257.521	1872.69
257.754	1633.69
257.987	1517.69
258.22	1702.69
258.452	1658.69
258.685	1374.69
258.918	1369.69
259.151	1367.69
259.383	1306.69
259.616	1147.69
259.849	1205.69
260.081	1343.69
260.314	1463.69
260.547	1662.69
260.779	1676.69
261.012	1547.69
261.244	1366.69
261.477	1303.69
261.71	1385.69
261.942	1365.69
262.175	1343.69
262.407	1439.69
262.64	1329.69
262.872	1285.69
263.105	1215.69
263.337	1219.69
263.57	1268.69
263.802	1257.69
264.035	1169.69
264.267	1121.69
264.499	1101.69
264.732	1183.69
264.964	1283.69
265.197	1329.69
265.429	1368.69
265.661	1551.69
265.894	1685.69
266.126	1728.69
266.358	1576.69
266.591	1613.69
266.823	1747.69
267.055	1584.69
267.287	1536.69
267.52	1529.69
267.752	1485.69
267.984	1528.69
268.216	1575.69
268.448	1589.69
268.681	1602.69
268.913	1430.69
269.145	1356.69
269.377	1365.69
269.609	1463.69
269.841	1643.69
270.073	1950.69
270.306	2209.69
270.538	2343.69
270.77	1972.69
271.002	1649.69
271.234	1599.69
271.466	1590.69
271.698	1723.69
271.93	2109.69
272.162	2137.69
272.394	1900.69
272.626	1847.69
272.858	1619.69
273.09	1405.69
273.322	1415.69
273.553	1344.69
273.785	1337.69
274.017	1380.69
274.249	1556.69
274.481	1540.69
274.713	1423.69
274.945	1346.69
275.176	1364.69
275.408	1365.69
275.64	1333.69
275.872	1301.69
276.104	1378.69
276.335	1574.69
276.567	1811.69
276.799	1859.69
277.031	1651.69
277.262	1577.69
277.494	1596.69
277.726	1816.69
277.957	1793.69
278.189	1637.69
278.421	1478.69
278.652	1412.69
278.884	1445.69
279.115	1427.69
279.347	1500.69
279.579	1405.69
279.81	1437.69
280.042	1593.69
280.273	1705.69
280.505	1696.69
280.736	1779.69
280.968	1666.69
281.199	1475.69
281.431	1371.69
281.662	1397.69
281.894	1384.69
282.125	1420.69
282.356	1496.69
282.588	1510.69
282.819	1470.69
283.051	1609.69
283.282	1760.69
283.513	1711.69
283.745	1447.69
283.976	1405.69
284.207	1400.69
284.439	1428.69
284.67	1454.69
284.901	1460.69
285.132	1544.69
285.364	1493.69
285.595	1530.69
285.826	1463.69
286.057	1450.69
286.288	1450.69
286.52	1533.69
286.751	1639.69
286.982	1674.69
287.213	1555.69
287.444	1404.69
287.675	1431.69
287.906	1483.69
288.138	1558.69
288.369	1585.69
288.6	1477.69
288.831	1424.69
289.062	1426.69
289.293	1457.69
289.524	1484.69
289.755	1529.69
289.986	1591.69
290.217	1411.69
290.448	1470.69
290.679	1484.69
290.91	1488.69
291.141	1530.69
291.371	1569.69
291.602	1573.69
291.833	1573.69
292.064	1621.69
292.295	1569.69
292.526	1612.69
292.757	1711.69
292.987	1626.69
293.218	1476.69
293.449	1602.69
293.68	1852.69
293.91	1990.69
294.141	1837.69
294.372	1711.69
294.603	1773.69
294.833	1872.69
295.064	1807.69
295.295	1637.69
295.525	1557.69
295.756	1464.69
295.987	1361.69
296.217	1398.69
296.448	1445.69
296.679	1472.69
296.909	1440.69
297.14	1430.69
297.37	1449.69
297.601	1578.69
297.831	1686.69
298.062	1691.69
298.292	1548.69
298.523	1480.69
298.753	1478.69
298.984	1478.69
299.214	1512.69
299.445	1537.69
299.675	1577.69
299.905	1575.69
300.136	1522.69
300.366	1475.69
300.597	1429.69
300.827	1429.69
301.057	1482.69
301.288	1543.69
301.518	1581.69
301.748	1618.69
301.979	1682.69
302.209	1661.69
302.439	1809.69
302.669	1885.69
302.9	1764.69
303.13	1597.69
303.36	1603.69
303.59	1654.69
303.82	1605.69
304.051	1593.69
304.281	1583.69
304.511	1567.69
304.741	1677.69
304.971	1840.69
305.201	2011.69
305.431	1882.69
305.661	1584.69
305.891	1411.69
306.121	1394.69
306.352	1439.69
306.582	1510.69
306.812	1639.69
307.042	1736.69
307.272	1773.69
307.502	1744.69
307.731	1895.69
307.961	2112.69
308.191	1953.69
308.421	1652.69
308.651	1533.69
308.881	1524.69
309.111	1561.69
309.341	1521.69
309.571	1539.69
309.8	1572.69
310.03	1528.69
310.26	1513.69
310.49	1527.69
310.72	1583.69
310.949	1650.69
311.179	1676.69
311.409	1573.69
311.639	1571.69
311.868	1569.69
312.098	1575.69
312.328	1579.69
312.557	1522.69
312.787	1626.69
313.017	1630.69
313.246	1601.69
313.476	1543.69
313.706	1656.69
313.935	1611.69
314.165	1645.69
314.394	1682.69
314.624	1788.69
314.853	1865.69
315.083	1920.69
315.312	2039.69
315.542	1854.69
315.771	1608.69
316.001	1666.69
316.23	1747.69
316.46	1756.69
316.689	1723.69
316.919	1650.69
317.148	1580.69
317.377	1587.69
317.607	1667.69
317.836	1922.69
318.065	2001.69
318.295	1910.69
318.524	1787.69
318.753	1750.69
318.983	1746.69
319.212	1706.69
319.441	1660.69
319.67	1640.69
319.9	1673.69
320.129	1776.69
320.358	1817.69
320.587	1849.69
320.816	1835.69
321.046	1855.69
321.275	1725.69
321.504	1754.69
321.733	1865.69
321.962	1834.69
322.191	1699.69
322.42	1694.69
322.649	1667.69
322.878	1654.69
323.108	1667.69
323.337	1749.69
323.566	1747.69
323.795	1717.69
324.024	1776.69
324.253	1701.69
324.482	1697.69
324.71	1688.69
324.939	1581.69
325.168	1603.69
325.397	1676.69
325.626	1733.69
325.855	1717.69
326.084	1690.69
326.313	1658.69
326.542	1687.69
326.77	1758.69
326.999	1767.69
327.228	1693.69
327.457	1626.69
327.686	1581.69
327.914	1602.69
328.143	1654.69
328.372	1666.69
328.6	1671.69
328.829	1671.69
329.058	1649.69
329.287	1626.69
329.515	1684.69
329.744	1718.69
329.972	1755.69
330.201	1898.69
330.43	1864.69
330.658	1737.69
330.887	1750.69
331.115	1791.69
331.344	1767.69
331.572	1760.69
331.801	1758.69
332.03	1736.69
332.258	1762.69
332.486	1774.69
332.715	1841.69
332.943	1837.69
333.172	1725.69
333.4	1787.69
333.629	1856.69
333.857	1930.69
334.085	2096.69
334.314	2390.69
334.542	2627.69
334.771	2415.69
334.999	2128.69
335.227	2018.69
335.455	1910.69
335.684	1927.69
335.912	1925.69
336.14	2013.69
336.369	1954.69
336.597	1844.69
336.825	1761.69
337.053	1842.69
337.281	1933.69
337.51	2034.69
337.738	2134.69
337.966	2035.69
338.194	1824.69
338.422	1790.69
338.65	1727.69
338.878	1725.69
339.106	1717.69
339.334	1693.69
339.562	1671.69
339.79	1698.69
340.018	1820.69
340.246	1874.69
340.474	1877.69
340.702	1807.69
340.93	1854.69
341.158	1838.69
341.386	1814.69
341.614	1815.69
341.842	1762.69
342.07	1751.69
342.298	1803.69
342.526	1775.69
342.754	1756.69
342.981	1702.69
343.209	1750.69
343.437	1720.69
343.665	1742.69
343.893	1778.69
344.12	1919.69
344.348	1900.69
344.576	1791.69
344.804	1737.69
345.031	1732.69
345.259	1789.69
345.487	1733.69
345.714	1665.69
345.942	1651.69
346.17	1633.69
346.397	1661.69
346.625	1713.69
346.853	1581.69
347.08	1572.69
347.308	1610.69
347.535	1609.69
347.763	1682.69
347.99	1632.69
348.218	1563.69
348.445	1622.69
348.673	1654.69
348.9	1667.69
349.128	1695.69
349.355	1771.69
349.583	1711.69
349.81	1626.69
350.037	1532.69
350.265	1537.69
350.492	1569.69
350.72	1567.69
350.947	1634.69
351.174	1674.69
351.402	1607.69
351.629	1557.69
351.856	1522.69
352.083	1511.69
352.311	1506.69
352.538	1593.69
352.765	1620.69
352.992	1709.69
353.22	1659.69
353.447	1557.69
353.674	1596.69
353.901	1610.69
354.128	1570.69
354.355	1563.69
354.583	1602.69
354.81	1661.69
355.037	1671.69
355.264	1652.69
355.491	1622.69
355.718	1629.69
355.945	1618.69
356.172	1572.69
356.399	1531.69
356.626	1550.69
356.853	1595.69
357.08	1756.69
357.307	1894.69
357.534	1931.69
357.761	1717.69
357.988	1595.69
358.215	1508.69
358.441	1560.69
358.668	1507.69
358.895	1541.69
359.122	1637.69
359.349	1746.69
359.576	1794.69
359.802	1591.69
360.029	1526.69
360.256	1539.69
360.483	1545.69
360.709	1566.69
360.936	1652.69
361.163	1728.69
361.39	1859.69
361.616	2002.69
361.843	1981.69
362.07	1830.69
362.296	1648.69
362.523	1601.69
362.749	1585.69
362.976	1594.69
363.203	1624.69
363.429	1581.69
363.656	1558.69
363.882	1613.69
364.109	1802.69
364.335	1913.69
364.562	1779.69
364.788	1690.69
365.015	1639.69
365.241	1594.69
365.468	1623.69
365.694	1685.69
365.92	1764.69
366.147	1718.69
366.373	1604.69
366.599	1544.69
366.826	1547.69
367.052	1561.69
367.278	1561.69
367.505	1617.69
367.731	1667.69
367.957	1666.69
368.184	1667.69
368.41	1751.69
368.636	1832.69
368.862	1754.69
369.089	1821.69
369.315	1754.69
369.541	1665.69
369.767	1645.69
369.993	1599.69
370.219	1581.69
370.445	1663.69
370.672	1727.69
370.898	1784.69
371.124	1821.69
371.35	1712.69
371.576	1756.69
371.802	1792.69
372.028	1743.69
372.254	1641.69
372.48	1618.69
372.706	1611.69
372.932	1645.69
373.158	1629.69
373.384	1641.69
373.61	1705.69
373.835	1778.69
374.061	1704.69
374.287	1701.69
374.513	1661.69
374.739	1698.69
374.965	1716.69
375.191	1702.69
375.416	1761.69
375.642	1755.69
375.868	1821.69
376.094	1914.69
376.319	1823.69
376.545	1695.69
376.771	1702.69
376.997	1818.69
377.222	1833.69
377.448	1709.69
377.674	1763.69
377.899	1761.69
378.125	1827.69
378.35	1891.69
378.576	1714.69
378.802	1671.69
379.027	1643.69
379.253	1629.69
379.478	1700.69
379.704	1680.69
379.929	1654.69
380.155	1655.69
380.38	1686.69
380.606	1699.69
380.831	1685.69
381.057	1776.69
381.282	1801.69
381.507	1729.69
381.733	1849.69
381.958	1940.69
382.184	1834.69
382.409	1764.69
382.634	1771.69
382.86	1765.69
383.085	1781.69
383.31	1817.69
383.535	1922.69
383.761	2055.69
383.986	2009.69
384.211	1904.69
384.436	1876.69
384.662	1944.69
384.887	2053.69
385.112	1930.69
385.337	1982.69
385.562	1920.69
385.787	1913.69
386.013	1971.69
386.238	1982.69
386.463	1938.69
386.688	2069.69
386.913	2174.69
387.138	2167.69
387.363	1981.69
387.588	1969.69
387.813	1924.69
388.038	1989.69
388.263	2061.69
388.488	1992.69
388.713	1876.69
388.938	1817.69
389.163	1871.69
389.387	1917.69
389.612	1864.69
389.837	1918.69
390.062	1952.69
390.287	1905.69
390.512	1933.69
390.736	1875.69
390.961	1874.69
391.186	1872.69
391.411	1847.69
391.636	1912.69
391.86	1935.69
392.085	1898.69
392.31	1919.69
392.534	1947.69
392.759	1925.69
392.984	1907.69
393.208	1937.69
393.433	1953.69
393.658	2039.69
393.882	2045.69
394.107	1951.69
394.331	1885.69
394.556	1896.69
394.78	1921.69
395.005	1993.69
395.229	2040.69
395.454	2260.69
395.678	2202.69
395.903	2153.69
396.127	2068.69
396.352	2058.69
396.576	2093.69
396.801	2113.69
397.025	2085.69
397.249	2077.69
397.474	2114.69
397.698	2070.69
397.922	2136.69
398.147	2238.69
398.371	2302.69
398.595	2346.69
398.82	2221.69
399.044	2175.69
399.268	2331.69
399.492	2489.69
399.717	2589.69
399.941	2605.69
400.165	2535.69
400.389	2454.69
400.613	2430.69
400.837	2627.69
401.062	3095.69
401.286	2645.69
401.51	2385.69
401.734	2507.69
401.958	2424.69
402.182	2290.69
402.406	2208.69
402.63	2173.69
402.854	2158.69
403.078	2166.69
403.302	2271.69
403.526	2286.69
403.75	2295.69
403.974	2288.69
404.198	2324.69
404.422	2379.69
404.645	2464.69
404.869	2480.69
405.093	2249.69
405.317	2239.69
405.541	2298.69
405.765	2321.69
405.988	2301.69
406.212	2331.69
406.436	2370.69
406.66	2406.69
406.883	2452.69
407.107	2745.69
407.331	3010.69
407.555	3183.69
407.778	3016.69
408.002	2491.69
408.226	2405.69
408.449	2408.69
408.673	2368.69
408.896	2372.69
409.12	2401.69
409.344	2338.69
409.567	2265.69
409.791	2323.69
410.014	2323.69
410.238	2475.69
410.461	2587.69
410.685	2341.69
410.908	2225.69
411.132	2269.69
411.355	2273.69
411.578	2249.69
411.802	2208.69
412.025	2302.69
412.249	2246.69
412.472	2202.69
412.695	2137.69
412.919	2174.69
413.142	2195.69
413.365	2191.69
413.589	2275.69
413.812	2290.69
414.035	2410.69
414.258	2222.69
414.482	2145.69
414.705	2225.69
414.928	2131.69
415.151	2186.69
415.374	2190.69
415.597	2201.69
415.821	2231.69
416.044	2286.69
416.267	2335.69
416.49	2111.69
416.713	2118.69
416.936	2151.69
417.159	2247.69
417.382	2259.69
417.605	2110.69
417.828	2195.69
418.051	2257.69
418.274	2157.69
418.497	2129.69
418.72	2109.69
418.943	2086.69
419.166	2250.69
419.389	2338.69
419.611	2198.69
419.834	2162.69
420.057	2205.69
420.28	2123.69
420.503	2124.69
420.726	2107.69
420.948	2156.69
421.171	2100.69
421.394	2119.69
421.617	2185.69
421.839	2144.69
422.062	2088.69
422.285	2066.69
422.507	2102.69
422.73	2075.69
422.953	2025.69
423.175	2045.69
423.398	2087.69
423.621	2120.69
423.843	2090.69
424.066	2065.69
424.288	2179.69
424.511	2257.69
424.733	2197.69
424.956	2033.69
425.178	1999.69
425.401	2037.69
425.623	2059.69
425.846	2029.69
426.068	2133.69
426.291	2158.69
426.513	2160.69
426.735	2141.69
426.958	2253.69
427.18	2421.69
427.402	2245.69
427.625	2286.69
427.847	2317.69
428.069	2153.69
428.292	2051.69
428.514	2023.69
428.736	2008.69
428.958	2015.69
429.181	2031.69
429.403	2301.69
429.625	2877.69
429.847	2562.69
430.069	2079.69
430.292	2271.69
430.514	2401.69
430.736	2234.69
430.958	2293.69
431.18	2254.69
431.402	2087.69
431.624	2010.69
431.846	2034.69
432.068	1995.69
432.29	2021.69
432.512	2051.69
432.734	2063.69
432.956	2153.69
433.178	2212.69
433.4	2193.69
433.622	2198.69
433.844	2078.69
434.066	2018.69
434.287	2009.69
434.509	2079.69
434.731	2180.69
434.953	2325.69
435.175	2304.69
435.397	2169.69
435.618	2121.69
435.84	2189.69
436.062	2097.69
436.284	2133.69
436.505	2176.69
436.727	2213.69
436.949	2111.69
437.17	2022.69
437.392	2031.69
437.614	2074.69
437.835	1957.69
438.057	2121.69
438.278	2248.69
438.5	2089.69
438.721	1991.69
438.943	2074.69
439.165	2058.69
439.386	1986.69
439.608	2022.69
439.829	2023.69
440.05	2024.69
440.272	1992.69
440.493	1969.69
440.715	1975.69
440.936	2141.69
441.158	2346.69
441.379	2322.69
441.6	2246.69
441.822	2196.69
442.043	2183.69
442.264	2111.69
442.486	2014.69
442.707	2033.69
442.928	2013.69
443.149	2092.69
443.371	2200.69
443.592	2253.69
443.813	2228.69
444.034	2176.69
444.255	2158.69
444.476	2272.69
444.698	2331.69
444.919	2304.69
445.14	2353.69
445.361	2355.69
445.582	2489.69
445.803	2322.69
446.024	2249.69
446.245	2373.69
446.466	2214.69
446.687	2109.69
446.908	2127.69
447.129	2032.69
447.35	2089.69
447.571	2079.69
447.792	2003.69
448.013	1955.69
448.234	2070.69
448.455	2122.69
448.675	2118.69
448.896	1916.69
449.117	1906.69
449.338	1945.69
449.559	2084.69
449.779	2185.69
450	2355.69
450.221	2594.69
450.442	2492.69
450.662	2216.69
450.883	1949.69
451.104	1906.69
451.324	1956.69
451.545	2017.69
451.766	2002.69
451.986	1875.69
452.207	1881.69
452.428	1836.69
452.648	1802.69
452.869	1862.69
453.089	1981.69
453.31	1995.69
453.53	2069.69
453.751	1967.69
453.971	1865.69
454.192	1852.69
454.412	2033.69
454.633	1945.69
454.853	1874.69
455.073	1757.69
455.294	1774.69
455.514	1764.69
455.734	1779.69
455.955	1845.69
456.175	1785.69
456.395	1794.69
456.616	1911.69
456.836	1952.69
457.056	1905.69
457.276	1881.69
457.497	1823.69
457.717	1776.69
457.937	1807.69
458.157	1870.69
458.377	1812.69
458.598	1853.69
458.818	1834.69
459.038	1953.69
459.258	2056.69
459.478	2061.69
459.698	1977.69
459.918	2018.69
460.138	2140.69
460.358	2208.69
460.578	2172.69
460.798	2287.69
461.018	2404.69
461.238	2293.69
461.458	2190.69
461.678	2192.69
461.898	2099.69
462.118	2086.69
462.338	2159.69
462.558	2202.69
462.777	2150.69
462.997	2287.69
463.217	2410.69
463.437	2374.69
463.657	2233.69
463.876	2179.69
464.096	2167.69
464.316	2185.69
464.536	2240.69
464.755	2241.69
464.975	2331.69
465.195	2198.69
465.414	2343.69
465.634	2303.69
465.854	2154.69
466.073	2313.69
466.293	2262.69
466.512	1981.69
466.732	2000.69
466.951	2052.69
467.171	2070.69
467.391	1984.69
467.61	1896.69
467.829	1957.69
468.049	2091.69
468.268	2372.69
468.488	2205.69
468.707	2051.69
468.927	2085.69
469.146	2001.69
469.365	1952.69
469.585	1983.69
469.804	1976.69
470.023	2031.69
470.243	2001.69
470.462	1980.69
470.681	1896.69
470.901	2010.69
471.12	1996.69
471.339	1968.69
471.558	1881.69
471.777	1930.69
471.997	1921.69
472.216	1978.69
472.435	1867.69
472.654	1917.69
472.873	2006.69
473.092	2125.69
473.311	1993.69
473.53	1917.69
473.749	1901.69
473.968	1965.69
474.187	2044.69
474.406	2179.69
474.625	2064.69
474.844	2015.69
475.063	1966.69
475.282	2075.69
475.501	1987.69
475.72	2020.69
475.939	2154.69
476.158	2066.69
476.377	2005.69
476.596	2013.69
476.814	2083.69
477.033	2100.69
477.252	2154.69
477.471	2207.69
477.69	2150.69
477.908	2101.69
478.127	2190.69
478.346	2385.69
478.564	2411.69
478.783	2391.69
479.002	2471.69
479.22	2375.69
479.439	2453.69
479.658	2818.69
479.876	2742.69
480.095	2420.69
480.313	2321.69
480.532	2173.69
480.751	2226.69
480.969	2292.69
481.188	2247.69
481.406	2230.69
481.624	2208.69
481.843	2182.69
482.061	2223.69
482.28	2300.69
482.498	2337.69
482.717	2324.69
482.935	2221.69
483.153	2216.69
483.372	2246.69
483.59	2226.69
483.808	2241.69
484.027	2282.69
484.245	2424.69
484.463	2757.69
484.681	3177.69
484.9	2447.69
485.118	2309.69
485.336	2245.69
485.554	2377.69
485.772	2491.69
485.99	2466.69
486.209	2435.69
486.427	2427.69
486.645	2382.69
486.863	2335.69
487.081	2437.69
487.299	2432.69
487.517	2398.69
487.735	2341.69
487.953	2310.69
488.171	2306.69
488.389	2276.69
488.607	2272.69
488.825	2505.69
489.043	2595.69
489.261	2332.69
489.479	2480.69
489.696	2474.69
489.914	2524.69
490.132	2410.69
490.35	2357.69
490.568	2435.69
490.786	2385.69
491.003	2276.69
491.221	2364.69
491.439	2450.69
491.657	2400.69
491.874	2369.69
492.092	2466.69
492.31	2452.69
492.527	2407.69
492.745	2351.69
492.963	2389.69
493.18	2442.69
493.398	2636.69
493.615	2676.69
493.833	2491.69
494.05	2422.69
494.268	2442.69
494.485	2522.69
494.703	2459.69
494.92	2375.69
495.138	2349.69
495.355	2378.69
495.573	2506.69
495.79	2671.69
496.008	2699.69
496.225	2514.69
496.442	2526.69
496.66	2551.69
496.877	2553.69
497.094	2666.69
497.312	2675.69
497.529	2603.69
497.746	2649.69
497.963	3134.69
498.181	3515.69
498.398	3268.69
498.615	3181.69
498.832	3068.69
499.049	3091.69
499.267	3094.69
499.484	3328.69
499.701	3553.69
499.918	3602.69
500.135	3783.69
500.352	4171.69
500.569	4084.69
500.786	4333.69
501.003	4041.69
501.22	3671.69
501.437	3594.69
501.654	3565.69
501.871	3464.69
502.088	3010.69
502.305	3027.69
502.522	2965.69
502.739	2788.69
502.956	2685.69
503.172	2663.69
503.389	2599.69
503.606	2578.69
503.823	2532.69
504.04	2565.69
504.256	2533.69
504.473	2576.69
504.69	2657.69
504.907	2529.69
505.123	2414.69
505.34	2462.69
505.557	3274.69
505.773	2811.69
505.99	2363.69
506.207	2241.69
506.423	2121.69
506.64	2181.69
506.856	2180.69
507.073	2446.69
507.289	2673.69
507.506	2555.69
507.722	2222.69
507.939	2120.69
508.155	2171.69
508.372	2144.69
508.588	2082.69
508.805	2070.69
509.021	1992.69
509.238	1971.69
509.454	1978.69
509.67	2011.69
509.887	1962.69
510.103	1987.69
510.319	1976.69
510.536	2117.69
510.752	2184.69
510.968	2175.69
511.184	2271.69
511.401	2255.69
511.617	1989.69
511.833	1958.69
512.049	1904.69
512.265	1937.69
512.481	1906.69
512.698	1968.69
512.914	2108.69
513.13	2040.69
513.346	1952.69
513.562	1909.69
513.778	1942.69
513.994	2044.69
514.21	2143.69
514.426	2123.69
514.642	2346.69
514.858	2222.69
515.074	2029.69
515.29	1990.69
515.506	2003.69
515.721	2036.69
515.937	2088.69
516.153	2344.69
516.369	2244.69
516.585	2165.69
516.801	2002.69
517.016	2027.69
517.232	2095.69
517.448	2137.69
517.664	2131.69
517.879	2153.69
518.095	2271.69
518.311	2141.69
518.527	2052.69
518.742	2024.69
518.958	1955.69
519.173	1975.69
519.389	1971.69
519.605	1997.69
519.82	2033.69
520.036	2017.69
520.251	1941.69
520.467	1946.69
520.682	2151.69
520.898	2227.69
521.113	1939.69
521.329	1936.69
521.544	2030.69
521.76	1979.69
521.975	1901.69
522.19	1844.69
522.406	1883.69
522.621	2190.69
522.836	2238.69
523.052	1875.69
523.267	1827.69
523.482	1857.69
523.698	1814.69
523.913	1739.69
524.128	1789.69
524.343	1842.69
524.559	1950.69
524.774	1805.69
524.989	1782.69
525.204	1802.69
525.419	1734.69
525.634	1729.69
525.849	1793.69
526.064	1773.69
526.28	1816.69
526.495	1721.69
526.71	1722.69
526.925	1719.69
527.14	1733.69
527.355	1704.69
527.57	1682.69
527.785	1755.69
527.999	1675.69
528.214	1678.69
528.429	1635.69
528.644	1631.69
528.859	1702.69
529.074	1684.69
529.289	1673.69
529.503	1677.69
529.718	1729.69
529.933	1706.69
530.148	1654.69
530.363	1625.69
530.577	1637.69
530.792	1737.69
531.007	1709.69
531.221	1705.69
531.436	1696.69
531.651	1786.69
531.865	1833.69
532.08	1751.69
532.295	1633.69
532.509	1598.69
532.724	1627.69
532.938	1743.69
533.153	1813.69
533.367	1736.69
533.582	1683.69
533.796	1615.69
534.011	1659.69
534.225	1699.69
534.44	1659.69
534.654	1655.69
534.868	1667.69
535.083	1697.69
535.297	1700.69
535.511	1632.69
535.726	1657.69
535.94	1631.69
536.154	1649.69
536.369	1636.69
536.583	1625.69
536.797	1597.69
537.011	1643.69
537.225	1561.69
537.44	1557.69
537.654	1616.69
537.868	1605.69
538.082	1514.69
538.296	1501.69
538.51	1526.69
538.724	1545.69
538.938	1533.69
539.153	1598.69
539.367	1592.69
539.581	1594.69
539.795	1654.69
540.009	1639.69
540.222	1591.69
540.436	1621.69
540.65	1745.69
540.864	1763.69
541.078	1679.69
541.292	1555.69
541.506	1565.69
541.72	1574.69
541.934	1606.69
542.147	1621.69
542.361	1589.69
542.575	1546.69
542.789	1519.69
543.002	1462.69
543.216	1513.69
543.43	1590.69
543.644	1663.69
543.857	1731.69
544.071	1630.69
544.285	1592.69
544.498	1542.69
544.712	1565.69
544.925	1585.69
545.139	1655.69
545.352	1515.69
545.566	1491.69
545.779	1482.69
545.993	1455.69
546.206	1537.69
546.42	1483.69
546.633	1487.69
546.847	1432.69
547.06	1489.69
547.274	1454.69
547.487	1449.69
547.7	1461.69
547.914	1465.69
548.127	1547.69
548.34	1516.69
548.554	1530.69
548.767	1493.69
548.98	1497.69
549.193	1480.69
549.407	1528.69
549.62	1575.69
549.833	1477.69
550.046	1511.69
550.259	1484.69
550.473	1489.69
550.686	1468.69
550.899	1448.69
551.112	1401.69
551.325	1429.69
551.538	1489.69
551.751	1721.69
551.964	1428.69
552.177	1370.69
552.39	1382.69
552.603	1460.69
552.816	1448.69
553.029	1525.69
553.242	1548.69
553.455	1491.69
553.667	1443.69
553.88	1428.69
554.093	1470.69
554.306	1409.69
554.519	1395.69
554.732	1368.69
554.944	1405.69
555.157	1395.69
555.37	1397.69
555.583	1377.69
555.795	1367.69
556.008	1301.69
556.221	1310.69
556.433	1305.69
556.646	1290.69
556.859	1280.69
557.071	1266.69
557.284	1256.69
557.496	1257.69
557.709	1237.69
557.921	1198.69
558.134	1232.69
558.346	1209.69
558.559	1254.69
558.771	1235.69
558.984	1182.69
559.196	1173.69
559.409	1171.69
559.621	1183.69
559.833	1208.69
560.046	1245.69
560.258	1234.69
560.47	1209.69
560.683	1219.69
560.895	1211.69
561.107	1233.69
561.32	1212.69
561.532	1251.69
561.744	1204.69
561.956	1231.69
562.168	1196.69
562.381	1146.69
562.593	1180.69
562.805	1176.69
563.017	1179.69
563.229	1193.69
563.441	1192.69
563.653	1198.69
563.865	1169.69
564.077	1156.69
564.289	1169.69
564.501	1195.69
564.713	1219.69
564.925	1279.69
565.137	1344.69
565.349	1274.69
565.561	1270.69
565.773	1264.69
565.985	1290.69
566.197	1356.69
566.408	1430.69
566.62	1457.69
566.832	1463.69
567.044	1472.69
567.255	1436.69
567.467	1438.69
567.679	1521.69
567.891	1521.69
568.102	1490.69
568.314	1451.69
568.526	1370.69
568.737	1329.69
568.949	1281.69
569.161	1193.69
569.372	1152.69
569.584	1182.69
569.795	1153.69
570.007	1122.69
570.218	1138.69
570.43	1088.69
570.641	1096.69
570.853	1105.69
571.064	1072.69
571.276	1074.69
571.487	1052.69
571.698	1032.69
571.91	1006.69
572.121	993.69
572.333	961.69
572.544	972.69
572.755	967.69
572.966	951.69
573.178	976.69
573.389	983.69
573.6	984.69
573.811	1045.69
574.023	991.69
574.234	929.69
574.445	945.69
574.656	894.69
574.867	907.69
575.078	920.69
575.289	871.69
575.501	893.69
575.712	851.69
575.923	888.69
576.134	933.69
576.345	889.69
576.556	882.69
576.767	833.69
576.978	875.69
577.188	862.69
577.399	880.69
577.61	850.69
577.821	846.69
578.032	820.69
578.243	846.69
578.454	841.69
578.665	836.69
578.875	829.69
579.086	807.69
579.297	829.69
579.508	849.69
579.718	836.69
579.929	823.69
580.14	811.69
580.35	791.69
580.561	837.69
580.772	866.69
580.982	852.69
581.193	788.69
581.403	795.69
581.614	790.69
581.825	789.69
582.035	777.69
582.246	769.69
582.456	769.69
582.667	787.69
582.877	749.69
583.087	782.69
583.298	774.69
583.508	769.69
583.719	747.69
583.929	749.69
584.139	753.69
584.35	735.69
584.56	746.69
584.77	761.69
584.981	724.69
585.191	747.69
585.401	791.69
585.611	745.69
585.821	743.69
586.032	749.69
586.242	763.69
586.452	739.69
586.662	742.69
586.872	751.69
587.082	730.69
587.292	755.69
587.502	762.69
587.713	763.69
587.923	750.69
588.133	724.69
588.343	741.69
588.553	723.69
588.762	728.69
588.972	718.69
589.182	751.69
589.392	726.69
589.602	752.69
589.812	738.69
590.022	707.69
590.232	682.69
590.441	720.69
590.651	746.69
590.861	713.69
591.071	710.69
591.281	705.69
591.49	710.69
591.7	702.69
591.91	714.69
592.119	718.69
592.329	728.69
592.539	744.69
592.748	725.69
592.958	736.69
593.167	755.69
593.377	749.69
593.587	784.69
593.796	781.69
594.006	789.69
594.215	771.69
594.424	742.69
594.634	728.69
594.843	712.69
595.053	753.69
595.262	718.69
595.472	690.69
595.681	727.69
595.89	690.69
596.1	689.69
596.309	688.69
596.518	669.69
596.727	679.69
596.937	663.69
597.146	663.69
597.355	635.69
597.564	626.69
597.774	628.69
597.983	648.69
598.192	627.69
598.401	613.69
598.61	601.69
598.819	609.69
599.028	595.69
599.237	617.69
599.446	607.69
599.655	576.69
599.864	589.69
600.073	611.69
600.282	591.69
600.491	579.69
600.7	564.69
600.909	573.69
601.118	577.69
601.327	573.69
601.536	594.69
601.745	584.69
601.953	573.69
602.162	586.69
602.371	612.69
602.58	586.69
602.789	589.69
602.997	570.69
603.206	566.69
603.415	601.69
603.623	577.69
603.832	559.69
604.041	543.69
604.249	561.69
604.458	551.69
604.666	568.69
604.875	564.69
605.084	561.69
605.292	567.69
605.501	562.69
605.709	551.69
605.918	544.69
606.126	537.69
606.334	533.69
606.543	545.69
606.751	560.69
606.96	517.69
607.168	537.69
607.376	550.69
607.585	539.69
607.793	550.69
608.001	533.69
608.21	552.69
608.418	535.69
608.626	536.69
608.834	531.69
609.043	521.69
609.251	539.69
609.459	523.69
609.667	550.69
609.875	538.69
610.083	555.69
610.291	553.69
610.499	540.69
610.707	525.69
610.916	525.69
611.124	512.69
611.332	525.69
611.54	524.69
611.748	522.69
611.955	536.69
612.163	507.69
612.371	507.69
612.579	517.69
612.787	516.69
612.995	507.69
613.203	517.69
613.411	524.69
613.618	515.69
613.826	517.69
614.034	512.69
614.242	497.69
614.449	485.69
614.657	499.69
614.865	517.69
615.072	523.69
615.28	504.69
615.488	518.69
615.695	526.69
615.903	505.69
616.111	495.69
616.318	512.69
616.526	490.69
616.733	479.69
616.941	491.69
617.148	487.69
617.356	505.69
617.563	497.69
617.771	497.69
617.978	498.69
618.185	474.69
618.393	474.69
618.6	469.69
618.807	457.69
619.015	486.69
619.222	470.69
619.429	473.69
619.637	467.69
619.844	477.69
620.051	441.69
620.258	461.69
620.466	463.69
620.673	474.69
620.88	436.69
621.087	441.69
621.294	445.69
621.501	458.69
621.708	446.69
621.915	437.69
622.122	453.69
622.329	460.69
622.536	429.69
622.743	455.69
622.95	453.69
623.157	425.69
623.364	462.69
623.571	446.69
623.778	410.69
623.985	448.69
624.192	428.69
624.399	441.69
624.606	445.69
624.812	404.69
625.019	422.69
625.226	429.69
625.433	421.69
625.639	418.69
625.846	436.69
626.053	390.69
626.259	427.69
626.466	415.69
626.673	393.69
626.879	382.69
627.086	403.69
627.293	408.69
627.499	402.69
627.706	408.69
627.912	393.69
628.119	386.69
628.325	390.69
628.532	402.69
628.738	394.69
628.945	406.69
629.151	410.69
629.357	401.69
629.564	397.69
629.77	374.69
629.976	376.69
630.183	385.69
630.389	389.69
630.595	401.69
630.802	395.69
631.008	370.69
631.214	376.69
631.42	378.69
631.627	345.69
631.833	367.69
632.039	363.69
632.245	371.69
632.451	374.69
632.657	371.69
632.863	371.69
633.069	355.69
633.275	373.69
633.481	347.69
633.688	357.69
633.893	373.69
634.099	351.69
634.305	370.69
634.511	352.69
634.717	329.69
634.923	340.69
635.129	344.69
635.335	347.69
635.541	354.69
635.747	358.69
635.952	360.69
636.158	331.69
636.364	343.69
636.57	361.69
636.775	343.69
636.981	329.69
637.187	329.69
637.392	331.69
637.598	333.69
637.804	326.69
638.009	335.69
638.215	347.69
638.421	328.69
638.626	350.69
638.832	336.69
639.037	325.69
639.243	330.69
639.448	333.69
639.654	318.69
639.859	335.69
640.065	331.69
640.27	318.69
640.475	307.69
640.681	323.69
640.886	312.69
641.091	326.69
641.297	343.69
641.502	323.69
641.707	318.69
641.913	311.69
642.118	302.69
642.323	312.69
642.528	326.69
642.733	327.69
642.939	325.69
643.144	337.69
643.349	318.69
643.554	304.69
643.759	314.69
643.964	320.69
644.169	313.69
644.374	293.69
644.579	295.69
644.784	311.69
644.989	293.69
645.194	292.69
645.399	318.69
645.604	295.69
645.809	301.69
646.014	315.69
646.219	314.69
646.423	285.69
646.628	291.69
646.833	297.69
647.038	294.69
647.243	304.69
647.447	297.69
647.652	303.69
647.857	303.69
648.062	309.69
648.266	304.69
648.471	317.69
648.676	302.69
648.88	313.69
649.085	318.69
649.289	311.69
649.494	290.69
649.698	305.69
649.903	285.69
650.107	306.69
650.312	301.69
650.516	279.69
650.721	282.69
650.925	293.69
651.13	277.69
651.334	271.69
651.539	281.69
651.743	261.69
651.947	282.69
652.152	258.69
652.356	267.69
652.56	271.69
652.764	267.69
652.969	261.69
653.173	244.69
653.377	247.69
653.581	233.69
653.785	255.69
653.99	253.69
654.194	219.69
654.398	231.69
654.602	243.69
654.806	243.69
655.01	249.69
655.214	252.69
655.418	243.69
655.622	220.69
655.826	247.69
656.03	229.69
656.234	264.69
656.438	262.69
656.642	263.69
656.846	242.69
657.049	250.69
657.253	221.69
657.457	193.69
657.661	193.69
657.865	180.69
658.068	164.69
658.272	151.69
658.476	158.69
658.68	159.69
658.883	145.69
659.087	139.69
659.291	141.69
659.494	135.69
659.698	141.69
659.901	123.69
660.105	127.69
660.309	125.69
660.512	103.69
660.716	107.69
660.919	105.69
661.123	98.69
661.326	114.69
661.53	111.69
661.733	111.69
661.936	99.69
662.14	93.69
662.343	91.69
662.546	100.69
662.75	101.69
662.953	93.69
663.156	95.69
663.36	92.69
663.563	90.69
663.766	80.69
663.969	87.69
664.173	75.69
664.376	90.69
664.579	89.69
664.782	83.69
664.985	95.69
665.188	78.69
665.391	75.69
665.594	67.69
665.797	71.69
666	66.69
666.203	84.69
666.406	98.69
666.609	82.69
666.812	74.69
667.015	81.69
667.218	87.69
667.421	81.69
667.624	80.69
667.827	65.69
668.03	80.69
668.232	74.69
668.435	72.69
668.638	83.69
668.841	82.69
669.043	86.69
669.246	72.69
669.449	81.69
669.651	78.69
669.854	71.69
670.057	94.69
670.259	85.69
670.462	78.69
670.665	105.69
670.867	71.69
671.07	66.69
671.272	90.69
671.475	73.69
671.677	73.69
671.88	94.69
672.082	74.69
672.284	77.69
672.487	78.69
672.689	73.69
672.892	82.69
