Data from WStandard_LampEnergy8_LIBS07252019.E.O._I.C._HRD10591_15-58-51-929.txt Node
Date: Thu Jul 25 15:58:51 EDT 2019
User: cochatt
Spectrometer: HR+D1059
Trigger mode: 1
Integration Time (sec): 1.000000E-1
Scans to average: 1
Electric dark correction enabled: true
Nonlinearity correction enabled: false
Boxcar width: 0
XAxis mode: Wavelengths
Number of Pixels in Spectrum: 2048
>>>>>Begin Spectral Data<<<<<
223.165	-8.38
223.4	-8.38
223.635	-8.38
223.869	-18.38
224.104	-15.38
224.338	3.62
224.573	-15.38
224.808	-22.38
225.042	-8.38
225.277	6.62
225.511	-2.38
225.746	2.62
225.98	-7.38
226.215	-0.38
226.449	25.62
226.683	10.62
226.918	26.62
227.152	22.62
227.387	40.62
227.621	42.62
227.856	31.62
228.09	31.62
228.324	48.62
228.559	59.62
228.793	106.62
229.027	215.62
229.262	208.62
229.496	216.62
229.73	223.62
229.964	264.62
230.199	260.62
230.433	262.62
230.667	275.62
230.901	292.62
231.136	270.62
231.37	262.62
231.604	250.62
231.838	254.62
232.072	256.62
232.306	253.62
232.541	282.62
232.775	327.62
233.009	347.62
233.243	303.62
233.477	287.62
233.711	298.62
233.945	300.62
234.179	281.62
234.413	340.62
234.647	328.62
234.881	323.62
235.115	299.62
235.349	312.62
235.583	314.62
235.817	298.62
236.051	317.62
236.285	311.62
236.519	328.62
236.753	357.62
236.987	365.62
237.221	346.62
237.455	392.62
237.689	358.62
237.922	356.62
238.156	357.62
238.39	363.62
238.624	386.62
238.858	375.62
239.091	404.62
239.325	435.62
239.559	487.62
239.793	497.62
240.027	516.62
240.26	492.62
240.494	385.62
240.728	374.62
240.961	393.62
241.195	382.62
241.429	400.62
241.662	428.62
241.896	399.62
242.13	396.62
242.363	438.62
242.597	470.62
242.83	448.62
243.064	481.62
243.298	484.62
243.531	486.62
243.765	468.62
243.998	470.62
244.232	403.62
244.465	397.62
244.699	412.62
244.932	466.62
245.166	522.62
245.399	490.62
245.633	472.62
245.866	450.62
246.099	464.62
246.333	489.62
246.566	499.62
246.8	543.62
247.033	580.62
247.266	560.62
247.5	547.62
247.733	557.62
247.966	587.62
248.2	626.62
248.433	589.62
248.666	632.62
248.899	679.62
249.133	770.62
249.366	812.62
249.599	700.62
249.832	608.62
250.066	640.62
250.299	643.62
250.532	595.62
250.765	556.62
250.998	593.62
251.231	609.62
251.465	602.62
251.698	579.62
251.931	590.62
252.164	615.62
252.397	650.62
252.63	583.62
252.863	561.62
253.096	548.62
253.329	575.62
253.562	585.62
253.795	634.62
254.028	635.62
254.261	576.62
254.494	554.62
254.727	574.62
254.96	569.62
255.193	642.62
255.426	705.62
255.659	766.62
255.892	774.62
256.124	665.62
256.357	670.62
256.59	716.62
256.823	710.62
257.056	735.62
257.289	844.62
257.521	900.62
257.754	806.62
257.987	791.62
258.22	853.62
258.452	826.62
258.685	687.62
258.918	683.62
259.151	652.62
259.383	656.62
259.616	590.62
259.849	639.62
260.081	719.62
260.314	774.62
260.547	821.62
260.779	801.62
261.012	773.62
261.244	698.62
261.477	672.62
261.71	687.62
261.942	718.62
262.175	700.62
262.407	709.62
262.64	662.62
262.872	633.62
263.105	611.62
263.337	628.62
263.57	632.62
263.802	638.62
264.035	604.62
264.267	554.62
264.499	586.62
264.732	604.62
264.964	664.62
265.197	698.62
265.429	710.62
265.661	755.62
265.894	855.62
266.126	846.62
266.358	799.62
266.591	787.62
266.823	871.62
267.055	801.62
267.287	764.62
267.52	784.62
267.752	783.62
267.984	782.62
268.216	803.62
268.448	788.62
268.681	804.62
268.913	725.62
269.145	704.62
269.377	701.62
269.609	791.62
269.841	867.62
270.073	995.62
270.306	1112.62
270.538	1119.62
270.77	962.62
271.002	844.62
271.234	856.62
271.466	810.62
271.698	896.62
271.93	1096.62
272.162	1088.62
272.394	968.62
272.626	921.62
272.858	813.62
273.09	724.62
273.322	702.62
273.553	680.62
273.785	702.62
274.017	699.62
274.249	747.62
274.481	757.62
274.713	733.62
274.945	696.62
275.176	704.62
275.408	697.62
275.64	709.62
275.872	696.62
276.104	728.62
276.335	859.62
276.567	920.62
276.799	901.62
277.031	823.62
277.262	820.62
277.494	860.62
277.726	922.62
277.957	888.62
278.189	816.62
278.421	783.62
278.652	736.62
278.884	727.62
279.115	739.62
279.347	780.62
279.579	740.62
279.81	753.62
280.042	844.62
280.273	870.62
280.505	888.62
280.736	864.62
280.968	832.62
281.199	746.62
281.431	714.62
281.662	719.62
281.894	739.62
282.125	744.62
282.356	765.62
282.588	796.62
282.819	785.62
283.051	846.62
283.282	912.62
283.513	843.62
283.745	766.62
283.976	726.62
284.207	729.62
284.439	782.62
284.67	755.62
284.901	784.62
285.132	810.62
285.364	774.62
285.595	790.62
285.826	742.62
286.057	783.62
286.288	774.62
286.52	805.62
286.751	848.62
286.982	880.62
287.213	797.62
287.444	736.62
287.675	770.62
287.906	788.62
288.138	843.62
288.369	816.62
288.6	773.62
288.831	751.62
289.062	761.62
289.293	770.62
289.524	778.62
289.755	804.62
289.986	793.62
290.217	765.62
290.448	757.62
290.679	788.62
290.91	788.62
291.141	805.62
291.371	814.62
291.602	808.62
291.833	815.62
292.064	844.62
292.295	854.62
292.526	859.62
292.757	873.62
292.987	839.62
293.218	815.62
293.449	911.62
293.68	988.62
293.91	1022.62
294.141	950.62
294.372	926.62
294.603	972.62
294.833	1006.62
295.064	938.62
295.295	828.62
295.525	812.62
295.756	764.62
295.987	718.62
296.217	780.62
296.448	800.62
296.679	776.62
296.909	779.62
297.14	777.62
297.37	816.62
297.601	844.62
297.831	902.62
298.062	885.62
298.292	808.62
298.523	794.62
298.753	794.62
298.984	796.62
299.214	807.62
299.445	844.62
299.675	851.62
299.905	850.62
300.136	810.62
300.366	802.62
300.597	796.62
300.827	791.62
301.057	817.62
301.288	863.62
301.518	872.62
301.748	892.62
301.979	922.62
302.209	930.62
302.439	968.62
302.669	997.62
302.9	952.62
303.13	862.62
303.36	842.62
303.59	863.62
303.82	867.62
304.051	853.62
304.281	862.62
304.511	890.62
304.741	942.62
304.971	1044.62
305.201	1072.62
305.431	987.62
305.661	820.62
305.891	761.62
306.121	768.62
306.352	809.62
306.582	840.62
306.812	922.62
307.042	953.62
307.272	937.62
307.502	1011.62
307.731	1053.62
307.961	1140.62
308.191	998.62
308.421	903.62
308.651	856.62
308.881	860.62
309.111	839.62
309.341	831.62
309.571	834.62
309.8	839.62
310.03	820.62
310.26	811.62
310.49	843.62
310.72	852.62
310.949	905.62
311.179	892.62
311.409	885.62
311.639	869.62
311.868	851.62
312.098	869.62
312.328	842.62
312.557	870.62
312.787	898.62
313.017	871.62
313.246	846.62
313.476	883.62
313.706	890.62
313.935	874.62
314.165	898.62
314.394	914.62
314.624	978.62
314.853	1035.62
315.083	1042.62
315.312	1078.62
315.542	973.62
315.771	919.62
316.001	906.62
316.23	963.62
316.46	976.62
316.689	924.62
316.919	872.62
317.148	856.62
317.377	894.62
317.607	991.62
317.836	1036.62
318.065	1101.62
318.295	1013.62
318.524	996.62
318.753	942.62
318.983	936.62
319.212	948.62
319.441	908.62
319.67	912.62
319.9	914.62
320.129	995.62
320.358	1044.62
320.587	1030.62
320.816	1011.62
321.046	1014.62
321.275	992.62
321.504	1018.62
321.733	1042.62
321.962	999.62
322.191	928.62
322.42	950.62
322.649	935.62
322.878	923.62
323.108	935.62
323.337	979.62
323.566	950.62
323.795	970.62
324.024	971.62
324.253	950.62
324.482	938.62
324.71	923.62
324.939	896.62
325.168	909.62
325.397	940.62
325.626	983.62
325.855	952.62
326.084	942.62
326.313	966.62
326.542	962.62
326.77	1013.62
326.999	983.62
327.228	929.62
327.457	885.62
327.686	912.62
327.914	939.62
328.143	950.62
328.372	916.62
328.6	950.62
328.829	937.62
329.058	930.62
329.287	923.62
329.515	983.62
329.744	963.62
329.972	1014.62
330.201	1061.62
330.43	996.62
330.658	1009.62
330.887	981.62
331.115	1000.62
331.344	1005.62
331.572	964.62
331.801	991.62
332.03	954.62
332.258	972.62
332.486	1019.62
332.715	1033.62
332.943	1015.62
333.172	985.62
333.4	1010.62
333.629	1020.62
333.857	1101.62
334.085	1219.62
334.314	1370.62
334.542	1464.62
334.771	1314.62
334.999	1163.62
335.227	1105.62
335.455	1054.62
335.684	1049.62
335.912	1113.62
336.14	1096.62
336.369	1076.62
336.597	998.62
336.825	1030.62
337.053	1039.62
337.281	1100.62
337.51	1160.62
337.738	1162.62
337.966	1104.62
338.194	1040.62
338.422	1008.62
338.65	973.62
338.878	954.62
339.106	979.62
339.334	954.62
339.562	936.62
339.79	975.62
340.018	1033.62
340.246	1044.62
340.474	1064.62
340.702	1019.62
340.93	1032.62
341.158	1018.62
341.386	1004.62
341.614	1001.62
341.842	972.62
342.07	1005.62
342.298	998.62
342.526	1001.62
342.754	962.62
342.981	995.62
343.209	998.62
343.437	980.62
343.665	980.62
343.893	1001.62
344.12	1048.62
344.348	1053.62
344.576	1044.62
344.804	991.62
345.031	986.62
345.259	997.62
345.487	961.62
345.714	908.62
345.942	888.62
346.17	951.62
346.397	947.62
346.625	949.62
346.853	909.62
347.08	871.62
347.308	916.62
347.535	927.62
347.763	956.62
347.99	938.62
348.218	899.62
348.445	926.62
348.673	935.62
348.9	952.62
349.128	973.62
349.355	965.62
349.583	968.62
349.81	936.62
350.037	883.62
350.265	870.62
350.492	884.62
350.72	942.62
350.947	985.62
351.174	979.62
351.402	923.62
351.629	885.62
351.856	862.62
352.083	855.62
352.311	876.62
352.538	932.62
352.765	940.62
352.992	940.62
353.22	911.62
353.447	898.62
353.674	914.62
353.901	925.62
354.128	888.62
354.355	927.62
354.583	970.62
354.81	986.62
355.037	962.62
355.264	950.62
355.491	948.62
355.718	914.62
355.945	897.62
356.172	915.62
356.399	924.62
356.626	898.62
356.853	970.62
357.08	1062.62
357.307	1143.62
357.534	1114.62
357.761	963.62
357.988	891.62
358.215	888.62
358.441	910.62
358.668	888.62
358.895	935.62
359.122	989.62
359.349	1072.62
359.576	996.62
359.802	909.62
360.029	920.62
360.256	914.62
360.483	900.62
360.709	973.62
360.936	1002.62
361.163	1045.62
361.39	1107.62
361.616	1177.62
361.843	1108.62
362.07	1024.62
362.296	942.62
362.523	898.62
362.749	938.62
362.976	943.62
363.203	960.62
363.429	927.62
363.656	906.62
363.882	968.62
364.109	1069.62
364.335	1082.62
364.562	1019.62
364.788	970.62
365.015	944.62
365.241	914.62
365.468	950.62
365.694	1010.62
365.92	1015.62
366.147	971.62
366.373	918.62
366.599	916.62
366.826	904.62
367.052	947.62
367.278	938.62
367.505	936.62
367.731	984.62
367.957	976.62
368.184	1023.62
368.41	1061.62
368.636	1064.62
368.862	1074.62
369.089	1058.62
369.315	1004.62
369.541	995.62
369.767	963.62
369.993	919.62
370.219	928.62
370.445	965.62
370.672	1034.62
370.898	1070.62
371.124	1053.62
371.35	1019.62
371.576	1042.62
371.802	1038.62
372.028	1036.62
372.254	958.62
372.48	948.62
372.706	922.62
372.932	955.62
373.158	926.62
373.384	978.62
373.61	1037.62
373.835	1046.62
374.061	992.62
374.287	991.62
374.513	988.62
374.739	994.62
374.965	1020.62
375.191	1001.62
375.416	1022.62
375.642	1050.62
375.868	1098.62
376.094	1110.62
376.319	1045.62
376.545	1022.62
376.771	1059.62
376.997	1091.62
377.222	1064.62
377.448	1017.62
377.674	1039.62
377.899	1066.62
378.125	1113.62
378.35	1087.62
378.576	998.62
378.802	962.62
379.027	972.62
379.253	976.62
379.478	978.62
379.704	995.62
379.929	986.62
380.155	997.62
380.38	1012.62
380.606	1024.62
380.831	1019.62
381.057	1061.62
381.282	1068.62
381.507	1073.62
381.733	1140.62
381.958	1142.62
382.184	1080.62
382.409	1037.62
382.634	1062.62
382.86	1036.62
383.085	1066.62
383.31	1110.62
383.535	1173.62
383.761	1237.62
383.986	1187.62
384.211	1138.62
384.436	1156.62
384.662	1176.62
384.887	1218.62
385.112	1154.62
385.337	1161.62
385.562	1141.62
385.787	1141.62
386.013	1159.62
386.238	1182.62
386.463	1182.62
386.688	1268.62
386.913	1332.62
387.138	1287.62
387.363	1192.62
387.588	1167.62
387.813	1190.62
388.038	1211.62
388.263	1239.62
388.488	1154.62
388.713	1084.62
388.938	1074.62
389.163	1096.62
389.387	1127.62
389.612	1138.62
389.837	1154.62
390.062	1167.62
390.287	1131.62
390.512	1124.62
390.736	1125.62
390.961	1097.62
391.186	1090.62
391.411	1112.62
391.636	1099.62
391.86	1160.62
392.085	1151.62
392.31	1129.62
392.534	1141.62
392.759	1162.62
392.984	1152.62
393.208	1185.62
393.433	1200.62
393.658	1245.62
393.882	1231.62
394.107	1147.62
394.331	1152.62
394.556	1152.62
394.78	1149.62
395.005	1222.62
395.229	1255.62
395.454	1331.62
395.678	1317.62
395.903	1212.62
396.127	1198.62
396.352	1197.62
396.576	1223.62
396.801	1253.62
397.025	1239.62
397.249	1263.62
397.474	1222.62
397.698	1243.62
397.922	1258.62
398.147	1350.62
398.371	1421.62
398.595	1340.62
398.82	1320.62
399.044	1348.62
399.268	1395.62
399.492	1469.62
399.717	1482.62
399.941	1515.62
400.165	1475.62
400.389	1464.62
400.613	1468.62
400.837	1710.62
401.062	1827.62
401.286	1554.62
401.51	1474.62
401.734	1491.62
401.958	1451.62
402.182	1338.62
402.406	1302.62
402.63	1272.62
402.854	1339.62
403.078	1346.62
403.302	1342.62
403.526	1322.62
403.75	1316.62
403.974	1366.62
404.198	1365.62
404.422	1417.62
404.645	1507.62
404.869	1443.62
405.093	1348.62
405.317	1322.62
405.541	1343.62
405.765	1360.62
405.988	1404.62
406.212	1404.62
406.436	1434.62
406.66	1441.62
406.883	1499.62
407.107	1695.62
407.331	1798.62
407.555	1888.62
407.778	1718.62
408.002	1487.62
408.226	1404.62
408.449	1452.62
408.673	1434.62
408.896	1390.62
409.12	1385.62
409.344	1392.62
409.567	1355.62
409.791	1394.62
410.014	1388.62
410.238	1472.62
410.461	1566.62
410.685	1407.62
410.908	1344.62
411.132	1371.62
411.355	1365.62
411.578	1329.62
411.802	1358.62
412.025	1378.62
412.249	1328.62
412.472	1322.62
412.695	1310.62
412.919	1330.62
413.142	1295.62
413.365	1318.62
413.589	1407.62
413.812	1439.62
414.035	1452.62
414.258	1354.62
414.482	1304.62
414.705	1340.62
414.928	1278.62
415.151	1310.62
415.374	1319.62
415.597	1352.62
415.821	1341.62
416.044	1358.62
416.267	1350.62
416.49	1269.62
416.713	1274.62
416.936	1316.62
417.159	1420.62
417.382	1400.62
417.605	1308.62
417.828	1346.62
418.051	1344.62
418.274	1336.62
418.497	1297.62
418.72	1285.62
418.943	1266.62
419.166	1333.62
419.389	1388.62
419.611	1315.62
419.834	1323.62
420.057	1285.62
420.28	1278.62
420.503	1314.62
420.726	1304.62
420.948	1307.62
421.171	1271.62
421.394	1325.62
421.617	1344.62
421.839	1341.62
422.062	1322.62
422.285	1341.62
422.507	1275.62
422.73	1266.62
422.953	1227.62
423.175	1225.62
423.398	1293.62
423.621	1296.62
423.843	1307.62
424.066	1351.62
424.288	1369.62
424.511	1424.62
424.733	1376.62
424.956	1236.62
425.178	1255.62
425.401	1254.62
425.623	1266.62
425.846	1255.62
426.068	1381.62
426.291	1391.62
426.513	1355.62
426.735	1342.62
426.958	1453.62
427.18	1516.62
427.402	1371.62
427.625	1448.62
427.847	1388.62
428.069	1311.62
428.292	1268.62
428.514	1229.62
428.736	1266.62
428.958	1260.62
429.181	1286.62
429.403	1503.62
429.625	1771.62
429.847	1491.62
430.069	1332.62
430.292	1464.62
430.514	1455.62
430.736	1410.62
430.958	1383.62
431.18	1294.62
431.402	1231.62
431.624	1212.62
431.846	1203.62
432.068	1147.62
432.29	1173.62
432.512	1199.62
432.734	1270.62
432.956	1293.62
433.178	1321.62
433.4	1338.62
433.622	1302.62
433.844	1240.62
434.066	1212.62
434.287	1158.62
434.509	1222.62
434.731	1302.62
434.953	1377.62
435.175	1356.62
435.397	1294.62
435.618	1294.62
435.84	1270.62
436.062	1236.62
436.284	1284.62
436.505	1310.62
436.727	1302.62
436.949	1243.62
437.17	1236.62
437.392	1221.62
437.614	1206.62
437.835	1192.62
438.057	1238.62
438.278	1280.62
438.5	1228.62
438.721	1255.62
438.943	1241.62
439.165	1229.62
439.386	1231.62
439.608	1256.62
439.829	1264.62
440.05	1244.62
440.272	1267.62
440.493	1260.62
440.715	1278.62
440.936	1361.62
441.158	1455.62
441.379	1412.62
441.6	1375.62
441.822	1368.62
442.043	1340.62
442.264	1357.62
442.486	1285.62
442.707	1305.62
442.928	1311.62
443.149	1289.62
443.371	1362.62
443.592	1419.62
443.813	1388.62
444.034	1389.62
444.255	1380.62
444.476	1435.62
444.698	1418.62
444.919	1383.62
445.14	1527.62
445.361	1454.62
445.582	1465.62
445.803	1422.62
446.024	1406.62
446.245	1445.62
446.466	1382.62
446.687	1375.62
446.908	1345.62
447.129	1346.62
447.35	1343.62
447.571	1282.62
447.792	1273.62
448.013	1238.62
448.234	1306.62
448.455	1333.62
448.675	1310.62
448.896	1243.62
449.117	1210.62
449.338	1227.62
449.559	1305.62
449.779	1359.62
450	1475.62
450.221	1498.62
450.442	1434.62
450.662	1299.62
450.883	1226.62
451.104	1181.62
451.324	1222.62
451.545	1228.62
451.766	1184.62
451.986	1145.62
452.207	1172.62
452.428	1121.62
452.648	1116.62
452.869	1149.62
453.089	1174.62
453.31	1163.62
453.53	1181.62
453.751	1124.62
453.971	1074.62
454.192	1119.62
454.412	1142.62
454.633	1158.62
454.853	1113.62
455.073	1066.62
455.294	1068.62
455.514	1087.62
455.734	1100.62
455.955	1099.62
456.175	1082.62
456.395	1099.62
456.616	1138.62
456.836	1082.62
457.056	1096.62
457.276	1106.62
457.497	1059.62
457.717	1016.62
457.937	1062.62
458.157	1064.62
458.377	1044.62
458.598	1026.62
458.818	1065.62
459.038	1123.62
459.258	1167.62
459.478	1168.62
459.698	1115.62
459.918	1160.62
460.138	1225.62
460.358	1262.62
460.578	1282.62
460.798	1319.62
461.018	1364.62
461.238	1311.62
461.458	1245.62
461.678	1280.62
461.898	1225.62
462.118	1214.62
462.338	1251.62
462.558	1241.62
462.777	1305.62
462.997	1362.62
463.217	1356.62
463.437	1387.62
463.657	1284.62
463.876	1231.62
464.096	1261.62
464.316	1283.62
464.536	1339.62
464.755	1362.62
464.975	1310.62
465.195	1306.62
465.414	1316.62
465.634	1335.62
465.854	1306.62
466.073	1405.62
466.293	1384.62
466.512	1199.62
466.732	1225.62
466.951	1236.62
467.171	1266.62
467.391	1190.62
467.61	1211.62
467.829	1225.62
468.049	1346.62
468.268	1438.62
468.488	1326.62
468.707	1259.62
468.927	1223.62
469.146	1203.62
469.365	1220.62
469.585	1267.62
469.804	1241.62
470.023	1258.62
470.243	1264.62
470.462	1228.62
470.681	1222.62
470.901	1235.62
471.12	1225.62
471.339	1261.62
471.558	1186.62
471.777	1189.62
471.997	1210.62
472.216	1166.62
472.435	1143.62
472.654	1139.62
472.873	1188.62
473.092	1254.62
473.311	1178.62
473.53	1167.62
473.749	1173.62
473.968	1188.62
474.187	1219.62
474.406	1258.62
474.625	1254.62
474.844	1188.62
475.063	1213.62
475.282	1214.62
475.501	1201.62
475.72	1208.62
475.939	1311.62
476.158	1245.62
476.377	1224.62
476.596	1253.62
476.814	1247.62
477.033	1239.62
477.252	1284.62
477.471	1309.62
477.69	1320.62
477.908	1300.62
478.127	1360.62
478.346	1471.62
478.564	1449.62
478.783	1410.62
479.002	1457.62
479.22	1450.62
479.439	1476.62
479.658	1595.62
479.876	1521.62
480.095	1354.62
480.313	1347.62
480.532	1305.62
480.751	1349.62
480.969	1328.62
481.188	1280.62
481.406	1273.62
481.624	1211.62
481.843	1257.62
482.061	1289.62
482.28	1332.62
482.498	1348.62
482.717	1325.62
482.935	1332.62
483.153	1342.62
483.372	1410.62
483.59	1377.62
483.808	1405.62
484.027	1360.62
484.245	1466.62
484.463	1742.62
484.681	1904.62
484.9	1484.62
485.118	1387.62
485.336	1364.62
485.554	1386.62
485.772	1410.62
485.99	1379.62
486.209	1389.62
486.427	1391.62
486.645	1399.62
486.863	1397.62
487.081	1474.62
487.299	1496.62
487.517	1444.62
487.735	1462.62
487.953	1482.62
488.171	1471.62
488.389	1503.62
488.607	1459.62
488.825	1579.62
489.043	1564.62
489.261	1400.62
489.479	1470.62
489.696	1484.62
489.914	1460.62
490.132	1462.62
490.35	1473.62
490.568	1549.62
490.786	1506.62
491.003	1512.62
491.221	1526.62
491.439	1606.62
491.657	1571.62
491.874	1622.62
492.092	1657.62
492.31	1722.62
492.527	1718.62
492.745	1615.62
492.963	1626.62
493.18	1641.62
493.398	1710.62
493.615	1751.62
493.833	1565.62
494.05	1562.62
494.268	1566.62
494.485	1586.62
494.703	1574.62
494.92	1547.62
495.138	1591.62
495.355	1560.62
495.573	1627.62
495.79	1718.62
496.008	1726.62
496.225	1579.62
496.442	1633.62
496.66	1616.62
496.877	1622.62
497.094	1640.62
497.312	1643.62
497.529	1613.62
497.746	1665.62
497.963	1853.62
498.181	1985.62
498.398	1927.62
498.615	1825.62
498.832	1807.62
499.049	1780.62
499.267	1814.62
499.484	1873.62
499.701	2018.62
499.918	2065.62
500.135	2262.62
500.352	2407.62
500.569	2391.62
500.786	2523.62
501.003	2374.62
501.22	2162.62
501.437	2101.62
501.654	2105.62
501.871	2015.62
502.088	1817.62
502.305	1787.62
502.522	1694.62
502.739	1608.62
502.956	1570.62
503.172	1570.62
503.389	1495.62
503.606	1479.62
503.823	1498.62
504.04	1490.62
504.256	1508.62
504.473	1489.62
504.69	1548.62
504.907	1439.62
505.123	1435.62
505.34	1565.62
505.557	1989.62
505.773	1671.62
505.99	1424.62
506.207	1314.62
506.423	1316.62
506.64	1297.62
506.856	1337.62
507.073	1525.62
507.289	1661.62
507.506	1538.62
507.722	1330.62
507.939	1246.62
508.155	1233.62
508.372	1284.62
508.588	1197.62
508.805	1165.62
509.021	1190.62
509.238	1148.62
509.454	1158.62
509.67	1181.62
509.887	1159.62
510.103	1134.62
510.319	1178.62
510.536	1220.62
510.752	1220.62
510.968	1219.62
511.184	1309.62
511.401	1251.62
511.617	1151.62
511.833	1096.62
512.049	1110.62
512.265	1113.62
512.481	1117.62
512.698	1179.62
512.914	1226.62
513.13	1194.62
513.346	1130.62
513.562	1087.62
513.778	1127.62
513.994	1165.62
514.21	1203.62
514.426	1217.62
514.642	1335.62
514.858	1246.62
515.074	1164.62
515.29	1131.62
515.506	1151.62
515.721	1170.62
515.937	1200.62
516.153	1313.62
516.369	1290.62
516.585	1175.62
516.801	1168.62
517.016	1146.62
517.232	1183.62
517.448	1220.62
517.664	1223.62
517.879	1218.62
518.095	1311.62
518.311	1268.62
518.527	1164.62
518.742	1157.62
518.958	1151.62
519.173	1168.62
519.389	1184.62
519.605	1211.62
519.82	1176.62
520.036	1208.62
520.251	1144.62
520.467	1185.62
520.682	1238.62
520.898	1264.62
521.113	1149.62
521.329	1130.62
521.544	1230.62
521.76	1158.62
521.975	1111.62
522.19	1084.62
522.406	1106.62
522.621	1418.62
522.836	1333.62
523.052	1090.62
523.267	1091.62
523.482	1139.62
523.698	1065.62
523.913	1062.62
524.128	1104.62
524.343	1153.62
524.559	1181.62
524.774	1088.62
524.989	1115.62
525.204	1082.62
525.419	1080.62
525.634	1092.62
525.849	1095.62
526.064	1080.62
526.28	1080.62
526.495	1012.62
526.71	1027.62
526.925	1029.62
527.14	993.62
527.355	990.62
527.57	999.62
527.785	1019.62
527.999	997.62
528.214	978.62
528.429	1012.62
528.644	1038.62
528.859	1070.62
529.074	1074.62
529.289	1090.62
529.503	1126.62
529.718	1124.62
529.933	1025.62
530.148	996.62
530.363	958.62
530.577	991.62
530.792	999.62
531.007	989.62
531.221	992.62
531.436	1007.62
531.651	1031.62
531.865	1103.62
532.08	1046.62
532.295	970.62
532.509	926.62
532.724	966.62
532.938	997.62
533.153	1041.62
533.367	1045.62
533.582	1037.62
533.796	1015.62
534.011	1030.62
534.225	1016.62
534.44	979.62
534.654	962.62
534.868	980.62
535.083	1045.62
535.297	1054.62
535.511	1006.62
535.726	1017.62
535.94	976.62
536.154	980.62
536.369	984.62
536.583	937.62
536.797	941.62
537.011	976.62
537.225	918.62
537.44	938.62
537.654	978.62
537.868	953.62
538.082	900.62
538.296	939.62
538.51	935.62
538.724	971.62
538.938	982.62
539.153	1017.62
539.367	1003.62
539.581	966.62
539.795	1009.62
540.009	987.62
540.222	964.62
540.436	982.62
540.65	1084.62
540.864	1076.62
541.078	1039.62
541.292	1035.62
541.506	1095.62
541.72	1125.62
541.934	1170.62
542.147	1216.62
542.361	1167.62
542.575	1076.62
542.789	1051.62
543.002	987.62
543.216	988.62
543.43	1028.62
543.644	1074.62
543.857	1117.62
544.071	1103.62
544.285	1114.62
544.498	1075.62
544.712	1082.62
544.925	1105.62
545.139	1124.62
545.352	1080.62
545.566	1054.62
545.779	1076.62
545.993	1099.62
546.206	1079.62
546.42	1072.62
546.633	1053.62
546.847	1087.62
547.06	1051.62
547.274	1074.62
547.487	1076.62
547.7	1100.62
547.914	1099.62
548.127	1096.62
548.34	1071.62
548.554	1064.62
548.767	1056.62
548.98	1056.62
549.193	1068.62
549.407	1124.62
549.62	1122.62
549.833	1069.62
550.046	1043.62
550.259	1058.62
550.473	1036.62
550.686	1054.62
550.899	1013.62
551.112	1004.62
551.325	987.62
551.538	1024.62
551.751	1140.62
551.964	934.62
552.177	956.62
552.39	980.62
552.603	1038.62
552.816	1005.62
553.029	1086.62
553.242	1093.62
553.455	1048.62
553.667	1029.62
553.88	1044.62
554.093	1040.62
554.306	997.62
554.519	987.62
554.732	956.62
554.944	940.62
555.157	982.62
555.37	974.62
555.583	953.62
555.795	924.62
556.008	917.62
556.221	871.62
556.433	893.62
556.646	847.62
556.859	895.62
557.071	867.62
557.284	857.62
557.496	880.62
557.709	886.62
557.921	888.62
558.134	872.62
558.346	889.62
558.559	866.62
558.771	845.62
558.984	826.62
559.196	821.62
559.409	810.62
559.621	816.62
559.833	829.62
560.046	837.62
560.258	838.62
560.47	833.62
560.683	842.62
560.895	823.62
561.107	814.62
561.32	824.62
561.532	849.62
561.744	849.62
561.956	820.62
562.168	797.62
562.381	756.62
562.593	808.62
562.805	801.62
563.017	774.62
563.229	822.62
563.441	819.62
563.653	778.62
563.865	800.62
564.077	782.62
564.289	767.62
564.501	804.62
564.713	813.62
564.925	864.62
565.137	877.62
565.349	803.62
565.561	807.62
565.773	796.62
565.985	821.62
566.197	886.62
566.408	925.62
566.62	906.62
566.832	894.62
567.044	931.62
567.255	924.62
567.467	895.62
567.679	951.62
567.891	916.62
568.102	897.62
568.314	854.62
568.526	853.62
568.737	784.62
568.949	751.62
569.161	699.62
569.372	702.62
569.584	681.62
569.795	705.62
570.007	713.62
570.218	642.62
570.43	669.62
570.641	660.62
570.853	657.62
571.064	681.62
571.276	675.62
571.487	679.62
571.698	664.62
571.91	643.62
572.121	630.62
572.333	626.62
572.544	630.62
572.755	618.62
572.966	584.62
573.178	581.62
573.389	578.62
573.6	618.62
573.811	646.62
574.023	607.62
574.234	616.62
574.445	578.62
574.656	578.62
574.867	556.62
575.078	571.62
575.289	569.62
575.501	579.62
575.712	556.62
575.923	564.62
576.134	547.62
576.345	582.62
576.556	565.62
576.767	557.62
576.978	531.62
577.188	546.62
577.399	537.62
577.61	519.62
577.821	517.62
578.032	511.62
578.243	514.62
578.454	508.62
578.665	515.62
578.875	524.62
579.086	493.62
579.297	509.62
579.508	532.62
579.718	510.62
579.929	502.62
580.14	517.62
580.35	503.62
580.561	526.62
580.772	566.62
580.982	522.62
581.193	505.62
581.403	516.62
581.614	498.62
581.825	498.62
582.035	488.62
582.246	481.62
582.456	490.62
582.667	486.62
582.877	480.62
583.087	475.62
583.298	473.62
583.508	482.62
583.719	469.62
583.929	473.62
584.139	470.62
584.35	461.62
584.56	462.62
584.77	483.62
584.981	461.62
585.191	503.62
585.401	483.62
585.611	479.62
585.821	471.62
586.032	465.62
586.242	450.62
586.452	429.62
586.662	474.62
586.872	453.62
587.082	454.62
587.292	464.62
587.502	474.62
587.713	460.62
587.923	459.62
588.133	462.62
588.343	455.62
588.553	444.62
588.762	430.62
588.972	430.62
589.182	467.62
589.392	469.62
589.602	467.62
589.812	456.62
590.022	426.62
590.232	444.62
590.441	460.62
590.651	463.62
590.861	445.62
591.071	429.62
591.281	435.62
591.49	462.62
591.7	449.62
591.91	458.62
592.119	436.62
592.329	453.62
592.539	483.62
592.748	458.62
592.958	445.62
593.167	473.62
593.377	456.62
593.587	463.62
593.796	498.62
594.006	498.62
594.215	493.62
594.424	474.62
594.634	468.62
594.843	451.62
595.053	503.62
595.262	456.62
595.472	467.62
595.681	462.62
595.89	444.62
596.1	438.62
596.309	448.62
596.518	420.62
596.727	447.62
596.937	436.62
597.146	436.62
597.355	432.62
597.564	420.62
597.774	408.62
597.983	410.62
598.192	388.62
598.401	404.62
598.61	398.62
598.819	376.62
599.028	406.62
599.237	384.62
599.446	415.62
599.655	403.62
599.864	389.62
600.073	392.62
600.282	388.62
600.491	403.62
600.7	399.62
600.909	388.62
601.118	394.62
601.327	404.62
601.536	414.62
601.745	419.62
601.953	438.62
602.162	441.62
602.371	447.62
602.58	428.62
602.789	410.62
602.997	412.62
603.206	407.62
603.415	418.62
603.623	401.62
603.832	421.62
604.041	397.62
604.249	396.62
604.458	397.62
604.666	404.62
604.875	379.62
605.084	401.62
605.292	410.62
605.501	411.62
605.709	422.62
605.918	398.62
606.126	406.62
606.334	399.62
606.543	400.62
606.751	408.62
606.96	410.62
607.168	397.62
607.376	382.62
607.585	411.62
607.793	418.62
608.001	384.62
608.21	395.62
608.418	428.62
608.626	407.62
608.834	406.62
609.043	396.62
609.251	403.62
609.459	398.62
609.667	438.62
609.875	427.62
610.083	409.62
610.291	422.62
610.499	404.62
610.707	411.62
610.916	411.62
611.124	386.62
611.332	397.62
611.54	400.62
611.748	428.62
611.955	408.62
612.163	395.62
612.371	392.62
612.579	395.62
612.787	400.62
612.995	398.62
613.203	377.62
613.411	397.62
613.618	400.62
613.826	398.62
614.034	388.62
614.242	385.62
614.449	389.62
614.657	398.62
614.865	397.62
615.072	407.62
615.28	383.62
615.488	394.62
615.695	414.62
615.903	390.62
616.111	395.62
616.318	410.62
616.526	392.62
616.733	388.62
616.941	385.62
617.148	395.62
617.356	385.62
617.563	388.62
617.771	391.62
617.978	371.62
618.185	380.62
618.393	379.62
618.6	404.62
618.807	383.62
619.015	379.62
619.222	375.62
619.429	347.62
619.637	357.62
619.844	352.62
620.051	370.62
620.258	359.62
620.466	370.62
620.673	374.62
620.88	341.62
621.087	355.62
621.294	359.62
621.501	327.62
621.708	351.62
621.915	347.62
622.122	362.62
622.329	376.62
622.536	368.62
622.743	350.62
622.95	348.62
623.157	334.62
623.364	349.62
623.571	348.62
623.778	359.62
623.985	352.62
624.192	368.62
624.399	333.62
624.606	353.62
624.812	349.62
625.019	330.62
625.226	332.62
625.433	342.62
625.639	338.62
625.846	315.62
626.053	295.62
626.259	287.62
626.466	318.62
626.673	300.62
626.879	285.62
627.086	292.62
627.293	324.62
627.499	310.62
627.706	344.62
627.912	330.62
628.119	332.62
628.325	311.62
628.532	322.62
628.738	322.62
628.945	308.62
629.151	316.62
629.357	323.62
629.564	329.62
629.77	296.62
629.976	317.62
630.183	298.62
630.389	294.62
630.595	318.62
630.802	308.62
631.008	303.62
631.214	314.62
631.42	303.62
631.627	285.62
631.833	293.62
632.039	281.62
632.245	294.62
632.451	303.62
632.657	308.62
632.863	310.62
633.069	303.62
633.275	311.62
633.481	277.62
633.688	279.62
633.893	300.62
634.099	292.62
634.305	300.62
634.511	281.62
634.717	280.62
634.923	250.62
635.129	260.62
635.335	262.62
635.541	287.62
635.747	292.62
635.952	277.62
636.158	286.62
636.364	292.62
636.57	294.62
636.775	289.62
636.981	273.62
637.187	282.62
637.392	293.62
637.598	281.62
637.804	287.62
638.009	268.62
638.215	281.62
638.421	265.62
638.626	296.62
638.832	280.62
639.037	288.62
639.243	277.62
639.448	263.62
639.654	271.62
639.859	280.62
640.065	279.62
640.27	281.62
640.475	268.62
640.681	256.62
640.886	286.62
641.091	263.62
641.297	290.62
641.502	269.62
641.707	250.62
641.913	270.62
642.118	264.62
642.323	270.62
642.528	270.62
642.733	266.62
642.939	250.62
643.144	255.62
643.349	271.62
643.554	247.62
643.759	249.62
643.964	259.62
644.169	281.62
644.374	244.62
644.579	272.62
644.784	250.62
644.989	285.62
645.194	260.62
645.399	256.62
645.604	276.62
645.809	259.62
646.014	277.62
646.219	258.62
646.423	266.62
646.628	277.62
646.833	257.62
647.038	263.62
647.243	269.62
647.447	252.62
647.652	263.62
647.857	261.62
648.062	254.62
648.266	268.62
648.471	270.62
648.676	252.62
648.88	262.62
649.085	251.62
649.289	248.62
649.494	261.62
649.698	276.62
649.903	244.62
650.107	254.62
650.312	253.62
650.516	258.62
650.721	237.62
650.925	248.62
651.13	236.62
651.334	230.62
651.539	239.62
651.743	228.62
651.947	230.62
652.152	234.62
652.356	244.62
652.56	247.62
652.764	236.62
652.969	218.62
653.173	226.62
653.377	238.62
653.581	216.62
653.785	223.62
653.99	234.62
654.194	236.62
654.398	218.62
654.602	217.62
654.806	218.62
655.01	219.62
655.214	225.62
655.418	228.62
655.622	235.62
655.826	242.62
656.03	231.62
656.234	246.62
656.438	258.62
656.642	276.62
656.846	267.62
657.049	256.62
657.253	230.62
657.457	205.62
657.661	204.62
657.865	180.62
658.068	165.62
658.272	180.62
658.476	158.62
658.68	150.62
658.883	148.62
659.087	149.62
659.291	150.62
659.494	149.62
659.698	164.62
659.901	158.62
660.105	123.62
660.309	120.62
660.512	132.62
660.716	126.62
660.919	120.62
661.123	127.62
661.326	118.62
661.53	116.62
661.733	116.62
661.936	117.62
662.14	103.62
662.343	115.62
662.546	93.62
662.75	102.62
662.953	101.62
663.156	92.62
663.36	94.62
663.563	83.62
663.766	78.62
663.969	85.62
664.173	97.62
664.376	85.62
664.579	105.62
664.782	103.62
664.985	82.62
665.188	87.62
665.391	87.62
665.594	101.62
665.797	88.62
666	86.62
666.203	78.62
666.406	96.62
666.609	71.62
666.812	93.62
667.015	76.62
667.218	76.62
667.421	90.62
667.624	71.62
667.827	79.62
668.03	104.62
668.232	96.62
668.435	84.62
668.638	68.62
668.841	83.62
669.043	80.62
669.246	98.62
669.449	78.62
669.651	94.62
669.854	97.62
670.057	86.62
670.259	91.62
670.462	87.62
670.665	101.62
670.867	87.62
671.07	90.62
671.272	88.62
671.475	88.62
671.677	94.62
671.88	90.62
672.082	74.62
672.284	81.62
672.487	78.62
672.689	85.62
672.892	97.62
