Data from WStandard_LampEnergy8_LIBS07252019.E.O._I.C._HRD10591_16-00-05-929.txt Node
Date: Thu Jul 25 16:00:05 EDT 2019
User: cochatt
Spectrometer: HR+D1059
Trigger mode: 1
Integration Time (sec): 1.000000E-1
Scans to average: 1
Electric dark correction enabled: true
Nonlinearity correction enabled: false
Boxcar width: 0
XAxis mode: Wavelengths
Number of Pixels in Spectrum: 2048
>>>>>Begin Spectral Data<<<<<
223.165	-10.88
223.4	-10.88
223.635	-10.88
223.869	-19.88
224.104	-9.88
224.338	-23.88
224.573	-11.88
224.808	1.12
225.042	-9.88
225.277	7.12
225.511	-2.88
225.746	6.12
225.98	0.12
226.215	-7.88
226.449	7.12
226.683	13.12
226.918	30.12
227.152	32.12
227.387	34.12
227.621	39.12
227.856	51.12
228.09	57.12
228.324	53.12
228.559	59.12
228.793	86.12
229.027	199.12
229.262	202.12
229.496	222.12
229.73	239.12
229.964	280.12
230.199	272.12
230.433	267.12
230.667	281.12
230.901	287.12
231.136	272.12
231.37	271.12
231.604	255.12
231.838	269.12
232.072	269.12
232.306	262.12
232.541	290.12
232.775	302.12
233.009	323.12
233.243	299.12
233.477	308.12
233.711	300.12
233.945	314.12
234.179	314.12
234.413	295.12
234.647	336.12
234.881	330.12
235.115	298.12
235.349	302.12
235.583	321.12
235.817	315.12
236.051	312.12
236.285	301.12
236.519	329.12
236.753	371.12
236.987	370.12
237.221	351.12
237.455	390.12
237.689	370.12
237.922	355.12
238.156	346.12
238.39	355.12
238.624	373.12
238.858	390.12
239.091	399.12
239.325	436.12
239.559	486.12
239.793	494.12
240.027	542.12
240.26	510.12
240.494	398.12
240.728	374.12
240.961	383.12
241.195	378.12
241.429	420.12
241.662	425.12
241.896	422.12
242.13	404.12
242.363	454.12
242.597	460.12
242.83	442.12
243.064	467.12
243.298	489.12
243.531	491.12
243.765	453.12
243.998	473.12
244.232	420.12
244.465	412.12
244.699	411.12
244.932	486.12
245.166	540.12
245.399	500.12
245.633	468.12
245.866	438.12
246.099	487.12
246.333	483.12
246.566	509.12
246.8	534.12
247.033	588.12
247.266	542.12
247.5	524.12
247.733	520.12
247.966	576.12
248.2	594.12
248.433	590.12
248.666	618.12
248.899	690.12
249.133	743.12
249.366	815.12
249.599	698.12
249.832	618.12
250.066	615.12
250.299	648.12
250.532	573.12
250.765	534.12
250.998	562.12
251.231	607.12
251.465	603.12
251.698	597.12
251.931	594.12
252.164	607.12
252.397	626.12
252.63	601.12
252.863	536.12
253.096	548.12
253.329	591.12
253.562	590.12
253.795	616.12
254.028	616.12
254.261	595.12
254.494	567.12
254.727	574.12
254.96	579.12
255.193	652.12
255.426	724.12
255.659	785.12
255.892	793.12
256.124	671.12
256.357	672.12
256.59	688.12
256.823	690.12
257.056	719.12
257.289	835.12
257.521	920.12
257.754	825.12
257.987	792.12
258.22	856.12
258.452	793.12
258.685	666.12
258.918	677.12
259.151	662.12
259.383	636.12
259.616	596.12
259.849	616.12
260.081	701.12
260.314	780.12
260.547	820.12
260.779	840.12
261.012	787.12
261.244	700.12
261.477	654.12
261.71	690.12
261.942	700.12
262.175	682.12
262.407	682.12
262.64	668.12
262.872	631.12
263.105	641.12
263.337	630.12
263.57	635.12
263.802	654.12
264.035	608.12
264.267	566.12
264.499	576.12
264.732	613.12
264.964	639.12
265.197	670.12
265.429	714.12
265.661	776.12
265.894	870.12
266.126	884.12
266.358	792.12
266.591	818.12
266.823	864.12
267.055	800.12
267.287	794.12
267.52	738.12
267.752	765.12
267.984	760.12
268.216	809.12
268.448	795.12
268.681	759.12
268.913	728.12
269.145	698.12
269.377	694.12
269.609	766.12
269.841	871.12
270.073	1019.12
270.306	1094.12
270.538	1123.12
270.77	933.12
271.002	842.12
271.234	818.12
271.466	799.12
271.698	935.12
271.93	1094.12
272.162	1047.12
272.394	957.12
272.626	890.12
272.858	789.12
273.09	686.12
273.322	694.12
273.553	694.12
273.785	664.12
274.017	699.12
274.249	758.12
274.481	767.12
274.713	708.12
274.945	692.12
275.176	725.12
275.408	669.12
275.64	679.12
275.872	684.12
276.104	759.12
276.335	813.12
276.567	909.12
276.799	895.12
277.031	831.12
277.262	808.12
277.494	839.12
277.726	890.12
277.957	900.12
278.189	796.12
278.421	762.12
278.652	733.12
278.884	722.12
279.115	719.12
279.347	763.12
279.579	748.12
279.81	754.12
280.042	842.12
280.273	898.12
280.505	873.12
280.736	886.12
280.968	820.12
281.199	735.12
281.431	735.12
281.662	736.12
281.894	734.12
282.125	746.12
282.356	767.12
282.588	761.12
282.819	790.12
283.051	806.12
283.282	909.12
283.513	826.12
283.745	782.12
283.976	725.12
284.207	734.12
284.439	741.12
284.67	773.12
284.901	781.12
285.132	785.12
285.364	760.12
285.595	779.12
285.826	770.12
286.057	745.12
286.288	766.12
286.52	812.12
286.751	833.12
286.982	887.12
287.213	820.12
287.444	750.12
287.675	750.12
287.906	789.12
288.138	840.12
288.369	820.12
288.6	741.12
288.831	720.12
289.062	734.12
289.293	770.12
289.524	767.12
289.755	764.12
289.986	811.12
290.217	750.12
290.448	729.12
290.679	775.12
290.91	759.12
291.141	802.12
291.371	825.12
291.602	810.12
291.833	849.12
292.064	858.12
292.295	851.12
292.526	835.12
292.757	891.12
292.987	804.12
293.218	818.12
293.449	877.12
293.68	967.12
293.91	1016.12
294.141	950.12
294.372	921.12
294.603	950.12
294.833	955.12
295.064	899.12
295.295	840.12
295.525	794.12
295.756	766.12
295.987	746.12
296.217	771.12
296.448	777.12
296.679	775.12
296.909	756.12
297.14	774.12
297.37	794.12
297.601	815.12
297.831	879.12
298.062	875.12
298.292	827.12
298.523	793.12
298.753	791.12
298.984	795.12
299.214	814.12
299.445	834.12
299.675	868.12
299.905	815.12
300.136	810.12
300.366	826.12
300.597	790.12
300.827	759.12
301.057	812.12
301.288	875.12
301.518	856.12
301.748	871.12
301.979	930.12
302.209	943.12
302.439	988.12
302.669	1022.12
302.9	941.12
303.13	869.12
303.36	875.12
303.59	856.12
303.82	859.12
304.051	872.12
304.281	879.12
304.511	866.12
304.741	955.12
304.971	1018.12
305.201	1059.12
305.431	961.12
305.661	803.12
305.891	764.12
306.121	762.12
306.352	829.12
306.582	857.12
306.812	910.12
307.042	930.12
307.272	942.12
307.502	984.12
307.731	1052.12
307.961	1080.12
308.191	974.12
308.421	896.12
308.651	859.12
308.881	826.12
309.111	850.12
309.341	806.12
309.571	828.12
309.8	828.12
310.03	830.12
310.26	814.12
310.49	802.12
310.72	851.12
310.949	880.12
311.179	874.12
311.409	865.12
311.639	857.12
311.868	848.12
312.098	844.12
312.328	833.12
312.557	867.12
312.787	842.12
313.017	859.12
313.246	883.12
313.476	865.12
313.706	898.12
313.935	924.12
314.165	930.12
314.394	935.12
314.624	975.12
314.853	1050.12
315.083	1069.12
315.312	1037.12
315.542	998.12
315.771	911.12
316.001	958.12
316.23	980.12
316.46	958.12
316.689	916.12
316.919	890.12
317.148	855.12
317.377	898.12
317.607	942.12
317.836	1040.12
318.065	1074.12
318.295	1033.12
318.524	1004.12
318.753	959.12
318.983	942.12
319.212	915.12
319.441	900.12
319.67	909.12
319.9	948.12
320.129	975.12
320.358	989.12
320.587	1044.12
320.816	1035.12
321.046	987.12
321.275	1002.12
321.504	1003.12
321.733	1075.12
321.962	1008.12
322.191	961.12
322.42	947.12
322.649	934.12
322.878	908.12
323.108	955.12
323.337	946.12
323.566	952.12
323.795	941.12
324.024	946.12
324.253	937.12
324.482	930.12
324.71	918.12
324.939	879.12
325.168	899.12
325.397	940.12
325.626	959.12
325.855	943.12
326.084	925.12
326.313	933.12
326.542	948.12
326.77	987.12
326.999	968.12
327.228	927.12
327.457	880.12
327.686	879.12
327.914	910.12
328.143	949.12
328.372	950.12
328.6	926.12
328.829	934.12
329.058	928.12
329.287	912.12
329.515	949.12
329.744	948.12
329.972	1002.12
330.201	1046.12
330.43	996.12
330.658	967.12
330.887	979.12
331.115	992.12
331.344	1006.12
331.572	962.12
331.801	965.12
332.03	965.12
332.258	974.12
332.486	986.12
332.715	1002.12
332.943	994.12
333.172	987.12
333.4	989.12
333.629	1015.12
333.857	1110.12
334.085	1211.12
334.314	1364.12
334.542	1434.12
334.771	1308.12
334.999	1146.12
335.227	1099.12
335.455	1046.12
335.684	1070.12
335.912	1077.12
336.14	1112.12
336.369	1074.12
336.597	1010.12
336.825	964.12
337.053	1045.12
337.281	1090.12
337.51	1157.12
337.738	1169.12
337.966	1090.12
338.194	1025.12
338.422	993.12
338.65	983.12
338.878	967.12
339.106	950.12
339.334	929.12
339.562	936.12
339.79	986.12
340.018	1022.12
340.246	1047.12
340.474	1075.12
340.702	1003.12
340.93	1036.12
341.158	1016.12
341.386	1002.12
341.614	989.12
341.842	989.12
342.07	1001.12
342.298	1022.12
342.526	1010.12
342.754	984.12
342.981	981.12
343.209	975.12
343.437	980.12
343.665	981.12
343.893	1008.12
344.12	1089.12
344.348	1023.12
344.576	998.12
344.804	992.12
345.031	989.12
345.259	998.12
345.487	962.12
345.714	913.12
345.942	935.12
346.17	937.12
346.397	960.12
346.625	912.12
346.853	896.12
347.08	853.12
347.308	890.12
347.535	932.12
347.763	970.12
347.99	939.12
348.218	927.12
348.445	928.12
348.673	933.12
348.9	939.12
349.128	1012.12
349.355	1000.12
349.583	976.12
349.81	951.12
350.037	883.12
350.265	851.12
350.492	882.12
350.72	918.12
350.947	973.12
351.174	958.12
351.402	897.12
351.629	838.12
351.856	852.12
352.083	853.12
352.311	867.12
352.538	893.12
352.765	940.12
352.992	946.12
353.22	904.12
353.447	866.12
353.674	914.12
353.901	916.12
354.128	882.12
354.355	896.12
354.583	965.12
354.81	946.12
355.037	958.12
355.264	959.12
355.491	930.12
355.718	910.12
355.945	952.12
356.172	904.12
356.399	901.12
356.626	862.12
356.853	980.12
357.08	1036.12
357.307	1114.12
357.534	1065.12
357.761	982.12
357.988	907.12
358.215	878.12
358.441	865.12
358.668	876.12
358.895	906.12
359.122	974.12
359.349	1074.12
359.576	1027.12
359.802	932.12
360.029	890.12
360.256	908.12
360.483	943.12
360.709	951.12
360.936	972.12
361.163	1034.12
361.39	1130.12
361.616	1155.12
361.843	1116.12
362.07	1067.12
362.296	920.12
362.523	928.12
362.749	905.12
362.976	954.12
363.203	963.12
363.429	955.12
363.656	915.12
363.882	962.12
364.109	1055.12
364.335	1092.12
364.562	1028.12
364.788	996.12
365.015	945.12
365.241	907.12
365.468	926.12
365.694	963.12
365.92	1004.12
366.147	954.12
366.373	884.12
366.599	894.12
366.826	922.12
367.052	919.12
367.278	917.12
367.505	934.12
367.731	959.12
367.957	960.12
368.184	995.12
368.41	1039.12
368.636	1065.12
368.862	1062.12
369.089	1068.12
369.315	1006.12
369.541	959.12
369.767	950.12
369.993	932.12
370.219	948.12
370.445	929.12
370.672	1006.12
370.898	1040.12
371.124	1039.12
371.35	976.12
371.576	987.12
371.802	1050.12
372.028	995.12
372.254	968.12
372.48	956.12
372.706	941.12
372.932	938.12
373.158	961.12
373.384	966.12
373.61	1034.12
373.835	1027.12
374.061	989.12
374.287	996.12
374.513	983.12
374.739	980.12
374.965	1027.12
375.191	999.12
375.416	1029.12
375.642	1019.12
375.868	1074.12
376.094	1110.12
376.319	1076.12
376.545	1002.12
376.771	1061.12
376.997	1076.12
377.222	1046.12
377.448	1038.12
377.674	1011.12
377.899	1005.12
378.125	1086.12
378.35	1086.12
378.576	992.12
378.802	945.12
379.027	969.12
379.253	988.12
379.478	973.12
379.704	988.12
379.929	976.12
380.155	995.12
380.38	1006.12
380.606	1004.12
380.831	1007.12
381.057	1076.12
381.282	1062.12
381.507	1065.12
381.733	1120.12
381.958	1143.12
382.184	1060.12
382.409	982.12
382.634	1035.12
382.86	1048.12
383.085	1034.12
383.31	1082.12
383.535	1181.12
383.761	1209.12
383.986	1180.12
384.211	1118.12
384.436	1119.12
384.662	1190.12
384.887	1190.12
385.112	1113.12
385.337	1132.12
385.562	1133.12
385.787	1114.12
386.013	1141.12
386.238	1171.12
386.463	1147.12
386.688	1231.12
386.913	1318.12
387.138	1294.12
387.363	1169.12
387.588	1176.12
387.813	1156.12
388.038	1199.12
388.263	1202.12
388.488	1145.12
388.713	1079.12
388.938	1113.12
389.163	1097.12
389.387	1128.12
389.612	1132.12
389.837	1135.12
390.062	1168.12
390.287	1140.12
390.512	1145.12
390.736	1098.12
390.961	1080.12
391.186	1077.12
391.411	1104.12
391.636	1110.12
391.86	1112.12
392.085	1132.12
392.31	1097.12
392.534	1140.12
392.759	1135.12
392.984	1156.12
393.208	1159.12
393.433	1166.12
393.658	1195.12
393.882	1229.12
394.107	1128.12
394.331	1135.12
394.556	1123.12
394.78	1132.12
395.005	1215.12
395.229	1218.12
395.454	1304.12
395.678	1314.12
395.903	1242.12
396.127	1208.12
396.352	1203.12
396.576	1254.12
396.801	1295.12
397.025	1238.12
397.249	1202.12
397.474	1232.12
397.698	1215.12
397.922	1251.12
398.147	1266.12
398.371	1347.12
398.595	1349.12
398.82	1254.12
399.044	1321.12
399.268	1392.12
399.492	1436.12
399.717	1480.12
399.941	1469.12
400.165	1482.12
400.389	1389.12
400.613	1460.12
400.837	1682.12
401.062	1807.12
401.286	1540.12
401.51	1460.12
401.734	1446.12
401.958	1406.12
402.182	1289.12
402.406	1286.12
402.63	1296.12
402.854	1300.12
403.078	1286.12
403.302	1330.12
403.526	1359.12
403.75	1334.12
403.974	1343.12
404.198	1362.12
404.422	1402.12
404.645	1484.12
404.869	1422.12
405.093	1339.12
405.317	1294.12
405.541	1328.12
405.765	1354.12
405.988	1360.12
406.212	1363.12
406.436	1408.12
406.66	1438.12
406.883	1508.12
407.107	1680.12
407.331	1785.12
407.555	1932.12
407.778	1673.12
408.002	1431.12
408.226	1447.12
408.449	1443.12
408.673	1365.12
408.896	1374.12
409.12	1418.12
409.344	1395.12
409.567	1348.12
409.791	1350.12
410.014	1400.12
410.238	1452.12
410.461	1525.12
410.685	1406.12
410.908	1343.12
411.132	1358.12
411.355	1343.12
411.578	1303.12
411.802	1376.12
412.025	1371.12
412.249	1328.12
412.472	1314.12
412.695	1300.12
412.919	1340.12
413.142	1276.12
413.365	1306.12
413.589	1347.12
413.812	1436.12
414.035	1453.12
414.258	1337.12
414.482	1299.12
414.705	1308.12
414.928	1318.12
415.151	1291.12
415.374	1302.12
415.597	1377.12
415.821	1334.12
416.044	1340.12
416.267	1335.12
416.49	1284.12
416.713	1271.12
416.936	1319.12
417.159	1381.12
417.382	1390.12
417.605	1298.12
417.828	1326.12
418.051	1334.12
418.274	1355.12
418.497	1280.12
418.72	1314.12
418.943	1263.12
419.166	1364.12
419.389	1387.12
419.611	1316.12
419.834	1288.12
420.057	1321.12
420.28	1263.12
420.503	1286.12
420.726	1318.12
420.948	1320.12
421.171	1240.12
421.394	1290.12
421.617	1348.12
421.839	1339.12
422.062	1326.12
422.285	1272.12
422.507	1284.12
422.73	1254.12
422.953	1238.12
423.175	1228.12
423.398	1285.12
423.621	1254.12
423.843	1281.12
424.066	1320.12
424.288	1398.12
424.511	1414.12
424.733	1349.12
424.956	1235.12
425.178	1270.12
425.401	1260.12
425.623	1258.12
425.846	1259.12
426.068	1352.12
426.291	1314.12
426.513	1285.12
426.735	1318.12
426.958	1414.12
427.18	1443.12
427.402	1359.12
427.625	1397.12
427.847	1360.12
428.069	1273.12
428.292	1261.12
428.514	1239.12
428.736	1193.12
428.958	1229.12
429.181	1262.12
429.403	1452.12
429.625	1745.12
429.847	1443.12
430.069	1306.12
430.292	1448.12
430.514	1453.12
430.736	1357.12
430.958	1410.12
431.18	1291.12
431.402	1204.12
431.624	1194.12
431.846	1180.12
432.068	1131.12
432.29	1147.12
432.512	1214.12
432.734	1228.12
432.956	1259.12
433.178	1336.12
433.4	1330.12
433.622	1323.12
433.844	1256.12
434.066	1222.12
434.287	1199.12
434.509	1217.12
434.731	1264.12
434.953	1343.12
435.175	1309.12
435.397	1303.12
435.618	1292.12
435.84	1246.12
436.062	1280.12
436.284	1258.12
436.505	1282.12
436.727	1316.12
436.949	1232.12
437.17	1228.12
437.392	1240.12
437.614	1204.12
437.835	1192.12
438.057	1251.12
438.278	1287.12
438.5	1207.12
438.721	1229.12
438.943	1247.12
439.165	1228.12
439.386	1240.12
439.608	1224.12
439.829	1293.12
440.05	1274.12
440.272	1238.12
440.493	1230.12
440.715	1268.12
440.936	1373.12
441.158	1438.12
441.379	1416.12
441.6	1375.12
441.822	1370.12
442.043	1337.12
442.264	1334.12
442.486	1251.12
442.707	1238.12
442.928	1223.12
443.149	1315.12
443.371	1366.12
443.592	1379.12
443.813	1384.12
444.034	1391.12
444.255	1356.12
444.476	1351.12
444.698	1386.12
444.919	1394.12
445.14	1516.12
445.361	1449.12
445.582	1467.12
445.803	1423.12
446.024	1385.12
446.245	1379.12
446.466	1365.12
446.687	1357.12
446.908	1355.12
447.129	1310.12
447.35	1301.12
447.571	1320.12
447.792	1261.12
448.013	1267.12
448.234	1256.12
448.455	1294.12
448.675	1290.12
448.896	1201.12
449.117	1202.12
449.338	1253.12
449.559	1302.12
449.779	1368.12
450	1455.12
450.221	1494.12
450.442	1418.12
450.662	1293.12
450.883	1180.12
451.104	1188.12
451.324	1194.12
451.545	1226.12
451.766	1208.12
451.986	1139.12
452.207	1131.12
452.428	1090.12
452.648	1119.12
452.869	1146.12
453.089	1170.12
453.31	1159.12
453.53	1172.12
453.751	1150.12
453.971	1048.12
454.192	1102.12
454.412	1118.12
454.633	1110.12
454.853	1126.12
455.073	1047.12
455.294	1080.12
455.514	1084.12
455.734	1069.12
455.955	1068.12
456.175	1052.12
456.395	1062.12
456.616	1075.12
456.836	1078.12
457.056	1081.12
457.276	1079.12
457.497	1050.12
457.717	1002.12
457.937	1056.12
458.157	1054.12
458.377	1050.12
458.598	1014.12
458.818	1019.12
459.038	1124.12
459.258	1140.12
459.478	1157.12
459.698	1130.12
459.918	1145.12
460.138	1224.12
460.358	1222.12
460.578	1263.12
460.798	1281.12
461.018	1339.12
461.238	1302.12
461.458	1278.12
461.678	1263.12
461.898	1228.12
462.118	1206.12
462.338	1256.12
462.558	1254.12
462.777	1254.12
462.997	1270.12
463.217	1375.12
463.437	1318.12
463.657	1262.12
463.876	1254.12
464.096	1242.12
464.316	1259.12
464.536	1300.12
464.755	1296.12
464.975	1342.12
465.195	1251.12
465.414	1323.12
465.634	1311.12
465.854	1267.12
466.073	1377.12
466.293	1315.12
466.512	1223.12
466.732	1220.12
466.951	1251.12
467.171	1248.12
467.391	1184.12
467.61	1166.12
467.829	1205.12
468.049	1334.12
468.268	1450.12
468.488	1322.12
468.707	1245.12
468.927	1226.12
469.146	1219.12
469.365	1252.12
469.585	1255.12
469.804	1208.12
470.023	1219.12
470.243	1252.12
470.462	1236.12
470.681	1200.12
470.901	1190.12
471.12	1189.12
471.339	1225.12
471.558	1211.12
471.777	1210.12
471.997	1214.12
472.216	1161.12
472.435	1132.12
472.654	1101.12
472.873	1151.12
473.092	1214.12
473.311	1204.12
473.53	1147.12
473.749	1154.12
473.968	1185.12
474.187	1230.12
474.406	1231.12
474.625	1176.12
474.844	1215.12
475.063	1202.12
475.282	1209.12
475.501	1204.12
475.72	1208.12
475.939	1311.12
476.158	1246.12
476.377	1216.12
476.596	1223.12
476.814	1214.12
477.033	1241.12
477.252	1250.12
477.471	1334.12
477.69	1296.12
477.908	1300.12
478.127	1358.12
478.346	1419.12
478.564	1448.12
478.783	1420.12
479.002	1431.12
479.22	1412.12
479.439	1483.12
479.658	1583.12
479.876	1512.12
480.095	1387.12
480.313	1338.12
480.532	1280.12
480.751	1342.12
480.969	1275.12
481.188	1278.12
481.406	1250.12
481.624	1190.12
481.843	1261.12
482.061	1284.12
482.28	1302.12
482.498	1387.12
482.717	1288.12
482.935	1293.12
483.153	1383.12
483.372	1381.12
483.59	1372.12
483.808	1384.12
484.027	1358.12
484.245	1479.12
484.463	1740.12
484.681	1883.12
484.9	1467.12
485.118	1374.12
485.336	1313.12
485.554	1378.12
485.772	1424.12
485.99	1336.12
486.209	1398.12
486.427	1387.12
486.645	1415.12
486.863	1391.12
487.081	1455.12
487.299	1458.12
487.517	1438.12
487.735	1449.12
487.953	1507.12
488.171	1476.12
488.389	1489.12
488.607	1460.12
488.825	1608.12
489.043	1568.12
489.261	1388.12
489.479	1440.12
489.696	1487.12
489.914	1444.12
490.132	1446.12
490.35	1466.12
490.568	1528.12
490.786	1494.12
491.003	1482.12
491.221	1515.12
491.439	1623.12
491.657	1610.12
491.874	1581.12
492.092	1653.12
492.31	1718.12
492.527	1657.12
492.745	1595.12
492.963	1556.12
493.18	1615.12
493.398	1662.12
493.615	1655.12
493.833	1596.12
494.05	1508.12
494.268	1568.12
494.485	1592.12
494.703	1555.12
494.92	1566.12
495.138	1553.12
495.355	1534.12
495.573	1568.12
495.79	1691.12
496.008	1648.12
496.225	1593.12
496.442	1606.12
496.66	1622.12
496.877	1560.12
497.094	1637.12
497.312	1673.12
497.529	1608.12
497.746	1637.12
497.963	1875.12
498.181	1993.12
498.398	1864.12
498.615	1844.12
498.832	1836.12
499.049	1772.12
499.267	1776.12
499.484	1877.12
499.701	2026.12
499.918	2027.12
500.135	2200.12
500.352	2331.12
500.569	2319.12
500.786	2485.12
501.003	2328.12
501.22	2154.12
501.437	2048.12
501.654	2066.12
501.871	1952.12
502.088	1768.12
502.305	1793.12
502.522	1719.12
502.739	1608.12
502.956	1603.12
503.172	1567.12
503.389	1468.12
503.606	1471.12
503.823	1496.12
504.04	1484.12
504.256	1478.12
504.473	1506.12
504.69	1509.12
504.907	1447.12
505.123	1401.12
505.34	1528.12
505.557	1950.12
505.773	1627.12
505.99	1382.12
506.207	1308.12
506.423	1294.12
506.64	1290.12
506.856	1306.12
507.073	1536.12
507.289	1580.12
507.506	1545.12
507.722	1325.12
507.939	1209.12
508.155	1228.12
508.372	1274.12
508.588	1210.12
508.805	1196.12
509.021	1160.12
509.238	1167.12
509.454	1158.12
509.67	1152.12
509.887	1128.12
510.103	1151.12
510.319	1132.12
510.536	1228.12
510.752	1235.12
510.968	1206.12
511.184	1309.12
511.401	1227.12
511.617	1128.12
511.833	1105.12
512.049	1095.12
512.265	1094.12
512.481	1097.12
512.698	1193.12
512.914	1212.12
513.13	1163.12
513.346	1121.12
513.562	1114.12
513.778	1131.12
513.994	1165.12
514.21	1166.12
514.426	1217.12
514.642	1332.12
514.858	1250.12
515.074	1130.12
515.29	1111.12
515.506	1164.12
515.721	1179.12
515.937	1226.12
516.153	1314.12
516.369	1230.12
516.585	1176.12
516.801	1147.12
517.016	1174.12
517.232	1170.12
517.448	1206.12
517.664	1206.12
517.879	1249.12
518.095	1300.12
518.311	1214.12
518.527	1181.12
518.742	1131.12
518.958	1116.12
519.173	1162.12
519.389	1169.12
519.605	1175.12
519.82	1197.12
520.036	1174.12
520.251	1137.12
520.467	1184.12
520.682	1262.12
520.898	1237.12
521.113	1126.12
521.329	1124.12
521.544	1193.12
521.76	1140.12
521.975	1099.12
522.19	1102.12
522.406	1127.12
522.621	1389.12
522.836	1316.12
523.052	1094.12
523.267	1101.12
523.482	1120.12
523.698	1106.12
523.913	1049.12
524.128	1086.12
524.343	1151.12
524.559	1184.12
524.774	1108.12
524.989	1082.12
525.204	1083.12
525.419	1048.12
525.634	1054.12
525.849	1074.12
526.064	1068.12
526.28	1046.12
526.495	1006.12
526.71	979.12
526.925	987.12
527.14	984.12
527.355	972.12
527.57	971.12
527.785	1038.12
527.999	972.12
528.214	1005.12
528.429	991.12
528.644	1034.12
528.859	1062.12
529.074	1068.12
529.289	1068.12
529.503	1109.12
529.718	1063.12
529.933	1014.12
530.148	978.12
530.363	954.12
530.577	941.12
530.792	976.12
531.007	984.12
531.221	971.12
531.436	1029.12
531.651	1002.12
531.865	1062.12
532.08	1039.12
532.295	946.12
532.509	922.12
532.724	960.12
532.938	980.12
533.153	1094.12
533.367	1030.12
533.582	1043.12
533.796	1022.12
534.011	1028.12
534.225	1004.12
534.44	989.12
534.654	978.12
534.868	973.12
535.083	1020.12
535.297	1026.12
535.511	979.12
535.726	992.12
535.94	961.12
536.154	967.12
536.369	951.12
536.583	960.12
536.797	906.12
537.011	959.12
537.225	910.12
537.44	920.12
537.654	989.12
537.868	966.12
538.082	896.12
538.296	880.12
538.51	906.12
538.724	941.12
538.938	942.12
539.153	993.12
539.367	1003.12
539.581	971.12
539.795	976.12
540.009	918.12
540.222	935.12
540.436	966.12
540.65	1054.12
540.864	1088.12
541.078	1053.12
541.292	1028.12
541.506	1041.12
541.72	1085.12
541.934	1140.12
542.147	1219.12
542.361	1130.12
542.575	1072.12
542.789	1006.12
543.002	973.12
543.216	963.12
543.43	1008.12
543.644	1064.12
543.857	1107.12
544.071	1117.12
544.285	1089.12
544.498	1095.12
544.712	1077.12
544.925	1119.12
545.139	1103.12
545.352	1061.12
545.566	1044.12
545.779	1044.12
545.993	1104.12
546.206	1105.12
546.42	1076.12
546.633	1066.12
546.847	1051.12
547.06	1070.12
547.274	1078.12
547.487	1061.12
547.7	1084.12
547.914	1095.12
548.127	1079.12
548.34	1098.12
548.554	1052.12
548.767	1063.12
548.98	1057.12
549.193	1059.12
549.407	1110.12
549.62	1113.12
549.833	1063.12
550.046	1032.12
550.259	1015.12
550.473	1016.12
550.686	998.12
550.899	989.12
551.112	1001.12
551.325	977.12
551.538	1043.12
551.751	1133.12
551.964	930.12
552.177	926.12
552.39	981.12
552.603	998.12
552.816	974.12
553.029	1049.12
553.242	1098.12
553.455	1063.12
553.667	1022.12
553.88	1038.12
554.093	1002.12
554.306	994.12
554.519	954.12
554.732	939.12
554.944	983.12
555.157	973.12
555.37	955.12
555.583	959.12
555.795	915.12
556.008	908.12
556.221	895.12
556.433	870.12
556.646	870.12
556.859	837.12
557.071	866.12
557.284	884.12
557.496	861.12
557.709	886.12
557.921	852.12
558.134	835.12
558.346	858.12
558.559	860.12
558.771	848.12
558.984	842.12
559.196	818.12
559.409	794.12
559.621	822.12
559.833	823.12
560.046	821.12
560.258	849.12
560.47	825.12
560.683	834.12
560.895	796.12
561.107	828.12
561.32	826.12
561.532	841.12
561.744	831.12
561.956	805.12
562.168	811.12
562.381	789.12
562.593	796.12
562.805	768.12
563.017	792.12
563.229	781.12
563.441	822.12
563.653	767.12
563.865	778.12
564.077	780.12
564.289	743.12
564.501	802.12
564.713	795.12
564.925	811.12
565.137	898.12
565.349	810.12
565.561	792.12
565.773	822.12
565.985	823.12
566.197	850.12
566.408	887.12
566.62	902.12
566.832	902.12
567.044	889.12
567.255	877.12
567.467	880.12
567.679	906.12
567.891	940.12
568.102	910.12
568.314	844.12
568.526	794.12
568.737	745.12
568.949	759.12
569.161	708.12
569.372	703.12
569.584	700.12
569.795	684.12
570.007	682.12
570.218	634.12
570.43	626.12
570.641	665.12
570.853	647.12
571.064	655.12
571.276	672.12
571.487	644.12
571.698	642.12
571.91	646.12
572.121	632.12
572.333	643.12
572.544	620.12
572.755	605.12
572.966	578.12
573.178	592.12
573.389	588.12
573.6	595.12
573.811	658.12
574.023	604.12
574.234	589.12
574.445	557.12
574.656	568.12
574.867	554.12
575.078	578.12
575.289	596.12
575.501	571.12
575.712	553.12
575.923	578.12
576.134	562.12
576.345	543.12
576.556	556.12
576.767	555.12
576.978	522.12
577.188	558.12
577.399	518.12
577.61	523.12
577.821	498.12
578.032	514.12
578.243	504.12
578.454	522.12
578.665	500.12
578.875	516.12
579.086	506.12
579.297	484.12
579.508	501.12
579.718	526.12
579.929	513.12
580.14	463.12
580.35	483.12
580.561	500.12
580.772	542.12
580.982	533.12
581.193	484.12
581.403	476.12
581.614	470.12
581.825	475.12
582.035	489.12
582.246	479.12
582.456	491.12
582.667	498.12
582.877	466.12
583.087	462.12
583.298	469.12
583.508	478.12
583.719	474.12
583.929	472.12
584.139	462.12
584.35	438.12
584.56	438.12
584.77	468.12
584.981	480.12
585.191	465.12
585.401	461.12
585.611	481.12
585.821	448.12
586.032	453.12
586.242	438.12
586.452	451.12
586.662	464.12
586.872	442.12
587.082	451.12
587.292	458.12
587.502	472.12
587.713	464.12
587.923	445.12
588.133	448.12
588.343	470.12
588.553	446.12
588.762	440.12
588.972	447.12
589.182	440.12
589.392	441.12
589.602	471.12
589.812	450.12
590.022	441.12
590.232	445.12
590.441	448.12
590.651	473.12
590.861	460.12
591.071	441.12
591.281	456.12
591.49	455.12
591.7	434.12
591.91	473.12
592.119	445.12
592.329	450.12
592.539	442.12
592.748	452.12
592.958	452.12
593.167	459.12
593.377	451.12
593.587	456.12
593.796	469.12
594.006	474.12
594.215	484.12
594.424	481.12
594.634	476.12
594.843	448.12
595.053	476.12
595.262	468.12
595.472	445.12
595.681	435.12
595.89	439.12
596.1	439.12
596.309	454.12
596.518	435.12
596.727	437.12
596.937	432.12
597.146	393.12
597.355	429.12
597.564	407.12
597.774	400.12
597.983	395.12
598.192	392.12
598.401	396.12
598.61	403.12
598.819	388.12
599.028	412.12
599.237	412.12
599.446	387.12
599.655	388.12
599.864	402.12
600.073	382.12
600.282	391.12
600.491	380.12
600.7	384.12
600.909	393.12
601.118	401.12
601.327	400.12
601.536	406.12
601.745	404.12
601.953	394.12
602.162	418.12
602.371	435.12
602.58	420.12
602.789	416.12
602.997	396.12
603.206	430.12
603.415	404.12
603.623	404.12
603.832	404.12
604.041	407.12
604.249	404.12
604.458	372.12
604.666	374.12
604.875	382.12
605.084	395.12
605.292	422.12
605.501	410.12
605.709	391.12
605.918	404.12
606.126	416.12
606.334	416.12
606.543	400.12
606.751	411.12
606.96	426.12
607.168	394.12
607.376	389.12
607.585	388.12
607.793	403.12
608.001	394.12
608.21	395.12
608.418	400.12
608.626	403.12
608.834	398.12
609.043	385.12
609.251	397.12
609.459	397.12
609.667	384.12
609.875	401.12
610.083	409.12
610.291	426.12
610.499	404.12
610.707	392.12
610.916	400.12
611.124	400.12
611.332	390.12
611.54	391.12
611.748	403.12
611.955	384.12
612.163	384.12
612.371	391.12
612.579	374.12
612.787	380.12
612.995	402.12
613.203	407.12
613.411	404.12
613.618	387.12
613.826	400.12
614.034	392.12
614.242	406.12
614.449	376.12
614.657	391.12
614.865	397.12
615.072	378.12
615.28	377.12
615.488	376.12
615.695	399.12
615.903	397.12
616.111	395.12
616.318	393.12
616.526	383.12
616.733	398.12
616.941	392.12
617.148	384.12
617.356	395.12
617.563	397.12
617.771	373.12
617.978	352.12
618.185	368.12
618.393	367.12
618.6	363.12
618.807	377.12
619.015	374.12
619.222	369.12
619.429	364.12
619.637	350.12
619.844	347.12
620.051	348.12
620.258	367.12
620.466	346.12
620.673	347.12
620.88	338.12
621.087	346.12
621.294	350.12
621.501	334.12
621.708	335.12
621.915	358.12
622.122	363.12
622.329	366.12
622.536	326.12
622.743	346.12
622.95	338.12
623.157	335.12
623.364	342.12
623.571	352.12
623.778	350.12
623.985	331.12
624.192	348.12
624.399	350.12
624.606	358.12
624.812	321.12
625.019	337.12
625.226	325.12
625.433	313.12
625.639	327.12
625.846	294.12
626.053	303.12
626.259	293.12
626.466	295.12
626.673	291.12
626.879	269.12
627.086	304.12
627.293	303.12
627.499	319.12
627.706	325.12
627.912	320.12
628.119	320.12
628.325	332.12
628.532	318.12
628.738	340.12
628.945	317.12
629.151	323.12
629.357	314.12
629.564	324.12
629.77	304.12
629.976	312.12
630.183	316.12
630.389	293.12
630.595	326.12
630.802	307.12
631.008	293.12
631.214	291.12
631.42	300.12
631.627	283.12
631.833	295.12
632.039	311.12
632.245	298.12
632.451	292.12
632.657	296.12
632.863	283.12
633.069	315.12
633.275	310.12
633.481	275.12
633.688	276.12
633.893	287.12
634.099	288.12
634.305	272.12
634.511	288.12
634.717	282.12
634.923	263.12
635.129	267.12
635.335	275.12
635.541	251.12
635.747	300.12
635.952	302.12
636.158	279.12
636.364	288.12
636.57	289.12
636.775	292.12
636.981	289.12
637.187	269.12
637.392	282.12
637.598	285.12
637.804	290.12
638.009	296.12
638.215	273.12
638.421	274.12
638.626	275.12
638.832	277.12
639.037	273.12
639.243	280.12
639.448	253.12
639.654	282.12
639.859	264.12
640.065	244.12
640.27	267.12
640.475	266.12
640.681	262.12
640.886	281.12
641.091	245.12
641.297	276.12
641.502	270.12
641.707	262.12
641.913	260.12
642.118	260.12
642.323	268.12
642.528	267.12
642.733	238.12
642.939	265.12
643.144	253.12
643.349	246.12
643.554	270.12
643.759	259.12
643.964	277.12
644.169	254.12
644.374	263.12
644.579	281.12
644.784	264.12
644.989	250.12
645.194	257.12
645.399	237.12
645.604	254.12
645.809	264.12
646.014	275.12
646.219	259.12
646.423	279.12
646.628	267.12
646.833	248.12
647.038	261.12
647.243	266.12
647.447	258.12
647.652	231.12
647.857	269.12
648.062	260.12
648.266	262.12
648.471	291.12
648.676	269.12
648.88	262.12
649.085	263.12
649.289	261.12
649.494	242.12
649.698	270.12
649.903	253.12
650.107	243.12
650.312	260.12
650.516	252.12
650.721	239.12
650.925	249.12
651.13	235.12
651.334	230.12
651.539	241.12
651.743	238.12
651.947	222.12
652.152	239.12
652.356	228.12
652.56	214.12
652.764	205.12
652.969	232.12
653.173	230.12
653.377	240.12
653.581	244.12
653.785	226.12
653.99	219.12
654.194	203.12
654.398	239.12
654.602	239.12
654.806	246.12
655.01	216.12
655.214	212.12
655.418	245.12
655.622	237.12
655.826	224.12
656.03	228.12
656.234	242.12
656.438	251.12
656.642	262.12
656.846	254.12
657.049	235.12
657.253	214.12
657.457	195.12
657.661	198.12
657.865	180.12
658.068	167.12
658.272	168.12
658.476	157.12
658.68	168.12
658.883	156.12
659.087	160.12
659.291	134.12
659.494	150.12
659.698	129.12
659.901	127.12
660.105	137.12
660.309	132.12
660.512	126.12
660.716	129.12
660.919	127.12
661.123	130.12
661.326	116.12
661.53	120.12
661.733	108.12
661.936	124.12
662.14	106.12
662.343	96.12
662.546	105.12
662.75	100.12
662.953	107.12
663.156	83.12
663.36	91.12
663.563	95.12
663.766	89.12
663.969	87.12
664.173	88.12
664.376	85.12
664.579	115.12
664.782	84.12
664.985	94.12
665.188	80.12
665.391	94.12
665.594	85.12
665.797	86.12
666	78.12
666.203	77.12
666.406	85.12
666.609	89.12
666.812	91.12
667.015	88.12
667.218	89.12
667.421	90.12
667.624	78.12
667.827	84.12
668.03	80.12
668.232	76.12
668.435	76.12
668.638	84.12
668.841	96.12
669.043	81.12
669.246	83.12
669.449	83.12
669.651	68.12
669.854	99.12
670.057	88.12
670.259	88.12
670.462	95.12
670.665	87.12
670.867	84.12
671.07	73.12
671.272	90.12
671.475	89.12
671.677	84.12
671.88	79.12
672.082	79.12
672.284	86.12
672.487	86.12
672.689	79.12
672.892	77.12
