Data from WStandard_LampEnergy8_LIBS07252019.E.O._I.C._HRD10591_15-59-13-929.txt Node
Date: Thu Jul 25 15:59:13 EDT 2019
User: cochatt
Spectrometer: HR+D1059
Trigger mode: 1
Integration Time (sec): 1.000000E-1
Scans to average: 1
Electric dark correction enabled: true
Nonlinearity correction enabled: false
Boxcar width: 0
XAxis mode: Wavelengths
Number of Pixels in Spectrum: 2048
>>>>>Begin Spectral Data<<<<<
223.165	-19.38
223.4	-19.38
223.635	-19.38
223.869	-32.38
224.104	-25.38
224.338	-11.38
224.573	-17.38
224.808	-18.38
225.042	-10.38
225.277	-1.38
225.511	10.62
225.746	7.62
225.98	8.62
226.215	15.62
226.449	21.62
226.683	15.62
226.918	26.62
227.152	29.62
227.387	34.62
227.621	59.62
227.856	47.62
228.09	54.62
228.324	54.62
228.559	62.62
228.793	111.62
229.027	205.62
229.262	230.62
229.496	212.62
229.73	228.62
229.964	248.62
230.199	252.62
230.433	265.62
230.667	289.62
230.901	294.62
231.136	276.62
231.37	271.62
231.604	277.62
231.838	260.62
232.072	278.62
232.306	261.62
232.541	277.62
232.775	294.62
233.009	327.62
233.243	302.62
233.477	278.62
233.711	302.62
233.945	313.62
234.179	301.62
234.413	319.62
234.647	332.62
234.881	302.62
235.115	298.62
235.349	286.62
235.583	307.62
235.817	286.62
236.051	274.62
236.285	288.62
236.519	312.62
236.753	334.62
236.987	354.62
237.221	354.62
237.455	367.62
237.689	351.62
237.922	355.62
238.156	327.62
238.39	361.62
238.624	357.62
238.858	382.62
239.091	388.62
239.325	423.62
239.559	459.62
239.793	471.62
240.027	500.62
240.26	487.62
240.494	382.62
240.728	343.62
240.961	367.62
241.195	374.62
241.429	392.62
241.662	401.62
241.896	393.62
242.13	378.62
242.363	408.62
242.597	447.62
242.83	426.62
243.064	447.62
243.298	474.62
243.531	453.62
243.765	458.62
243.998	439.62
244.232	421.62
244.465	400.62
244.699	427.62
244.932	474.62
245.166	502.62
245.399	461.62
245.633	422.62
245.866	446.62
246.099	463.62
246.333	489.62
246.566	480.62
246.8	522.62
247.033	571.62
247.266	539.62
247.5	519.62
247.733	513.62
247.966	548.62
248.2	580.62
248.433	595.62
248.666	613.62
248.899	655.62
249.133	734.62
249.366	812.62
249.599	661.62
249.832	574.62
250.066	610.62
250.299	613.62
250.532	551.62
250.765	521.62
250.998	571.62
251.231	579.62
251.465	608.62
251.698	567.62
251.931	593.62
252.164	588.62
252.397	596.62
252.63	578.62
252.863	549.62
253.096	534.62
253.329	563.62
253.562	580.62
253.795	586.62
254.028	602.62
254.261	557.62
254.494	566.62
254.727	555.62
254.96	579.62
255.193	650.62
255.426	700.62
255.659	757.62
255.892	776.62
256.124	638.62
256.357	630.62
256.59	684.62
256.823	688.62
257.056	672.62
257.289	811.62
257.521	868.62
257.754	821.62
257.987	756.62
258.22	802.62
258.452	803.62
258.685	675.62
258.918	669.62
259.151	661.62
259.383	636.62
259.616	578.62
259.849	612.62
260.081	704.62
260.314	756.62
260.547	802.62
260.779	797.62
261.012	731.62
261.244	666.62
261.477	667.62
261.71	656.62
261.942	678.62
262.175	669.62
262.407	674.62
262.64	637.62
262.872	622.62
263.105	591.62
263.337	608.62
263.57	642.62
263.802	638.62
264.035	585.62
264.267	554.62
264.499	547.62
264.732	585.62
264.964	616.62
265.197	635.62
265.429	672.62
265.661	780.62
265.894	816.62
266.126	830.62
266.358	760.62
266.591	808.62
266.823	840.62
267.055	759.62
267.287	749.62
267.52	773.62
267.752	736.62
267.984	753.62
268.216	764.62
268.448	790.62
268.681	741.62
268.913	727.62
269.145	666.62
269.377	674.62
269.609	732.62
269.841	844.62
270.073	1003.62
270.306	1077.62
270.538	1079.62
270.77	961.62
271.002	828.62
271.234	808.62
271.466	787.62
271.698	878.62
271.93	1034.62
272.162	994.62
272.394	924.62
272.626	858.62
272.858	768.62
273.09	690.62
273.322	680.62
273.553	662.62
273.785	679.62
274.017	702.62
274.249	733.62
274.481	719.62
274.713	668.62
274.945	688.62
275.176	692.62
275.408	712.62
275.64	678.62
275.872	659.62
276.104	715.62
276.335	835.62
276.567	899.62
276.799	872.62
277.031	815.62
277.262	777.62
277.494	840.62
277.726	882.62
277.957	858.62
278.189	802.62
278.421	724.62
278.652	735.62
278.884	694.62
279.115	724.62
279.347	754.62
279.579	722.62
279.81	745.62
280.042	806.62
280.273	875.62
280.505	860.62
280.736	879.62
280.968	810.62
281.199	727.62
281.431	686.62
281.662	692.62
281.894	719.62
282.125	750.62
282.356	766.62
282.588	756.62
282.819	730.62
283.051	822.62
283.282	868.62
283.513	826.62
283.745	776.62
283.976	722.62
284.207	739.62
284.439	703.62
284.67	728.62
284.901	742.62
285.132	772.62
285.364	789.62
285.595	796.62
285.826	759.62
286.057	735.62
286.288	770.62
286.52	790.62
286.751	836.62
286.982	888.62
287.213	800.62
287.444	711.62
287.675	724.62
287.906	776.62
288.138	790.62
288.369	758.62
288.6	745.62
288.831	715.62
289.062	739.62
289.293	748.62
289.524	735.62
289.755	793.62
289.986	743.62
290.217	711.62
290.448	738.62
290.679	766.62
290.91	760.62
291.141	765.62
291.371	814.62
291.602	806.62
291.833	813.62
292.064	852.62
292.295	821.62
292.526	831.62
292.757	848.62
292.987	816.62
293.218	818.62
293.449	869.62
293.68	956.62
293.91	990.62
294.141	934.62
294.372	880.62
294.603	923.62
294.833	942.62
295.064	892.62
295.295	846.62
295.525	794.62
295.756	738.62
295.987	727.62
296.217	726.62
296.448	750.62
296.679	777.62
296.909	776.62
297.14	747.62
297.37	807.62
297.601	832.62
297.831	845.62
298.062	853.62
298.292	779.62
298.523	765.62
298.753	792.62
298.984	776.62
299.214	799.62
299.445	842.62
299.675	839.62
299.905	828.62
300.136	801.62
300.366	777.62
300.597	726.62
300.827	758.62
301.057	776.62
301.288	823.62
301.518	872.62
301.748	867.62
301.979	894.62
302.209	918.62
302.439	979.62
302.669	1014.62
302.9	904.62
303.13	844.62
303.36	861.62
303.59	873.62
303.82	828.62
304.051	844.62
304.281	844.62
304.511	878.62
304.741	902.62
304.971	1001.62
305.201	1024.62
305.431	932.62
305.661	812.62
305.891	781.62
306.121	740.62
306.352	799.62
306.582	826.62
306.812	882.62
307.042	926.62
307.272	954.62
307.502	1004.62
307.731	1059.62
307.961	1059.62
308.191	983.62
308.421	872.62
308.651	835.62
308.881	813.62
309.111	814.62
309.341	819.62
309.571	824.62
309.8	818.62
310.03	843.62
310.26	808.62
310.49	817.62
310.72	828.62
310.949	847.62
311.179	876.62
311.409	867.62
311.639	858.62
311.868	812.62
312.098	838.62
312.328	837.62
312.557	835.62
312.787	850.62
313.017	838.62
313.246	858.62
313.476	860.62
313.706	891.62
313.935	864.62
314.165	868.62
314.394	916.62
314.624	971.62
314.853	1038.62
315.083	1037.62
315.312	1046.62
315.542	976.62
315.771	912.62
316.001	894.62
316.23	952.62
316.46	909.62
316.689	900.62
316.919	854.62
317.148	834.62
317.377	882.62
317.607	932.62
317.836	1036.62
318.065	1057.62
318.295	1006.62
318.524	977.62
318.753	961.62
318.983	918.62
319.212	924.62
319.441	920.62
319.67	914.62
319.9	936.62
320.129	966.62
320.358	984.62
320.587	1024.62
320.816	1032.62
321.046	986.62
321.275	952.62
321.504	970.62
321.733	1018.62
321.962	971.62
322.191	943.62
322.42	932.62
322.649	918.62
322.878	893.62
323.108	931.62
323.337	961.62
323.566	972.62
323.795	920.62
324.024	968.62
324.253	908.62
324.482	926.62
324.71	882.62
324.939	853.62
325.168	879.62
325.397	914.62
325.626	969.62
325.855	954.62
326.084	891.62
326.313	934.62
326.542	924.62
326.77	962.62
326.999	933.62
327.228	903.62
327.457	874.62
327.686	886.62
327.914	906.62
328.143	927.62
328.372	907.62
328.6	923.62
328.829	907.62
329.058	884.62
329.287	916.62
329.515	941.62
329.744	950.62
329.972	1002.62
330.201	1014.62
330.43	1012.62
330.658	984.62
330.887	976.62
331.115	968.62
331.344	980.62
331.572	959.62
331.801	970.62
332.03	964.62
332.258	981.62
332.486	970.62
332.715	983.62
332.943	958.62
333.172	968.62
333.4	990.62
333.629	1034.62
333.857	1080.62
334.085	1199.62
334.314	1336.62
334.542	1400.62
334.771	1286.62
334.999	1144.62
335.227	1095.62
335.455	1039.62
335.684	1034.62
335.912	1090.62
336.14	1108.62
336.369	1040.62
336.597	1006.62
336.825	993.62
337.053	1038.62
337.281	1100.62
337.51	1134.62
337.738	1138.62
337.966	1086.62
338.194	1004.62
338.422	989.62
338.65	993.62
338.878	955.62
339.106	929.62
339.334	926.62
339.562	911.62
339.79	930.62
340.018	1000.62
340.246	1033.62
340.474	1044.62
340.702	1026.62
340.93	998.62
341.158	1003.62
341.386	968.62
341.614	1001.62
341.842	951.62
342.07	973.62
342.298	973.62
342.526	989.62
342.754	960.62
342.981	955.62
343.209	968.62
343.437	948.62
343.665	954.62
343.893	1015.62
344.12	1032.62
344.348	1056.62
344.576	992.62
344.804	1000.62
345.031	973.62
345.259	957.62
345.487	916.62
345.714	885.62
345.942	876.62
346.17	900.62
346.397	938.62
346.625	944.62
346.853	907.62
347.08	882.62
347.308	905.62
347.535	926.62
347.763	927.62
347.99	898.62
348.218	885.62
348.445	911.62
348.673	908.62
348.9	937.62
349.128	966.62
349.355	998.62
349.583	967.62
349.81	894.62
350.037	861.62
350.265	878.62
350.492	865.62
350.72	905.62
350.947	940.62
351.174	943.62
351.402	896.62
351.629	834.62
351.856	842.62
352.083	829.62
352.311	854.62
352.538	872.62
352.765	914.62
352.992	938.62
353.22	920.62
353.447	895.62
353.674	896.62
353.901	908.62
354.128	879.62
354.355	895.62
354.583	948.62
354.81	909.62
355.037	943.62
355.264	939.62
355.491	894.62
355.718	917.62
355.945	902.62
356.172	885.62
356.399	863.62
356.626	901.62
356.853	944.62
357.08	1048.62
357.307	1119.62
357.534	1046.62
357.761	942.62
357.988	876.62
358.215	868.62
358.441	889.62
358.668	854.62
358.895	902.62
359.122	959.62
359.349	1032.62
359.576	987.62
359.802	922.62
360.029	873.62
360.256	881.62
360.483	875.62
360.709	922.62
360.936	977.62
361.163	994.62
361.39	1077.62
361.616	1158.62
361.843	1112.62
362.07	1039.62
362.296	937.62
362.523	871.62
362.749	943.62
362.976	910.62
363.203	959.62
363.429	916.62
363.656	922.62
363.882	918.62
364.109	1024.62
364.335	1070.62
364.562	1002.62
364.788	960.62
365.015	902.62
365.241	882.62
365.468	947.62
365.694	999.62
365.92	999.62
366.147	947.62
366.373	919.62
366.599	907.62
366.826	890.62
367.052	898.62
367.278	923.62
367.505	929.62
367.731	962.62
367.957	961.62
368.184	990.62
368.41	1047.62
368.636	1010.62
368.862	1026.62
369.089	1061.62
369.315	1006.62
369.541	948.62
369.767	939.62
369.993	952.62
370.219	916.62
370.445	968.62
370.672	1014.62
370.898	1054.62
371.124	998.62
371.35	973.62
371.576	1036.62
371.802	1069.62
372.028	989.62
372.254	953.62
372.48	930.62
372.706	924.62
372.932	925.62
373.158	941.62
373.384	982.62
373.61	989.62
373.835	1032.62
374.061	1010.62
374.287	994.62
374.513	971.62
374.739	991.62
374.965	948.62
375.191	996.62
375.416	1036.62
375.642	1018.62
375.868	1087.62
376.094	1054.62
376.319	1028.62
376.545	1003.62
376.771	1018.62
376.997	1079.62
377.222	1019.62
377.448	1015.62
377.674	1014.62
377.899	1020.62
378.125	1085.62
378.35	1055.62
378.576	976.62
378.802	954.62
379.027	939.62
379.253	970.62
379.478	974.62
379.704	978.62
379.929	971.62
380.155	999.62
380.38	1020.62
380.606	1005.62
380.831	985.62
381.057	1025.62
381.282	1054.62
381.507	1042.62
381.733	1097.62
381.958	1138.62
382.184	1024.62
382.409	1044.62
382.634	1015.62
382.86	1020.62
383.085	1058.62
383.31	1027.62
383.535	1152.62
383.761	1196.62
383.986	1142.62
384.211	1101.62
384.436	1110.62
384.662	1151.62
384.887	1170.62
385.112	1088.62
385.337	1119.62
385.562	1112.62
385.787	1118.62
386.013	1137.62
386.238	1139.62
386.463	1148.62
386.688	1243.62
386.913	1282.62
387.138	1193.62
387.363	1166.62
387.588	1147.62
387.813	1158.62
388.038	1162.62
388.263	1216.62
388.488	1151.62
388.713	1080.62
388.938	1070.62
389.163	1092.62
389.387	1112.62
389.612	1101.62
389.837	1144.62
390.062	1134.62
390.287	1148.62
390.512	1128.62
390.736	1094.62
390.961	1084.62
391.186	1071.62
391.411	1084.62
391.636	1124.62
391.86	1120.62
392.085	1095.62
392.31	1090.62
392.534	1115.62
392.759	1139.62
392.984	1125.62
393.208	1124.62
393.433	1190.62
393.658	1188.62
393.882	1176.62
394.107	1152.62
394.331	1091.62
394.556	1130.62
394.78	1158.62
395.005	1188.62
395.229	1175.62
395.454	1283.62
395.678	1305.62
395.903	1234.62
396.127	1196.62
396.352	1173.62
396.576	1220.62
396.801	1238.62
397.025	1248.62
397.249	1203.62
397.474	1202.62
397.698	1180.62
397.922	1210.62
398.147	1300.62
398.371	1341.62
398.595	1318.62
398.82	1292.62
399.044	1332.62
399.268	1387.62
399.492	1419.62
399.717	1463.62
399.941	1467.62
400.165	1428.62
400.389	1405.62
400.613	1414.62
400.837	1590.62
401.062	1778.62
401.286	1516.62
401.51	1434.62
401.734	1444.62
401.958	1368.62
402.182	1294.62
402.406	1263.62
402.63	1232.62
402.854	1241.62
403.078	1287.62
403.302	1296.62
403.526	1334.62
403.75	1337.62
403.974	1340.62
404.198	1371.62
404.422	1426.62
404.645	1470.62
404.869	1430.62
405.093	1321.62
405.317	1275.62
405.541	1362.62
405.765	1380.62
405.988	1352.62
406.212	1364.62
406.436	1391.62
406.66	1450.62
406.883	1444.62
407.107	1659.62
407.331	1784.62
407.555	1911.62
407.778	1659.62
408.002	1425.62
408.226	1434.62
408.449	1387.62
408.673	1346.62
408.896	1402.62
409.12	1410.62
409.344	1355.62
409.567	1344.62
409.791	1359.62
410.014	1375.62
410.238	1458.62
410.461	1522.62
410.685	1357.62
410.908	1331.62
411.132	1362.62
411.355	1321.62
411.578	1293.62
411.802	1344.62
412.025	1340.62
412.249	1322.62
412.472	1287.62
412.695	1315.62
412.919	1264.62
413.142	1292.62
413.365	1298.62
413.589	1346.62
413.812	1383.62
414.035	1430.62
414.258	1323.62
414.482	1277.62
414.705	1300.62
414.928	1278.62
415.151	1243.62
415.374	1295.62
415.597	1292.62
415.821	1312.62
416.044	1384.62
416.267	1360.62
416.49	1278.62
416.713	1256.62
416.936	1336.62
417.159	1394.62
417.382	1335.62
417.605	1303.62
417.828	1304.62
418.051	1291.62
418.274	1291.62
418.497	1253.62
418.72	1285.62
418.943	1277.62
419.166	1301.62
419.389	1354.62
419.611	1327.62
419.834	1279.62
420.057	1296.62
420.28	1290.62
420.503	1301.62
420.726	1300.62
420.948	1302.62
421.171	1266.62
421.394	1251.62
421.617	1358.62
421.839	1376.62
422.062	1298.62
422.285	1248.62
422.507	1260.62
422.73	1212.62
422.953	1213.62
423.175	1219.62
423.398	1266.62
423.621	1223.62
423.843	1288.62
424.066	1327.62
424.288	1388.62
424.511	1384.62
424.733	1346.62
424.956	1244.62
425.178	1235.62
425.401	1254.62
425.623	1292.62
425.846	1267.62
426.068	1318.62
426.291	1300.62
426.513	1303.62
426.735	1293.62
426.958	1399.62
427.18	1460.62
427.402	1398.62
427.625	1431.62
427.847	1370.62
428.069	1252.62
428.292	1253.62
428.514	1243.62
428.736	1224.62
428.958	1271.62
429.181	1268.62
429.403	1473.62
429.625	1740.62
429.847	1452.62
430.069	1296.62
430.292	1418.62
430.514	1422.62
430.736	1344.62
430.958	1343.62
431.18	1277.62
431.402	1218.62
431.624	1177.62
431.846	1170.62
432.068	1121.62
432.29	1145.62
432.512	1176.62
432.734	1220.62
432.956	1261.62
433.178	1302.62
433.4	1316.62
433.622	1302.62
433.844	1246.62
434.066	1177.62
434.287	1159.62
434.509	1220.62
434.731	1261.62
434.953	1331.62
435.175	1282.62
435.397	1284.62
435.618	1252.62
435.84	1227.62
436.062	1203.62
436.284	1255.62
436.505	1235.62
436.727	1286.62
436.949	1239.62
437.17	1239.62
437.392	1215.62
437.614	1178.62
437.835	1167.62
438.057	1219.62
438.278	1281.62
438.5	1188.62
438.721	1210.62
438.943	1192.62
439.165	1229.62
439.386	1251.62
439.608	1212.62
439.829	1213.62
440.05	1195.62
440.272	1222.62
440.493	1236.62
440.715	1254.62
440.936	1369.62
441.158	1392.62
441.379	1368.62
441.6	1387.62
441.822	1341.62
442.043	1316.62
442.264	1309.62
442.486	1245.62
442.707	1234.62
442.928	1290.62
443.149	1290.62
443.371	1352.62
443.592	1366.62
443.813	1328.62
444.034	1325.62
444.255	1347.62
444.476	1341.62
444.698	1404.62
444.919	1396.62
445.14	1498.62
445.361	1402.62
445.582	1446.62
445.803	1383.62
446.024	1359.62
446.245	1409.62
446.466	1364.62
446.687	1302.62
446.908	1336.62
447.129	1272.62
447.35	1283.62
447.571	1283.62
447.792	1242.62
448.013	1228.62
448.234	1266.62
448.455	1292.62
448.675	1291.62
448.896	1191.62
449.117	1189.62
449.338	1240.62
449.559	1294.62
449.779	1272.62
450	1408.62
450.221	1471.62
450.442	1423.62
450.662	1282.62
450.883	1162.62
451.104	1172.62
451.324	1178.62
451.545	1199.62
451.766	1162.62
451.986	1151.62
452.207	1152.62
452.428	1078.62
452.648	1065.62
452.869	1112.62
453.089	1148.62
453.31	1112.62
453.53	1119.62
453.751	1116.62
453.971	1054.62
454.192	1072.62
454.412	1149.62
454.633	1138.62
454.853	1094.62
455.073	1071.62
455.294	1074.62
455.514	1038.62
455.734	1051.62
455.955	1080.62
456.175	1054.62
456.395	1067.62
456.616	1071.62
456.836	1086.62
457.056	1046.62
457.276	1086.62
457.497	1022.62
457.717	1003.62
457.937	1010.62
458.157	1054.62
458.377	1038.62
458.598	1048.62
458.818	1036.62
459.038	1122.62
459.258	1149.62
459.478	1134.62
459.698	1126.62
459.918	1149.62
460.138	1219.62
460.358	1212.62
460.578	1223.62
460.798	1268.62
461.018	1325.62
461.238	1295.62
461.458	1253.62
461.678	1230.62
461.898	1203.62
462.118	1207.62
462.338	1235.62
462.558	1270.62
462.777	1218.62
462.997	1298.62
463.217	1334.62
463.437	1307.62
463.657	1219.62
463.876	1252.62
464.096	1250.62
464.316	1244.62
464.536	1304.62
464.755	1280.62
464.975	1286.62
465.195	1266.62
465.414	1285.62
465.634	1302.62
465.854	1292.62
466.073	1358.62
466.293	1304.62
466.512	1188.62
466.732	1199.62
466.951	1231.62
467.171	1218.62
467.391	1178.62
467.61	1147.62
467.829	1212.62
468.049	1363.62
468.268	1446.62
468.488	1334.62
468.707	1244.62
468.927	1206.62
469.146	1191.62
469.365	1177.62
469.585	1222.62
469.804	1212.62
470.023	1210.62
470.243	1246.62
470.462	1223.62
470.681	1179.62
470.901	1197.62
471.12	1202.62
471.339	1228.62
471.558	1190.62
471.777	1170.62
471.997	1165.62
472.216	1132.62
472.435	1106.62
472.654	1139.62
472.873	1156.62
473.092	1216.62
473.311	1153.62
473.53	1117.62
473.749	1154.62
473.968	1168.62
474.187	1206.62
474.406	1215.62
474.625	1186.62
474.844	1220.62
475.063	1220.62
475.282	1209.62
475.501	1180.62
475.72	1171.62
475.939	1288.62
476.158	1228.62
476.377	1202.62
476.596	1188.62
476.814	1198.62
477.033	1219.62
477.252	1274.62
477.471	1282.62
477.69	1246.62
477.908	1271.62
478.127	1332.62
478.346	1443.62
478.564	1395.62
478.783	1370.62
479.002	1412.62
479.22	1412.62
479.439	1438.62
479.658	1547.62
479.876	1484.62
480.095	1335.62
480.313	1325.62
480.532	1290.62
480.751	1274.62
480.969	1303.62
481.188	1255.62
481.406	1248.62
481.624	1224.62
481.843	1228.62
482.061	1304.62
482.28	1299.62
482.498	1319.62
482.717	1285.62
482.935	1268.62
483.153	1319.62
483.372	1391.62
483.59	1348.62
483.808	1322.62
484.027	1366.62
484.245	1407.62
484.463	1718.62
484.681	1868.62
484.9	1456.62
485.118	1350.62
485.336	1343.62
485.554	1355.62
485.772	1366.62
485.99	1317.62
486.209	1367.62
486.427	1354.62
486.645	1388.62
486.863	1425.62
487.081	1426.62
487.299	1444.62
487.517	1434.62
487.735	1414.62
487.953	1470.62
488.171	1507.62
488.389	1455.62
488.607	1461.62
488.825	1590.62
489.043	1525.62
489.261	1397.62
489.479	1435.62
489.696	1434.62
489.914	1473.62
490.132	1403.62
490.35	1466.62
490.568	1523.62
490.786	1478.62
491.003	1464.62
491.221	1514.62
491.439	1582.62
491.657	1558.62
491.874	1644.62
492.092	1604.62
492.31	1688.62
492.527	1659.62
492.745	1566.62
492.963	1574.62
493.18	1619.62
493.398	1700.62
493.615	1662.62
493.833	1595.62
494.05	1501.62
494.268	1506.62
494.485	1569.62
494.703	1534.62
494.92	1536.62
495.138	1524.62
495.355	1534.62
495.573	1567.62
495.79	1641.62
496.008	1654.62
496.225	1592.62
496.442	1564.62
496.66	1599.62
496.877	1594.62
497.094	1631.62
497.312	1631.62
497.529	1625.62
497.746	1675.62
497.963	1852.62
498.181	1953.62
498.398	1832.62
498.615	1879.62
498.832	1771.62
499.049	1762.62
499.267	1761.62
499.484	1855.62
499.701	2036.62
499.918	2020.62
500.135	2190.62
500.352	2283.62
500.569	2337.62
500.786	2470.62
501.003	2313.62
501.22	2102.62
501.437	2084.62
501.654	2071.62
501.871	2002.62
502.088	1754.62
502.305	1741.62
502.522	1666.62
502.739	1575.62
502.956	1558.62
503.172	1557.62
503.389	1527.62
503.606	1459.62
503.823	1439.62
504.04	1452.62
504.256	1479.62
504.473	1468.62
504.69	1506.62
504.907	1426.62
505.123	1406.62
505.34	1500.62
505.557	1918.62
505.773	1629.62
505.99	1397.62
506.207	1298.62
506.423	1275.62
506.64	1286.62
506.856	1315.62
507.073	1487.62
507.289	1576.62
507.506	1461.62
507.722	1278.62
507.939	1238.62
508.155	1272.62
508.372	1238.62
508.588	1207.62
508.805	1167.62
509.021	1148.62
509.238	1144.62
509.454	1153.62
509.67	1152.62
509.887	1136.62
510.103	1129.62
510.319	1154.62
510.536	1192.62
510.752	1232.62
510.968	1194.62
511.184	1272.62
511.401	1251.62
511.617	1114.62
511.833	1110.62
512.049	1072.62
512.265	1063.62
512.481	1084.62
512.698	1135.62
512.914	1202.62
513.13	1136.62
513.346	1093.62
513.562	1059.62
513.778	1112.62
513.994	1156.62
514.21	1168.62
514.426	1180.62
514.642	1258.62
514.858	1220.62
515.074	1120.62
515.29	1134.62
515.506	1156.62
515.721	1167.62
515.937	1157.62
516.153	1269.62
516.369	1247.62
516.585	1124.62
516.801	1136.62
517.016	1153.62
517.232	1199.62
517.448	1171.62
517.664	1218.62
517.879	1215.62
518.095	1262.62
518.311	1180.62
518.527	1166.62
518.742	1156.62
518.958	1110.62
519.173	1100.62
519.389	1170.62
519.605	1194.62
519.82	1164.62
520.036	1185.62
520.251	1127.62
520.467	1161.62
520.682	1234.62
520.898	1235.62
521.113	1118.62
521.329	1078.62
521.544	1166.62
521.76	1112.62
521.975	1068.62
522.19	1074.62
522.406	1070.62
522.621	1357.62
522.836	1306.62
523.052	1100.62
523.267	1092.62
523.482	1080.62
523.698	1059.62
523.913	1024.62
524.128	1059.62
524.343	1152.62
524.559	1164.62
524.774	1074.62
524.989	1080.62
525.204	1051.62
525.419	1058.62
525.634	1023.62
525.849	1026.62
526.064	1054.62
526.28	1081.62
526.495	1014.62
526.71	1005.62
526.925	990.62
527.14	993.62
527.355	948.62
527.57	980.62
527.785	1032.62
527.999	970.62
528.214	964.62
528.429	991.62
528.644	1024.62
528.859	1033.62
529.074	1080.62
529.289	1132.62
529.503	1090.62
529.718	1059.62
529.933	1040.62
530.148	987.62
530.363	989.62
530.577	960.62
530.792	984.62
531.007	986.62
531.221	968.62
531.436	974.62
531.651	998.62
531.865	1054.62
532.08	978.62
532.295	970.62
532.509	956.62
532.724	935.62
532.938	1002.62
533.153	1039.62
533.367	1021.62
533.582	1011.62
533.796	1012.62
534.011	1003.62
534.225	967.62
534.44	963.62
534.654	932.62
534.868	972.62
535.083	994.62
535.297	1001.62
535.511	972.62
535.726	987.62
535.94	976.62
536.154	938.62
536.369	961.62
536.583	934.62
536.797	926.62
537.011	963.62
537.225	918.62
537.44	913.62
537.654	951.62
537.868	908.62
538.082	883.62
538.296	879.62
538.51	909.62
538.724	922.62
538.938	943.62
539.153	987.62
539.367	997.62
539.581	944.62
539.795	977.62
540.009	939.62
540.222	972.62
540.436	959.62
540.65	1048.62
540.864	1073.62
541.078	1048.62
541.292	991.62
541.506	1062.62
541.72	1084.62
541.934	1127.62
542.147	1193.62
542.361	1126.62
542.575	1062.62
542.789	1025.62
543.002	952.62
543.216	966.62
543.43	998.62
543.644	1043.62
543.857	1092.62
544.071	1080.62
544.285	1076.62
544.498	1051.62
544.712	1075.62
544.925	1109.62
545.139	1110.62
545.352	1051.62
545.566	1076.62
545.779	1036.62
545.993	1060.62
546.206	1103.62
546.42	1048.62
546.633	1011.62
546.847	1068.62
547.06	1053.62
547.274	1076.62
547.487	1073.62
547.7	1095.62
547.914	1070.62
548.127	1078.62
548.34	1048.62
548.554	1055.62
548.767	1064.62
548.98	1051.62
549.193	1036.62
549.407	1109.62
549.62	1060.62
549.833	1078.62
550.046	1046.62
550.259	1080.62
550.473	1055.62
550.686	1024.62
550.899	990.62
551.112	969.62
551.325	976.62
551.538	1044.62
551.751	1121.62
551.964	904.62
552.177	898.62
552.39	925.62
552.603	1012.62
552.816	1003.62
553.029	1074.62
553.242	1074.62
553.455	1019.62
553.667	1035.62
553.88	1054.62
554.093	1016.62
554.306	975.62
554.519	966.62
554.732	997.62
554.944	966.62
555.157	956.62
555.37	943.62
555.583	931.62
555.795	912.62
556.008	894.62
556.221	885.62
556.433	850.62
556.646	872.62
556.859	871.62
557.071	856.62
557.284	840.62
557.496	879.62
557.709	863.62
557.921	862.62
558.134	854.62
558.346	870.62
558.559	872.62
558.771	837.62
558.984	807.62
559.196	815.62
559.409	839.62
559.621	791.62
559.833	812.62
560.046	825.62
560.258	839.62
560.47	834.62
560.683	787.62
560.895	814.62
561.107	805.62
561.32	823.62
561.532	837.62
561.744	816.62
561.956	826.62
562.168	770.62
562.381	767.62
562.593	776.62
562.805	780.62
563.017	771.62
563.229	776.62
563.441	806.62
563.653	782.62
563.865	777.62
564.077	778.62
564.289	766.62
564.501	785.62
564.713	779.62
564.925	794.62
565.137	873.62
565.349	815.62
565.561	788.62
565.773	827.62
565.985	802.62
566.197	866.62
566.408	915.62
566.62	896.62
566.832	877.62
567.044	881.62
567.255	842.62
567.467	888.62
567.679	958.62
567.891	940.62
568.102	863.62
568.314	852.62
568.526	807.62
568.737	773.62
568.949	736.62
569.161	705.62
569.372	679.62
569.584	682.62
569.795	710.62
570.007	694.62
570.218	635.62
570.43	646.62
570.641	663.62
570.853	667.62
571.064	660.62
571.276	679.62
571.487	650.62
571.698	620.62
571.91	634.62
572.121	611.62
572.333	619.62
572.544	628.62
572.755	598.62
572.966	566.62
573.178	593.62
573.389	574.62
573.6	598.62
573.811	618.62
574.023	557.62
574.234	580.62
574.445	552.62
574.656	538.62
574.867	562.62
575.078	573.62
575.289	560.62
575.501	559.62
575.712	549.62
575.923	547.62
576.134	544.62
576.345	535.62
576.556	541.62
576.767	546.62
576.978	542.62
577.188	522.62
577.399	514.62
577.61	495.62
577.821	506.62
578.032	493.62
578.243	508.62
578.454	491.62
578.665	479.62
578.875	492.62
579.086	486.62
579.297	485.62
579.508	522.62
579.718	505.62
579.929	510.62
580.14	480.62
580.35	509.62
580.561	516.62
580.772	564.62
580.982	508.62
581.193	486.62
581.403	482.62
581.614	472.62
581.825	473.62
582.035	482.62
582.246	482.62
582.456	494.62
582.667	470.62
582.877	464.62
583.087	470.62
583.298	472.62
583.508	479.62
583.719	454.62
583.929	473.62
584.139	492.62
584.35	478.62
584.56	456.62
584.77	486.62
584.981	454.62
585.191	464.62
585.401	489.62
585.611	480.62
585.821	451.62
586.032	460.62
586.242	447.62
586.452	418.62
586.662	470.62
586.872	442.62
587.082	459.62
587.292	490.62
587.502	456.62
587.713	443.62
587.923	456.62
588.133	444.62
588.343	449.62
588.553	443.62
588.762	463.62
588.972	437.62
589.182	451.62
589.392	439.62
589.602	458.62
589.812	437.62
590.022	431.62
590.232	442.62
590.441	446.62
590.651	458.62
590.861	444.62
591.071	434.62
591.281	439.62
591.49	438.62
591.7	436.62
591.91	438.62
592.119	462.62
592.329	451.62
592.539	446.62
592.748	470.62
592.958	459.62
593.167	462.62
593.377	456.62
593.587	461.62
593.796	462.62
594.006	479.62
594.215	452.62
594.424	442.62
594.634	458.62
594.843	447.62
595.053	468.62
595.262	455.62
595.472	453.62
595.681	444.62
595.89	417.62
596.1	448.62
596.309	431.62
596.518	431.62
596.727	437.62
596.937	426.62
597.146	418.62
597.355	429.62
597.564	418.62
597.774	416.62
597.983	402.62
598.192	390.62
598.401	377.62
598.61	404.62
598.819	402.62
599.028	396.62
599.237	392.62
599.446	375.62
599.655	387.62
599.864	379.62
600.073	388.62
600.282	384.62
600.491	385.62
600.7	375.62
600.909	387.62
601.118	398.62
601.327	381.62
601.536	426.62
601.745	398.62
601.953	402.62
602.162	409.62
602.371	410.62
602.58	386.62
602.789	400.62
602.997	419.62
603.206	402.62
603.415	405.62
603.623	390.62
603.832	422.62
604.041	390.62
604.249	387.62
604.458	364.62
604.666	399.62
604.875	372.62
605.084	384.62
605.292	422.62
605.501	395.62
605.709	382.62
605.918	393.62
606.126	403.62
606.334	405.62
606.543	403.62
606.751	398.62
606.96	398.62
607.168	392.62
607.376	394.62
607.585	405.62
607.793	386.62
608.001	389.62
608.21	395.62
608.418	400.62
608.626	410.62
608.834	404.62
609.043	394.62
609.251	400.62
609.459	403.62
609.667	392.62
609.875	426.62
610.083	414.62
610.291	402.62
610.499	419.62
610.707	411.62
610.916	406.62
611.124	395.62
611.332	387.62
611.54	389.62
611.748	379.62
611.955	384.62
612.163	385.62
612.371	382.62
612.579	382.62
612.787	377.62
612.995	401.62
613.203	390.62
613.411	404.62
613.618	382.62
613.826	382.62
614.034	380.62
614.242	381.62
614.449	388.62
614.657	396.62
614.865	388.62
615.072	387.62
615.28	371.62
615.488	393.62
615.695	398.62
615.903	388.62
616.111	385.62
616.318	392.62
616.526	399.62
616.733	391.62
616.941	394.62
617.148	373.62
617.356	361.62
617.563	377.62
617.771	370.62
617.978	370.62
618.185	386.62
618.393	369.62
618.6	385.62
618.807	375.62
619.015	358.62
619.222	362.62
619.429	377.62
619.637	354.62
619.844	367.62
620.051	358.62
620.258	360.62
620.466	366.62
620.673	349.62
620.88	354.62
621.087	353.62
621.294	327.62
621.501	336.62
621.708	342.62
621.915	353.62
622.122	359.62
622.329	357.62
622.536	352.62
622.743	357.62
622.95	352.62
623.157	351.62
623.364	353.62
623.571	356.62
623.778	335.62
623.985	354.62
624.192	342.62
624.399	364.62
624.606	328.62
624.812	346.62
625.019	342.62
625.226	311.62
625.433	340.62
625.639	320.62
625.846	318.62
626.053	295.62
626.259	297.62
626.466	292.62
626.673	284.62
626.879	293.62
627.086	307.62
627.293	300.62
627.499	338.62
627.706	341.62
627.912	318.62
628.119	333.62
628.325	324.62
628.532	329.62
628.738	336.62
628.945	319.62
629.151	313.62
629.357	302.62
629.564	324.62
629.77	302.62
629.976	290.62
630.183	297.62
630.389	295.62
630.595	295.62
630.802	310.62
631.008	290.62
631.214	318.62
631.42	302.62
631.627	297.62
631.833	277.62
632.039	295.62
632.245	289.62
632.451	295.62
632.657	281.62
632.863	287.62
633.069	313.62
633.275	281.62
633.481	266.62
633.688	272.62
633.893	278.62
634.099	283.62
634.305	281.62
634.511	275.62
634.717	272.62
634.923	255.62
635.129	260.62
635.335	270.62
635.541	272.62
635.747	251.62
635.952	280.62
636.158	279.62
636.364	298.62
636.57	293.62
636.775	286.62
636.981	288.62
637.187	270.62
637.392	278.62
637.598	294.62
637.804	281.62
638.009	293.62
638.215	271.62
638.421	285.62
638.626	283.62
638.832	264.62
639.037	255.62
639.243	259.62
639.448	269.62
639.654	263.62
639.859	269.62
640.065	282.62
640.27	276.62
640.475	262.62
640.681	278.62
640.886	261.62
641.091	263.62
641.297	256.62
641.502	276.62
641.707	265.62
641.913	267.62
642.118	263.62
642.323	236.62
642.528	258.62
642.733	261.62
642.939	270.62
643.144	269.62
643.349	268.62
643.554	255.62
643.759	269.62
643.964	250.62
644.169	270.62
644.374	250.62
644.579	260.62
644.784	268.62
644.989	275.62
645.194	258.62
645.399	245.62
645.604	259.62
645.809	242.62
646.014	252.62
646.219	267.62
646.423	253.62
646.628	258.62
646.833	251.62
647.038	261.62
647.243	261.62
647.447	256.62
647.652	260.62
647.857	244.62
648.062	264.62
648.266	262.62
648.471	251.62
648.676	251.62
648.88	275.62
649.085	268.62
649.289	243.62
649.494	247.62
649.698	256.62
649.903	243.62
650.107	247.62
650.312	246.62
650.516	260.62
650.721	255.62
650.925	229.62
651.13	258.62
651.334	239.62
651.539	214.62
651.743	221.62
651.947	233.62
652.152	218.62
652.356	218.62
652.56	231.62
652.764	236.62
652.969	238.62
653.173	226.62
653.377	227.62
653.581	225.62
653.785	223.62
653.99	213.62
654.194	213.62
654.398	206.62
654.602	218.62
654.806	222.62
655.01	204.62
655.214	218.62
655.418	222.62
655.622	227.62
655.826	230.62
656.03	244.62
656.234	247.62
656.438	264.62
656.642	246.62
656.846	250.62
657.049	246.62
657.253	229.62
657.457	212.62
657.661	198.62
657.865	197.62
658.068	174.62
658.272	164.62
658.476	158.62
658.68	158.62
658.883	167.62
659.087	150.62
659.291	148.62
659.494	148.62
659.698	143.62
659.901	132.62
660.105	158.62
660.309	123.62
660.512	126.62
660.716	125.62
660.919	125.62
661.123	132.62
661.326	118.62
661.53	100.62
661.733	116.62
661.936	126.62
662.14	102.62
662.343	103.62
662.546	98.62
662.75	99.62
662.953	96.62
663.156	85.62
663.36	99.62
663.563	86.62
663.766	108.62
663.969	78.62
664.173	78.62
664.376	93.62
664.579	90.62
664.782	93.62
664.985	92.62
665.188	86.62
665.391	80.62
665.594	98.62
665.797	71.62
666	88.62
666.203	84.62
666.406	90.62
666.609	92.62
666.812	93.62
667.015	98.62
667.218	83.62
667.421	97.62
667.624	81.62
667.827	99.62
668.03	91.62
668.232	83.62
668.435	98.62
668.638	92.62
668.841	83.62
669.043	89.62
669.246	93.62
669.449	82.62
669.651	92.62
669.854	74.62
670.057	80.62
670.259	96.62
670.462	83.62
670.665	74.62
670.867	75.62
671.07	89.62
671.272	91.62
671.475	91.62
671.677	90.62
671.88	84.62
672.082	80.62
672.284	100.62
672.487	82.62
672.689	95.62
672.892	86.62
