Data from WStandard_LampEnergy8_LIBS07252019.E.O._I.C._HRD10591_15-58-24-928.txt Node
Date: Thu Jul 25 15:58:24 EDT 2019
User: cochatt
Spectrometer: HR+D1059
Trigger mode: 1
Integration Time (sec): 1.000000E-1
Scans to average: 1
Electric dark correction enabled: true
Nonlinearity correction enabled: false
Boxcar width: 0
XAxis mode: Wavelengths
Number of Pixels in Spectrum: 2048
>>>>>Begin Spectral Data<<<<<
223.165	-22.75
223.4	-22.75
223.635	-22.75
223.869	-14.75
224.104	-15.75
224.338	-28.75
224.573	-19.75
224.808	-21.75
225.042	-8.75
225.277	-9.75
225.511	-0.75
225.746	9.25
225.98	10.25
226.215	12.25
226.449	23.25
226.683	24.25
226.918	32.25
227.152	31.25
227.387	32.25
227.621	34.25
227.856	29.25
228.09	48.25
228.324	40.25
228.559	49.25
228.793	101.25
229.027	197.25
229.262	215.25
229.496	205.25
229.73	219.25
229.964	235.25
230.199	246.25
230.433	255.25
230.667	279.25
230.901	290.25
231.136	269.25
231.37	253.25
231.604	272.25
231.838	283.25
232.072	251.25
232.306	247.25
232.541	276.25
232.775	312.25
233.009	327.25
233.243	311.25
233.477	296.25
233.711	298.25
233.945	304.25
234.179	301.25
234.413	319.25
234.647	337.25
234.881	333.25
235.115	308.25
235.349	299.25
235.583	301.25
235.817	306.25
236.051	283.25
236.285	295.25
236.519	323.25
236.753	353.25
236.987	348.25
237.221	340.25
237.455	372.25
237.689	371.25
237.922	346.25
238.156	335.25
238.39	337.25
238.624	375.25
238.858	391.25
239.091	393.25
239.325	436.25
239.559	462.25
239.793	488.25
240.027	501.25
240.26	483.25
240.494	397.25
240.728	379.25
240.961	395.25
241.195	399.25
241.429	394.25
241.662	415.25
241.896	401.25
242.13	402.25
242.363	416.25
242.597	451.25
242.83	443.25
243.064	444.25
243.298	481.25
243.531	480.25
243.765	466.25
243.998	477.25
244.232	425.25
244.465	411.25
244.699	402.25
244.932	458.25
245.166	495.25
245.399	483.25
245.633	468.25
245.866	464.25
246.099	475.25
246.333	500.25
246.566	480.25
246.8	518.25
247.033	566.25
247.266	517.25
247.5	527.25
247.733	529.25
247.966	563.25
248.2	603.25
248.433	592.25
248.666	608.25
248.899	674.25
249.133	757.25
249.366	785.25
249.599	667.25
249.832	613.25
250.066	633.25
250.299	609.25
250.532	587.25
250.765	527.25
250.998	561.25
251.231	579.25
251.465	586.25
251.698	562.25
251.931	584.25
252.164	575.25
252.397	609.25
252.63	611.25
252.863	546.25
253.096	542.25
253.329	587.25
253.562	569.25
253.795	632.25
254.028	618.25
254.261	571.25
254.494	575.25
254.727	557.25
254.96	577.25
255.193	614.25
255.426	696.25
255.659	783.25
255.892	799.25
256.124	675.25
256.357	646.25
256.59	680.25
256.823	676.25
257.056	711.25
257.289	825.25
257.521	879.25
257.754	809.25
257.987	778.25
258.22	832.25
258.452	798.25
258.685	674.25
258.918	668.25
259.151	665.25
259.383	646.25
259.616	608.25
259.849	643.25
260.081	704.25
260.314	773.25
260.547	819.25
260.779	801.25
261.012	777.25
261.244	705.25
261.477	699.25
261.71	719.25
261.942	691.25
262.175	671.25
262.407	692.25
262.64	673.25
262.872	639.25
263.105	599.25
263.337	638.25
263.57	627.25
263.802	639.25
264.035	614.25
264.267	585.25
264.499	576.25
264.732	644.25
264.964	637.25
265.197	674.25
265.429	701.25
265.661	793.25
265.894	821.25
266.126	854.25
266.358	783.25
266.591	794.25
266.823	872.25
267.055	801.25
267.287	787.25
267.52	795.25
267.752	766.25
267.984	759.25
268.216	771.25
268.448	826.25
268.681	799.25
268.913	747.25
269.145	682.25
269.377	707.25
269.609	742.25
269.841	859.25
270.073	991.25
270.306	1064.25
270.538	1115.25
270.77	962.25
271.002	842.25
271.234	799.25
271.466	812.25
271.698	919.25
271.93	1047.25
272.162	1042.25
272.394	964.25
272.626	903.25
272.858	809.25
273.09	711.25
273.322	716.25
273.553	683.25
273.785	690.25
274.017	726.25
274.249	748.25
274.481	765.25
274.713	716.25
274.945	697.25
275.176	721.25
275.408	675.25
275.64	701.25
275.872	687.25
276.104	754.25
276.335	850.25
276.567	912.25
276.799	897.25
277.031	839.25
277.262	808.25
277.494	834.25
277.726	919.25
277.957	892.25
278.189	797.25
278.421	783.25
278.652	733.25
278.884	727.25
279.115	739.25
279.347	735.25
279.579	730.25
279.81	724.25
280.042	825.25
280.273	875.25
280.505	894.25
280.736	891.25
280.968	837.25
281.199	748.25
281.431	726.25
281.662	716.25
281.894	726.25
282.125	761.25
282.356	779.25
282.588	769.25
282.819	773.25
283.051	848.25
283.282	917.25
283.513	840.25
283.745	771.25
283.976	736.25
284.207	709.25
284.439	747.25
284.67	759.25
284.901	778.25
285.132	794.25
285.364	790.25
285.595	792.25
285.826	763.25
286.057	759.25
286.288	753.25
286.52	800.25
286.751	846.25
286.982	897.25
287.213	808.25
287.444	742.25
287.675	730.25
287.906	791.25
288.138	811.25
288.369	801.25
288.6	783.25
288.831	743.25
289.062	754.25
289.293	783.25
289.524	778.25
289.755	791.25
289.986	802.25
290.217	722.25
290.448	766.25
290.679	765.25
290.91	804.25
291.141	799.25
291.371	832.25
291.602	843.25
291.833	823.25
292.064	833.25
292.295	852.25
292.526	833.25
292.757	867.25
292.987	845.25
293.218	813.25
293.449	856.25
293.68	970.25
293.91	1013.25
294.141	948.25
294.372	877.25
294.603	922.25
294.833	963.25
295.064	924.25
295.295	824.25
295.525	805.25
295.756	745.25
295.987	731.25
296.217	747.25
296.448	771.25
296.679	762.25
296.909	780.25
297.14	780.25
297.37	782.25
297.601	834.25
297.831	903.25
298.062	866.25
298.292	829.25
298.523	780.25
298.753	791.25
298.984	823.25
299.214	822.25
299.445	840.25
299.675	840.25
299.905	829.25
300.136	821.25
300.366	823.25
300.597	777.25
300.827	752.25
301.057	812.25
301.288	876.25
301.518	865.25
301.748	894.25
301.979	919.25
302.209	950.25
302.439	1003.25
302.669	1009.25
302.9	925.25
303.13	860.25
303.36	869.25
303.59	887.25
303.82	867.25
304.051	868.25
304.281	883.25
304.511	896.25
304.741	952.25
304.971	1069.25
305.201	1062.25
305.431	964.25
305.661	827.25
305.891	771.25
306.121	794.25
306.352	847.25
306.582	863.25
306.812	920.25
307.042	943.25
307.272	949.25
307.502	1016.25
307.731	1077.25
307.961	1061.25
308.191	996.25
308.421	891.25
308.651	844.25
308.881	831.25
309.111	817.25
309.341	854.25
309.571	834.25
309.8	848.25
310.03	828.25
310.26	801.25
310.49	823.25
310.72	863.25
310.949	881.25
311.179	889.25
311.409	886.25
311.639	841.25
311.868	837.25
312.098	855.25
312.328	864.25
312.557	865.25
312.787	848.25
313.017	879.25
313.246	865.25
313.476	888.25
313.706	875.25
313.935	891.25
314.165	921.25
314.394	945.25
314.624	1012.25
314.853	1051.25
315.083	1038.25
315.312	1058.25
315.542	996.25
315.771	924.25
316.001	937.25
316.23	949.25
316.46	977.25
316.689	929.25
316.919	873.25
317.148	871.25
317.377	899.25
317.607	981.25
317.836	1117.25
318.065	1113.25
318.295	1014.25
318.524	977.25
318.753	924.25
318.983	949.25
319.212	929.25
319.441	893.25
319.67	912.25
319.9	943.25
320.129	997.25
320.358	1011.25
320.587	1023.25
320.816	1052.25
321.046	987.25
321.275	946.25
321.504	980.25
321.733	1060.25
321.962	983.25
322.191	959.25
322.42	933.25
322.649	925.25
322.878	915.25
323.108	946.25
323.337	979.25
323.566	951.25
323.795	997.25
324.024	972.25
324.253	912.25
324.482	953.25
324.71	876.25
324.939	897.25
325.168	901.25
325.397	937.25
325.626	986.25
325.855	922.25
326.084	944.25
326.313	946.25
326.542	971.25
326.77	979.25
326.999	979.25
327.228	936.25
327.457	911.25
327.686	913.25
327.914	904.25
328.143	949.25
328.372	937.25
328.6	949.25
328.829	932.25
329.058	918.25
329.287	916.25
329.515	962.25
329.744	966.25
329.972	1027.25
330.201	1031.25
330.43	986.25
330.658	990.25
330.887	1002.25
331.115	977.25
331.344	975.25
331.572	965.25
331.801	971.25
332.03	988.25
332.258	983.25
332.486	1015.25
332.715	1025.25
332.943	1031.25
333.172	999.25
333.4	1029.25
333.629	1055.25
333.857	1112.25
334.085	1241.25
334.314	1336.25
334.542	1437.25
334.771	1300.25
334.999	1143.25
335.227	1100.25
335.455	1037.25
335.684	1045.25
335.912	1082.25
336.14	1111.25
336.369	1071.25
336.597	1009.25
336.825	1004.25
337.053	1045.25
337.281	1081.25
337.51	1140.25
337.738	1179.25
337.966	1111.25
338.194	1025.25
338.422	1034.25
338.65	986.25
338.878	972.25
339.106	918.25
339.334	976.25
339.562	919.25
339.79	963.25
340.018	1013.25
340.246	1064.25
340.474	1071.25
340.702	1026.25
340.93	1037.25
341.158	1009.25
341.386	998.25
341.614	996.25
341.842	992.25
342.07	1045.25
342.298	993.25
342.526	988.25
342.754	983.25
342.981	968.25
343.209	990.25
343.437	960.25
343.665	970.25
343.893	1032.25
344.12	1026.25
344.348	1040.25
344.576	1017.25
344.804	1001.25
345.031	987.25
345.259	994.25
345.487	952.25
345.714	931.25
345.942	919.25
346.17	932.25
346.397	953.25
346.625	927.25
346.853	887.25
347.08	892.25
347.308	898.25
347.535	892.25
347.763	966.25
347.99	943.25
348.218	910.25
348.445	933.25
348.673	915.25
348.9	960.25
349.128	981.25
349.355	961.25
349.583	984.25
349.81	957.25
350.037	868.25
350.265	876.25
350.492	922.25
350.72	911.25
350.947	957.25
351.174	943.25
351.402	902.25
351.629	860.25
351.856	860.25
352.083	872.25
352.311	852.25
352.538	905.25
352.765	911.25
352.992	943.25
353.22	919.25
353.447	897.25
353.674	919.25
353.901	929.25
354.128	916.25
354.355	913.25
354.583	971.25
354.81	968.25
355.037	950.25
355.264	936.25
355.491	923.25
355.718	924.25
355.945	922.25
356.172	914.25
356.399	915.25
356.626	900.25
356.853	941.25
357.08	1050.25
357.307	1104.25
357.534	1065.25
357.761	959.25
357.988	899.25
358.215	882.25
358.441	909.25
358.668	881.25
358.895	892.25
359.122	997.25
359.349	1043.25
359.576	1032.25
359.802	915.25
360.029	915.25
360.256	915.25
360.483	929.25
360.709	964.25
360.936	989.25
361.163	1045.25
361.39	1096.25
361.616	1144.25
361.843	1140.25
362.07	1095.25
362.296	933.25
362.523	923.25
362.749	917.25
362.976	957.25
363.203	962.25
363.429	932.25
363.656	915.25
363.882	937.25
364.109	1064.25
364.335	1142.25
364.562	1049.25
364.788	997.25
365.015	915.25
365.241	903.25
365.468	928.25
365.694	958.25
365.92	1039.25
366.147	931.25
366.373	910.25
366.599	915.25
366.826	919.25
367.052	912.25
367.278	907.25
367.505	935.25
367.731	951.25
367.957	948.25
368.184	1000.25
368.41	1057.25
368.636	1078.25
368.862	1050.25
369.089	1089.25
369.315	1011.25
369.541	959.25
369.767	903.25
369.993	946.25
370.219	931.25
370.445	974.25
370.672	1032.25
370.898	1079.25
371.124	1029.25
371.35	1014.25
371.576	1019.25
371.802	1041.25
372.028	994.25
372.254	938.25
372.48	960.25
372.706	948.25
372.932	969.25
373.158	961.25
373.384	973.25
373.61	1005.25
373.835	1019.25
374.061	989.25
374.287	1011.25
374.513	981.25
374.739	1003.25
374.965	992.25
375.191	1008.25
375.416	982.25
375.642	1034.25
375.868	1102.25
376.094	1121.25
376.319	1057.25
376.545	1001.25
376.771	1041.25
376.997	1105.25
377.222	1076.25
377.448	1068.25
377.674	1045.25
377.899	1054.25
378.125	1106.25
378.35	1070.25
378.576	1020.25
378.802	945.25
379.027	966.25
379.253	976.25
379.478	1002.25
379.704	1027.25
379.929	987.25
380.155	1002.25
380.38	1027.25
380.606	994.25
380.831	1021.25
381.057	1058.25
381.282	1099.25
381.507	1085.25
381.733	1139.25
381.958	1184.25
382.184	1063.25
382.409	1033.25
382.634	1049.25
382.86	1038.25
383.085	1046.25
383.31	1081.25
383.535	1199.25
383.761	1252.25
383.986	1165.25
384.211	1114.25
384.436	1138.25
384.662	1189.25
384.887	1185.25
385.112	1156.25
385.337	1159.25
385.562	1142.25
385.787	1157.25
386.013	1175.25
386.238	1161.25
386.463	1177.25
386.688	1225.25
386.913	1336.25
387.138	1252.25
387.363	1164.25
387.588	1186.25
387.813	1155.25
388.038	1185.25
388.263	1222.25
388.488	1147.25
388.713	1075.25
388.938	1087.25
389.163	1087.25
389.387	1128.25
389.612	1116.25
389.837	1170.25
390.062	1151.25
390.287	1142.25
390.512	1132.25
390.736	1137.25
390.961	1112.25
391.186	1092.25
391.411	1089.25
391.636	1109.25
391.86	1137.25
392.085	1137.25
392.31	1105.25
392.534	1143.25
392.759	1183.25
392.984	1147.25
393.208	1156.25
393.433	1196.25
393.658	1220.25
393.882	1226.25
394.107	1150.25
394.331	1143.25
394.556	1125.25
394.78	1140.25
395.005	1171.25
395.229	1254.25
395.454	1345.25
395.678	1322.25
395.903	1260.25
396.127	1205.25
396.352	1195.25
396.576	1268.25
396.801	1217.25
397.025	1242.25
397.249	1257.25
397.474	1244.25
397.698	1252.25
397.922	1260.25
398.147	1312.25
398.371	1391.25
398.595	1401.25
398.82	1283.25
399.044	1281.25
399.268	1372.25
399.492	1450.25
399.717	1519.25
399.941	1512.25
400.165	1467.25
400.389	1483.25
400.613	1455.25
400.837	1675.25
401.062	1819.25
401.286	1552.25
401.51	1467.25
401.734	1519.25
401.958	1416.25
402.182	1319.25
402.406	1265.25
402.63	1277.25
402.854	1289.25
403.078	1293.25
403.302	1341.25
403.526	1374.25
403.75	1368.25
403.974	1383.25
404.198	1365.25
404.422	1410.25
404.645	1467.25
404.869	1430.25
405.093	1336.25
405.317	1313.25
405.541	1351.25
405.765	1365.25
405.988	1377.25
406.212	1382.25
406.436	1415.25
406.66	1441.25
406.883	1478.25
407.107	1684.25
407.331	1817.25
407.555	1899.25
407.778	1674.25
408.002	1437.25
408.226	1416.25
408.449	1411.25
408.673	1392.25
408.896	1395.25
409.12	1388.25
409.344	1372.25
409.567	1319.25
409.791	1368.25
410.014	1415.25
410.238	1497.25
410.461	1534.25
410.685	1386.25
410.908	1356.25
411.132	1372.25
411.355	1328.25
411.578	1373.25
411.802	1339.25
412.025	1372.25
412.249	1347.25
412.472	1300.25
412.695	1297.25
412.919	1312.25
413.142	1309.25
413.365	1315.25
413.589	1347.25
413.812	1413.25
414.035	1431.25
414.258	1369.25
414.482	1331.25
414.705	1326.25
414.928	1288.25
415.151	1309.25
415.374	1299.25
415.597	1335.25
415.821	1331.25
416.044	1346.25
416.267	1348.25
416.49	1264.25
416.713	1315.25
416.936	1347.25
417.159	1372.25
417.382	1404.25
417.605	1337.25
417.828	1328.25
418.051	1363.25
418.274	1317.25
418.497	1313.25
418.72	1301.25
418.943	1288.25
419.166	1361.25
419.389	1377.25
419.611	1299.25
419.834	1294.25
420.057	1305.25
420.28	1269.25
420.503	1276.25
420.726	1324.25
420.948	1305.25
421.171	1245.25
421.394	1282.25
421.617	1341.25
421.839	1297.25
422.062	1343.25
422.285	1285.25
422.507	1275.25
422.73	1251.25
422.953	1241.25
423.175	1220.25
423.398	1268.25
423.621	1247.25
423.843	1326.25
424.066	1329.25
424.288	1401.25
424.511	1431.25
424.733	1361.25
424.956	1252.25
425.178	1250.25
425.401	1266.25
425.623	1275.25
425.846	1303.25
426.068	1359.25
426.291	1350.25
426.513	1339.25
426.735	1346.25
426.958	1452.25
427.18	1483.25
427.402	1388.25
427.625	1417.25
427.847	1393.25
428.069	1272.25
428.292	1264.25
428.514	1216.25
428.736	1244.25
428.958	1257.25
429.181	1305.25
429.403	1475.25
429.625	1787.25
429.847	1508.25
430.069	1303.25
430.292	1448.25
430.514	1463.25
430.736	1359.25
430.958	1382.25
431.18	1317.25
431.402	1236.25
431.624	1213.25
431.846	1177.25
432.068	1142.25
432.29	1145.25
432.512	1194.25
432.734	1235.25
432.956	1303.25
433.178	1361.25
433.4	1307.25
433.622	1307.25
433.844	1229.25
434.066	1235.25
434.287	1187.25
434.509	1223.25
434.731	1297.25
434.953	1396.25
435.175	1345.25
435.397	1281.25
435.618	1253.25
435.84	1242.25
436.062	1224.25
436.284	1351.25
436.505	1338.25
436.727	1323.25
436.949	1250.25
437.17	1244.25
437.392	1231.25
437.614	1203.25
437.835	1184.25
438.057	1239.25
438.278	1240.25
438.5	1235.25
438.721	1257.25
438.943	1275.25
439.165	1219.25
439.386	1228.25
439.608	1240.25
439.829	1220.25
440.05	1267.25
440.272	1248.25
440.493	1258.25
440.715	1281.25
440.936	1391.25
441.158	1431.25
441.379	1364.25
441.6	1379.25
441.822	1361.25
442.043	1348.25
442.264	1308.25
442.486	1274.25
442.707	1260.25
442.928	1283.25
443.149	1297.25
443.371	1349.25
443.592	1402.25
443.813	1383.25
444.034	1357.25
444.255	1345.25
444.476	1390.25
444.698	1409.25
444.919	1381.25
445.14	1516.25
445.361	1442.25
445.582	1485.25
445.803	1412.25
446.024	1372.25
446.245	1442.25
446.466	1382.25
446.687	1357.25
446.908	1336.25
447.129	1306.25
447.35	1288.25
447.571	1324.25
447.792	1233.25
448.013	1266.25
448.234	1259.25
448.455	1335.25
448.675	1326.25
448.896	1222.25
449.117	1210.25
449.338	1228.25
449.559	1261.25
449.779	1312.25
450	1405.25
450.221	1443.25
450.442	1382.25
450.662	1324.25
450.883	1185.25
451.104	1188.25
451.324	1164.25
451.545	1227.25
451.766	1205.25
451.986	1171.25
452.207	1147.25
452.428	1124.25
452.648	1087.25
452.869	1117.25
453.089	1167.25
453.31	1159.25
453.53	1172.25
453.751	1131.25
453.971	1088.25
454.192	1105.25
454.412	1151.25
454.633	1173.25
454.853	1149.25
455.073	1056.25
455.294	1066.25
455.514	1102.25
455.734	1062.25
455.955	1081.25
456.175	1092.25
456.395	1059.25
456.616	1094.25
456.836	1121.25
457.056	1096.25
457.276	1090.25
457.497	1074.25
457.717	1050.25
457.937	1091.25
458.157	1094.25
458.377	1052.25
458.598	1011.25
458.818	1060.25
459.038	1128.25
459.258	1171.25
459.478	1144.25
459.698	1150.25
459.918	1163.25
460.138	1238.25
460.358	1256.25
460.578	1244.25
460.798	1306.25
461.018	1383.25
461.238	1295.25
461.458	1261.25
461.678	1291.25
461.898	1234.25
462.118	1226.25
462.338	1274.25
462.558	1236.25
462.777	1284.25
462.997	1316.25
463.217	1329.25
463.437	1302.25
463.657	1277.25
463.876	1244.25
464.096	1267.25
464.316	1256.25
464.536	1347.25
464.755	1323.25
464.975	1305.25
465.195	1284.25
465.414	1347.25
465.634	1317.25
465.854	1309.25
466.073	1396.25
466.293	1341.25
466.512	1191.25
466.732	1192.25
466.951	1225.25
467.171	1246.25
467.391	1199.25
467.61	1181.25
467.829	1247.25
468.049	1357.25
468.268	1483.25
468.488	1332.25
468.707	1305.25
468.927	1270.25
469.146	1228.25
469.365	1218.25
469.585	1232.25
469.804	1217.25
470.023	1291.25
470.243	1257.25
470.462	1250.25
470.681	1204.25
470.901	1257.25
471.12	1233.25
471.339	1240.25
471.558	1202.25
471.777	1208.25
471.997	1200.25
472.216	1165.25
472.435	1128.25
472.654	1159.25
472.873	1153.25
473.092	1263.25
473.311	1201.25
473.53	1123.25
473.749	1159.25
473.968	1171.25
474.187	1240.25
474.406	1250.25
474.625	1217.25
474.844	1212.25
475.063	1205.25
475.282	1215.25
475.501	1198.25
475.72	1222.25
475.939	1292.25
476.158	1242.25
476.377	1216.25
476.596	1195.25
476.814	1176.25
477.033	1232.25
477.252	1254.25
477.471	1311.25
477.69	1277.25
477.908	1299.25
478.127	1334.25
478.346	1455.25
478.564	1424.25
478.783	1427.25
479.002	1437.25
479.22	1444.25
479.439	1451.25
479.658	1577.25
479.876	1522.25
480.095	1383.25
480.313	1364.25
480.532	1295.25
480.751	1292.25
480.969	1338.25
481.188	1267.25
481.406	1255.25
481.624	1223.25
481.843	1259.25
482.061	1288.25
482.28	1339.25
482.498	1362.25
482.717	1305.25
482.935	1299.25
483.153	1362.25
483.372	1320.25
483.59	1393.25
483.808	1351.25
484.027	1365.25
484.245	1430.25
484.463	1759.25
484.681	1900.25
484.9	1484.25
485.118	1380.25
485.336	1330.25
485.554	1410.25
485.772	1393.25
485.99	1383.25
486.209	1373.25
486.427	1384.25
486.645	1416.25
486.863	1409.25
487.081	1471.25
487.299	1427.25
487.517	1457.25
487.735	1452.25
487.953	1533.25
488.171	1513.25
488.389	1448.25
488.607	1491.25
488.825	1605.25
489.043	1541.25
489.261	1407.25
489.479	1489.25
489.696	1491.25
489.914	1477.25
490.132	1432.25
490.35	1460.25
490.568	1557.25
490.786	1507.25
491.003	1505.25
491.221	1570.25
491.439	1631.25
491.657	1590.25
491.874	1648.25
492.092	1668.25
492.31	1753.25
492.527	1649.25
492.745	1631.25
492.963	1607.25
493.18	1627.25
493.398	1723.25
493.615	1700.25
493.833	1626.25
494.05	1560.25
494.268	1575.25
494.485	1577.25
494.703	1552.25
494.92	1553.25
495.138	1520.25
495.355	1570.25
495.573	1599.25
495.79	1685.25
496.008	1695.25
496.225	1604.25
496.442	1597.25
496.66	1620.25
496.877	1626.25
497.094	1647.25
497.312	1653.25
497.529	1612.25
497.746	1677.25
497.963	1899.25
498.181	2019.25
498.398	1940.25
498.615	1817.25
498.832	1779.25
499.049	1741.25
499.267	1816.25
499.484	1869.25
499.701	2034.25
499.918	2071.25
500.135	2237.25
500.352	2364.25
500.569	2384.25
500.786	2561.25
501.003	2306.25
501.22	2138.25
501.437	2064.25
501.654	2100.25
501.871	1979.25
502.088	1789.25
502.305	1772.25
502.522	1680.25
502.739	1625.25
502.956	1583.25
503.172	1572.25
503.389	1507.25
503.606	1475.25
503.823	1487.25
504.04	1491.25
504.256	1490.25
504.473	1488.25
504.69	1524.25
504.907	1486.25
505.123	1419.25
505.34	1560.25
505.557	2024.25
505.773	1676.25
505.99	1429.25
506.207	1322.25
506.423	1283.25
506.64	1265.25
506.856	1371.25
507.073	1542.25
507.289	1621.25
507.506	1492.25
507.722	1330.25
507.939	1260.25
508.155	1240.25
508.372	1266.25
508.588	1205.25
508.805	1188.25
509.021	1160.25
509.238	1154.25
509.454	1168.25
509.67	1170.25
509.887	1152.25
510.103	1127.25
510.319	1175.25
510.536	1229.25
510.752	1265.25
510.968	1244.25
511.184	1312.25
511.401	1230.25
511.617	1127.25
511.833	1115.25
512.049	1117.25
512.265	1112.25
512.481	1121.25
512.698	1170.25
512.914	1191.25
513.13	1158.25
513.346	1107.25
513.562	1119.25
513.778	1151.25
513.994	1160.25
514.21	1217.25
514.426	1210.25
514.642	1285.25
514.858	1226.25
515.074	1143.25
515.29	1150.25
515.506	1146.25
515.721	1171.25
515.937	1189.25
516.153	1305.25
516.369	1224.25
516.585	1171.25
516.801	1143.25
517.016	1176.25
517.232	1224.25
517.448	1211.25
517.664	1210.25
517.879	1226.25
518.095	1252.25
518.311	1235.25
518.527	1168.25
518.742	1180.25
518.958	1129.25
519.173	1137.25
519.389	1202.25
519.605	1176.25
519.82	1148.25
520.036	1176.25
520.251	1153.25
520.467	1175.25
520.682	1247.25
520.898	1271.25
521.113	1123.25
521.329	1127.25
521.544	1188.25
521.76	1164.25
521.975	1113.25
522.19	1075.25
522.406	1135.25
522.621	1407.25
522.836	1334.25
523.052	1120.25
523.267	1115.25
523.482	1131.25
523.698	1086.25
523.913	1083.25
524.128	1096.25
524.343	1157.25
524.559	1164.25
524.774	1097.25
524.989	1095.25
525.204	1080.25
525.419	1036.25
525.634	1080.25
525.849	1101.25
526.064	1085.25
526.28	1080.25
526.495	1019.25
526.71	1012.25
526.925	1001.25
527.14	1017.25
527.355	963.25
527.57	947.25
527.785	1011.25
527.999	995.25
528.214	966.25
528.429	970.25
528.644	1015.25
528.859	1064.25
529.074	1074.25
529.289	1122.25
529.503	1114.25
529.718	1082.25
529.933	1029.25
530.148	988.25
530.363	951.25
530.577	992.25
530.792	1014.25
531.007	1025.25
531.221	970.25
531.436	1007.25
531.651	1021.25
531.865	1033.25
532.08	1035.25
532.295	967.25
532.509	927.25
532.724	973.25
532.938	1013.25
533.153	1035.25
533.367	1042.25
533.582	1031.25
533.796	998.25
534.011	1039.25
534.225	1002.25
534.44	968.25
534.654	956.25
534.868	981.25
535.083	1035.25
535.297	1034.25
535.511	1032.25
535.726	1041.25
535.94	996.25
536.154	987.25
536.369	932.25
536.583	926.25
536.797	941.25
537.011	955.25
537.225	906.25
537.44	940.25
537.654	964.25
537.868	925.25
538.082	891.25
538.296	872.25
538.51	911.25
538.724	943.25
538.938	955.25
539.153	1023.25
539.367	976.25
539.581	994.25
539.795	1000.25
540.009	959.25
540.222	983.25
540.436	962.25
540.65	1067.25
540.864	1114.25
541.078	1075.25
541.292	1047.25
541.506	1051.25
541.72	1105.25
541.934	1170.25
542.147	1164.25
542.361	1173.25
542.575	1084.25
542.789	995.25
543.002	976.25
543.216	959.25
543.43	1030.25
543.644	1096.25
543.857	1131.25
544.071	1115.25
544.285	1115.25
544.498	1080.25
544.712	1127.25
544.925	1062.25
545.139	1118.25
545.352	1069.25
545.566	1053.25
545.779	1083.25
545.993	1108.25
546.206	1096.25
546.42	1071.25
546.633	1067.25
546.847	1083.25
547.06	1060.25
547.274	1057.25
547.487	1067.25
547.7	1091.25
547.914	1121.25
548.127	1088.25
548.34	1089.25
548.554	1088.25
548.767	1071.25
548.98	1087.25
549.193	1099.25
549.407	1114.25
549.62	1078.25
549.833	1074.25
550.046	1092.25
550.259	1072.25
550.473	1044.25
550.686	1046.25
550.899	1033.25
551.112	997.25
551.325	971.25
551.538	1081.25
551.751	1149.25
551.964	966.25
552.177	940.25
552.39	982.25
552.603	987.25
552.816	1044.25
553.029	1095.25
553.242	1092.25
553.455	1071.25
553.667	1047.25
553.88	1068.25
554.093	1029.25
554.306	1005.25
554.519	983.25
554.732	946.25
554.944	951.25
555.157	977.25
555.37	956.25
555.583	974.25
555.795	901.25
556.008	897.25
556.221	854.25
556.433	871.25
556.646	896.25
556.859	873.25
557.071	868.25
557.284	888.25
557.496	889.25
557.709	881.25
557.921	882.25
558.134	858.25
558.346	864.25
558.559	884.25
558.771	840.25
558.984	822.25
559.196	784.25
559.409	817.25
559.621	838.25
559.833	825.25
560.046	870.25
560.258	857.25
560.47	842.25
560.683	829.25
560.895	819.25
561.107	849.25
561.32	843.25
561.532	837.25
561.744	803.25
561.956	813.25
562.168	823.25
562.381	771.25
562.593	788.25
562.805	796.25
563.017	787.25
563.229	842.25
563.441	808.25
563.653	787.25
563.865	778.25
564.077	776.25
564.289	792.25
564.501	784.25
564.713	821.25
564.925	828.25
565.137	884.25
565.349	819.25
565.561	829.25
565.773	808.25
565.985	832.25
566.197	877.25
566.408	920.25
566.62	913.25
566.832	925.25
567.044	883.25
567.255	900.25
567.467	896.25
567.679	924.25
567.891	925.25
568.102	905.25
568.314	869.25
568.526	823.25
568.737	771.25
568.949	761.25
569.161	704.25
569.372	691.25
569.584	687.25
569.795	672.25
570.007	672.25
570.218	661.25
570.43	649.25
570.641	653.25
570.853	657.25
571.064	700.25
571.276	667.25
571.487	625.25
571.698	642.25
571.91	636.25
572.121	639.25
572.333	615.25
572.544	617.25
572.755	593.25
572.966	560.25
573.178	589.25
573.389	577.25
573.6	615.25
573.811	639.25
574.023	571.25
574.234	579.25
574.445	564.25
574.656	564.25
574.867	562.25
575.078	562.25
575.289	573.25
575.501	560.25
575.712	553.25
575.923	587.25
576.134	562.25
576.345	557.25
576.556	548.25
576.767	548.25
576.978	528.25
577.188	541.25
577.399	540.25
577.61	521.25
577.821	509.25
578.032	523.25
578.243	513.25
578.454	533.25
578.665	504.25
578.875	497.25
579.086	506.25
579.297	499.25
579.508	529.25
579.718	524.25
579.929	518.25
580.14	484.25
580.35	460.25
580.561	503.25
580.772	572.25
580.982	519.25
581.193	487.25
581.403	477.25
581.614	491.25
581.825	504.25
582.035	490.25
582.246	481.25
582.456	513.25
582.667	507.25
582.877	479.25
583.087	489.25
583.298	453.25
583.508	453.25
583.719	495.25
583.929	472.25
584.139	469.25
584.35	458.25
584.56	460.25
584.77	497.25
584.981	467.25
585.191	475.25
585.401	484.25
585.611	459.25
585.821	462.25
586.032	449.25
586.242	444.25
586.452	462.25
586.662	466.25
586.872	467.25
587.082	442.25
587.292	462.25
587.502	460.25
587.713	457.25
587.923	447.25
588.133	418.25
588.343	459.25
588.553	439.25
588.762	456.25
588.972	450.25
589.182	452.25
589.392	432.25
589.602	447.25
589.812	441.25
590.022	448.25
590.232	445.25
590.441	473.25
590.651	443.25
590.861	439.25
591.071	447.25
591.281	435.25
591.49	431.25
591.7	449.25
591.91	427.25
592.119	441.25
592.329	465.25
592.539	470.25
592.748	463.25
592.958	442.25
593.167	465.25
593.377	465.25
593.587	468.25
593.796	475.25
594.006	464.25
594.215	476.25
594.424	472.25
594.634	456.25
594.843	471.25
595.053	463.25
595.262	451.25
595.472	451.25
595.681	447.25
595.89	437.25
596.1	429.25
596.309	450.25
596.518	447.25
596.727	443.25
596.937	429.25
597.146	409.25
597.355	417.25
597.564	421.25
597.774	418.25
597.983	406.25
598.192	405.25
598.401	388.25
598.61	401.25
598.819	400.25
599.028	396.25
599.237	411.25
599.446	385.25
599.655	391.25
599.864	373.25
600.073	374.25
600.282	381.25
600.491	390.25
600.7	381.25
600.909	379.25
601.118	400.25
601.327	426.25
601.536	433.25
601.745	405.25
601.953	426.25
602.162	424.25
602.371	411.25
602.58	403.25
602.789	433.25
602.997	412.25
603.206	423.25
603.415	376.25
603.623	423.25
603.832	425.25
604.041	402.25
604.249	365.25
604.458	374.25
604.666	391.25
604.875	378.25
605.084	412.25
605.292	413.25
605.501	397.25
605.709	403.25
605.918	414.25
606.126	403.25
606.334	407.25
606.543	398.25
606.751	399.25
606.96	420.25
607.168	402.25
607.376	402.25
607.585	395.25
607.793	420.25
608.001	409.25
608.21	398.25
608.418	403.25
608.626	419.25
608.834	413.25
609.043	401.25
609.251	401.25
609.459	401.25
609.667	389.25
609.875	396.25
610.083	424.25
610.291	391.25
610.499	431.25
610.707	413.25
610.916	409.25
611.124	391.25
611.332	399.25
611.54	395.25
611.748	392.25
611.955	389.25
612.163	412.25
612.371	391.25
612.579	391.25
612.787	392.25
612.995	405.25
613.203	399.25
613.411	373.25
613.618	411.25
613.826	387.25
614.034	379.25
614.242	389.25
614.449	384.25
614.657	386.25
614.865	381.25
615.072	379.25
615.28	391.25
615.488	392.25
615.695	413.25
615.903	416.25
616.111	387.25
616.318	397.25
616.526	390.25
616.733	393.25
616.941	379.25
617.148	387.25
617.356	363.25
617.563	381.25
617.771	381.25
617.978	375.25
618.185	372.25
618.393	387.25
618.6	375.25
618.807	371.25
619.015	360.25
619.222	369.25
619.429	345.25
619.637	348.25
619.844	344.25
620.051	355.25
620.258	360.25
620.466	346.25
620.673	351.25
620.88	333.25
621.087	327.25
621.294	338.25
621.501	339.25
621.708	353.25
621.915	348.25
622.122	343.25
622.329	355.25
622.536	354.25
622.743	349.25
622.95	348.25
623.157	341.25
623.364	343.25
623.571	353.25
623.778	349.25
623.985	344.25
624.192	362.25
624.399	327.25
624.606	347.25
624.812	349.25
625.019	316.25
625.226	337.25
625.433	328.25
625.639	319.25
625.846	298.25
626.053	310.25
626.259	292.25
626.466	297.25
626.673	298.25
626.879	288.25
627.086	307.25
627.293	322.25
627.499	297.25
627.706	319.25
627.912	344.25
628.119	321.25
628.325	315.25
628.532	321.25
628.738	314.25
628.945	307.25
629.151	303.25
629.357	315.25
629.564	321.25
629.77	316.25
629.976	307.25
630.183	321.25
630.389	303.25
630.595	316.25
630.802	305.25
631.008	288.25
631.214	303.25
631.42	298.25
631.627	287.25
631.833	285.25
632.039	305.25
632.245	293.25
632.451	282.25
632.657	299.25
632.863	284.25
633.069	283.25
633.275	283.25
633.481	278.25
633.688	281.25
633.893	287.25
634.099	282.25
634.305	275.25
634.511	275.25
634.717	255.25
634.923	255.25
635.129	276.25
635.335	271.25
635.541	276.25
635.747	269.25
635.952	281.25
636.158	270.25
636.364	274.25
636.57	270.25
636.775	278.25
636.981	300.25
637.187	275.25
637.392	306.25
637.598	263.25
637.804	282.25
638.009	281.25
638.215	284.25
638.421	288.25
638.626	277.25
638.832	280.25
639.037	266.25
639.243	271.25
639.448	252.25
639.654	271.25
639.859	271.25
640.065	255.25
640.27	275.25
640.475	261.25
640.681	260.25
640.886	285.25
641.091	276.25
641.297	283.25
641.502	264.25
641.707	273.25
641.913	272.25
642.118	270.25
642.323	269.25
642.528	267.25
642.733	246.25
642.939	252.25
643.144	240.25
643.349	249.25
643.554	269.25
643.759	261.25
643.964	256.25
644.169	259.25
644.374	261.25
644.579	273.25
644.784	255.25
644.989	267.25
645.194	255.25
645.399	263.25
645.604	266.25
645.809	268.25
646.014	256.25
646.219	264.25
646.423	250.25
646.628	245.25
646.833	256.25
647.038	249.25
647.243	248.25
647.447	266.25
647.652	263.25
647.857	251.25
648.062	263.25
648.266	256.25
648.471	247.25
648.676	260.25
648.88	281.25
649.085	254.25
649.289	243.25
649.494	251.25
649.698	256.25
649.903	250.25
650.107	245.25
650.312	250.25
650.516	253.25
650.721	240.25
650.925	240.25
651.13	236.25
651.334	236.25
651.539	243.25
651.743	247.25
651.947	248.25
652.152	235.25
652.356	232.25
652.56	227.25
652.764	227.25
652.969	239.25
653.173	230.25
653.377	225.25
653.581	221.25
653.785	211.25
653.99	228.25
654.194	209.25
654.398	210.25
654.602	240.25
654.806	217.25
655.01	237.25
655.214	205.25
655.418	215.25
655.622	231.25
655.826	231.25
656.03	226.25
656.234	241.25
656.438	249.25
656.642	248.25
656.846	263.25
657.049	231.25
657.253	209.25
657.457	191.25
657.661	191.25
657.865	169.25
658.068	172.25
658.272	161.25
658.476	161.25
658.68	175.25
658.883	147.25
659.087	140.25
659.291	129.25
659.494	129.25
659.698	123.25
659.901	136.25
660.105	137.25
660.309	130.25
660.512	142.25
660.716	119.25
660.919	114.25
661.123	119.25
661.326	105.25
661.53	109.25
661.733	111.25
661.936	108.25
662.14	104.25
662.343	107.25
662.546	102.25
662.75	90.25
662.953	112.25
663.156	101.25
663.36	74.25
663.563	87.25
663.766	90.25
663.969	88.25
664.173	90.25
664.376	81.25
664.579	92.25
664.782	93.25
664.985	79.25
665.188	91.25
665.391	99.25
665.594	98.25
665.797	84.25
666	73.25
666.203	77.25
666.406	72.25
666.609	80.25
666.812	79.25
667.015	75.25
667.218	73.25
667.421	81.25
667.624	73.25
667.827	80.25
668.03	78.25
668.232	78.25
668.435	87.25
668.638	79.25
668.841	85.25
669.043	92.25
669.246	92.25
669.449	80.25
669.651	82.25
669.854	91.25
670.057	76.25
670.259	73.25
670.462	72.25
670.665	84.25
670.867	86.25
671.07	74.25
671.272	90.25
671.475	89.25
671.677	74.25
671.88	83.25
672.082	92.25
672.284	93.25
672.487	99.25
672.689	77.25
672.892	92.25
