Data from WStandard_LampEnergy5.5LIBS07252019.E.O._I.C._HRD10591_16-07-02-920.txt Node
Date: Thu Jul 25 16:07:02 EDT 2019
User: cochatt
Spectrometer: HR+D1059
Trigger mode: 1
Integration Time (sec): 1.000000E-1
Scans to average: 1
Electric dark correction enabled: true
Nonlinearity correction enabled: false
Boxcar width: 0
XAxis mode: Wavelengths
Number of Pixels in Spectrum: 2048
>>>>>Begin Spectral Data<<<<<
223.165	-16.25
223.4	-16.25
223.635	-16.25
223.869	-20.25
224.104	-7.25
224.338	-13.25
224.573	-16.25
224.808	-10.25
225.042	-25.25
225.277	0.75
225.511	3.75
225.746	9.75
225.98	5.75
226.215	5.75
226.449	10.75
226.683	15.75
226.918	29.75
227.152	26.75
227.387	23.75
227.621	40.75
227.856	34.75
228.09	63.75
228.324	57.75
228.559	42.75
228.793	131.75
229.027	395.75
229.262	365.75
229.496	395.75
229.73	413.75
229.964	460.75
230.199	459.75
230.433	459.75
230.667	522.75
230.901	555.75
231.136	468.75
231.37	477.75
231.604	461.75
231.838	484.75
232.072	488.75
232.306	471.75
232.541	475.75
232.775	556.75
233.009	626.75
233.243	596.75
233.477	531.75
233.711	553.75
233.945	594.75
234.179	543.75
234.413	603.75
234.647	643.75
234.881	589.75
235.115	553.75
235.349	590.75
235.583	591.75
235.817	571.75
236.051	557.75
236.285	558.75
236.519	591.75
236.753	677.75
236.987	701.75
237.221	675.75
237.455	780.75
237.689	738.75
237.922	693.75
238.156	663.75
238.39	687.75
238.624	730.75
238.858	735.75
239.091	746.75
239.325	817.75
239.559	925.75
239.793	981.75
240.027	1061.75
240.26	1057.75
240.494	766.75
240.728	712.75
240.961	709.75
241.195	745.75
241.429	828.75
241.662	839.75
241.896	776.75
242.13	803.75
242.363	879.75
242.597	952.75
242.83	894.75
243.064	899.75
243.298	966.75
243.531	948.75
243.765	925.75
243.998	957.75
244.232	822.75
244.465	767.75
244.699	816.75
244.932	900.75
245.166	1048.75
245.399	1001.75
245.633	916.75
245.866	923.75
246.099	943.75
246.333	946.75
246.566	1002.75
246.8	1076.75
247.033	1191.75
247.266	1104.75
247.5	1099.75
247.733	1037.75
247.966	1155.75
248.2	1284.75
248.433	1222.75
248.666	1271.75
248.899	1342.75
249.133	1542.75
249.366	1791.75
249.599	1441.75
249.832	1258.75
250.066	1295.75
250.299	1350.75
250.532	1244.75
250.765	1105.75
250.998	1155.75
251.231	1225.75
251.465	1251.75
251.698	1198.75
251.931	1179.75
252.164	1226.75
252.397	1256.75
252.63	1239.75
252.863	1154.75
253.096	1118.75
253.329	1163.75
253.562	1213.75
253.795	1284.75
254.028	1294.75
254.261	1187.75
254.494	1198.75
254.727	1124.75
254.96	1167.75
255.193	1291.75
255.426	1435.75
255.659	1649.75
255.892	1709.75
256.124	1406.75
256.357	1321.75
256.59	1452.75
256.823	1417.75
257.056	1417.75
257.289	1760.75
257.521	1911.75
257.754	1699.75
257.987	1604.75
258.22	1821.75
258.452	1800.75
258.685	1415.75
258.918	1377.75
259.151	1391.75
259.383	1347.75
259.616	1173.75
259.849	1245.75
260.081	1418.75
260.314	1557.75
260.547	1738.75
260.779	1732.75
261.012	1654.75
261.244	1489.75
261.477	1387.75
261.71	1455.75
261.942	1427.75
262.175	1365.75
262.407	1477.75
262.64	1423.75
262.872	1307.75
263.105	1261.75
263.337	1285.75
263.57	1306.75
263.802	1319.75
264.035	1228.75
264.267	1146.75
264.499	1103.75
264.732	1233.75
264.964	1338.75
265.197	1370.75
265.429	1411.75
265.661	1601.75
265.894	1788.75
266.126	1830.75
266.358	1641.75
266.591	1683.75
266.823	1832.75
267.055	1665.75
267.287	1633.75
267.52	1585.75
267.752	1586.75
267.984	1553.75
268.216	1655.75
268.448	1694.75
268.681	1649.75
268.913	1558.75
269.145	1431.75
269.377	1393.75
269.609	1523.75
269.841	1761.75
270.073	2045.75
270.306	2297.75
270.538	2508.75
270.77	2071.75
271.002	1745.75
271.234	1697.75
271.466	1678.75
271.698	1833.75
271.93	2230.75
272.162	2259.75
272.394	2043.75
272.626	1914.75
272.858	1674.75
273.09	1459.75
273.322	1461.75
273.553	1380.75
273.785	1413.75
274.017	1463.75
274.249	1598.75
274.481	1599.75
274.713	1491.75
274.945	1415.75
275.176	1452.75
275.408	1396.75
275.64	1429.75
275.872	1366.75
276.104	1473.75
276.335	1687.75
276.567	1931.75
276.799	1916.75
277.031	1726.75
277.262	1618.75
277.494	1647.75
277.726	1889.75
277.957	1873.75
278.189	1676.75
278.421	1575.75
278.652	1475.75
278.884	1454.75
279.115	1485.75
279.347	1550.75
279.579	1513.75
279.81	1486.75
280.042	1612.75
280.273	1767.75
280.505	1825.75
280.736	1845.75
280.968	1796.75
281.199	1542.75
281.431	1424.75
281.662	1459.75
281.894	1419.75
282.125	1500.75
282.356	1551.75
282.588	1566.75
282.819	1555.75
283.051	1688.75
283.282	1852.75
283.513	1778.75
283.745	1545.75
283.976	1431.75
284.207	1420.75
284.439	1457.75
284.67	1534.75
284.901	1569.75
285.132	1557.75
285.364	1555.75
285.595	1560.75
285.826	1554.75
286.057	1509.75
286.288	1498.75
286.52	1580.75
286.751	1664.75
286.982	1761.75
287.213	1583.75
287.444	1481.75
287.675	1452.75
287.906	1551.75
288.138	1659.75
288.369	1631.75
288.6	1542.75
288.831	1473.75
289.062	1512.75
289.293	1513.75
289.524	1493.75
289.755	1573.75
289.986	1597.75
290.217	1466.75
290.448	1479.75
290.679	1555.75
290.91	1544.75
291.141	1571.75
291.371	1653.75
291.602	1651.75
291.833	1609.75
292.064	1676.75
292.295	1633.75
292.526	1686.75
292.757	1744.75
292.987	1716.75
293.218	1538.75
293.449	1655.75
293.68	1899.75
293.91	2071.75
294.141	1919.75
294.372	1768.75
294.603	1816.75
294.833	1957.75
295.064	1848.75
295.295	1632.75
295.525	1621.75
295.756	1485.75
295.987	1393.75
296.217	1445.75
296.448	1523.75
296.679	1536.75
296.909	1521.75
297.14	1503.75
297.37	1539.75
297.601	1603.75
297.831	1761.75
298.062	1751.75
298.292	1579.75
298.523	1513.75
298.753	1525.75
298.984	1561.75
299.214	1551.75
299.445	1585.75
299.675	1629.75
299.905	1631.75
300.136	1591.75
300.366	1561.75
300.597	1489.75
300.827	1484.75
301.057	1535.75
301.288	1621.75
301.518	1630.75
301.748	1683.75
301.979	1752.75
302.209	1767.75
302.439	1863.75
302.669	1989.75
302.9	1891.75
303.13	1663.75
303.36	1626.75
303.59	1691.75
303.82	1661.75
304.051	1644.75
304.281	1672.75
304.511	1625.75
304.741	1733.75
304.971	1922.75
305.201	2099.75
305.431	1986.75
305.661	1618.75
305.891	1468.75
306.121	1454.75
306.352	1485.75
306.582	1577.75
306.812	1679.75
307.042	1829.75
307.272	1852.75
307.502	1881.75
307.731	2053.75
307.961	2153.75
308.191	2012.75
308.421	1720.75
308.651	1619.75
308.881	1586.75
309.111	1590.75
309.341	1598.75
309.571	1574.75
309.8	1599.75
310.03	1594.75
310.26	1587.75
310.49	1565.75
310.72	1607.75
310.949	1663.75
311.179	1691.75
311.409	1667.75
311.639	1633.75
311.868	1554.75
312.098	1609.75
312.328	1591.75
312.557	1617.75
312.787	1630.75
313.017	1639.75
313.246	1702.75
313.476	1662.75
313.706	1704.75
313.935	1692.75
314.165	1694.75
314.394	1708.75
314.624	1815.75
314.853	1938.75
315.083	2053.75
315.312	2079.75
315.542	1973.75
315.771	1726.75
316.001	1729.75
316.23	1795.75
316.46	1835.75
316.689	1807.75
316.919	1731.75
317.148	1642.75
317.377	1605.75
317.607	1763.75
317.836	1957.75
318.065	2062.75
318.295	1990.75
318.524	1882.75
318.753	1762.75
318.983	1829.75
319.212	1754.75
319.441	1737.75
319.67	1710.75
319.9	1765.75
320.129	1838.75
320.358	1913.75
320.587	1983.75
320.816	1960.75
321.046	1889.75
321.275	1793.75
321.504	1804.75
321.733	1964.75
321.962	1944.75
322.191	1742.75
322.42	1767.75
322.649	1689.75
322.878	1727.75
323.108	1710.75
323.337	1797.75
323.566	1816.75
323.795	1789.75
324.024	1782.75
324.253	1777.75
324.482	1786.75
324.71	1758.75
324.939	1646.75
325.168	1643.75
325.397	1727.75
325.626	1763.75
325.855	1829.75
326.084	1737.75
326.313	1721.75
326.542	1784.75
326.77	1830.75
326.999	1841.75
327.228	1774.75
327.457	1636.75
327.686	1674.75
327.914	1683.75
328.143	1763.75
328.372	1754.75
328.6	1727.75
328.829	1720.75
329.058	1689.75
329.287	1688.75
329.515	1746.75
329.744	1779.75
329.972	1845.75
330.201	1934.75
330.43	1879.75
330.658	1790.75
330.887	1841.75
331.115	1867.75
331.344	1850.75
331.572	1796.75
331.801	1783.75
332.03	1829.75
332.258	1829.75
332.486	1870.75
332.715	1848.75
332.943	1868.75
333.172	1823.75
333.4	1845.75
333.629	1893.75
333.857	2037.75
334.085	2226.75
334.314	2471.75
334.542	2711.75
334.771	2553.75
334.999	2210.75
335.227	2089.75
335.455	1986.75
335.684	1929.75
335.912	2000.75
336.14	2079.75
336.369	1984.75
336.597	1855.75
336.825	1859.75
337.053	1911.75
337.281	2017.75
337.51	2124.75
337.738	2230.75
337.966	2135.75
338.194	1896.75
338.422	1822.75
338.65	1786.75
338.878	1799.75
339.106	1766.75
339.334	1749.75
339.562	1685.75
339.79	1768.75
340.018	1887.75
340.246	1938.75
340.474	1907.75
340.702	1870.75
340.93	1891.75
341.158	1902.75
341.386	1837.75
341.614	1835.75
341.842	1794.75
342.07	1807.75
342.298	1853.75
342.526	1841.75
342.754	1793.75
342.981	1768.75
343.209	1761.75
343.437	1805.75
343.665	1794.75
343.893	1860.75
344.12	1950.75
344.348	1986.75
344.576	1896.75
344.804	1793.75
345.031	1788.75
345.259	1809.75
345.487	1787.75
345.714	1680.75
345.942	1662.75
346.17	1645.75
346.397	1695.75
346.625	1745.75
346.853	1636.75
347.08	1622.75
347.308	1630.75
347.535	1682.75
347.763	1743.75
347.99	1706.75
348.218	1615.75
348.445	1665.75
348.673	1673.75
348.9	1736.75
349.128	1769.75
349.355	1837.75
349.583	1798.75
349.81	1713.75
350.037	1596.75
350.265	1559.75
350.492	1558.75
350.72	1642.75
350.947	1696.75
351.174	1759.75
351.402	1632.75
351.629	1531.75
351.856	1533.75
352.083	1553.75
352.311	1557.75
352.538	1648.75
352.765	1669.75
352.992	1703.75
353.22	1675.75
353.447	1597.75
353.674	1653.75
353.901	1720.75
354.128	1620.75
354.355	1614.75
354.583	1663.75
354.81	1726.75
355.037	1741.75
355.264	1701.75
355.491	1671.75
355.718	1697.75
355.945	1670.75
356.172	1618.75
356.399	1636.75
356.626	1602.75
356.853	1645.75
357.08	1798.75
357.307	1926.75
357.534	1984.75
357.761	1763.75
357.988	1638.75
358.215	1538.75
358.441	1578.75
358.668	1563.75
358.895	1588.75
359.122	1707.75
359.349	1893.75
359.576	1866.75
359.802	1683.75
360.029	1593.75
360.256	1545.75
360.483	1615.75
360.709	1707.75
360.936	1742.75
361.163	1754.75
361.39	1953.75
361.616	2079.75
361.843	2024.75
362.07	1907.75
362.296	1717.75
362.523	1623.75
362.749	1609.75
362.976	1673.75
363.203	1726.75
363.429	1643.75
363.656	1589.75
363.882	1666.75
364.109	1809.75
364.335	2046.75
364.562	1881.75
364.788	1763.75
365.015	1667.75
365.241	1650.75
365.468	1668.75
365.694	1731.75
365.92	1848.75
366.147	1764.75
366.373	1635.75
366.599	1594.75
366.826	1593.75
367.052	1589.75
367.278	1630.75
367.505	1640.75
367.731	1699.75
367.957	1716.75
368.184	1710.75
368.41	1817.75
368.636	1916.75
368.862	1861.75
369.089	1921.75
369.315	1801.75
369.541	1745.75
369.767	1676.75
369.993	1648.75
370.219	1649.75
370.445	1671.75
370.672	1740.75
370.898	1859.75
371.124	1883.75
371.35	1730.75
371.576	1839.75
371.802	1871.75
372.028	1803.75
372.254	1679.75
372.48	1666.75
372.706	1631.75
372.932	1649.75
373.158	1687.75
373.384	1705.75
373.61	1732.75
373.835	1871.75
374.061	1779.75
374.287	1704.75
374.513	1785.75
374.739	1727.75
374.965	1781.75
375.191	1794.75
375.416	1798.75
375.642	1820.75
375.868	1921.75
376.094	1949.75
376.319	1814.75
376.545	1757.75
376.771	1755.75
376.997	1889.75
377.222	1848.75
377.448	1780.75
377.674	1840.75
377.899	1758.75
378.125	1929.75
378.35	1927.75
378.576	1751.75
378.802	1661.75
379.027	1677.75
379.253	1667.75
379.478	1705.75
379.704	1728.75
379.929	1703.75
380.155	1729.75
380.38	1755.75
380.606	1749.75
380.831	1727.75
381.057	1821.75
381.282	1850.75
381.507	1791.75
381.733	1902.75
381.958	2011.75
382.184	1866.75
382.409	1777.75
382.634	1845.75
382.86	1781.75
383.085	1767.75
383.31	1881.75
383.535	2005.75
383.761	2133.75
383.986	2021.75
384.211	1967.75
384.436	1933.75
384.662	2006.75
384.887	2150.75
385.112	1992.75
385.337	1988.75
385.562	2002.75
385.787	1990.75
386.013	1990.75
386.238	2043.75
386.463	2022.75
386.688	2114.75
386.913	2326.75
387.138	2198.75
387.363	2021.75
387.588	2046.75
387.813	2009.75
388.038	2044.75
388.263	2131.75
388.488	2104.75
388.713	1886.75
388.938	1919.75
389.163	1913.75
389.387	1969.75
389.612	1946.75
389.837	1977.75
390.062	2043.75
390.287	2012.75
390.512	1973.75
390.736	1937.75
390.961	1881.75
391.186	1893.75
391.411	1902.75
391.636	1948.75
391.86	1972.75
392.085	1982.75
392.31	1926.75
392.534	1941.75
392.759	1979.75
392.984	1925.75
393.208	2034.75
393.433	2051.75
393.658	2154.75
393.882	2103.75
394.107	2007.75
394.331	1949.75
394.556	1933.75
394.78	2005.75
395.005	2085.75
395.229	2124.75
395.454	2286.75
395.678	2280.75
395.903	2197.75
396.127	2103.75
396.352	2105.75
396.576	2171.75
396.801	2215.75
397.025	2181.75
397.249	2183.75
397.474	2155.75
397.698	2116.75
397.922	2213.75
398.147	2262.75
398.371	2343.75
398.595	2331.75
398.82	2251.75
399.044	2288.75
399.268	2365.75
399.492	2574.75
399.717	2713.75
399.941	2671.75
400.165	2622.75
400.389	2542.75
400.613	2489.75
400.837	2726.75
401.062	3235.75
401.286	2759.75
401.51	2437.75
401.734	2581.75
401.958	2521.75
402.182	2368.75
402.406	2254.75
402.63	2221.75
402.854	2251.75
403.078	2282.75
403.302	2272.75
403.526	2332.75
403.75	2354.75
403.974	2397.75
404.198	2350.75
404.422	2455.75
404.645	2513.75
404.869	2537.75
405.093	2318.75
405.317	2294.75
405.541	2330.75
405.765	2368.75
405.988	2340.75
406.212	2411.75
406.436	2453.75
406.66	2515.75
406.883	2532.75
407.107	2806.75
407.331	3100.75
407.555	3300.75
407.778	3081.75
408.002	2531.75
408.226	2464.75
408.449	2461.75
408.673	2438.75
408.896	2437.75
409.12	2466.75
409.344	2388.75
409.567	2325.75
409.791	2353.75
410.014	2455.75
410.238	2488.75
410.461	2702.75
410.685	2444.75
410.908	2227.75
411.132	2290.75
411.355	2365.75
411.578	2298.75
411.802	2274.75
412.025	2345.75
412.249	2305.75
412.472	2194.75
412.695	2184.75
412.919	2259.75
413.142	2208.75
413.365	2258.75
413.589	2359.75
413.812	2384.75
414.035	2527.75
414.258	2333.75
414.482	2256.75
414.705	2269.75
414.928	2251.75
415.151	2213.75
415.374	2267.75
415.597	2302.75
415.821	2297.75
416.044	2402.75
416.267	2396.75
416.49	2192.75
416.713	2182.75
416.936	2207.75
417.159	2334.75
417.382	2355.75
417.605	2177.75
417.828	2278.75
418.051	2310.75
418.274	2238.75
418.497	2204.75
418.72	2173.75
418.943	2137.75
419.166	2286.75
419.389	2408.75
419.611	2280.75
419.834	2200.75
420.057	2272.75
420.28	2164.75
420.503	2122.75
420.726	2192.75
420.948	2231.75
421.171	2128.75
421.394	2149.75
421.617	2243.75
421.839	2236.75
422.062	2201.75
422.285	2118.75
422.507	2156.75
422.73	2081.75
422.953	2077.75
423.175	2121.75
423.398	2167.75
423.621	2141.75
423.843	2169.75
424.066	2227.75
424.288	2276.75
424.511	2318.75
424.733	2283.75
424.956	2009.75
425.178	2049.75
425.401	2117.75
425.623	2122.75
425.846	2061.75
426.068	2199.75
426.291	2255.75
426.513	2242.75
426.735	2185.75
426.958	2345.75
427.18	2500.75
427.402	2268.75
427.625	2307.75
427.847	2345.75
428.069	2215.75
428.292	2142.75
428.514	2065.75
428.736	2057.75
428.958	2101.75
429.181	2115.75
429.403	2433.75
429.625	2922.75
429.847	2573.75
430.069	2169.75
430.292	2382.75
430.514	2469.75
430.736	2284.75
430.958	2420.75
431.18	2271.75
431.402	2093.75
431.624	2143.75
431.846	2069.75
432.068	2088.75
432.29	2082.75
432.512	2077.75
432.734	2178.75
432.956	2192.75
433.178	2265.75
433.4	2275.75
433.622	2229.75
433.844	2151.75
434.066	2083.75
434.287	2090.75
434.509	2173.75
434.731	2270.75
434.953	2441.75
435.175	2383.75
435.397	2211.75
435.618	2242.75
435.84	2271.75
436.062	2243.75
436.284	2204.75
436.505	2239.75
436.727	2268.75
436.949	2204.75
437.17	2119.75
437.392	2122.75
437.614	2127.75
437.835	2051.75
438.057	2183.75
438.278	2289.75
438.5	2141.75
438.721	2085.75
438.943	2097.75
439.165	2069.75
439.386	2025.75
439.608	2079.75
439.829	2134.75
440.05	2062.75
440.272	2024.75
440.493	2023.75
440.715	2097.75
440.936	2210.75
441.158	2449.75
441.379	2430.75
441.6	2320.75
441.822	2305.75
442.043	2248.75
442.264	2171.75
442.486	2085.75
442.707	2079.75
442.928	2088.75
443.149	2195.75
443.371	2275.75
443.592	2387.75
443.813	2316.75
444.034	2294.75
444.255	2294.75
444.476	2341.75
444.698	2380.75
444.919	2332.75
445.14	2481.75
445.361	2445.75
445.582	2495.75
445.803	2393.75
446.024	2297.75
446.245	2429.75
446.466	2357.75
446.687	2253.75
446.908	2199.75
447.129	2091.75
447.35	2205.75
447.571	2171.75
447.792	2046.75
448.013	2057.75
448.234	2078.75
448.455	2195.75
448.675	2209.75
448.896	2015.75
449.117	1995.75
449.338	2071.75
449.559	2126.75
449.779	2277.75
450	2505.75
450.221	2680.75
450.442	2589.75
450.662	2279.75
450.883	2009.75
451.104	1985.75
451.324	2003.75
451.545	2071.75
451.766	2054.75
451.986	1938.75
452.207	1917.75
452.428	1864.75
452.648	1870.75
452.869	1955.75
453.089	2036.75
453.31	2065.75
453.53	2095.75
453.751	2000.75
453.971	1913.75
454.192	1988.75
454.412	2092.75
454.633	2046.75
454.853	1965.75
455.073	1829.75
455.294	1833.75
455.514	1862.75
455.734	1886.75
455.955	1921.75
456.175	1872.75
456.395	1865.75
456.616	1935.75
456.836	1986.75
457.056	1970.75
457.276	1939.75
457.497	1887.75
457.717	1805.75
457.937	1859.75
458.157	1933.75
458.377	1849.75
458.598	1865.75
458.818	1873.75
459.038	2009.75
459.258	2142.75
459.478	2123.75
459.698	2084.75
459.918	2102.75
460.138	2198.75
460.358	2246.75
460.578	2222.75
460.798	2333.75
461.018	2439.75
461.238	2360.75
461.458	2230.75
461.678	2282.75
461.898	2192.75
462.118	2136.75
462.338	2241.75
462.558	2238.75
462.777	2281.75
462.997	2327.75
463.217	2514.75
463.437	2500.75
463.657	2240.75
463.876	2255.75
464.096	2239.75
464.316	2263.75
464.536	2347.75
464.755	2366.75
464.975	2391.75
465.195	2294.75
465.414	2370.75
465.634	2389.75
465.854	2219.75
466.073	2382.75
466.293	2401.75
466.512	2055.75
466.732	2093.75
466.951	2133.75
467.171	2132.75
467.391	2077.75
467.61	2031.75
467.829	1995.75
468.049	2170.75
468.268	2453.75
468.488	2289.75
468.707	2157.75
468.927	2109.75
469.146	2070.75
469.365	1989.75
469.585	2020.75
469.804	2006.75
470.023	2059.75
470.243	2120.75
470.462	2024.75
470.681	1951.75
470.901	2114.75
471.12	2077.75
471.339	2010.75
471.558	1952.75
471.777	1982.75
471.997	2019.75
472.216	2034.75
472.435	1951.75
472.654	1954.75
472.873	2069.75
473.092	2231.75
473.311	2089.75
473.53	1961.75
473.749	1950.75
473.968	1997.75
474.187	2132.75
474.406	2244.75
474.625	2096.75
474.844	2064.75
475.063	2069.75
475.282	2147.75
475.501	2083.75
475.72	2068.75
475.939	2209.75
476.158	2145.75
476.377	2076.75
476.596	2095.75
476.814	2170.75
477.033	2145.75
477.252	2253.75
477.471	2342.75
477.69	2212.75
477.908	2184.75
478.127	2235.75
478.346	2503.75
478.564	2495.75
478.783	2492.75
479.002	2536.75
479.22	2468.75
479.439	2545.75
479.658	2875.75
479.876	2897.75
480.095	2442.75
480.313	2374.75
480.532	2293.75
480.751	2313.75
480.969	2350.75
481.188	2306.75
481.406	2298.75
481.624	2246.75
481.843	2289.75
482.061	2319.75
482.28	2387.75
482.498	2421.75
482.717	2399.75
482.935	2304.75
483.153	2291.75
483.372	2261.75
483.59	2293.75
483.808	2283.75
484.027	2337.75
484.245	2485.75
484.463	2844.75
484.681	3299.75
484.9	2583.75
485.118	2380.75
485.336	2307.75
485.554	2438.75
485.772	2519.75
485.99	2445.75
486.209	2476.75
486.427	2470.75
486.645	2496.75
486.863	2359.75
487.081	2483.75
487.299	2541.75
487.517	2484.75
487.735	2378.75
487.953	2409.75
488.171	2413.75
488.389	2375.75
488.607	2399.75
488.825	2601.75
489.043	2673.75
489.261	2407.75
489.479	2545.75
489.696	2557.75
489.914	2590.75
490.132	2481.75
490.35	2431.75
490.568	2551.75
490.786	2445.75
491.003	2338.75
491.221	2397.75
491.439	2511.75
491.657	2455.75
491.874	2489.75
492.092	2488.75
492.31	2537.75
492.527	2460.75
492.745	2431.75
492.963	2454.75
493.18	2561.75
493.398	2729.75
493.615	2806.75
493.833	2548.75
494.05	2508.75
494.268	2518.75
494.485	2581.75
494.703	2518.75
494.92	2487.75
495.138	2463.75
495.355	2524.75
495.573	2630.75
495.79	2748.75
496.008	2823.75
496.225	2621.75
496.442	2607.75
496.66	2637.75
496.877	2620.75
497.094	2786.75
497.312	2761.75
497.529	2717.75
497.746	2794.75
497.963	3261.75
498.181	3623.75
498.398	3385.75
498.615	3283.75
498.832	3196.75
499.049	3218.75
499.267	3165.75
499.484	3413.75
499.701	3675.75
499.918	3702.75
500.135	3936.75
500.352	4257.75
500.569	4216.75
500.786	4511.75
501.003	4169.75
501.22	3839.75
501.437	3697.75
501.654	3704.75
501.871	3631.75
502.088	3193.75
502.305	3227.75
502.522	3086.75
502.739	2816.75
502.956	2786.75
503.172	2731.75
503.389	2683.75
503.606	2615.75
503.823	2595.75
504.04	2655.75
504.256	2726.75
504.473	2640.75
504.69	2749.75
504.907	2625.75
505.123	2501.75
505.34	2558.75
505.557	3373.75
505.773	2902.75
505.99	2446.75
506.207	2293.75
506.423	2250.75
506.64	2256.75
506.856	2283.75
507.073	2537.75
507.289	2775.75
507.506	2663.75
507.722	2260.75
507.939	2220.75
508.155	2193.75
508.372	2261.75
508.588	2137.75
508.805	2095.75
509.021	2059.75
509.238	2040.75
509.454	2009.75
509.67	2062.75
509.887	2021.75
510.103	2035.75
510.319	2049.75
510.536	2177.75
510.752	2191.75
510.968	2225.75
511.184	2325.75
511.401	2333.75
511.617	2036.75
511.833	1979.75
512.049	1995.75
512.265	1994.75
512.481	1958.75
512.698	2023.75
512.914	2216.75
513.13	2142.75
513.346	2024.75
513.562	1972.75
513.778	1984.75
513.994	2119.75
514.21	2172.75
514.426	2186.75
514.642	2469.75
514.858	2326.75
515.074	2089.75
515.29	2003.75
515.506	2116.75
515.721	2139.75
515.937	2162.75
516.153	2406.75
516.369	2347.75
516.585	2196.75
516.801	2121.75
517.016	2075.75
517.232	2163.75
517.448	2193.75
517.664	2237.75
517.879	2220.75
518.095	2299.75
518.311	2222.75
518.527	2129.75
518.742	2086.75
518.958	2015.75
519.173	2045.75
519.389	2071.75
519.605	2063.75
519.82	2055.75
520.036	2099.75
520.251	2019.75
520.467	2071.75
520.682	2169.75
520.898	2310.75
521.113	2039.75
521.329	1963.75
521.544	2197.75
521.76	2094.75
521.975	1990.75
522.19	1919.75
522.406	1882.75
522.621	2291.75
522.836	2333.75
523.052	1925.75
523.267	1892.75
523.482	1881.75
523.698	1819.75
523.913	1787.75
524.128	1846.75
524.343	1950.75
524.559	1998.75
524.774	1881.75
524.989	1841.75
525.204	1815.75
525.419	1805.75
525.634	1778.75
525.849	1847.75
526.064	1833.75
526.28	1867.75
526.495	1783.75
526.71	1749.75
526.925	1743.75
527.14	1792.75
527.355	1721.75
527.57	1696.75
527.785	1782.75
527.999	1718.75
528.214	1693.75
528.429	1689.75
528.644	1696.75
528.859	1757.75
529.074	1754.75
529.289	1756.75
529.503	1753.75
529.718	1768.75
529.933	1773.75
530.148	1691.75
530.363	1651.75
530.577	1702.75
530.792	1734.75
531.007	1750.75
531.221	1732.75
531.436	1784.75
531.651	1831.75
531.865	1897.75
532.08	1836.75
532.295	1718.75
532.509	1684.75
532.724	1713.75
532.938	1732.75
533.153	1888.75
533.367	1757.75
533.582	1733.75
533.796	1703.75
534.011	1741.75
534.225	1777.75
534.44	1740.75
534.654	1711.75
534.868	1684.75
535.083	1767.75
535.297	1768.75
535.511	1722.75
535.726	1711.75
535.94	1713.75
536.154	1705.75
536.369	1713.75
536.583	1647.75
536.797	1651.75
537.011	1673.75
537.225	1636.75
537.44	1617.75
537.654	1684.75
537.868	1673.75
538.082	1563.75
538.296	1566.75
538.51	1570.75
538.724	1551.75
538.938	1569.75
539.153	1630.75
539.367	1661.75
539.581	1623.75
539.795	1685.75
540.009	1710.75
540.222	1653.75
540.436	1687.75
540.65	1814.75
540.864	1806.75
541.078	1744.75
541.292	1654.75
541.506	1622.75
541.72	1645.75
541.934	1608.75
542.147	1670.75
542.361	1659.75
542.575	1577.75
542.789	1554.75
543.002	1514.75
543.216	1577.75
543.43	1615.75
543.644	1698.75
543.857	1742.75
544.071	1673.75
544.285	1660.75
544.498	1603.75
544.712	1648.75
544.925	1637.75
545.139	1652.75
545.352	1559.75
545.566	1515.75
545.779	1545.75
545.993	1562.75
546.206	1609.75
546.42	1538.75
546.633	1502.75
546.847	1489.75
547.06	1527.75
547.274	1502.75
547.487	1467.75
547.7	1509.75
547.914	1563.75
548.127	1552.75
548.34	1589.75
548.554	1570.75
548.767	1525.75
548.98	1512.75
549.193	1527.75
549.407	1622.75
549.62	1625.75
549.833	1551.75
550.046	1536.75
550.259	1528.75
550.473	1527.75
550.686	1477.75
550.899	1466.75
551.112	1484.75
551.325	1449.75
551.538	1564.75
551.751	1792.75
551.964	1507.75
552.177	1425.75
552.39	1423.75
552.603	1469.75
552.816	1498.75
553.029	1578.75
553.242	1610.75
553.455	1554.75
553.667	1543.75
553.88	1499.75
554.093	1491.75
554.306	1461.75
554.519	1445.75
554.732	1374.75
554.944	1433.75
555.157	1450.75
555.37	1391.75
555.583	1423.75
555.795	1365.75
556.008	1361.75
556.221	1333.75
556.433	1345.75
556.646	1321.75
556.859	1306.75
557.071	1332.75
557.284	1329.75
557.496	1315.75
557.709	1294.75
557.921	1274.75
558.134	1272.75
558.346	1309.75
558.559	1287.75
558.771	1261.75
558.984	1217.75
559.196	1206.75
559.409	1235.75
559.621	1222.75
559.833	1205.75
560.046	1327.75
560.258	1242.75
560.47	1247.75
560.683	1244.75
560.895	1235.75
561.107	1264.75
561.32	1276.75
561.532	1295.75
561.744	1266.75
561.956	1244.75
562.168	1205.75
562.381	1196.75
562.593	1167.75
562.805	1195.75
563.017	1192.75
563.229	1241.75
563.441	1242.75
563.653	1195.75
563.865	1229.75
564.077	1198.75
564.289	1211.75
564.501	1241.75
564.713	1285.75
564.925	1308.75
565.137	1416.75
565.349	1304.75
565.561	1295.75
565.773	1285.75
565.985	1303.75
566.197	1386.75
566.408	1483.75
566.62	1496.75
566.832	1498.75
567.044	1479.75
567.255	1473.75
567.467	1489.75
567.679	1572.75
567.891	1619.75
568.102	1518.75
568.314	1467.75
568.526	1384.75
568.737	1395.75
568.949	1297.75
569.161	1274.75
569.372	1254.75
569.584	1198.75
569.795	1209.75
570.007	1143.75
570.218	1126.75
570.43	1127.75
570.641	1125.75
570.853	1125.75
571.064	1122.75
571.276	1123.75
571.487	1118.75
571.698	1059.75
571.91	1037.75
572.121	999.75
572.333	1009.75
572.544	999.75
572.755	964.75
572.966	978.75
573.178	979.75
573.389	998.75
573.6	1051.75
573.811	1108.75
574.023	1030.75
574.234	1018.75
574.445	956.75
574.656	917.75
574.867	931.75
575.078	941.75
575.289	946.75
575.501	912.75
575.712	894.75
575.923	929.75
576.134	891.75
576.345	922.75
576.556	911.75
576.767	891.75
576.978	902.75
577.188	904.75
577.399	866.75
577.61	871.75
577.821	858.75
578.032	849.75
578.243	869.75
578.454	868.75
578.665	845.75
578.875	829.75
579.086	806.75
579.297	837.75
579.508	873.75
579.718	873.75
579.929	901.75
580.14	834.75
580.35	815.75
580.561	851.75
580.772	949.75
580.982	860.75
581.193	840.75
581.403	774.75
581.614	804.75
581.825	786.75
582.035	802.75
582.246	797.75
582.456	841.75
582.667	811.75
582.877	785.75
583.087	781.75
583.298	790.75
583.508	795.75
583.719	790.75
583.929	806.75
584.139	828.75
584.35	771.75
584.56	757.75
584.77	783.75
584.981	774.75
585.191	780.75
585.401	806.75
585.611	789.75
585.821	761.75
586.032	768.75
586.242	770.75
586.452	744.75
586.662	741.75
586.872	759.75
587.082	733.75
587.292	777.75
587.502	781.75
587.713	776.75
587.923	758.75
588.133	761.75
588.343	784.75
588.553	757.75
588.762	737.75
588.972	748.75
589.182	758.75
589.392	744.75
589.602	744.75
589.812	796.75
590.022	705.75
590.232	702.75
590.441	755.75
590.651	749.75
590.861	742.75
591.071	724.75
591.281	706.75
591.49	707.75
591.7	733.75
591.91	726.75
592.119	740.75
592.329	762.75
592.539	775.75
592.748	769.75
592.958	773.75
593.167	791.75
593.377	791.75
593.587	773.75
593.796	778.75
594.006	785.75
594.215	780.75
594.424	774.75
594.634	787.75
594.843	750.75
595.053	755.75
595.262	748.75
595.472	729.75
595.681	732.75
595.89	716.75
596.1	710.75
596.309	713.75
596.518	713.75
596.727	711.75
596.937	673.75
597.146	661.75
597.355	652.75
597.564	661.75
597.774	645.75
597.983	633.75
598.192	650.75
598.401	646.75
598.61	611.75
598.819	638.75
599.028	646.75
599.237	643.75
599.446	612.75
599.655	636.75
599.864	656.75
600.073	611.75
600.282	603.75
600.491	615.75
600.7	595.75
600.909	568.75
601.118	603.75
601.327	613.75
601.536	611.75
601.745	595.75
601.953	588.75
602.162	597.75
602.371	590.75
602.58	608.75
602.789	598.75
602.997	614.75
603.206	580.75
603.415	611.75
603.623	589.75
603.832	581.75
604.041	578.75
604.249	592.75
604.458	555.75
604.666	585.75
604.875	571.75
605.084	595.75
605.292	589.75
605.501	582.75
605.709	560.75
605.918	563.75
606.126	569.75
606.334	571.75
606.543	561.75
606.751	551.75
606.96	574.75
607.168	567.75
607.376	544.75
607.585	562.75
607.793	561.75
608.001	549.75
608.21	531.75
608.418	547.75
608.626	563.75
608.834	559.75
609.043	563.75
609.251	567.75
609.459	550.75
609.667	550.75
609.875	545.75
610.083	580.75
610.291	566.75
610.499	554.75
610.707	538.75
610.916	543.75
611.124	526.75
611.332	531.75
611.54	540.75
611.748	533.75
611.955	528.75
612.163	525.75
612.371	537.75
612.579	521.75
612.787	495.75
612.995	533.75
613.203	546.75
613.411	517.75
613.618	541.75
613.826	523.75
614.034	522.75
614.242	518.75
614.449	519.75
614.657	540.75
614.865	524.75
615.072	513.75
615.28	507.75
615.488	493.75
615.695	524.75
615.903	534.75
616.111	533.75
616.318	517.75
616.526	536.75
616.733	518.75
616.941	501.75
617.148	504.75
617.356	501.75
617.563	532.75
617.771	533.75
617.978	487.75
618.185	500.75
618.393	497.75
618.6	500.75
618.807	498.75
619.015	496.75
619.222	517.75
619.429	482.75
619.637	498.75
619.844	498.75
620.051	491.75
620.258	503.75
620.466	475.75
620.673	467.75
620.88	463.75
621.087	452.75
621.294	457.75
621.501	472.75
621.708	470.75
621.915	488.75
622.122	477.75
622.329	481.75
622.536	484.75
622.743	461.75
622.95	470.75
623.157	453.75
623.364	460.75
623.571	459.75
623.778	472.75
623.985	468.75
624.192	454.75
624.399	456.75
624.606	443.75
624.812	444.75
625.019	456.75
625.226	438.75
625.433	454.75
625.639	454.75
625.846	419.75
626.053	436.75
626.259	437.75
626.466	436.75
626.673	421.75
626.879	415.75
627.086	417.75
627.293	416.75
627.499	422.75
627.706	412.75
627.912	411.75
628.119	398.75
628.325	433.75
628.532	409.75
628.738	414.75
628.945	412.75
629.151	400.75
629.357	419.75
629.564	407.75
629.77	391.75
629.976	385.75
630.183	395.75
630.389	370.75
630.595	402.75
630.802	385.75
631.008	394.75
631.214	382.75
631.42	379.75
631.627	386.75
631.833	389.75
632.039	382.75
632.245	380.75
632.451	379.75
632.657	377.75
632.863	376.75
633.069	383.75
633.275	391.75
633.481	383.75
633.688	357.75
633.893	390.75
634.099	369.75
634.305	371.75
634.511	357.75
634.717	360.75
634.923	357.75
635.129	334.75
635.335	350.75
635.541	354.75
635.747	370.75
635.952	364.75
636.158	351.75
636.364	378.75
636.57	369.75
636.775	342.75
636.981	355.75
637.187	335.75
637.392	350.75
637.598	358.75
637.804	345.75
638.009	357.75
638.215	356.75
638.421	354.75
638.626	350.75
638.832	334.75
639.037	331.75
639.243	327.75
639.448	323.75
639.654	324.75
639.859	312.75
640.065	327.75
640.27	345.75
640.475	333.75
640.681	337.75
640.886	327.75
641.091	337.75
641.297	330.75
641.502	339.75
641.707	333.75
641.913	314.75
642.118	347.75
642.323	316.75
642.528	318.75
642.733	334.75
642.939	324.75
643.144	322.75
643.349	330.75
643.554	340.75
643.759	333.75
643.964	325.75
644.169	320.75
644.374	303.75
644.579	308.75
644.784	321.75
644.989	313.75
645.194	315.75
645.399	321.75
645.604	315.75
645.809	296.75
646.014	302.75
646.219	311.75
646.423	330.75
646.628	328.75
646.833	312.75
647.038	297.75
647.243	312.75
647.447	324.75
647.652	333.75
647.857	326.75
648.062	324.75
648.266	316.75
648.471	330.75
648.676	338.75
648.88	323.75
649.085	327.75
649.289	321.75
649.494	294.75
649.698	295.75
649.903	312.75
650.107	295.75
650.312	300.75
650.516	297.75
650.721	301.75
650.925	284.75
651.13	291.75
651.334	289.75
651.539	280.75
651.743	279.75
651.947	270.75
652.152	270.75
652.356	265.75
652.56	263.75
652.764	253.75
652.969	265.75
653.173	247.75
653.377	273.75
653.581	254.75
653.785	265.75
653.99	250.75
654.194	251.75
654.398	245.75
654.602	234.75
654.806	246.75
655.01	252.75
655.214	271.75
655.418	238.75
655.622	232.75
655.826	242.75
656.03	255.75
656.234	262.75
656.438	277.75
656.642	265.75
656.846	257.75
657.049	253.75
657.253	216.75
657.457	219.75
657.661	189.75
657.865	199.75
658.068	179.75
658.272	167.75
658.476	158.75
658.68	147.75
658.883	148.75
659.087	157.75
659.291	144.75
659.494	146.75
659.698	136.75
659.901	147.75
660.105	116.75
660.309	125.75
660.512	118.75
660.716	117.75
660.919	119.75
661.123	125.75
661.326	109.75
661.53	109.75
661.733	102.75
661.936	91.75
662.14	94.75
662.343	101.75
662.546	86.75
662.75	110.75
662.953	86.75
663.156	99.75
663.36	94.75
663.563	82.75
663.766	88.75
663.969	89.75
664.173	90.75
664.376	84.75
664.579	83.75
664.782	77.75
664.985	85.75
665.188	82.75
665.391	90.75
665.594	95.75
665.797	86.75
666	74.75
666.203	84.75
666.406	91.75
666.609	86.75
666.812	87.75
667.015	89.75
667.218	74.75
667.421	79.75
667.624	81.75
667.827	91.75
668.03	87.75
668.232	72.75
668.435	85.75
668.638	81.75
668.841	67.75
669.043	87.75
669.246	82.75
669.449	85.75
669.651	87.75
669.854	86.75
670.057	90.75
670.259	90.75
670.462	79.75
670.665	76.75
670.867	84.75
671.07	75.75
671.272	88.75
671.475	93.75
671.677	101.75
671.88	78.75
672.082	73.75
672.284	76.75
672.487	65.75
672.689	79.75
672.892	79.75
