Data from WStandard_LampEnergy5.5LIBS07252019.E.O._I.C._HRD10591_16-08-01-920.txt Node
Date: Thu Jul 25 16:08:01 EDT 2019
User: cochatt
Spectrometer: HR+D1059
Trigger mode: 1
Integration Time (sec): 1.000000E-1
Scans to average: 1
Electric dark correction enabled: true
Nonlinearity correction enabled: false
Boxcar width: 0
XAxis mode: Wavelengths
Number of Pixels in Spectrum: 2048
>>>>>Begin Spectral Data<<<<<
223.165	-11.38
223.4	-11.38
223.635	-11.38
223.869	-10.38
224.104	-21.38
224.338	-3.38
224.573	-13.38
224.808	-0.38
225.042	-7.38
225.277	-16.38
225.511	1.62
225.746	-8.38
225.98	-0.38
226.215	8.62
226.449	20.62
226.683	17.62
226.918	16.62
227.152	27.62
227.387	28.62
227.621	35.62
227.856	39.62
228.09	43.62
228.324	31.62
228.559	59.62
228.793	140.62
229.027	357.62
229.262	373.62
229.496	387.62
229.73	405.62
229.964	457.62
230.199	471.62
230.433	469.62
230.667	528.62
230.901	553.62
231.136	492.62
231.37	499.62
231.604	447.62
231.838	476.62
232.072	487.62
232.306	473.62
232.541	487.62
232.775	560.62
233.009	631.62
233.243	618.62
233.477	555.62
233.711	561.62
233.945	597.62
234.179	560.62
234.413	583.62
234.647	636.62
234.881	597.62
235.115	563.62
235.349	581.62
235.583	578.62
235.817	593.62
236.051	531.62
236.285	559.62
236.519	608.62
236.753	684.62
236.987	712.62
237.221	691.62
237.455	785.62
237.689	744.62
237.922	653.62
238.156	669.62
238.39	678.62
238.624	729.62
238.858	779.62
239.091	799.62
239.325	841.62
239.559	939.62
239.793	977.62
240.027	1086.62
240.26	1085.62
240.494	771.62
240.728	728.62
240.961	756.62
241.195	775.62
241.429	843.62
241.662	855.62
241.896	786.62
242.13	793.62
242.363	887.62
242.597	941.62
242.83	892.62
243.064	928.62
243.298	989.62
243.531	964.62
243.765	973.62
243.998	969.62
244.232	842.62
244.465	811.62
244.699	819.62
244.932	953.62
245.166	1087.62
245.399	1036.62
245.633	927.62
245.866	930.62
246.099	965.62
246.333	978.62
246.566	994.62
246.8	1088.62
247.033	1212.62
247.266	1097.62
247.5	1072.62
247.733	1093.62
247.966	1154.62
248.2	1291.62
248.433	1206.62
248.666	1267.62
248.899	1377.62
249.133	1593.62
249.366	1801.62
249.599	1457.62
249.832	1285.62
250.066	1331.62
250.299	1349.62
250.532	1258.62
250.765	1131.62
250.998	1186.62
251.231	1219.62
251.465	1299.62
251.698	1202.62
251.931	1187.62
252.164	1232.62
252.397	1303.62
252.63	1316.62
252.863	1164.62
253.096	1112.62
253.329	1179.62
253.562	1245.62
253.795	1295.62
254.028	1295.62
254.261	1227.62
254.494	1205.62
254.727	1171.62
254.96	1193.62
255.193	1293.62
255.426	1498.62
255.659	1723.62
255.892	1732.62
256.124	1413.62
256.357	1369.62
256.59	1501.62
256.823	1463.62
257.056	1468.62
257.289	1770.62
257.521	1964.62
257.754	1763.62
257.987	1646.62
258.22	1837.62
258.452	1803.62
258.685	1447.62
258.918	1426.62
259.151	1425.62
259.383	1345.62
259.616	1186.62
259.849	1252.62
260.081	1458.62
260.314	1578.62
260.547	1776.62
260.779	1833.62
261.012	1659.62
261.244	1505.62
261.477	1414.62
261.71	1468.62
261.942	1462.62
262.175	1434.62
262.407	1544.62
262.64	1437.62
262.872	1355.62
263.105	1294.62
263.337	1323.62
263.57	1364.62
263.802	1348.62
264.035	1284.62
264.267	1215.62
264.499	1195.62
264.732	1272.62
264.964	1314.62
265.197	1380.62
265.429	1448.62
265.661	1644.62
265.894	1811.62
266.126	1861.62
266.358	1645.62
266.591	1699.62
266.823	1853.62
267.055	1677.62
267.287	1659.62
267.52	1654.62
267.752	1568.62
267.984	1613.62
268.216	1715.62
268.448	1787.62
268.681	1724.62
268.913	1580.62
269.145	1468.62
269.377	1446.62
269.609	1525.62
269.841	1814.62
270.073	2082.62
270.306	2348.62
270.538	2509.62
270.77	2135.62
271.002	1791.62
271.234	1701.62
271.466	1691.62
271.698	1887.62
271.93	2299.62
272.162	2332.62
272.394	2081.62
272.626	2019.62
272.858	1738.62
273.09	1503.62
273.322	1474.62
273.553	1405.62
273.785	1431.62
274.017	1472.62
274.249	1602.62
274.481	1619.62
274.713	1513.62
274.945	1446.62
275.176	1501.62
275.408	1445.62
275.64	1425.62
275.872	1411.62
276.104	1485.62
276.335	1708.62
276.567	1972.62
276.799	1979.62
277.031	1740.62
277.262	1688.62
277.494	1721.62
277.726	1959.62
277.957	1955.62
278.189	1729.62
278.421	1598.62
278.652	1553.62
278.884	1514.62
279.115	1560.62
279.347	1592.62
279.579	1508.62
279.81	1511.62
280.042	1677.62
280.273	1872.62
280.505	1823.62
280.736	1903.62
280.968	1742.62
281.199	1595.62
281.431	1478.62
281.662	1437.62
281.894	1488.62
282.125	1544.62
282.356	1581.62
282.588	1659.62
282.819	1605.62
283.051	1749.62
283.282	1886.62
283.513	1795.62
283.745	1596.62
283.976	1457.62
284.207	1459.62
284.439	1531.62
284.67	1491.62
284.901	1624.62
285.132	1627.62
285.364	1589.62
285.595	1596.62
285.826	1600.62
286.057	1569.62
286.288	1530.62
286.52	1602.62
286.751	1739.62
286.982	1805.62
287.213	1647.62
287.444	1507.62
287.675	1496.62
287.906	1583.62
288.138	1742.62
288.369	1628.62
288.6	1568.62
288.831	1481.62
289.062	1485.62
289.293	1564.62
289.524	1573.62
289.755	1607.62
289.986	1656.62
290.217	1480.62
290.448	1528.62
290.679	1575.62
290.91	1551.62
291.141	1620.62
291.371	1728.62
291.602	1645.62
291.833	1656.62
292.064	1683.62
292.295	1708.62
292.526	1691.62
292.757	1815.62
292.987	1716.62
293.218	1590.62
293.449	1727.62
293.68	1961.62
293.91	2129.62
294.141	1967.62
294.372	1834.62
294.603	1908.62
294.833	1988.62
295.064	1894.62
295.295	1705.62
295.525	1669.62
295.756	1539.62
295.987	1456.62
296.217	1527.62
296.448	1547.62
296.679	1561.62
296.909	1545.62
297.14	1529.62
297.37	1580.62
297.601	1658.62
297.831	1791.62
298.062	1793.62
298.292	1669.62
298.523	1576.62
298.753	1581.62
298.984	1592.62
299.214	1591.62
299.445	1613.62
299.675	1703.62
299.905	1661.62
300.136	1624.62
300.366	1555.62
300.597	1508.62
300.827	1524.62
301.057	1573.62
301.288	1693.62
301.518	1703.62
301.748	1688.62
301.979	1803.62
302.209	1793.62
302.439	1952.62
302.669	2025.62
302.9	1905.62
303.13	1703.62
303.36	1744.62
303.59	1762.62
303.82	1683.62
304.051	1679.62
304.281	1734.62
304.511	1719.62
304.741	1815.62
304.971	2019.62
305.201	2165.62
305.431	2039.62
305.661	1636.62
305.891	1505.62
306.121	1475.62
306.352	1538.62
306.582	1608.62
306.812	1732.62
307.042	1867.62
307.272	1866.62
307.502	1877.62
307.731	2045.62
307.961	2263.62
308.191	2098.62
308.421	1795.62
308.651	1663.62
308.881	1659.62
309.111	1624.62
309.341	1613.62
309.571	1627.62
309.8	1632.62
310.03	1598.62
310.26	1604.62
310.49	1610.62
310.72	1648.62
310.949	1707.62
311.179	1746.62
311.409	1712.62
311.639	1705.62
311.868	1647.62
312.098	1643.62
312.328	1638.62
312.557	1593.62
312.787	1651.62
313.017	1714.62
313.246	1685.62
313.476	1673.62
313.706	1757.62
313.935	1724.62
314.165	1764.62
314.394	1754.62
314.624	1886.62
314.853	2003.62
315.083	2062.62
315.312	2154.62
315.542	2018.62
315.771	1781.62
316.001	1716.62
316.23	1837.62
316.46	1862.62
316.689	1837.62
316.919	1754.62
317.148	1660.62
317.377	1656.62
317.607	1802.62
317.836	2057.62
318.065	2122.62
318.295	2099.62
318.524	1967.62
318.753	1832.62
318.983	1825.62
319.212	1814.62
319.441	1781.62
319.67	1721.62
319.9	1752.62
320.129	1905.62
320.358	1965.62
320.587	2020.62
320.816	1987.62
321.046	1990.62
321.275	1849.62
321.504	1836.62
321.733	2064.62
321.962	2008.62
322.191	1797.62
322.42	1846.62
322.649	1783.62
322.878	1769.62
323.108	1795.62
323.337	1856.62
323.566	1841.62
323.795	1844.62
324.024	1849.62
324.253	1774.62
324.482	1807.62
324.71	1727.62
324.939	1656.62
325.168	1678.62
325.397	1783.62
325.626	1798.62
325.855	1876.62
326.084	1778.62
326.313	1812.62
326.542	1802.62
326.77	1856.62
326.999	1899.62
327.228	1809.62
327.457	1644.62
327.686	1650.62
327.914	1708.62
328.143	1804.62
328.372	1740.62
328.6	1805.62
328.829	1723.62
329.058	1742.62
329.287	1731.62
329.515	1776.62
329.744	1828.62
329.972	1882.62
330.201	1993.62
330.43	1974.62
330.658	1847.62
330.887	1862.62
331.115	1892.62
331.344	1895.62
331.572	1847.62
331.801	1859.62
332.03	1895.62
332.258	1844.62
332.486	1927.62
332.715	1927.62
332.943	1907.62
333.172	1855.62
333.4	1906.62
333.629	1910.62
333.857	2045.62
334.085	2244.62
334.314	2472.62
334.542	2779.62
334.771	2612.62
334.999	2217.62
335.227	2132.62
335.455	2037.62
335.684	2002.62
335.912	2054.62
336.14	2098.62
336.369	2028.62
336.597	1954.62
336.825	1853.62
337.053	1958.62
337.281	2097.62
337.51	2165.62
337.738	2250.62
337.966	2146.62
338.194	1945.62
338.422	1909.62
338.65	1898.62
338.878	1851.62
339.106	1819.62
339.334	1771.62
339.562	1785.62
339.79	1786.62
340.018	1904.62
340.246	1971.62
340.474	2025.62
340.702	1908.62
340.93	1977.62
341.158	1877.62
341.386	1898.62
341.614	1881.62
341.842	1834.62
342.07	1883.62
342.298	1876.62
342.526	1936.62
342.754	1812.62
342.981	1826.62
343.209	1853.62
343.437	1801.62
343.665	1866.62
343.893	1889.62
344.12	1958.62
344.348	1998.62
344.576	1935.62
344.804	1837.62
345.031	1837.62
345.259	1876.62
345.487	1787.62
345.714	1721.62
345.942	1699.62
346.17	1690.62
346.397	1759.62
346.625	1755.62
346.853	1661.62
347.08	1631.62
347.308	1642.62
347.535	1713.62
347.763	1799.62
347.99	1770.62
348.218	1667.62
348.445	1659.62
348.673	1705.62
348.9	1776.62
349.128	1799.62
349.355	1889.62
349.583	1843.62
349.81	1737.62
350.037	1624.62
350.265	1621.62
350.492	1635.62
350.72	1660.62
350.947	1755.62
351.174	1785.62
351.402	1690.62
351.629	1604.62
351.856	1585.62
352.083	1587.62
352.311	1595.62
352.538	1639.62
352.765	1717.62
352.992	1735.62
353.22	1721.62
353.447	1640.62
353.674	1699.62
353.901	1738.62
354.128	1675.62
354.355	1639.62
354.583	1717.62
354.81	1814.62
355.037	1758.62
355.264	1740.62
355.491	1692.62
355.718	1713.62
355.945	1715.62
356.172	1687.62
356.399	1622.62
356.626	1658.62
356.853	1685.62
357.08	1830.62
357.307	2017.62
357.534	2056.62
357.761	1795.62
357.988	1627.62
358.215	1605.62
358.441	1597.62
358.668	1586.62
358.895	1628.62
359.122	1748.62
359.349	1940.62
359.576	1917.62
359.802	1682.62
360.029	1671.62
360.256	1656.62
360.483	1642.62
360.709	1672.62
360.936	1790.62
361.163	1795.62
361.39	1967.62
361.616	2167.62
361.843	2100.62
362.07	2024.62
362.296	1740.62
362.523	1663.62
362.749	1696.62
362.976	1735.62
363.203	1715.62
363.429	1683.62
363.656	1619.62
363.882	1718.62
364.109	1849.62
364.335	2047.62
364.562	1897.62
364.788	1770.62
365.015	1703.62
365.241	1636.62
365.468	1698.62
365.694	1818.62
365.92	1847.62
366.147	1777.62
366.373	1687.62
366.599	1634.62
366.826	1661.62
367.052	1651.62
367.278	1661.62
367.505	1671.62
367.731	1700.62
367.957	1736.62
368.184	1808.62
368.41	1930.62
368.636	1945.62
368.862	1921.62
369.089	1929.62
369.315	1861.62
369.541	1780.62
369.767	1738.62
369.993	1693.62
370.219	1727.62
370.445	1740.62
370.672	1836.62
370.898	1946.62
371.124	1925.62
371.35	1755.62
371.576	1793.62
371.802	1931.62
372.028	1843.62
372.254	1787.62
372.48	1721.62
372.706	1671.62
372.932	1689.62
373.158	1716.62
373.384	1734.62
373.61	1757.62
373.835	1868.62
374.061	1831.62
374.287	1795.62
374.513	1821.62
374.739	1791.62
374.965	1817.62
375.191	1807.62
375.416	1818.62
375.642	1882.62
375.868	1919.62
376.094	2025.62
376.319	1914.62
376.545	1786.62
376.771	1840.62
376.997	1937.62
377.222	1911.62
377.448	1846.62
377.674	1866.62
377.899	1880.62
378.125	1979.62
378.35	1965.62
378.576	1788.62
378.802	1708.62
379.027	1726.62
379.253	1741.62
379.478	1765.62
379.704	1762.62
379.929	1753.62
380.155	1755.62
380.38	1756.62
380.606	1770.62
380.831	1781.62
381.057	1894.62
381.282	1898.62
381.507	1887.62
381.733	1984.62
381.958	2123.62
382.184	1893.62
382.409	1806.62
382.634	1921.62
382.86	1859.62
383.085	1863.62
383.31	1889.62
383.535	2085.62
383.761	2210.62
383.986	2095.62
384.211	2025.62
384.436	1990.62
384.662	2084.62
384.887	2223.62
385.112	2053.62
385.337	2072.62
385.562	2040.62
385.787	2035.62
386.013	2052.62
386.238	2089.62
386.463	2070.62
386.688	2239.62
386.913	2382.62
387.138	2283.62
387.363	2095.62
387.588	2119.62
387.813	2108.62
388.038	2108.62
388.263	2197.62
388.488	2137.62
388.713	1903.62
388.938	1990.62
389.163	1939.62
389.387	1987.62
389.612	1964.62
389.837	2023.62
390.062	2060.62
390.287	2041.62
390.512	2022.62
390.736	1973.62
390.961	1939.62
391.186	1914.62
391.411	1952.62
391.636	1969.62
391.86	2020.62
392.085	2025.62
392.31	1992.62
392.534	2005.62
392.759	2074.62
392.984	2003.62
393.208	2080.62
393.433	2122.62
393.658	2196.62
393.882	2199.62
394.107	2082.62
394.331	2017.62
394.556	1996.62
394.78	2033.62
395.005	2101.62
395.229	2209.62
395.454	2371.62
395.678	2382.62
395.903	2209.62
396.127	2088.62
396.352	2173.62
396.576	2217.62
396.801	2249.62
397.025	2236.62
397.249	2236.62
397.474	2180.62
397.698	2199.62
397.922	2248.62
398.147	2365.62
398.371	2462.62
398.595	2417.62
398.82	2316.62
399.044	2347.62
399.268	2442.62
399.492	2627.62
399.717	2716.62
399.941	2751.62
400.165	2688.62
400.389	2587.62
400.613	2578.62
400.837	2824.62
401.062	3377.62
401.286	2887.62
401.51	2532.62
401.734	2617.62
401.958	2624.62
402.182	2411.62
402.406	2282.62
402.63	2252.62
402.854	2307.62
403.078	2381.62
403.302	2352.62
403.526	2362.62
403.75	2437.62
403.974	2448.62
404.198	2420.62
404.422	2481.62
404.645	2646.62
404.869	2611.62
405.093	2331.62
405.317	2321.62
405.541	2387.62
405.765	2417.62
405.988	2432.62
406.212	2464.62
406.436	2480.62
406.66	2628.62
406.883	2656.62
407.107	2992.62
407.331	3252.62
407.555	3458.62
407.778	3225.62
408.002	2628.62
408.226	2503.62
408.449	2556.62
408.673	2415.62
408.896	2465.62
409.12	2527.62
409.344	2499.62
409.567	2384.62
409.791	2463.62
410.014	2463.62
410.238	2613.62
410.461	2797.62
410.685	2496.62
410.908	2359.62
411.132	2419.62
411.355	2382.62
411.578	2357.62
411.802	2365.62
412.025	2433.62
412.249	2355.62
412.472	2275.62
412.695	2300.62
412.919	2290.62
413.142	2293.62
413.365	2312.62
413.589	2446.62
413.812	2480.62
414.035	2613.62
414.258	2328.62
414.482	2314.62
414.705	2346.62
414.928	2292.62
415.151	2289.62
415.374	2249.62
415.597	2330.62
415.821	2397.62
416.044	2429.62
416.267	2410.62
416.49	2179.62
416.713	2185.62
416.936	2296.62
417.159	2399.62
417.382	2409.62
417.605	2266.62
417.828	2350.62
418.051	2345.62
418.274	2292.62
418.497	2205.62
418.72	2179.62
418.943	2213.62
419.166	2356.62
419.389	2461.62
419.611	2317.62
419.834	2258.62
420.057	2317.62
420.28	2207.62
420.503	2218.62
420.726	2325.62
420.948	2313.62
421.171	2213.62
421.394	2215.62
421.617	2298.62
421.839	2304.62
422.062	2251.62
422.285	2198.62
422.507	2199.62
422.73	2131.62
422.953	2127.62
423.175	2117.62
423.398	2195.62
423.621	2269.62
423.843	2219.62
424.066	2251.62
424.288	2388.62
424.511	2443.62
424.733	2336.62
424.956	2117.62
425.178	2074.62
425.401	2100.62
425.623	2128.62
425.846	2126.62
426.068	2333.62
426.291	2370.62
426.513	2247.62
426.735	2293.62
426.958	2452.62
427.18	2659.62
427.402	2359.62
427.625	2451.62
427.847	2491.62
428.069	2299.62
428.292	2205.62
428.514	2118.62
428.736	2149.62
428.958	2162.62
429.181	2154.62
429.403	2437.62
429.625	3128.62
429.847	2724.62
430.069	2225.62
430.292	2425.62
430.514	2584.62
430.736	2346.62
430.958	2479.62
431.18	2291.62
431.402	2154.62
431.624	2107.62
431.846	2130.62
432.068	2135.62
432.29	2084.62
432.512	2119.62
432.734	2144.62
432.956	2195.62
433.178	2339.62
433.4	2326.62
433.622	2290.62
433.844	2174.62
434.066	2127.62
434.287	2123.62
434.509	2209.62
434.731	2314.62
434.953	2443.62
435.175	2386.62
435.397	2243.62
435.618	2256.62
435.84	2278.62
436.062	2219.62
436.284	2188.62
436.505	2279.62
436.727	2315.62
436.949	2201.62
437.17	2125.62
437.392	2124.62
437.614	2198.62
437.835	2108.62
438.057	2270.62
438.278	2335.62
438.5	2191.62
438.721	2127.62
438.943	2148.62
439.165	2141.62
439.386	2067.62
439.608	2112.62
439.829	2099.62
440.05	2130.62
440.272	2102.62
440.493	2103.62
440.715	2179.62
440.936	2258.62
441.158	2534.62
441.379	2451.62
441.6	2325.62
441.822	2311.62
442.043	2281.62
442.264	2272.62
442.486	2131.62
442.707	2155.62
442.928	2103.62
443.149	2183.62
443.371	2361.62
443.592	2426.62
443.813	2363.62
444.034	2331.62
444.255	2320.62
444.476	2383.62
444.698	2430.62
444.919	2376.62
445.14	2475.62
445.361	2476.62
445.582	2547.62
445.803	2471.62
446.024	2354.62
446.245	2457.62
446.466	2344.62
446.687	2216.62
446.908	2248.62
447.129	2183.62
447.35	2215.62
447.571	2178.62
447.792	2054.62
448.013	2042.62
448.234	2137.62
448.455	2249.62
448.675	2275.62
448.896	2082.62
449.117	2018.62
449.338	2089.62
449.559	2209.62
449.779	2336.62
450	2540.62
450.221	2751.62
450.442	2655.62
450.662	2328.62
450.883	2057.62
451.104	1980.62
451.324	2085.62
451.545	2152.62
451.766	2100.62
451.986	2020.62
452.207	1944.62
452.428	1913.62
452.648	1885.62
452.869	1959.62
453.089	2092.62
453.31	2105.62
453.53	2157.62
453.751	2102.62
453.971	1935.62
454.192	2018.62
454.412	2147.62
454.633	2091.62
454.853	2041.62
455.073	1879.62
455.294	1848.62
455.514	1870.62
455.734	1896.62
455.955	1947.62
456.175	1912.62
456.395	1899.62
456.616	1969.62
456.836	2041.62
457.056	1986.62
457.276	1976.62
457.497	1926.62
457.717	1839.62
457.937	1855.62
458.157	1917.62
458.377	1922.62
458.598	1913.62
458.818	1910.62
459.038	2082.62
459.258	2209.62
459.478	2175.62
459.698	2075.62
459.918	2131.62
460.138	2253.62
460.358	2297.62
460.578	2271.62
460.798	2363.62
461.018	2539.62
461.238	2433.62
461.458	2294.62
461.678	2331.62
461.898	2273.62
462.118	2220.62
462.338	2306.62
462.558	2272.62
462.777	2271.62
462.997	2360.62
463.217	2567.62
463.437	2562.62
463.657	2323.62
463.876	2315.62
464.096	2268.62
464.316	2293.62
464.536	2406.62
464.755	2397.62
464.975	2431.62
465.195	2303.62
465.414	2435.62
465.634	2471.62
465.854	2291.62
466.073	2481.62
466.293	2421.62
466.512	2121.62
466.732	2067.62
466.951	2205.62
467.171	2202.62
467.391	2036.62
467.61	2044.62
467.829	2057.62
468.049	2281.62
468.268	2561.62
468.488	2354.62
468.707	2233.62
468.927	2140.62
469.146	2133.62
469.365	2057.62
469.585	2117.62
469.804	2103.62
470.023	2099.62
470.243	2116.62
470.462	2093.62
470.681	2042.62
470.901	2142.62
471.12	2144.62
471.339	2117.62
471.558	2056.62
471.777	1999.62
471.997	2061.62
472.216	2100.62
472.435	2017.62
472.654	2051.62
472.873	2115.62
473.092	2267.62
473.311	2160.62
473.53	1992.62
473.749	2019.62
473.968	2093.62
474.187	2165.62
474.406	2249.62
474.625	2170.62
474.844	2129.62
475.063	2136.62
475.282	2219.62
475.501	2129.62
475.72	2152.62
475.939	2343.62
476.158	2217.62
476.377	2120.62
476.596	2109.62
476.814	2159.62
477.033	2163.62
477.252	2311.62
477.471	2361.62
477.69	2226.62
477.908	2186.62
478.127	2303.62
478.346	2525.62
478.564	2534.62
478.783	2514.62
479.002	2547.62
479.22	2457.62
479.439	2622.62
479.658	2928.62
479.876	2951.62
480.095	2523.62
480.313	2467.62
480.532	2361.62
480.751	2402.62
480.969	2452.62
481.188	2395.62
481.406	2357.62
481.624	2301.62
481.843	2326.62
482.061	2422.62
482.28	2419.62
482.498	2442.62
482.717	2473.62
482.935	2307.62
483.153	2295.62
483.372	2331.62
483.59	2332.62
483.808	2337.62
484.027	2348.62
484.245	2575.62
484.463	3003.62
484.681	3537.62
484.9	2595.62
485.118	2429.62
485.336	2366.62
485.554	2445.62
485.772	2619.62
485.99	2533.62
486.209	2544.62
486.427	2533.62
486.645	2532.62
486.863	2432.62
487.081	2554.62
487.299	2643.62
487.517	2554.62
487.735	2479.62
487.953	2435.62
488.171	2463.62
488.389	2405.62
488.607	2455.62
488.825	2783.62
489.043	2853.62
489.261	2485.62
489.479	2595.62
489.696	2613.62
489.914	2583.62
490.132	2563.62
490.35	2489.62
490.568	2556.62
490.786	2451.62
491.003	2388.62
491.221	2459.62
491.439	2586.62
491.657	2508.62
491.874	2505.62
492.092	2555.62
492.31	2558.62
492.527	2500.62
492.745	2535.62
492.963	2480.62
493.18	2625.62
493.398	2774.62
493.615	2858.62
493.833	2565.62
494.05	2515.62
494.268	2574.62
494.485	2600.62
494.703	2578.62
494.92	2496.62
495.138	2521.62
495.355	2533.62
495.573	2659.62
495.79	2784.62
496.008	2884.62
496.225	2686.62
496.442	2660.62
496.66	2762.62
496.877	2684.62
497.094	2824.62
497.312	2784.62
497.529	2751.62
497.746	2840.62
497.963	3332.62
498.181	3783.62
498.398	3571.62
498.615	3449.62
498.832	3252.62
499.049	3236.62
499.267	3231.62
499.484	3506.62
499.701	3749.62
499.918	3749.62
500.135	4007.62
500.352	4377.62
500.569	4293.62
500.786	4633.62
501.003	4360.62
501.22	3841.62
501.437	3750.62
501.654	3817.62
501.871	3706.62
502.088	3255.62
502.305	3228.62
502.522	3081.62
502.739	2872.62
502.956	2815.62
503.172	2860.62
503.389	2731.62
503.606	2678.62
503.823	2665.62
504.04	2755.62
504.256	2725.62
504.473	2731.62
504.69	2793.62
504.907	2666.62
505.123	2532.62
505.34	2679.62
505.557	3633.62
505.773	3086.62
505.99	2473.62
506.207	2309.62
506.423	2283.62
506.64	2289.62
506.856	2377.62
507.073	2680.62
507.289	2918.62
507.506	2802.62
507.722	2348.62
507.939	2247.62
508.155	2202.62
508.372	2313.62
508.588	2183.62
508.805	2133.62
509.021	2129.62
509.238	2095.62
509.454	2074.62
509.67	2075.62
509.887	2095.62
510.103	2058.62
510.319	2143.62
510.536	2275.62
510.752	2294.62
510.968	2301.62
511.184	2402.62
511.401	2385.62
511.617	2095.62
511.833	2079.62
512.049	2057.62
512.265	2020.62
512.481	2007.62
512.698	2100.62
512.914	2253.62
513.13	2155.62
513.346	2102.62
513.562	2038.62
513.778	2026.62
513.994	2175.62
514.21	2231.62
514.426	2247.62
514.642	2477.62
514.858	2335.62
515.074	2133.62
515.29	2045.62
515.506	2151.62
515.721	2142.62
515.937	2184.62
516.153	2476.62
516.369	2353.62
516.585	2243.62
516.801	2112.62
517.016	2136.62
517.232	2160.62
517.448	2219.62
517.664	2308.62
517.879	2292.62
518.095	2389.62
518.311	2287.62
518.527	2148.62
518.742	2113.62
518.958	2036.62
519.173	2005.62
519.389	2110.62
519.605	2115.62
519.82	2139.62
520.036	2170.62
520.251	2049.62
520.467	2097.62
520.682	2297.62
520.898	2390.62
521.113	2118.62
521.329	1985.62
521.544	2235.62
521.76	2167.62
521.975	2031.62
522.19	1988.62
522.406	1931.62
522.621	2435.62
522.836	2487.62
523.052	1956.62
523.267	1997.62
523.482	1976.62
523.698	1941.62
523.913	1837.62
524.128	1887.62
524.343	1990.62
524.559	2102.62
524.774	1913.62
524.989	1896.62
525.204	1841.62
525.419	1820.62
525.634	1849.62
525.849	1885.62
526.064	1913.62
526.28	1954.62
526.495	1853.62
526.71	1837.62
526.925	1830.62
527.14	1816.62
527.355	1776.62
527.57	1765.62
527.785	1824.62
527.999	1811.62
528.214	1747.62
528.429	1728.62
528.644	1734.62
528.859	1779.62
529.074	1763.62
529.289	1812.62
529.503	1851.62
529.718	1834.62
529.933	1788.62
530.148	1744.62
530.363	1704.62
530.577	1772.62
530.792	1837.62
531.007	1820.62
531.221	1768.62
531.436	1828.62
531.651	1880.62
531.865	1933.62
532.08	1895.62
532.295	1732.62
532.509	1702.62
532.724	1759.62
532.938	1804.62
533.153	1920.62
533.367	1811.62
533.582	1811.62
533.796	1725.62
534.011	1785.62
534.225	1794.62
534.44	1711.62
534.654	1711.62
534.868	1720.62
535.083	1824.62
535.297	1859.62
535.511	1767.62
535.726	1763.62
535.94	1785.62
536.154	1737.62
536.369	1752.62
536.583	1715.62
536.797	1692.62
537.011	1769.62
537.225	1678.62
537.44	1666.62
537.654	1763.62
537.868	1699.62
538.082	1636.62
538.296	1591.62
538.51	1624.62
538.724	1632.62
538.938	1598.62
539.153	1689.62
539.367	1683.62
539.581	1667.62
539.795	1751.62
540.009	1720.62
540.222	1702.62
540.436	1725.62
540.65	1848.62
540.864	1894.62
541.078	1764.62
541.292	1670.62
541.506	1615.62
541.72	1684.62
541.934	1651.62
542.147	1724.62
542.361	1691.62
542.575	1614.62
542.789	1613.62
543.002	1530.62
543.216	1611.62
543.43	1685.62
543.644	1732.62
543.857	1805.62
544.071	1745.62
544.285	1680.62
544.498	1646.62
544.712	1643.62
544.925	1667.62
545.139	1721.62
545.352	1618.62
545.566	1627.62
545.779	1524.62
545.993	1628.62
546.206	1623.62
546.42	1542.62
546.633	1570.62
546.847	1542.62
547.06	1528.62
547.274	1547.62
547.487	1539.62
547.7	1564.62
547.914	1574.62
548.127	1633.62
548.34	1615.62
548.554	1617.62
548.767	1581.62
548.98	1618.62
549.193	1567.62
549.407	1649.62
549.62	1685.62
549.833	1549.62
550.046	1543.62
550.259	1562.62
550.473	1526.62
550.686	1545.62
550.899	1491.62
551.112	1514.62
551.325	1487.62
551.538	1584.62
551.751	1953.62
551.964	1559.62
552.177	1481.62
552.39	1493.62
552.603	1574.62
552.816	1565.62
553.029	1613.62
553.242	1646.62
553.455	1593.62
553.667	1564.62
553.88	1545.62
554.093	1500.62
554.306	1477.62
554.519	1440.62
554.732	1436.62
554.944	1443.62
555.157	1479.62
555.37	1434.62
555.583	1461.62
555.795	1385.62
556.008	1425.62
556.221	1347.62
556.433	1373.62
556.646	1316.62
556.859	1336.62
557.071	1322.62
557.284	1323.62
557.496	1346.62
557.709	1291.62
557.921	1297.62
558.134	1292.62
558.346	1295.62
558.559	1285.62
558.771	1307.62
558.984	1240.62
559.196	1226.62
559.409	1213.62
559.621	1239.62
559.833	1261.62
560.046	1307.62
560.258	1299.62
560.47	1281.62
560.683	1320.62
560.895	1260.62
561.107	1296.62
561.32	1282.62
561.532	1298.62
561.744	1259.62
561.956	1287.62
562.168	1254.62
562.381	1194.62
562.593	1199.62
562.805	1225.62
563.017	1231.62
563.229	1273.62
563.441	1310.62
563.653	1218.62
563.865	1251.62
564.077	1275.62
564.289	1244.62
564.501	1289.62
564.713	1307.62
564.925	1331.62
565.137	1449.62
565.349	1348.62
565.561	1307.62
565.773	1333.62
565.985	1373.62
566.197	1408.62
566.408	1530.62
566.62	1537.62
566.832	1480.62
567.044	1556.62
567.255	1492.62
567.467	1509.62
567.679	1563.62
567.891	1624.62
568.102	1572.62
568.314	1481.62
568.526	1411.62
568.737	1362.62
568.949	1331.62
569.161	1285.62
569.372	1242.62
569.584	1227.62
569.795	1214.62
570.007	1179.62
570.218	1165.62
570.43	1132.62
570.641	1136.62
570.853	1127.62
571.064	1141.62
571.276	1129.62
571.487	1106.62
571.698	1088.62
571.91	1067.62
572.121	1033.62
572.333	1023.62
572.544	1035.62
572.755	986.62
572.966	1027.62
573.178	1035.62
573.389	969.62
573.6	1036.62
573.811	1159.62
574.023	1028.62
574.234	1031.62
574.445	999.62
574.656	935.62
574.867	949.62
575.078	993.62
575.289	973.62
575.501	938.62
575.712	934.62
575.923	940.62
576.134	955.62
576.345	919.62
576.556	930.62
576.767	913.62
576.978	881.62
577.188	903.62
577.399	895.62
577.61	906.62
577.821	867.62
578.032	854.62
578.243	856.62
578.454	862.62
578.665	866.62
578.875	857.62
579.086	855.62
579.297	871.62
579.508	902.62
579.718	889.62
579.929	865.62
580.14	847.62
580.35	842.62
580.561	846.62
580.772	957.62
580.982	859.62
581.193	825.62
581.403	829.62
581.614	805.62
581.825	833.62
582.035	809.62
582.246	819.62
582.456	832.62
582.667	806.62
582.877	809.62
583.087	801.62
583.298	807.62
583.508	831.62
583.719	819.62
583.929	808.62
584.139	817.62
584.35	780.62
584.56	799.62
584.77	801.62
584.981	805.62
585.191	797.62
585.401	835.62
585.611	808.62
585.821	801.62
586.032	786.62
586.242	748.62
586.452	787.62
586.662	792.62
586.872	798.62
587.082	765.62
587.292	794.62
587.502	785.62
587.713	796.62
587.923	771.62
588.133	796.62
588.343	760.62
588.553	764.62
588.762	787.62
588.972	760.62
589.182	839.62
589.392	780.62
589.602	794.62
589.812	793.62
590.022	729.62
590.232	726.62
590.441	765.62
590.651	783.62
590.861	744.62
591.071	735.62
591.281	732.62
591.49	731.62
591.7	739.62
591.91	749.62
592.119	745.62
592.329	762.62
592.539	787.62
592.748	764.62
592.958	773.62
593.167	812.62
593.377	781.62
593.587	796.62
593.796	799.62
594.006	792.62
594.215	794.62
594.424	785.62
594.634	756.62
594.843	783.62
595.053	789.62
595.262	770.62
595.472	745.62
595.681	763.62
595.89	740.62
596.1	728.62
596.309	732.62
596.518	708.62
596.727	704.62
596.937	696.62
597.146	673.62
597.355	663.62
597.564	666.62
597.774	674.62
597.983	647.62
598.192	654.62
598.401	653.62
598.61	651.62
598.819	640.62
599.028	659.62
599.237	653.62
599.446	646.62
599.655	638.62
599.864	624.62
600.073	601.62
600.282	599.62
600.491	599.62
600.7	631.62
600.909	613.62
601.118	632.62
601.327	639.62
601.536	609.62
601.745	631.62
601.953	611.62
602.162	598.62
602.371	617.62
602.58	611.62
602.789	617.62
602.997	620.62
603.206	599.62
603.415	615.62
603.623	602.62
603.832	606.62
604.041	595.62
604.249	618.62
604.458	588.62
604.666	596.62
604.875	599.62
605.084	603.62
605.292	580.62
605.501	559.62
605.709	569.62
605.918	569.62
606.126	581.62
606.334	560.62
606.543	575.62
606.751	586.62
606.96	583.62
607.168	574.62
607.376	575.62
607.585	578.62
607.793	585.62
608.001	570.62
608.21	547.62
608.418	556.62
608.626	555.62
608.834	547.62
609.043	551.62
609.251	556.62
609.459	543.62
609.667	561.62
609.875	536.62
610.083	579.62
610.291	572.62
610.499	555.62
610.707	552.62
610.916	544.62
611.124	547.62
611.332	556.62
611.54	545.62
611.748	555.62
611.955	533.62
612.163	508.62
612.371	542.62
612.579	520.62
612.787	542.62
612.995	530.62
613.203	545.62
613.411	517.62
613.618	522.62
613.826	515.62
614.034	508.62
614.242	535.62
614.449	532.62
614.657	545.62
614.865	523.62
615.072	511.62
615.28	526.62
615.488	544.62
615.695	584.62
615.903	548.62
616.111	531.62
616.318	531.62
616.526	520.62
616.733	521.62
616.941	529.62
617.148	518.62
617.356	507.62
617.563	514.62
617.771	526.62
617.978	503.62
618.185	518.62
618.393	483.62
618.6	511.62
618.807	513.62
619.015	517.62
619.222	497.62
619.429	477.62
619.637	497.62
619.844	486.62
620.051	477.62
620.258	499.62
620.466	481.62
620.673	485.62
620.88	449.62
621.087	480.62
621.294	453.62
621.501	468.62
621.708	476.62
621.915	480.62
622.122	457.62
622.329	497.62
622.536	487.62
622.743	469.62
622.95	448.62
623.157	457.62
623.364	449.62
623.571	474.62
623.778	449.62
623.985	471.62
624.192	455.62
624.399	464.62
624.606	482.62
624.812	458.62
625.019	441.62
625.226	436.62
625.433	447.62
625.639	448.62
625.846	436.62
626.053	442.62
626.259	434.62
626.466	416.62
626.673	410.62
626.879	407.62
627.086	440.62
627.293	437.62
627.499	424.62
627.706	428.62
627.912	427.62
628.119	439.62
628.325	415.62
628.532	401.62
628.738	411.62
628.945	416.62
629.151	424.62
629.357	415.62
629.564	432.62
629.77	401.62
629.976	407.62
630.183	405.62
630.389	390.62
630.595	397.62
630.802	379.62
631.008	399.62
631.214	394.62
631.42	392.62
631.627	399.62
631.833	391.62
632.039	387.62
632.245	403.62
632.451	392.62
632.657	380.62
632.863	387.62
633.069	387.62
633.275	387.62
633.481	378.62
633.688	356.62
633.893	351.62
634.099	380.62
634.305	371.62
634.511	376.62
634.717	367.62
634.923	354.62
635.129	367.62
635.335	351.62
635.541	362.62
635.747	357.62
635.952	380.62
636.158	355.62
636.364	351.62
636.57	356.62
636.775	353.62
636.981	352.62
637.187	332.62
637.392	368.62
637.598	354.62
637.804	344.62
638.009	341.62
638.215	351.62
638.421	331.62
638.626	362.62
638.832	333.62
639.037	350.62
639.243	331.62
639.448	342.62
639.654	349.62
639.859	339.62
640.065	334.62
640.27	351.62
640.475	343.62
640.681	332.62
640.886	344.62
641.091	344.62
641.297	340.62
641.502	331.62
641.707	324.62
641.913	340.62
642.118	338.62
642.323	321.62
642.528	315.62
642.733	328.62
642.939	330.62
643.144	326.62
643.349	344.62
643.554	327.62
643.759	311.62
643.964	329.62
644.169	319.62
644.374	324.62
644.579	320.62
644.784	322.62
644.989	312.62
645.194	312.62
645.399	310.62
645.604	291.62
645.809	318.62
646.014	323.62
646.219	308.62
646.423	330.62
646.628	314.62
646.833	312.62
647.038	328.62
647.243	314.62
647.447	337.62
647.652	336.62
647.857	335.62
648.062	326.62
648.266	322.62
648.471	325.62
648.676	323.62
648.88	312.62
649.085	323.62
649.289	326.62
649.494	333.62
649.698	304.62
649.903	313.62
650.107	315.62
650.312	327.62
650.516	288.62
650.721	292.62
650.925	306.62
651.13	284.62
651.334	309.62
651.539	291.62
651.743	284.62
651.947	283.62
652.152	282.62
652.356	264.62
652.56	277.62
652.764	267.62
652.969	259.62
653.173	271.62
653.377	247.62
653.581	250.62
653.785	240.62
653.99	246.62
654.194	260.62
654.398	248.62
654.602	240.62
654.806	235.62
655.01	233.62
655.214	236.62
655.418	241.62
655.622	241.62
655.826	240.62
656.03	237.62
656.234	259.62
656.438	278.62
656.642	267.62
656.846	246.62
657.049	245.62
657.253	240.62
657.457	213.62
657.661	216.62
657.865	189.62
658.068	186.62
658.272	169.62
658.476	162.62
658.68	159.62
658.883	157.62
659.087	149.62
659.291	151.62
659.494	148.62
659.698	118.62
659.901	127.62
660.105	118.62
660.309	125.62
660.512	126.62
660.716	121.62
660.919	116.62
661.123	113.62
661.326	100.62
661.53	122.62
661.733	100.62
661.936	119.62
662.14	101.62
662.343	101.62
662.546	96.62
662.75	85.62
662.953	85.62
663.156	96.62
663.36	76.62
663.563	92.62
663.766	97.62
663.969	87.62
664.173	74.62
664.376	101.62
664.579	87.62
664.782	88.62
664.985	97.62
665.188	87.62
665.391	75.62
665.594	64.62
665.797	74.62
666	87.62
666.203	83.62
666.406	96.62
666.609	86.62
666.812	88.62
667.015	84.62
667.218	81.62
667.421	76.62
667.624	91.62
667.827	80.62
668.03	73.62
668.232	84.62
668.435	80.62
668.638	89.62
668.841	84.62
669.043	78.62
669.246	78.62
669.449	94.62
669.651	92.62
669.854	86.62
670.057	86.62
670.259	66.62
670.462	89.62
670.665	68.62
670.867	77.62
671.07	87.62
671.272	89.62
671.475	89.62
671.677	85.62
671.88	69.62
672.082	76.62
672.284	77.62
672.487	85.62
672.689	83.62
672.892	90.62
