Data from WStandard_LampEnergy5.5LIBS07252019.E.O._I.C._HRD10591_16-06-21-920.txt Node
Date: Thu Jul 25 16:06:21 EDT 2019
User: cochatt
Spectrometer: HR+D1059
Trigger mode: 1
Integration Time (sec): 1.000000E-1
Scans to average: 1
Electric dark correction enabled: true
Nonlinearity correction enabled: false
Boxcar width: 0
XAxis mode: Wavelengths
Number of Pixels in Spectrum: 2048
>>>>>Begin Spectral Data<<<<<
223.165	-9.25
223.4	-9.25
223.635	-9.25
223.869	-30.25
224.104	-32.25
224.338	-16.25
224.573	-18.25
224.808	-0.25
225.042	-9.25
225.277	-7.25
225.511	-9.25
225.746	12.75
225.98	2.75
226.215	10.75
226.449	24.75
226.683	25.75
226.918	35.75
227.152	19.75
227.387	35.75
227.621	22.75
227.856	37.75
228.09	42.75
228.324	54.75
228.559	57.75
228.793	149.75
229.027	318.75
229.262	337.75
229.496	340.75
229.73	361.75
229.964	383.75
230.199	395.75
230.433	440.75
230.667	460.75
230.901	470.75
231.136	414.75
231.37	404.75
231.604	416.75
231.838	403.75
232.072	425.75
232.306	397.75
232.541	422.75
232.775	486.75
233.009	552.75
233.243	518.75
233.477	471.75
233.711	479.75
233.945	510.75
234.179	482.75
234.413	512.75
234.647	564.75
234.881	528.75
235.115	484.75
235.349	494.75
235.583	520.75
235.817	493.75
236.051	472.75
236.285	488.75
236.519	520.75
236.753	588.75
236.987	617.75
237.221	624.75
237.455	667.75
237.689	627.75
237.922	588.75
238.156	547.75
238.39	566.75
238.624	606.75
238.858	658.75
239.091	676.75
239.325	704.75
239.559	794.75
239.793	825.75
240.027	890.75
240.26	894.75
240.494	666.75
240.728	629.75
240.961	647.75
241.195	643.75
241.429	725.75
241.662	709.75
241.896	643.75
242.13	656.75
242.363	727.75
242.597	797.75
242.83	746.75
243.064	778.75
243.298	839.75
243.531	797.75
243.765	807.75
243.998	783.75
244.232	695.75
244.465	658.75
244.699	700.75
244.932	770.75
245.166	894.75
245.399	842.75
245.633	759.75
245.866	748.75
246.099	807.75
246.333	832.75
246.566	832.75
246.8	923.75
247.033	1010.75
247.266	929.75
247.5	922.75
247.733	898.75
247.966	954.75
248.2	1080.75
248.433	1015.75
248.666	1042.75
248.899	1121.75
249.133	1321.75
249.366	1506.75
249.599	1228.75
249.832	1039.75
250.066	1094.75
250.299	1134.75
250.532	1036.75
250.765	960.75
250.998	997.75
251.231	1039.75
251.465	1066.75
251.698	990.75
251.931	987.75
252.164	1027.75
252.397	1060.75
252.63	1095.75
252.863	973.75
253.096	937.75
253.329	989.75
253.562	1024.75
253.795	1107.75
254.028	1075.75
254.261	1000.75
254.494	1005.75
254.727	971.75
254.96	985.75
255.193	1100.75
255.426	1202.75
255.659	1394.75
255.892	1462.75
256.124	1175.75
256.357	1109.75
256.59	1217.75
256.823	1241.75
257.056	1201.75
257.289	1476.75
257.521	1639.75
257.754	1428.75
257.987	1366.75
258.22	1485.75
258.452	1451.75
258.685	1200.75
258.918	1158.75
259.151	1202.75
259.383	1140.75
259.616	1013.75
259.849	1080.75
260.081	1230.75
260.314	1321.75
260.547	1449.75
260.779	1492.75
261.012	1329.75
261.244	1265.75
261.477	1141.75
261.71	1187.75
261.942	1194.75
262.175	1166.75
262.407	1257.75
262.64	1191.75
262.872	1112.75
263.105	1068.75
263.337	1062.75
263.57	1105.75
263.802	1090.75
264.035	1057.75
264.267	973.75
264.499	971.75
264.732	1073.75
264.964	1113.75
265.197	1131.75
265.429	1190.75
265.661	1314.75
265.894	1464.75
266.126	1515.75
266.358	1345.75
266.591	1382.75
266.823	1537.75
267.055	1342.75
267.287	1348.75
267.52	1322.75
267.752	1310.75
267.984	1360.75
268.216	1358.75
268.448	1387.75
268.681	1394.75
268.913	1306.75
269.145	1225.75
269.377	1176.75
269.609	1306.75
269.841	1461.75
270.073	1718.75
270.306	1893.75
270.538	2065.75
270.77	1718.75
271.002	1471.75
271.234	1423.75
271.466	1401.75
271.698	1503.75
271.93	1824.75
272.162	1842.75
272.394	1666.75
272.626	1604.75
272.858	1395.75
273.09	1269.75
273.322	1232.75
273.553	1208.75
273.785	1189.75
274.017	1240.75
274.249	1350.75
274.481	1376.75
274.713	1225.75
274.945	1198.75
275.176	1224.75
275.408	1194.75
275.64	1180.75
275.872	1162.75
276.104	1251.75
276.335	1394.75
276.567	1600.75
276.799	1642.75
277.031	1441.75
277.262	1366.75
277.494	1386.75
277.726	1569.75
277.957	1554.75
278.189	1399.75
278.421	1327.75
278.652	1291.75
278.884	1271.75
279.115	1230.75
279.347	1304.75
279.579	1214.75
279.81	1252.75
280.042	1367.75
280.273	1499.75
280.505	1515.75
280.736	1542.75
280.968	1521.75
281.199	1291.75
281.431	1253.75
281.662	1253.75
281.894	1242.75
282.125	1283.75
282.356	1307.75
282.588	1340.75
282.819	1360.75
283.051	1424.75
283.282	1502.75
283.513	1476.75
283.745	1326.75
283.976	1192.75
284.207	1211.75
284.439	1255.75
284.67	1269.75
284.901	1282.75
285.132	1320.75
285.364	1354.75
285.595	1341.75
285.826	1288.75
286.057	1297.75
286.288	1300.75
286.52	1362.75
286.751	1449.75
286.982	1522.75
287.213	1382.75
287.444	1282.75
287.675	1278.75
287.906	1308.75
288.138	1411.75
288.369	1354.75
288.6	1334.75
288.831	1271.75
289.062	1287.75
289.293	1307.75
289.524	1349.75
289.755	1346.75
289.986	1373.75
290.217	1270.75
290.448	1284.75
290.679	1330.75
290.91	1331.75
291.141	1356.75
291.371	1421.75
291.602	1408.75
291.833	1360.75
292.064	1402.75
292.295	1396.75
292.526	1438.75
292.757	1492.75
292.987	1426.75
293.218	1368.75
293.449	1453.75
293.68	1607.75
293.91	1728.75
294.141	1595.75
294.372	1475.75
294.603	1518.75
294.833	1584.75
295.064	1500.75
295.295	1421.75
295.525	1381.75
295.756	1307.75
295.987	1247.75
296.217	1286.75
296.448	1303.75
296.679	1317.75
296.909	1331.75
297.14	1332.75
297.37	1299.75
297.601	1367.75
297.831	1459.75
298.062	1502.75
298.292	1371.75
298.523	1290.75
298.753	1341.75
298.984	1374.75
299.214	1352.75
299.445	1370.75
299.675	1409.75
299.905	1387.75
300.136	1382.75
300.366	1323.75
300.597	1299.75
300.827	1307.75
301.057	1373.75
301.288	1456.75
301.518	1432.75
301.748	1434.75
301.979	1497.75
302.209	1511.75
302.439	1634.75
302.669	1687.75
302.9	1552.75
303.13	1426.75
303.36	1407.75
303.59	1472.75
303.82	1472.75
304.051	1435.75
304.281	1454.75
304.511	1416.75
304.741	1519.75
304.971	1608.75
305.201	1775.75
305.431	1672.75
305.661	1390.75
305.891	1284.75
306.121	1270.75
306.352	1331.75
306.582	1388.75
306.812	1495.75
307.042	1569.75
307.272	1576.75
307.502	1632.75
307.731	1729.75
307.961	1862.75
308.191	1738.75
308.421	1507.75
308.651	1423.75
308.881	1398.75
309.111	1383.75
309.341	1353.75
309.571	1409.75
309.8	1390.75
310.03	1405.75
310.26	1396.75
310.49	1391.75
310.72	1421.75
310.949	1423.75
311.179	1485.75
311.409	1493.75
311.639	1436.75
311.868	1384.75
312.098	1403.75
312.328	1402.75
312.557	1375.75
312.787	1428.75
313.017	1480.75
313.246	1483.75
313.476	1470.75
313.706	1480.75
313.935	1469.75
314.165	1464.75
314.394	1524.75
314.624	1605.75
314.853	1685.75
315.083	1753.75
315.312	1802.75
315.542	1709.75
315.771	1544.75
316.001	1500.75
316.23	1556.75
316.46	1554.75
316.689	1549.75
316.919	1471.75
317.148	1421.75
317.377	1467.75
317.607	1560.75
317.836	1747.75
318.065	1760.75
318.295	1695.75
318.524	1662.75
318.753	1586.75
318.983	1571.75
319.212	1586.75
319.441	1513.75
319.67	1453.75
319.9	1509.75
320.129	1631.75
320.358	1697.75
320.587	1753.75
320.816	1666.75
321.046	1643.75
321.275	1587.75
321.504	1566.75
321.733	1706.75
321.962	1649.75
322.191	1518.75
322.42	1526.75
322.649	1521.75
322.878	1519.75
323.108	1500.75
323.337	1570.75
323.566	1564.75
323.795	1550.75
324.024	1569.75
324.253	1559.75
324.482	1581.75
324.71	1545.75
324.939	1476.75
325.168	1501.75
325.397	1542.75
325.626	1568.75
325.855	1571.75
326.084	1533.75
326.313	1537.75
326.542	1568.75
326.77	1570.75
326.999	1599.75
327.228	1553.75
327.457	1447.75
327.686	1480.75
327.914	1493.75
328.143	1572.75
328.372	1567.75
328.6	1543.75
328.829	1575.75
329.058	1497.75
329.287	1484.75
329.515	1540.75
329.744	1573.75
329.972	1646.75
330.201	1701.75
330.43	1680.75
330.658	1628.75
330.887	1619.75
331.115	1630.75
331.344	1620.75
331.572	1639.75
331.801	1654.75
332.03	1642.75
332.258	1660.75
332.486	1639.75
332.715	1658.75
332.943	1655.75
333.172	1639.75
333.4	1668.75
333.629	1733.75
333.857	1835.75
334.085	1985.75
334.314	2175.75
334.542	2364.75
334.771	2260.75
334.999	1978.75
335.227	1878.75
335.455	1839.75
335.684	1768.75
335.912	1835.75
336.14	1843.75
336.369	1780.75
336.597	1716.75
336.825	1688.75
337.053	1714.75
337.281	1794.75
337.51	1856.75
337.738	1939.75
337.966	1858.75
338.194	1671.75
338.422	1648.75
338.65	1633.75
338.878	1639.75
339.106	1577.75
339.334	1567.75
339.562	1530.75
339.79	1556.75
340.018	1659.75
340.246	1711.75
340.474	1723.75
340.702	1674.75
340.93	1692.75
341.158	1664.75
341.386	1659.75
341.614	1625.75
341.842	1622.75
342.07	1616.75
342.298	1623.75
342.526	1648.75
342.754	1632.75
342.981	1622.75
343.209	1629.75
343.437	1632.75
343.665	1622.75
343.893	1670.75
344.12	1771.75
344.348	1773.75
344.576	1700.75
344.804	1593.75
345.031	1605.75
345.259	1623.75
345.487	1598.75
345.714	1523.75
345.942	1481.75
346.17	1491.75
346.397	1540.75
346.625	1564.75
346.853	1504.75
347.08	1445.75
347.308	1498.75
347.535	1480.75
347.763	1523.75
347.99	1505.75
348.218	1452.75
348.445	1460.75
348.673	1504.75
348.9	1554.75
349.128	1563.75
349.355	1628.75
349.583	1556.75
349.81	1533.75
350.037	1460.75
350.265	1429.75
350.492	1435.75
350.72	1455.75
350.947	1512.75
351.174	1558.75
351.402	1512.75
351.629	1420.75
351.856	1383.75
352.083	1385.75
352.311	1417.75
352.538	1463.75
352.765	1524.75
352.992	1545.75
353.22	1487.75
353.447	1467.75
353.674	1479.75
353.901	1485.75
354.128	1469.75
354.355	1463.75
354.583	1474.75
354.81	1552.75
355.037	1545.75
355.264	1549.75
355.491	1522.75
355.718	1519.75
355.945	1486.75
356.172	1435.75
356.399	1444.75
356.626	1465.75
356.853	1466.75
357.08	1577.75
357.307	1721.75
357.534	1768.75
357.761	1557.75
357.988	1468.75
358.215	1421.75
358.441	1440.75
358.668	1421.75
358.895	1478.75
359.122	1519.75
359.349	1613.75
359.576	1640.75
359.802	1493.75
360.029	1474.75
360.256	1478.75
360.483	1467.75
360.709	1473.75
360.936	1546.75
361.163	1572.75
361.39	1722.75
361.616	1871.75
361.843	1774.75
362.07	1677.75
362.296	1526.75
362.523	1454.75
362.749	1481.75
362.976	1518.75
363.203	1536.75
363.429	1501.75
363.656	1446.75
363.882	1504.75
364.109	1639.75
364.335	1761.75
364.562	1615.75
364.788	1591.75
365.015	1482.75
365.241	1415.75
365.468	1528.75
365.694	1561.75
365.92	1651.75
366.147	1584.75
366.373	1483.75
366.599	1447.75
366.826	1444.75
367.052	1467.75
367.278	1484.75
367.505	1526.75
367.731	1521.75
367.957	1536.75
368.184	1522.75
368.41	1606.75
368.636	1639.75
368.862	1659.75
369.089	1666.75
369.315	1634.75
369.541	1590.75
369.767	1559.75
369.993	1437.75
370.219	1464.75
370.445	1482.75
370.672	1570.75
370.898	1666.75
371.124	1639.75
371.35	1574.75
371.576	1622.75
371.802	1667.75
372.028	1638.75
372.254	1586.75
372.48	1534.75
372.706	1554.75
372.932	1552.75
373.158	1561.75
373.384	1555.75
373.61	1585.75
373.835	1721.75
374.061	1625.75
374.287	1564.75
374.513	1608.75
374.739	1621.75
374.965	1609.75
375.191	1594.75
375.416	1610.75
375.642	1650.75
375.868	1703.75
376.094	1747.75
376.319	1696.75
376.545	1566.75
376.771	1601.75
376.997	1631.75
377.222	1663.75
377.448	1602.75
377.674	1668.75
377.899	1638.75
378.125	1698.75
378.35	1737.75
378.576	1585.75
378.802	1547.75
379.027	1538.75
379.253	1586.75
379.478	1602.75
379.704	1560.75
379.929	1602.75
380.155	1570.75
380.38	1588.75
380.606	1667.75
380.831	1600.75
381.057	1620.75
381.282	1680.75
381.507	1639.75
381.733	1723.75
381.958	1769.75
382.184	1693.75
382.409	1633.75
382.634	1666.75
382.86	1650.75
383.085	1650.75
383.31	1702.75
383.535	1768.75
383.761	1912.75
383.986	1805.75
384.211	1770.75
384.436	1798.75
384.662	1877.75
384.887	1936.75
385.112	1814.75
385.337	1869.75
385.562	1820.75
385.787	1794.75
386.013	1834.75
386.238	1867.75
386.463	1841.75
386.688	1967.75
386.913	2027.75
387.138	1997.75
387.363	1855.75
387.588	1842.75
387.813	1851.75
388.038	1853.75
388.263	1930.75
388.488	1861.75
388.713	1792.75
388.938	1790.75
389.163	1824.75
389.387	1754.75
389.612	1767.75
389.837	1855.75
390.062	1846.75
390.287	1867.75
390.512	1855.75
390.736	1814.75
390.961	1770.75
391.186	1746.75
391.411	1796.75
391.636	1834.75
391.86	1850.75
392.085	1858.75
392.31	1838.75
392.534	1894.75
392.759	1890.75
392.984	1913.75
393.208	1976.75
393.433	2102.75
393.658	2228.75
393.882	2025.75
394.107	1825.75
394.331	1869.75
394.556	1857.75
394.78	1855.75
395.005	1920.75
395.229	1917.75
395.454	2080.75
395.678	2069.75
395.903	2060.75
396.127	1977.75
396.352	1916.75
396.576	2011.75
396.801	2082.75
397.025	2118.75
397.249	2109.75
397.474	2008.75
397.698	1992.75
397.922	1986.75
398.147	2059.75
398.371	2184.75
398.595	2156.75
398.82	2110.75
399.044	2170.75
399.268	2256.75
399.492	2380.75
399.717	2512.75
399.941	2508.75
400.165	2466.75
400.389	2369.75
400.613	2297.75
400.837	2446.75
401.062	2810.75
401.286	2431.75
401.51	2263.75
401.734	2327.75
401.958	2304.75
402.182	2168.75
402.406	2099.75
402.63	2069.75
402.854	2076.75
403.078	2175.75
403.302	2195.75
403.526	2249.75
403.75	2180.75
403.974	2226.75
404.198	2194.75
404.422	2190.75
404.645	2347.75
404.869	2262.75
405.093	2193.75
405.317	2130.75
405.541	2230.75
405.765	2262.75
405.988	2194.75
406.212	2282.75
406.436	2290.75
406.66	2298.75
406.883	2293.75
407.107	2526.75
407.331	2766.75
407.555	2947.75
407.778	2805.75
408.002	2401.75
408.226	2348.75
408.449	2319.75
408.673	2245.75
408.896	2248.75
409.12	2293.75
409.344	2231.75
409.567	2162.75
409.791	2194.75
410.014	2227.75
410.238	2266.75
410.461	2418.75
410.685	2230.75
410.908	2143.75
411.132	2196.75
411.355	2202.75
411.578	2125.75
411.802	2127.75
412.025	2163.75
412.249	2156.75
412.472	2093.75
412.695	2065.75
412.919	2067.75
413.142	2075.75
413.365	2139.75
413.589	2137.75
413.812	2168.75
414.035	2238.75
414.258	2134.75
414.482	2063.75
414.705	2084.75
414.928	2086.75
415.151	2066.75
415.374	2122.75
415.597	2142.75
415.821	2103.75
416.044	2233.75
416.267	2218.75
416.49	1987.75
416.713	2025.75
416.936	2083.75
417.159	2174.75
417.382	2115.75
417.605	2018.75
417.828	2164.75
418.051	2173.75
418.274	2114.75
418.497	2035.75
418.72	2051.75
418.943	2066.75
419.166	2156.75
419.389	2282.75
419.611	2155.75
419.834	2135.75
420.057	2120.75
420.28	2056.75
420.503	2038.75
420.726	2056.75
420.948	2048.75
421.171	2047.75
421.394	2051.75
421.617	2091.75
421.839	2063.75
422.062	2028.75
422.285	1960.75
422.507	1983.75
422.73	1976.75
422.953	1980.75
423.175	1950.75
423.398	2007.75
423.621	2044.75
423.843	2033.75
424.066	2084.75
424.288	2095.75
424.511	2121.75
424.733	2076.75
424.956	1938.75
425.178	1949.75
425.401	1963.75
425.623	1977.75
425.846	1947.75
426.068	2016.75
426.291	2046.75
426.513	2007.75
426.735	2027.75
426.958	2103.75
427.18	2198.75
427.402	2060.75
427.625	2118.75
427.847	2135.75
428.069	2019.75
428.292	1964.75
428.514	1912.75
428.736	1867.75
428.958	1954.75
429.181	1949.75
429.403	2162.75
429.625	2576.75
429.847	2318.75
430.069	1942.75
430.292	2129.75
430.514	2190.75
430.736	2088.75
430.958	2181.75
431.18	2111.75
431.402	1975.75
431.624	1927.75
431.846	1959.75
432.068	1924.75
432.29	1928.75
432.512	1992.75
432.734	1978.75
432.956	2025.75
433.178	2084.75
433.4	2081.75
433.622	2101.75
433.844	1969.75
434.066	1932.75
434.287	1914.75
434.509	1985.75
434.731	2118.75
434.953	2200.75
435.175	2202.75
435.397	2076.75
435.618	2057.75
435.84	2062.75
436.062	2019.75
436.284	2034.75
436.505	2065.75
436.727	2089.75
436.949	2044.75
437.17	1988.75
437.392	1956.75
437.614	1949.75
437.835	1932.75
438.057	2027.75
438.278	2134.75
438.5	1949.75
438.721	1932.75
438.943	1956.75
439.165	1954.75
439.386	1939.75
439.608	1939.75
439.829	1916.75
440.05	1978.75
440.272	1934.75
440.493	1900.75
440.715	1930.75
440.936	2045.75
441.158	2251.75
441.379	2198.75
441.6	2151.75
441.822	2110.75
442.043	2096.75
442.264	2064.75
442.486	1976.75
442.707	1951.75
442.928	1907.75
443.149	1988.75
443.371	2137.75
443.592	2211.75
443.813	2136.75
444.034	2122.75
444.255	2185.75
444.476	2179.75
444.698	2246.75
444.919	2226.75
445.14	2258.75
445.361	2267.75
445.582	2351.75
445.803	2220.75
446.024	2168.75
446.245	2160.75
446.466	2120.75
446.687	2024.75
446.908	2025.75
447.129	1990.75
447.35	2001.75
447.571	2007.75
447.792	1913.75
448.013	1900.75
448.234	1918.75
448.455	1966.75
448.675	2006.75
448.896	1807.75
449.117	1834.75
449.338	1887.75
449.559	1903.75
449.779	2103.75
450	2274.75
450.221	2420.75
450.442	2334.75
450.662	2067.75
450.883	1835.75
451.104	1804.75
451.324	1868.75
451.545	1899.75
451.766	1911.75
451.986	1822.75
452.207	1810.75
452.428	1748.75
452.648	1731.75
452.869	1776.75
453.089	1872.75
453.31	1855.75
453.53	1943.75
453.751	1860.75
453.971	1734.75
454.192	1820.75
454.412	1950.75
454.633	1846.75
454.853	1782.75
455.073	1664.75
455.294	1657.75
455.514	1668.75
455.734	1728.75
455.955	1734.75
456.175	1736.75
456.395	1723.75
456.616	1767.75
456.836	1796.75
457.056	1774.75
457.276	1722.75
457.497	1726.75
457.717	1686.75
457.937	1712.75
458.157	1764.75
458.377	1740.75
458.598	1732.75
458.818	1770.75
459.038	1833.75
459.258	1959.75
459.478	1920.75
459.698	1906.75
459.918	1940.75
460.138	2000.75
460.358	2072.75
460.578	2110.75
460.798	2178.75
461.018	2254.75
461.238	2133.75
461.458	2100.75
461.678	2111.75
461.898	2094.75
462.118	1996.75
462.338	2084.75
462.558	2130.75
462.777	2103.75
462.997	2193.75
463.217	2304.75
463.437	2372.75
463.657	2195.75
463.876	2139.75
464.096	2114.75
464.316	2096.75
464.536	2168.75
464.755	2192.75
464.975	2273.75
465.195	2153.75
465.414	2222.75
465.634	2196.75
465.854	2017.75
466.073	2127.75
466.293	2139.75
466.512	1873.75
466.732	1896.75
466.951	1972.75
467.171	1966.75
467.391	1930.75
467.61	1888.75
467.829	1861.75
468.049	1980.75
468.268	2139.75
468.488	2077.75
468.707	1998.75
468.927	1932.75
469.146	1890.75
469.365	1867.75
469.585	1863.75
469.804	1860.75
470.023	1896.75
470.243	1930.75
470.462	1904.75
470.681	1869.75
470.901	1940.75
471.12	1930.75
471.339	1885.75
471.558	1852.75
471.777	1841.75
471.997	1878.75
472.216	1850.75
472.435	1778.75
472.654	1812.75
472.873	1899.75
473.092	1992.75
473.311	1931.75
473.53	1819.75
473.749	1794.75
473.968	1851.75
474.187	1957.75
474.406	2073.75
474.625	1934.75
474.844	1911.75
475.063	1895.75
475.282	1916.75
475.501	1895.75
475.72	1855.75
475.939	1953.75
476.158	1960.75
476.377	1921.75
476.596	1914.75
476.814	2005.75
477.033	1991.75
477.252	2046.75
477.471	2119.75
477.69	2036.75
477.908	2003.75
478.127	2104.75
478.346	2302.75
478.564	2304.75
478.783	2280.75
479.002	2309.75
479.22	2237.75
479.439	2330.75
479.658	2594.75
479.876	2579.75
480.095	2276.75
480.313	2234.75
480.532	2104.75
480.751	2188.75
480.969	2192.75
481.188	2139.75
481.406	2115.75
481.624	2057.75
481.843	2102.75
482.061	2130.75
482.28	2163.75
482.498	2212.75
482.717	2222.75
482.935	2067.75
483.153	2059.75
483.372	2146.75
483.59	2107.75
483.808	2068.75
484.027	2127.75
484.245	2223.75
484.463	2495.75
484.681	2842.75
484.9	2346.75
485.118	2165.75
485.336	2125.75
485.554	2173.75
485.772	2282.75
485.99	2248.75
486.209	2278.75
486.427	2226.75
486.645	2186.75
486.863	2198.75
487.081	2265.75
487.299	2365.75
487.517	2281.75
487.735	2204.75
487.953	2171.75
488.171	2167.75
488.389	2117.75
488.607	2149.75
488.825	2288.75
489.043	2352.75
489.261	2169.75
489.479	2241.75
489.696	2327.75
489.914	2418.75
490.132	2334.75
490.35	2196.75
490.568	2336.75
490.786	2245.75
491.003	2162.75
491.221	2231.75
491.439	2312.75
491.657	2279.75
491.874	2310.75
492.092	2333.75
492.31	2294.75
492.527	2276.75
492.745	2264.75
492.963	2274.75
493.18	2352.75
493.398	2482.75
493.615	2584.75
493.833	2351.75
494.05	2295.75
494.268	2279.75
494.485	2325.75
494.703	2370.75
494.92	2246.75
495.138	2259.75
495.355	2334.75
495.573	2359.75
495.79	2558.75
496.008	2598.75
496.225	2414.75
496.442	2391.75
496.66	2452.75
496.877	2417.75
497.094	2549.75
497.312	2554.75
497.529	2502.75
497.746	2551.75
497.963	2984.75
498.181	3382.75
498.398	3096.75
498.615	2969.75
498.832	2995.75
499.049	2966.75
499.267	2982.75
499.484	3202.75
499.701	3462.75
499.918	3521.75
500.135	3811.75
500.352	4137.75
500.569	4030.75
500.786	4196.75
501.003	3959.75
501.22	3641.75
501.437	3530.75
501.654	3482.75
501.871	3396.75
502.088	3003.75
502.305	2974.75
502.522	2884.75
502.739	2696.75
502.956	2630.75
503.172	2598.75
503.389	2503.75
503.606	2477.75
503.823	2458.75
504.04	2462.75
504.256	2440.75
504.473	2490.75
504.69	2575.75
504.907	2395.75
505.123	2307.75
505.34	2340.75
505.557	2867.75
505.773	2551.75
505.99	2216.75
506.207	2159.75
506.423	2047.75
506.64	2112.75
506.856	2033.75
507.073	2247.75
507.289	2440.75
507.506	2304.75
507.722	2052.75
507.939	1944.75
508.155	2041.75
508.372	2058.75
508.588	1958.75
508.805	1931.75
509.021	1921.75
509.238	1906.75
509.454	1895.75
509.67	1886.75
509.887	1874.75
510.103	1885.75
510.319	1838.75
510.536	1975.75
510.752	1991.75
510.968	2002.75
511.184	2147.75
511.401	2142.75
511.617	1893.75
511.833	1848.75
512.049	1860.75
512.265	1801.75
512.481	1795.75
512.698	1905.75
512.914	2035.75
513.13	1936.75
513.346	1793.75
513.562	1830.75
513.778	1813.75
513.994	1923.75
514.21	1984.75
514.426	2011.75
514.642	2186.75
514.858	2104.75
515.074	1911.75
515.29	1882.75
515.506	1918.75
515.721	1909.75
515.937	1928.75
516.153	2289.75
516.369	2128.75
516.585	2032.75
516.801	1965.75
517.016	1959.75
517.232	2003.75
517.448	2055.75
517.664	2095.75
517.879	2058.75
518.095	2138.75
518.311	2108.75
518.527	1973.75
518.742	1953.75
518.958	1878.75
519.173	1891.75
519.389	1888.75
519.605	1889.75
519.82	1910.75
520.036	1916.75
520.251	1863.75
520.467	1866.75
520.682	1963.75
520.898	2086.75
521.113	1852.75
521.329	1822.75
521.544	1945.75
521.76	1904.75
521.975	1803.75
522.19	1767.75
522.406	1735.75
522.621	2003.75
522.836	2075.75
523.052	1745.75
523.267	1778.75
523.482	1803.75
523.698	1666.75
523.913	1650.75
524.128	1702.75
524.343	1758.75
524.559	1797.75
524.774	1732.75
524.989	1708.75
525.204	1698.75
525.419	1655.75
525.634	1662.75
525.849	1617.75
526.064	1667.75
526.28	1691.75
526.495	1629.75
526.71	1608.75
526.925	1646.75
527.14	1598.75
527.355	1608.75
527.57	1592.75
527.785	1650.75
527.999	1598.75
528.214	1558.75
528.429	1549.75
528.644	1559.75
528.859	1587.75
529.074	1608.75
529.289	1606.75
529.503	1620.75
529.718	1668.75
529.933	1635.75
530.148	1543.75
530.363	1579.75
530.577	1557.75
530.792	1621.75
531.007	1624.75
531.221	1596.75
531.436	1667.75
531.651	1657.75
531.865	1717.75
532.08	1632.75
532.295	1578.75
532.509	1529.75
532.724	1529.75
532.938	1608.75
533.153	1713.75
533.367	1654.75
533.582	1632.75
533.796	1608.75
534.011	1591.75
534.225	1590.75
534.44	1579.75
534.654	1551.75
534.868	1543.75
535.083	1599.75
535.297	1640.75
535.511	1578.75
535.726	1573.75
535.94	1550.75
536.154	1570.75
536.369	1520.75
536.583	1539.75
536.797	1513.75
537.011	1558.75
537.225	1490.75
537.44	1489.75
537.654	1530.75
537.868	1497.75
538.082	1450.75
538.296	1430.75
538.51	1434.75
538.724	1480.75
538.938	1427.75
539.153	1513.75
539.367	1533.75
539.581	1497.75
539.795	1561.75
540.009	1545.75
540.222	1523.75
540.436	1554.75
540.65	1670.75
540.864	1674.75
541.078	1595.75
541.292	1507.75
541.506	1508.75
541.72	1503.75
541.934	1510.75
542.147	1537.75
542.361	1525.75
542.575	1427.75
542.789	1438.75
543.002	1472.75
543.216	1433.75
543.43	1513.75
543.644	1567.75
543.857	1627.75
544.071	1538.75
544.285	1499.75
544.498	1486.75
544.712	1507.75
544.925	1535.75
545.139	1507.75
545.352	1489.75
545.566	1438.75
545.779	1435.75
545.993	1474.75
546.206	1452.75
546.42	1435.75
546.633	1428.75
546.847	1402.75
547.06	1422.75
547.274	1414.75
547.487	1440.75
547.7	1438.75
547.914	1485.75
548.127	1506.75
548.34	1494.75
548.554	1459.75
548.767	1461.75
548.98	1446.75
549.193	1444.75
549.407	1490.75
549.62	1494.75
549.833	1442.75
550.046	1446.75
550.259	1442.75
550.473	1422.75
550.686	1408.75
550.899	1408.75
551.112	1379.75
551.325	1366.75
551.538	1442.75
551.751	1566.75
551.964	1390.75
552.177	1395.75
552.39	1402.75
552.603	1448.75
552.816	1418.75
553.029	1464.75
553.242	1476.75
553.455	1432.75
553.667	1438.75
553.88	1435.75
554.093	1433.75
554.306	1314.75
554.519	1326.75
554.732	1308.75
554.944	1350.75
555.157	1351.75
555.37	1338.75
555.583	1360.75
555.795	1297.75
556.008	1282.75
556.221	1243.75
556.433	1242.75
556.646	1246.75
556.859	1221.75
557.071	1228.75
557.284	1220.75
557.496	1213.75
557.709	1207.75
557.921	1206.75
558.134	1190.75
558.346	1195.75
558.559	1179.75
558.771	1174.75
558.984	1146.75
559.196	1142.75
559.409	1148.75
559.621	1172.75
559.833	1164.75
560.046	1212.75
560.258	1171.75
560.47	1165.75
560.683	1167.75
560.895	1166.75
561.107	1161.75
561.32	1179.75
561.532	1171.75
561.744	1183.75
561.956	1147.75
562.168	1109.75
562.381	1111.75
562.593	1131.75
562.805	1130.75
563.017	1122.75
563.229	1135.75
563.441	1161.75
563.653	1161.75
563.865	1155.75
564.077	1145.75
564.289	1151.75
564.501	1190.75
564.713	1222.75
564.925	1236.75
565.137	1277.75
565.349	1212.75
565.561	1223.75
565.773	1241.75
565.985	1247.75
566.197	1300.75
566.408	1395.75
566.62	1411.75
566.832	1398.75
567.044	1450.75
567.255	1395.75
567.467	1460.75
567.679	1491.75
567.891	1522.75
568.102	1491.75
568.314	1434.75
568.526	1357.75
568.737	1322.75
568.949	1251.75
569.161	1188.75
569.372	1136.75
569.584	1120.75
569.795	1105.75
570.007	1094.75
570.218	1066.75
570.43	1028.75
570.641	1077.75
570.853	1076.75
571.064	1078.75
571.276	1066.75
571.487	1017.75
571.698	1000.75
571.91	957.75
572.121	972.75
572.333	947.75
572.544	952.75
572.755	925.75
572.966	925.75
573.178	909.75
573.389	940.75
573.6	915.75
573.811	992.75
574.023	936.75
574.234	887.75
574.445	867.75
574.656	887.75
574.867	874.75
575.078	868.75
575.289	879.75
575.501	858.75
575.712	849.75
575.923	857.75
576.134	862.75
576.345	862.75
576.556	838.75
576.767	835.75
576.978	800.75
577.188	817.75
577.399	830.75
577.61	830.75
577.821	805.75
578.032	801.75
578.243	806.75
578.454	786.75
578.665	795.75
578.875	788.75
579.086	780.75
579.297	788.75
579.508	780.75
579.718	789.75
579.929	786.75
580.14	747.75
580.35	784.75
580.561	784.75
580.772	812.75
580.982	807.75
581.193	759.75
581.403	746.75
581.614	744.75
581.825	724.75
582.035	715.75
582.246	744.75
582.456	738.75
582.667	738.75
582.877	744.75
583.087	731.75
583.298	721.75
583.508	713.75
583.719	727.75
583.929	735.75
584.139	742.75
584.35	691.75
584.56	708.75
584.77	711.75
584.981	690.75
585.191	718.75
585.401	754.75
585.611	705.75
585.821	734.75
586.032	682.75
586.242	706.75
586.452	665.75
586.662	710.75
586.872	713.75
587.082	717.75
587.292	727.75
587.502	715.75
587.713	724.75
587.923	725.75
588.133	712.75
588.343	717.75
588.553	692.75
588.762	690.75
588.972	687.75
589.182	730.75
589.392	754.75
589.602	705.75
589.812	726.75
590.022	708.75
590.232	679.75
590.441	688.75
590.651	713.75
590.861	718.75
591.071	680.75
591.281	701.75
591.49	692.75
591.7	712.75
591.91	700.75
592.119	694.75
592.329	702.75
592.539	709.75
592.748	735.75
592.958	737.75
593.167	735.75
593.377	728.75
593.587	754.75
593.796	736.75
594.006	756.75
594.215	736.75
594.424	730.75
594.634	704.75
594.843	716.75
595.053	718.75
595.262	696.75
595.472	694.75
595.681	697.75
595.89	675.75
596.1	659.75
596.309	674.75
596.518	648.75
596.727	668.75
596.937	638.75
597.146	604.75
597.355	610.75
597.564	628.75
597.774	607.75
597.983	636.75
598.192	617.75
598.401	599.75
598.61	598.75
598.819	588.75
599.028	603.75
599.237	597.75
599.446	579.75
599.655	568.75
599.864	592.75
600.073	594.75
600.282	582.75
600.491	575.75
600.7	544.75
600.909	575.75
601.118	562.75
601.327	568.75
601.536	571.75
601.745	576.75
601.953	558.75
602.162	555.75
602.371	579.75
602.58	554.75
602.789	577.75
602.997	563.75
603.206	568.75
603.415	547.75
603.623	554.75
603.832	536.75
604.041	539.75
604.249	539.75
604.458	532.75
604.666	535.75
604.875	554.75
605.084	534.75
605.292	543.75
605.501	548.75
605.709	526.75
605.918	530.75
606.126	546.75
606.334	507.75
606.543	520.75
606.751	533.75
606.96	574.75
607.168	527.75
607.376	492.75
607.585	515.75
607.793	545.75
608.001	510.75
608.21	522.75
608.418	514.75
608.626	527.75
608.834	503.75
609.043	512.75
609.251	514.75
609.459	523.75
609.667	518.75
609.875	524.75
610.083	541.75
610.291	541.75
610.499	562.75
610.707	519.75
610.916	498.75
611.124	508.75
611.332	512.75
611.54	505.75
611.748	513.75
611.955	496.75
612.163	472.75
612.371	480.75
612.579	508.75
612.787	491.75
612.995	498.75
613.203	504.75
613.411	498.75
613.618	478.75
613.826	515.75
614.034	493.75
614.242	500.75
614.449	514.75
614.657	484.75
614.865	482.75
615.072	489.75
615.28	501.75
615.488	498.75
615.695	507.75
615.903	502.75
616.111	494.75
616.318	498.75
616.526	496.75
616.733	467.75
616.941	494.75
617.148	460.75
617.356	471.75
617.563	443.75
617.771	485.75
617.978	476.75
618.185	480.75
618.393	451.75
618.6	459.75
618.807	451.75
619.015	474.75
619.222	454.75
619.429	455.75
619.637	460.75
619.844	462.75
620.051	461.75
620.258	466.75
620.466	436.75
620.673	434.75
620.88	426.75
621.087	408.75
621.294	455.75
621.501	474.75
621.708	449.75
621.915	457.75
622.122	450.75
622.329	459.75
622.536	444.75
622.743	453.75
622.95	416.75
623.157	416.75
623.364	436.75
623.571	409.75
623.778	448.75
623.985	443.75
624.192	427.75
624.399	424.75
624.606	428.75
624.812	421.75
625.019	400.75
625.226	425.75
625.433	407.75
625.639	407.75
625.846	401.75
626.053	390.75
626.259	379.75
626.466	393.75
626.673	380.75
626.879	371.75
627.086	370.75
627.293	382.75
627.499	387.75
627.706	425.75
627.912	414.75
628.119	406.75
628.325	410.75
628.532	376.75
628.738	390.75
628.945	392.75
629.151	383.75
629.357	386.75
629.564	376.75
629.77	374.75
629.976	383.75
630.183	371.75
630.389	371.75
630.595	385.75
630.802	378.75
631.008	370.75
631.214	368.75
631.42	365.75
631.627	368.75
631.833	338.75
632.039	353.75
632.245	363.75
632.451	358.75
632.657	354.75
632.863	359.75
633.069	373.75
633.275	374.75
633.481	350.75
633.688	344.75
633.893	342.75
634.099	343.75
634.305	347.75
634.511	327.75
634.717	323.75
634.923	339.75
635.129	332.75
635.335	327.75
635.541	345.75
635.747	330.75
635.952	342.75
636.158	342.75
636.364	341.75
636.57	339.75
636.775	329.75
636.981	336.75
637.187	348.75
637.392	343.75
637.598	337.75
637.804	329.75
638.009	333.75
638.215	311.75
638.421	314.75
638.626	329.75
638.832	339.75
639.037	306.75
639.243	303.75
639.448	327.75
639.654	312.75
639.859	317.75
640.065	325.75
640.27	316.75
640.475	309.75
640.681	323.75
640.886	308.75
641.091	333.75
641.297	317.75
641.502	286.75
641.707	299.75
641.913	323.75
642.118	309.75
642.323	310.75
642.528	318.75
642.733	305.75
642.939	306.75
643.144	314.75
643.349	301.75
643.554	326.75
643.759	304.75
643.964	290.75
644.169	300.75
644.374	300.75
644.579	322.75
644.784	278.75
644.989	302.75
645.194	291.75
645.399	307.75
645.604	295.75
645.809	330.75
646.014	287.75
646.219	282.75
646.423	292.75
646.628	324.75
646.833	289.75
647.038	320.75
647.243	317.75
647.447	307.75
647.652	314.75
647.857	307.75
648.062	284.75
648.266	306.75
648.471	308.75
648.676	308.75
648.88	318.75
649.085	315.75
649.289	318.75
649.494	302.75
649.698	290.75
649.903	295.75
650.107	286.75
650.312	287.75
650.516	290.75
650.721	268.75
650.925	280.75
651.13	259.75
651.334	248.75
651.539	266.75
651.743	274.75
651.947	271.75
652.152	261.75
652.356	263.75
652.56	243.75
652.764	236.75
652.969	250.75
653.173	224.75
653.377	227.75
653.581	222.75
653.785	222.75
653.99	236.75
654.194	215.75
654.398	231.75
654.602	226.75
654.806	215.75
655.01	231.75
655.214	220.75
655.418	220.75
655.622	229.75
655.826	250.75
656.03	235.75
656.234	239.75
656.438	249.75
656.642	233.75
656.846	232.75
657.049	219.75
657.253	220.75
657.457	184.75
657.661	189.75
657.865	188.75
658.068	182.75
658.272	171.75
658.476	155.75
658.68	152.75
658.883	156.75
659.087	141.75
659.291	139.75
659.494	123.75
659.698	134.75
659.901	126.75
660.105	130.75
660.309	125.75
660.512	115.75
660.716	117.75
660.919	124.75
661.123	106.75
661.326	103.75
661.53	99.75
661.733	110.75
661.936	87.75
662.14	90.75
662.343	99.75
662.546	86.75
662.75	90.75
662.953	83.75
663.156	81.75
663.36	88.75
663.563	88.75
663.766	89.75
663.969	90.75
664.173	89.75
664.376	80.75
664.579	83.75
664.782	95.75
664.985	99.75
665.188	94.75
665.391	87.75
665.594	75.75
665.797	87.75
666	85.75
666.203	87.75
666.406	82.75
666.609	72.75
666.812	82.75
667.015	83.75
667.218	79.75
667.421	94.75
667.624	80.75
667.827	99.75
668.03	83.75
668.232	80.75
668.435	76.75
668.638	88.75
668.841	94.75
669.043	81.75
669.246	74.75
669.449	82.75
669.651	89.75
669.854	85.75
670.057	73.75
670.259	87.75
670.462	76.75
670.665	83.75
670.867	91.75
671.07	80.75
671.272	74.75
671.475	81.75
671.677	74.75
671.88	83.75
672.082	88.75
672.284	73.75
672.487	86.75
672.689	83.75
672.892	75.75
