Data from WStandard_LampEnergy8_LIBS07252019.E.O._I.C._HRD10591_15-59-34-929.txt Node
Date: Thu Jul 25 15:59:34 EDT 2019
User: cochatt
Spectrometer: HR+D1059
Trigger mode: 1
Integration Time (sec): 1.000000E-1
Scans to average: 1
Electric dark correction enabled: true
Nonlinearity correction enabled: false
Boxcar width: 0
XAxis mode: Wavelengths
Number of Pixels in Spectrum: 2048
>>>>>Begin Spectral Data<<<<<
223.165	-14.5
223.4	-14.5
223.635	-14.5
223.869	-25.5
224.104	-10.5
224.338	-0.5
224.573	-2.5
224.808	-13.5
225.042	-14.5
225.277	-13.5
225.511	-4.5
225.746	-1.5
225.98	15.5
226.215	21.5
226.449	-1.5
226.683	19.5
226.918	21.5
227.152	24.5
227.387	25.5
227.621	39.5
227.856	47.5
228.09	36.5
228.324	59.5
228.559	59.5
228.793	94.5
229.027	199.5
229.262	200.5
229.496	214.5
229.73	221.5
229.964	237.5
230.199	260.5
230.433	285.5
230.667	275.5
230.901	289.5
231.136	263.5
231.37	260.5
231.604	245.5
231.838	270.5
232.072	266.5
232.306	246.5
232.541	263.5
232.775	305.5
233.009	344.5
233.243	312.5
233.477	303.5
233.711	297.5
233.945	309.5
234.179	304.5
234.413	315.5
234.647	329.5
234.881	311.5
235.115	287.5
235.349	292.5
235.583	291.5
235.817	294.5
236.051	305.5
236.285	294.5
236.519	332.5
236.753	328.5
236.987	348.5
237.221	359.5
237.455	362.5
237.689	358.5
237.922	343.5
238.156	349.5
238.39	327.5
238.624	338.5
238.858	401.5
239.091	403.5
239.325	403.5
239.559	487.5
239.793	498.5
240.027	528.5
240.26	506.5
240.494	388.5
240.728	369.5
240.961	369.5
241.195	371.5
241.429	414.5
241.662	414.5
241.896	372.5
242.13	376.5
242.363	440.5
242.597	449.5
242.83	452.5
243.064	476.5
243.298	485.5
243.531	463.5
243.765	458.5
243.998	447.5
244.232	415.5
244.465	391.5
244.699	404.5
244.932	437.5
245.166	530.5
245.399	495.5
245.633	454.5
245.866	446.5
246.099	489.5
246.333	488.5
246.566	488.5
246.8	514.5
247.033	597.5
247.266	518.5
247.5	504.5
247.733	535.5
247.966	553.5
248.2	609.5
248.433	615.5
248.666	628.5
248.899	676.5
249.133	765.5
249.366	815.5
249.599	660.5
249.832	618.5
250.066	641.5
250.299	653.5
250.532	588.5
250.765	522.5
250.998	568.5
251.231	562.5
251.465	603.5
251.698	577.5
251.931	564.5
252.164	606.5
252.397	608.5
252.63	613.5
252.863	546.5
253.096	533.5
253.329	583.5
253.562	578.5
253.795	610.5
254.028	606.5
254.261	561.5
254.494	585.5
254.727	551.5
254.96	594.5
255.193	637.5
255.426	711.5
255.659	791.5
255.892	806.5
256.124	667.5
256.357	645.5
256.59	710.5
256.823	721.5
257.056	733.5
257.289	811.5
257.521	913.5
257.754	809.5
257.987	800.5
258.22	838.5
258.452	790.5
258.685	703.5
258.918	666.5
259.151	687.5
259.383	669.5
259.616	576.5
259.849	614.5
260.081	678.5
260.314	769.5
260.547	817.5
260.779	856.5
261.012	759.5
261.244	707.5
261.477	672.5
261.71	691.5
261.942	688.5
262.175	667.5
262.407	719.5
262.64	654.5
262.872	636.5
263.105	637.5
263.337	644.5
263.57	634.5
263.802	618.5
264.035	602.5
264.267	581.5
264.499	589.5
264.732	602.5
264.964	644.5
265.197	689.5
265.429	695.5
265.661	775.5
265.894	853.5
266.126	823.5
266.358	773.5
266.591	798.5
266.823	857.5
267.055	787.5
267.287	784.5
267.52	763.5
267.752	755.5
267.984	742.5
268.216	807.5
268.448	807.5
268.681	783.5
268.913	739.5
269.145	695.5
269.377	705.5
269.609	767.5
269.841	901.5
270.073	1013.5
270.306	1093.5
270.538	1150.5
270.77	953.5
271.002	845.5
271.234	794.5
271.466	827.5
271.698	938.5
271.93	1061.5
272.162	1062.5
272.394	973.5
272.626	927.5
272.858	803.5
273.09	712.5
273.322	730.5
273.553	693.5
273.785	696.5
274.017	737.5
274.249	773.5
274.481	761.5
274.713	719.5
274.945	704.5
275.176	698.5
275.408	709.5
275.64	691.5
275.872	664.5
276.104	745.5
276.335	825.5
276.567	938.5
276.799	917.5
277.031	844.5
277.262	805.5
277.494	853.5
277.726	905.5
277.957	896.5
278.189	801.5
278.421	738.5
278.652	735.5
278.884	738.5
279.115	707.5
279.347	733.5
279.579	735.5
279.81	750.5
280.042	826.5
280.273	894.5
280.505	874.5
280.736	907.5
280.968	823.5
281.199	732.5
281.431	718.5
281.662	717.5
281.894	729.5
282.125	720.5
282.356	783.5
282.588	786.5
282.819	767.5
283.051	826.5
283.282	884.5
283.513	853.5
283.745	733.5
283.976	701.5
284.207	732.5
284.439	716.5
284.67	736.5
284.901	764.5
285.132	785.5
285.364	789.5
285.595	752.5
285.826	764.5
286.057	783.5
286.288	763.5
286.52	806.5
286.751	870.5
286.982	890.5
287.213	806.5
287.444	734.5
287.675	757.5
287.906	794.5
288.138	853.5
288.369	797.5
288.6	742.5
288.831	766.5
289.062	773.5
289.293	759.5
289.524	769.5
289.755	798.5
289.986	801.5
290.217	722.5
290.448	751.5
290.679	759.5
290.91	766.5
291.141	801.5
291.371	835.5
291.602	830.5
291.833	784.5
292.064	825.5
292.295	820.5
292.526	866.5
292.757	875.5
292.987	837.5
293.218	808.5
293.449	858.5
293.68	991.5
293.91	996.5
294.141	982.5
294.372	913.5
294.603	920.5
294.833	979.5
295.064	933.5
295.295	807.5
295.525	797.5
295.756	733.5
295.987	734.5
296.217	766.5
296.448	776.5
296.679	754.5
296.909	783.5
297.14	772.5
297.37	793.5
297.601	837.5
297.831	904.5
298.062	879.5
298.292	813.5
298.523	768.5
298.753	777.5
298.984	796.5
299.214	826.5
299.445	820.5
299.675	841.5
299.905	845.5
300.136	807.5
300.366	778.5
300.597	761.5
300.827	744.5
301.057	838.5
301.288	869.5
301.518	847.5
301.748	914.5
301.979	921.5
302.209	913.5
302.439	983.5
302.669	999.5
302.9	936.5
303.13	869.5
303.36	861.5
303.59	881.5
303.82	870.5
304.051	853.5
304.281	871.5
304.511	870.5
304.741	941.5
304.971	1037.5
305.201	1059.5
305.431	1011.5
305.661	800.5
305.891	773.5
306.121	785.5
306.352	803.5
306.582	873.5
306.812	895.5
307.042	977.5
307.272	997.5
307.502	995.5
307.731	1083.5
307.961	1092.5
308.191	991.5
308.421	891.5
308.651	845.5
308.881	862.5
309.111	845.5
309.341	816.5
309.571	836.5
309.8	822.5
310.03	823.5
310.26	818.5
310.49	805.5
310.72	849.5
310.949	899.5
311.179	882.5
311.409	887.5
311.639	842.5
311.868	854.5
312.098	862.5
312.328	843.5
312.557	835.5
312.787	865.5
313.017	870.5
313.246	878.5
313.476	875.5
313.706	877.5
313.935	905.5
314.165	901.5
314.394	900.5
314.624	982.5
314.853	1057.5
315.083	1055.5
315.312	1081.5
315.542	1000.5
315.771	887.5
316.001	935.5
316.23	945.5
316.46	977.5
316.689	955.5
316.919	888.5
317.148	860.5
317.377	907.5
317.607	972.5
317.836	1086.5
318.065	1116.5
318.295	1040.5
318.524	997.5
318.753	983.5
318.983	961.5
319.212	942.5
319.441	921.5
319.67	914.5
319.9	945.5
320.129	998.5
320.358	1029.5
320.587	1050.5
320.816	1029.5
321.046	983.5
321.275	945.5
321.504	1006.5
321.733	1051.5
321.962	1018.5
322.191	946.5
322.42	930.5
322.649	924.5
322.878	918.5
323.108	966.5
323.337	970.5
323.566	999.5
323.795	971.5
324.024	968.5
324.253	938.5
324.482	947.5
324.71	891.5
324.939	875.5
325.168	925.5
325.397	925.5
325.626	957.5
325.855	975.5
326.084	935.5
326.313	951.5
326.542	960.5
326.77	984.5
326.999	976.5
327.228	913.5
327.457	879.5
327.686	901.5
327.914	906.5
328.143	901.5
328.372	942.5
328.6	917.5
328.829	919.5
329.058	913.5
329.287	925.5
329.515	950.5
329.744	969.5
329.972	1011.5
330.201	1078.5
330.43	1014.5
330.658	993.5
330.887	990.5
331.115	978.5
331.344	985.5
331.572	983.5
331.801	953.5
332.03	963.5
332.258	1010.5
332.486	999.5
332.715	1034.5
332.943	1015.5
333.172	1016.5
333.4	1005.5
333.629	1042.5
333.857	1115.5
334.085	1246.5
334.314	1381.5
334.542	1442.5
334.771	1297.5
334.999	1161.5
335.227	1065.5
335.455	1066.5
335.684	1059.5
335.912	1114.5
336.14	1104.5
336.369	1055.5
336.597	1022.5
336.825	1013.5
337.053	1044.5
337.281	1105.5
337.51	1139.5
337.738	1157.5
337.966	1124.5
338.194	1005.5
338.422	999.5
338.65	969.5
338.878	965.5
339.106	975.5
339.334	937.5
339.562	953.5
339.79	979.5
340.018	1049.5
340.246	1064.5
340.474	1057.5
340.702	1010.5
340.93	1039.5
341.158	1036.5
341.386	1013.5
341.614	1001.5
341.842	976.5
342.07	981.5
342.298	988.5
342.526	950.5
342.754	973.5
342.981	987.5
343.209	1029.5
343.437	979.5
343.665	999.5
343.893	984.5
344.12	1036.5
344.348	1063.5
344.576	1000.5
344.804	991.5
345.031	982.5
345.259	979.5
345.487	949.5
345.714	922.5
345.942	914.5
346.17	919.5
346.397	964.5
346.625	921.5
346.853	897.5
347.08	889.5
347.308	887.5
347.535	916.5
347.763	955.5
347.99	926.5
348.218	887.5
348.445	909.5
348.673	941.5
348.9	948.5
349.128	982.5
349.355	979.5
349.583	965.5
349.81	945.5
350.037	889.5
350.265	878.5
350.492	877.5
350.72	906.5
350.947	935.5
351.174	963.5
351.402	907.5
351.629	880.5
351.856	853.5
352.083	848.5
352.311	886.5
352.538	907.5
352.765	957.5
352.992	960.5
353.22	911.5
353.447	911.5
353.674	904.5
353.901	898.5
354.128	915.5
354.355	872.5
354.583	950.5
354.81	947.5
355.037	961.5
355.264	969.5
355.491	942.5
355.718	941.5
355.945	931.5
356.172	879.5
356.399	861.5
356.626	902.5
356.853	938.5
357.08	1018.5
357.307	1114.5
357.534	1035.5
357.761	939.5
357.988	900.5
358.215	891.5
358.441	889.5
358.668	878.5
358.895	911.5
359.122	958.5
359.349	1053.5
359.576	1015.5
359.802	923.5
360.029	902.5
360.256	893.5
360.483	899.5
360.709	955.5
360.936	961.5
361.163	1036.5
361.39	1113.5
361.616	1187.5
361.843	1140.5
362.07	1042.5
362.296	925.5
362.523	906.5
362.749	940.5
362.976	943.5
363.203	939.5
363.429	924.5
363.656	895.5
363.882	947.5
364.109	1085.5
364.335	1085.5
364.562	1044.5
364.788	983.5
365.015	949.5
365.241	929.5
365.468	943.5
365.694	977.5
365.92	1000.5
366.147	929.5
366.373	915.5
366.599	888.5
366.826	919.5
367.052	888.5
367.278	926.5
367.505	922.5
367.731	969.5
367.957	943.5
368.184	989.5
368.41	1077.5
368.636	1067.5
368.862	1102.5
369.089	1058.5
369.315	1014.5
369.541	975.5
369.767	947.5
369.993	951.5
370.219	934.5
370.445	964.5
370.672	1021.5
370.898	1045.5
371.124	1057.5
371.35	982.5
371.576	1036.5
371.802	1057.5
372.028	1007.5
372.254	950.5
372.48	964.5
372.706	911.5
372.932	926.5
373.158	974.5
373.384	977.5
373.61	989.5
373.835	1063.5
374.061	970.5
374.287	984.5
374.513	973.5
374.739	1000.5
374.965	994.5
375.191	1011.5
375.416	1021.5
375.642	1014.5
375.868	1082.5
376.094	1106.5
376.319	1062.5
376.545	997.5
376.771	1045.5
376.997	1054.5
377.222	1053.5
377.448	1064.5
377.674	1062.5
377.899	1065.5
378.125	1120.5
378.35	1109.5
378.576	995.5
378.802	963.5
379.027	964.5
379.253	980.5
379.478	953.5
379.704	963.5
379.929	991.5
380.155	999.5
380.38	969.5
380.606	992.5
380.831	1016.5
381.057	1091.5
381.282	1056.5
381.507	1053.5
381.733	1133.5
381.958	1140.5
382.184	1083.5
382.409	1024.5
382.634	1030.5
382.86	1028.5
383.085	1025.5
383.31	1061.5
383.535	1187.5
383.761	1217.5
383.986	1174.5
384.211	1116.5
384.436	1107.5
384.662	1181.5
384.887	1199.5
385.112	1150.5
385.337	1139.5
385.562	1135.5
385.787	1135.5
386.013	1170.5
386.238	1156.5
386.463	1153.5
386.688	1275.5
386.913	1348.5
387.138	1281.5
387.363	1206.5
387.588	1140.5
387.813	1141.5
388.038	1194.5
388.263	1206.5
388.488	1147.5
388.713	1092.5
388.938	1099.5
389.163	1094.5
389.387	1146.5
389.612	1135.5
389.837	1142.5
390.062	1146.5
390.287	1138.5
390.512	1111.5
390.736	1103.5
390.961	1118.5
391.186	1094.5
391.411	1122.5
391.636	1107.5
391.86	1132.5
392.085	1091.5
392.31	1128.5
392.534	1140.5
392.759	1160.5
392.984	1143.5
393.208	1200.5
393.433	1163.5
393.658	1234.5
393.882	1233.5
394.107	1176.5
394.331	1158.5
394.556	1153.5
394.78	1173.5
395.005	1185.5
395.229	1231.5
395.454	1316.5
395.678	1317.5
395.903	1244.5
396.127	1206.5
396.352	1211.5
396.576	1268.5
396.801	1261.5
397.025	1272.5
397.249	1224.5
397.474	1229.5
397.698	1207.5
397.922	1285.5
398.147	1331.5
398.371	1340.5
398.595	1338.5
398.82	1314.5
399.044	1328.5
399.268	1378.5
399.492	1446.5
399.717	1478.5
399.941	1472.5
400.165	1478.5
400.389	1429.5
400.613	1434.5
400.837	1690.5
401.062	1814.5
401.286	1529.5
401.51	1440.5
401.734	1490.5
401.958	1457.5
402.182	1329.5
402.406	1308.5
402.63	1279.5
402.854	1292.5
403.078	1294.5
403.302	1333.5
403.526	1359.5
403.75	1389.5
403.974	1369.5
404.198	1313.5
404.422	1448.5
404.645	1517.5
404.869	1433.5
405.093	1334.5
405.317	1322.5
405.541	1357.5
405.765	1398.5
405.988	1389.5
406.212	1371.5
406.436	1422.5
406.66	1459.5
406.883	1497.5
407.107	1671.5
407.331	1830.5
407.555	1912.5
407.778	1711.5
408.002	1444.5
408.226	1405.5
408.449	1418.5
408.673	1369.5
408.896	1375.5
409.12	1391.5
409.344	1395.5
409.567	1330.5
409.791	1393.5
410.014	1429.5
410.238	1496.5
410.461	1552.5
410.685	1378.5
410.908	1337.5
411.132	1360.5
411.355	1340.5
411.578	1329.5
411.802	1364.5
412.025	1365.5
412.249	1332.5
412.472	1302.5
412.695	1309.5
412.919	1315.5
413.142	1291.5
413.365	1285.5
413.589	1392.5
413.812	1389.5
414.035	1443.5
414.258	1342.5
414.482	1320.5
414.705	1331.5
414.928	1276.5
415.151	1318.5
415.374	1307.5
415.597	1333.5
415.821	1321.5
416.044	1349.5
416.267	1353.5
416.49	1248.5
416.713	1227.5
416.936	1343.5
417.159	1394.5
417.382	1385.5
417.605	1309.5
417.828	1307.5
418.051	1349.5
418.274	1320.5
418.497	1241.5
418.72	1273.5
418.943	1267.5
419.166	1304.5
419.389	1355.5
419.611	1338.5
419.834	1331.5
420.057	1329.5
420.28	1268.5
420.503	1239.5
420.726	1306.5
420.948	1281.5
421.171	1232.5
421.394	1294.5
421.617	1325.5
421.839	1363.5
422.062	1348.5
422.285	1305.5
422.507	1283.5
422.73	1264.5
422.953	1226.5
423.175	1255.5
423.398	1287.5
423.621	1282.5
423.843	1286.5
424.066	1343.5
424.288	1397.5
424.511	1435.5
424.733	1350.5
424.956	1236.5
425.178	1224.5
425.401	1240.5
425.623	1257.5
425.846	1266.5
426.068	1344.5
426.291	1348.5
426.513	1317.5
426.735	1339.5
426.958	1449.5
427.18	1506.5
427.402	1365.5
427.625	1423.5
427.847	1394.5
428.069	1288.5
428.292	1265.5
428.514	1275.5
428.736	1250.5
428.958	1259.5
429.181	1273.5
429.403	1502.5
429.625	1797.5
429.847	1494.5
430.069	1295.5
430.292	1450.5
430.514	1461.5
430.736	1366.5
430.958	1378.5
431.18	1301.5
431.402	1230.5
431.624	1199.5
431.846	1178.5
432.068	1161.5
432.29	1146.5
432.512	1184.5
432.734	1269.5
432.956	1253.5
433.178	1337.5
433.4	1339.5
433.622	1318.5
433.844	1226.5
434.066	1235.5
434.287	1158.5
434.509	1229.5
434.731	1264.5
434.953	1347.5
435.175	1333.5
435.397	1273.5
435.618	1253.5
435.84	1221.5
436.062	1224.5
436.284	1279.5
436.505	1256.5
436.727	1313.5
436.949	1246.5
437.17	1270.5
437.392	1235.5
437.614	1223.5
437.835	1200.5
438.057	1242.5
438.278	1233.5
438.5	1222.5
438.721	1232.5
438.943	1237.5
439.165	1265.5
439.386	1234.5
439.608	1250.5
439.829	1252.5
440.05	1238.5
440.272	1247.5
440.493	1243.5
440.715	1313.5
440.936	1341.5
441.158	1416.5
441.379	1375.5
441.6	1404.5
441.822	1338.5
442.043	1365.5
442.264	1330.5
442.486	1285.5
442.707	1257.5
442.928	1298.5
443.149	1306.5
443.371	1331.5
443.592	1398.5
443.813	1378.5
444.034	1393.5
444.255	1362.5
444.476	1403.5
444.698	1420.5
444.919	1398.5
445.14	1522.5
445.361	1453.5
445.582	1463.5
445.803	1411.5
446.024	1357.5
446.245	1414.5
446.466	1378.5
446.687	1329.5
446.908	1349.5
447.129	1315.5
447.35	1324.5
447.571	1306.5
447.792	1259.5
448.013	1268.5
448.234	1281.5
448.455	1326.5
448.675	1319.5
448.896	1211.5
449.117	1192.5
449.338	1253.5
449.559	1297.5
449.779	1317.5
450	1408.5
450.221	1472.5
450.442	1439.5
450.662	1305.5
450.883	1192.5
451.104	1169.5
451.324	1177.5
451.545	1222.5
451.766	1191.5
451.986	1160.5
452.207	1135.5
452.428	1122.5
452.648	1063.5
452.869	1143.5
453.089	1147.5
453.31	1141.5
453.53	1174.5
453.751	1120.5
453.971	1053.5
454.192	1106.5
454.412	1174.5
454.633	1157.5
454.853	1123.5
455.073	1105.5
455.294	1053.5
455.514	1067.5
455.734	1074.5
455.955	1060.5
456.175	1091.5
456.395	1071.5
456.616	1076.5
456.836	1108.5
457.056	1103.5
457.276	1085.5
457.497	1049.5
457.717	1023.5
457.937	1075.5
458.157	1110.5
458.377	1037.5
458.598	994.5
458.818	1067.5
459.038	1122.5
459.258	1160.5
459.478	1145.5
459.698	1130.5
459.918	1149.5
460.138	1224.5
460.358	1234.5
460.578	1244.5
460.798	1279.5
461.018	1326.5
461.238	1307.5
461.458	1250.5
461.678	1253.5
461.898	1221.5
462.118	1223.5
462.338	1268.5
462.558	1255.5
462.777	1295.5
462.997	1293.5
463.217	1378.5
463.437	1350.5
463.657	1298.5
463.876	1244.5
464.096	1256.5
464.316	1274.5
464.536	1303.5
464.755	1346.5
464.975	1329.5
465.195	1295.5
465.414	1332.5
465.634	1315.5
465.854	1308.5
466.073	1415.5
466.293	1331.5
466.512	1221.5
466.732	1206.5
466.951	1245.5
467.171	1218.5
467.391	1224.5
467.61	1187.5
467.829	1239.5
468.049	1357.5
468.268	1465.5
468.488	1336.5
468.707	1241.5
468.927	1230.5
469.146	1220.5
469.365	1221.5
469.585	1205.5
469.804	1247.5
470.023	1261.5
470.243	1279.5
470.462	1233.5
470.681	1200.5
470.901	1239.5
471.12	1239.5
471.339	1217.5
471.558	1229.5
471.777	1201.5
471.997	1209.5
472.216	1176.5
472.435	1141.5
472.654	1126.5
472.873	1163.5
473.092	1229.5
473.311	1186.5
473.53	1140.5
473.749	1122.5
473.968	1178.5
474.187	1210.5
474.406	1265.5
474.625	1238.5
474.844	1224.5
475.063	1241.5
475.282	1235.5
475.501	1205.5
475.72	1227.5
475.939	1283.5
476.158	1217.5
476.377	1198.5
476.596	1205.5
476.814	1213.5
477.033	1249.5
477.252	1278.5
477.471	1310.5
477.69	1296.5
477.908	1289.5
478.127	1345.5
478.346	1404.5
478.564	1441.5
478.783	1445.5
479.002	1467.5
479.22	1409.5
479.439	1449.5
479.658	1576.5
479.876	1537.5
480.095	1393.5
480.313	1361.5
480.532	1319.5
480.751	1310.5
480.969	1297.5
481.188	1247.5
481.406	1252.5
481.624	1243.5
481.843	1256.5
482.061	1272.5
482.28	1348.5
482.498	1344.5
482.717	1317.5
482.935	1317.5
483.153	1339.5
483.372	1373.5
483.59	1376.5
483.808	1370.5
484.027	1329.5
484.245	1425.5
484.463	1724.5
484.681	1931.5
484.9	1482.5
485.118	1368.5
485.336	1357.5
485.554	1368.5
485.772	1417.5
485.99	1391.5
486.209	1393.5
486.427	1410.5
486.645	1371.5
486.863	1445.5
487.081	1507.5
487.299	1479.5
487.517	1506.5
487.735	1464.5
487.953	1497.5
488.171	1488.5
488.389	1494.5
488.607	1470.5
488.825	1584.5
489.043	1548.5
489.261	1437.5
489.479	1450.5
489.696	1475.5
489.914	1430.5
490.132	1434.5
490.35	1451.5
490.568	1530.5
490.786	1512.5
491.003	1511.5
491.221	1562.5
491.439	1621.5
491.657	1633.5
491.874	1646.5
492.092	1672.5
492.31	1723.5
492.527	1718.5
492.745	1623.5
492.963	1598.5
493.18	1616.5
493.398	1712.5
493.615	1697.5
493.833	1583.5
494.05	1541.5
494.268	1584.5
494.485	1597.5
494.703	1531.5
494.92	1590.5
495.138	1573.5
495.355	1585.5
495.573	1601.5
495.79	1682.5
496.008	1674.5
496.225	1587.5
496.442	1610.5
496.66	1599.5
496.877	1624.5
497.094	1674.5
497.312	1654.5
497.529	1651.5
497.746	1640.5
497.963	1849.5
498.181	2013.5
498.398	1908.5
498.615	1810.5
498.832	1761.5
499.049	1732.5
499.267	1810.5
499.484	1846.5
499.701	2007.5
499.918	2051.5
500.135	2221.5
500.352	2367.5
500.569	2304.5
500.786	2562.5
501.003	2287.5
501.22	2135.5
501.437	2090.5
501.654	2098.5
501.871	2000.5
502.088	1801.5
502.305	1806.5
502.522	1683.5
502.739	1615.5
502.956	1575.5
503.172	1536.5
503.389	1503.5
503.606	1464.5
503.823	1505.5
504.04	1496.5
504.256	1481.5
504.473	1519.5
504.69	1559.5
504.907	1486.5
505.123	1410.5
505.34	1537.5
505.557	2036.5
505.773	1638.5
505.99	1416.5
506.207	1306.5
506.423	1310.5
506.64	1289.5
506.856	1327.5
507.073	1503.5
507.289	1587.5
507.506	1502.5
507.722	1293.5
507.939	1222.5
508.155	1261.5
508.372	1238.5
508.588	1201.5
508.805	1183.5
509.021	1200.5
509.238	1139.5
509.454	1150.5
509.67	1173.5
509.887	1142.5
510.103	1150.5
510.319	1162.5
510.536	1220.5
510.752	1226.5
510.968	1223.5
511.184	1321.5
511.401	1257.5
511.617	1137.5
511.833	1100.5
512.049	1123.5
512.265	1076.5
512.481	1093.5
512.698	1139.5
512.914	1207.5
513.13	1173.5
513.346	1128.5
513.562	1101.5
513.778	1108.5
513.994	1168.5
514.21	1189.5
514.426	1212.5
514.642	1342.5
514.858	1263.5
515.074	1137.5
515.29	1111.5
515.506	1146.5
515.721	1192.5
515.937	1183.5
516.153	1322.5
516.369	1245.5
516.585	1177.5
516.801	1153.5
517.016	1146.5
517.232	1212.5
517.448	1203.5
517.664	1234.5
517.879	1224.5
518.095	1280.5
518.311	1240.5
518.527	1199.5
518.742	1185.5
518.958	1153.5
519.173	1137.5
519.389	1147.5
519.605	1206.5
519.82	1199.5
520.036	1192.5
520.251	1170.5
520.467	1146.5
520.682	1285.5
520.898	1251.5
521.113	1124.5
521.329	1100.5
521.544	1197.5
521.76	1121.5
521.975	1111.5
522.19	1094.5
522.406	1089.5
522.621	1392.5
522.836	1320.5
523.052	1095.5
523.267	1112.5
523.482	1090.5
523.698	1072.5
523.913	1073.5
524.128	1078.5
524.343	1139.5
524.559	1181.5
524.774	1110.5
524.989	1092.5
525.204	1065.5
525.419	1074.5
525.634	1017.5
525.849	1049.5
526.064	1045.5
526.28	1071.5
526.495	1000.5
526.71	996.5
526.925	998.5
527.14	971.5
527.355	954.5
527.57	971.5
527.785	1027.5
527.999	988.5
528.214	1008.5
528.429	1031.5
528.644	1013.5
528.859	1082.5
529.074	1078.5
529.289	1111.5
529.503	1093.5
529.718	1081.5
529.933	993.5
530.148	976.5
530.363	951.5
530.577	1014.5
530.792	1020.5
531.007	1028.5
531.221	995.5
531.436	971.5
531.651	990.5
531.865	1088.5
532.08	1056.5
532.295	967.5
532.509	945.5
532.724	963.5
532.938	1006.5
533.153	1064.5
533.367	1031.5
533.582	1017.5
533.796	1021.5
534.011	1015.5
534.225	1024.5
534.44	985.5
534.654	959.5
534.868	938.5
535.083	1039.5
535.297	1042.5
535.511	996.5
535.726	1009.5
535.94	981.5
536.154	992.5
536.369	961.5
536.583	931.5
536.797	944.5
537.011	951.5
537.225	910.5
537.44	934.5
537.654	969.5
537.868	917.5
538.082	886.5
538.296	915.5
538.51	918.5
538.724	930.5
538.938	961.5
539.153	1015.5
539.367	1014.5
539.581	970.5
539.795	1019.5
540.009	970.5
540.222	949.5
540.436	978.5
540.65	1066.5
540.864	1087.5
541.078	1071.5
541.292	1021.5
541.506	1068.5
541.72	1122.5
541.934	1165.5
542.147	1153.5
542.361	1114.5
542.575	1072.5
542.789	1028.5
543.002	977.5
543.216	963.5
543.43	1029.5
543.644	1073.5
543.857	1111.5
544.071	1113.5
544.285	1101.5
544.498	1075.5
544.712	1074.5
544.925	1133.5
545.139	1119.5
545.352	1093.5
545.566	1053.5
545.779	1029.5
545.993	1078.5
546.206	1090.5
546.42	1086.5
546.633	1068.5
546.847	1041.5
547.06	1086.5
547.274	1077.5
547.487	1094.5
547.7	1063.5
547.914	1076.5
548.127	1097.5
548.34	1081.5
548.554	1047.5
548.767	1070.5
548.98	1068.5
549.193	1064.5
549.407	1115.5
549.62	1119.5
549.833	1072.5
550.046	1042.5
550.259	1034.5
550.473	1031.5
550.686	1007.5
550.899	1016.5
551.112	993.5
551.325	978.5
551.538	1063.5
551.751	1171.5
551.964	903.5
552.177	945.5
552.39	959.5
552.603	1000.5
552.816	1003.5
553.029	1097.5
553.242	1076.5
553.455	1063.5
553.667	1021.5
553.88	1018.5
554.093	1014.5
554.306	1002.5
554.519	983.5
554.732	951.5
554.944	945.5
555.157	982.5
555.37	938.5
555.583	939.5
555.795	923.5
556.008	915.5
556.221	855.5
556.433	830.5
556.646	864.5
556.859	886.5
557.071	855.5
557.284	881.5
557.496	883.5
557.709	862.5
557.921	835.5
558.134	870.5
558.346	871.5
558.559	853.5
558.771	849.5
558.984	844.5
559.196	826.5
559.409	805.5
559.621	780.5
559.833	839.5
560.046	854.5
560.258	831.5
560.47	822.5
560.683	822.5
560.895	810.5
561.107	828.5
561.32	820.5
561.532	842.5
561.744	804.5
561.956	852.5
562.168	780.5
562.381	778.5
562.593	776.5
562.805	796.5
563.017	761.5
563.229	783.5
563.441	800.5
563.653	810.5
563.865	807.5
564.077	769.5
564.289	743.5
564.501	776.5
564.713	814.5
564.925	818.5
565.137	868.5
565.349	790.5
565.561	793.5
565.773	803.5
565.985	832.5
566.197	890.5
566.408	922.5
566.62	896.5
566.832	898.5
567.044	899.5
567.255	883.5
567.467	901.5
567.679	934.5
567.891	927.5
568.102	912.5
568.314	868.5
568.526	821.5
568.737	767.5
568.949	726.5
569.161	705.5
569.372	692.5
569.584	705.5
569.795	690.5
570.007	665.5
570.218	637.5
570.43	657.5
570.641	630.5
570.853	685.5
571.064	685.5
571.276	641.5
571.487	655.5
571.698	664.5
571.91	617.5
572.121	622.5
572.333	618.5
572.544	613.5
572.755	618.5
572.966	584.5
573.178	566.5
573.389	571.5
573.6	605.5
573.811	647.5
574.023	617.5
574.234	573.5
574.445	558.5
574.656	565.5
574.867	564.5
575.078	558.5
575.289	550.5
575.501	573.5
575.712	567.5
575.923	560.5
576.134	558.5
576.345	563.5
576.556	549.5
576.767	525.5
576.978	533.5
577.188	529.5
577.399	530.5
577.61	526.5
577.821	529.5
578.032	495.5
578.243	542.5
578.454	517.5
578.665	526.5
578.875	487.5
579.086	492.5
579.297	491.5
579.508	502.5
579.718	496.5
579.929	497.5
580.14	483.5
580.35	509.5
580.561	498.5
580.772	569.5
580.982	514.5
581.193	502.5
581.403	490.5
581.614	493.5
581.825	464.5
582.035	485.5
582.246	473.5
582.456	483.5
582.667	477.5
582.877	502.5
583.087	469.5
583.298	449.5
583.508	474.5
583.719	479.5
583.929	465.5
584.139	451.5
584.35	458.5
584.56	442.5
584.77	457.5
584.981	489.5
585.191	468.5
585.401	477.5
585.611	479.5
585.821	455.5
586.032	447.5
586.242	440.5
586.452	434.5
586.662	452.5
586.872	459.5
587.082	451.5
587.292	459.5
587.502	463.5
587.713	472.5
587.923	449.5
588.133	450.5
588.343	444.5
588.553	464.5
588.762	465.5
588.972	467.5
589.182	438.5
589.392	449.5
589.602	459.5
589.812	458.5
590.022	436.5
590.232	457.5
590.441	451.5
590.651	452.5
590.861	454.5
591.071	441.5
591.281	436.5
591.49	427.5
591.7	430.5
591.91	447.5
592.119	447.5
592.329	460.5
592.539	479.5
592.748	470.5
592.958	463.5
593.167	481.5
593.377	463.5
593.587	479.5
593.796	470.5
594.006	447.5
594.215	474.5
594.424	467.5
594.634	463.5
594.843	456.5
595.053	474.5
595.262	436.5
595.472	456.5
595.681	434.5
595.89	449.5
596.1	416.5
596.309	438.5
596.518	439.5
596.727	444.5
596.937	430.5
597.146	391.5
597.355	408.5
597.564	435.5
597.774	421.5
597.983	385.5
598.192	391.5
598.401	391.5
598.61	409.5
598.819	399.5
599.028	387.5
599.237	412.5
599.446	374.5
599.655	399.5
599.864	390.5
600.073	408.5
600.282	381.5
600.491	378.5
600.7	385.5
600.909	395.5
601.118	388.5
601.327	407.5
601.536	415.5
601.745	399.5
601.953	421.5
602.162	420.5
602.371	409.5
602.58	406.5
602.789	408.5
602.997	427.5
603.206	410.5
603.415	420.5
603.623	425.5
603.832	402.5
604.041	379.5
604.249	399.5
604.458	387.5
604.666	375.5
604.875	381.5
605.084	386.5
605.292	426.5
605.501	402.5
605.709	420.5
605.918	410.5
606.126	405.5
606.334	396.5
606.543	418.5
606.751	386.5
606.96	409.5
607.168	385.5
607.376	391.5
607.585	403.5
607.793	410.5
608.001	421.5
608.21	400.5
608.418	387.5
608.626	411.5
608.834	393.5
609.043	426.5
609.251	394.5
609.459	393.5
609.667	390.5
609.875	394.5
610.083	408.5
610.291	410.5
610.499	389.5
610.707	397.5
610.916	420.5
611.124	393.5
611.332	401.5
611.54	412.5
611.748	387.5
611.955	387.5
612.163	377.5
612.371	406.5
612.579	408.5
612.787	377.5
612.995	399.5
613.203	411.5
613.411	407.5
613.618	390.5
613.826	387.5
614.034	395.5
614.242	410.5
614.449	391.5
614.657	401.5
614.865	381.5
615.072	374.5
615.28	377.5
615.488	392.5
615.695	408.5
615.903	392.5
616.111	389.5
616.318	403.5
616.526	380.5
616.733	379.5
616.941	398.5
617.148	401.5
617.356	374.5
617.563	371.5
617.771	375.5
617.978	368.5
618.185	361.5
618.393	379.5
618.6	370.5
618.807	372.5
619.015	383.5
619.222	370.5
619.429	356.5
619.637	377.5
619.844	337.5
620.051	346.5
620.258	357.5
620.466	357.5
620.673	331.5
620.88	341.5
621.087	348.5
621.294	351.5
621.501	343.5
621.708	360.5
621.915	362.5
622.122	348.5
622.329	350.5
622.536	351.5
622.743	358.5
622.95	340.5
623.157	326.5
623.364	358.5
623.571	346.5
623.778	334.5
623.985	338.5
624.192	355.5
624.399	359.5
624.606	346.5
624.812	345.5
625.019	338.5
625.226	324.5
625.433	341.5
625.639	310.5
625.846	298.5
626.053	323.5
626.259	299.5
626.466	292.5
626.673	287.5
626.879	287.5
627.086	295.5
627.293	294.5
627.499	291.5
627.706	300.5
627.912	323.5
628.119	319.5
628.325	321.5
628.532	320.5
628.738	305.5
628.945	340.5
629.151	317.5
629.357	314.5
629.564	319.5
629.77	319.5
629.976	331.5
630.183	298.5
630.389	298.5
630.595	307.5
630.802	293.5
631.008	296.5
631.214	297.5
631.42	292.5
631.627	279.5
631.833	281.5
632.039	295.5
632.245	308.5
632.451	306.5
632.657	295.5
632.863	287.5
633.069	289.5
633.275	282.5
633.481	276.5
633.688	273.5
633.893	268.5
634.099	283.5
634.305	289.5
634.511	285.5
634.717	263.5
634.923	253.5
635.129	258.5
635.335	261.5
635.541	279.5
635.747	271.5
635.952	270.5
636.158	301.5
636.364	293.5
636.57	286.5
636.775	283.5
636.981	282.5
637.187	279.5
637.392	284.5
637.598	269.5
637.804	282.5
638.009	279.5
638.215	271.5
638.421	260.5
638.626	264.5
638.832	259.5
639.037	272.5
639.243	263.5
639.448	256.5
639.654	277.5
639.859	281.5
640.065	254.5
640.27	277.5
640.475	266.5
640.681	268.5
640.886	271.5
641.091	253.5
641.297	263.5
641.502	255.5
641.707	262.5
641.913	267.5
642.118	268.5
642.323	257.5
642.528	264.5
642.733	265.5
642.939	252.5
643.144	246.5
643.349	267.5
643.554	259.5
643.759	245.5
643.964	255.5
644.169	257.5
644.374	262.5
644.579	258.5
644.784	277.5
644.989	262.5
645.194	265.5
645.399	250.5
645.604	245.5
645.809	244.5
646.014	263.5
646.219	255.5
646.423	267.5
646.628	263.5
646.833	264.5
647.038	265.5
647.243	265.5
647.447	244.5
647.652	264.5
647.857	254.5
648.062	269.5
648.266	261.5
648.471	280.5
648.676	292.5
648.88	271.5
649.085	245.5
649.289	257.5
649.494	236.5
649.698	262.5
649.903	242.5
650.107	253.5
650.312	254.5
650.516	252.5
650.721	237.5
650.925	240.5
651.13	245.5
651.334	240.5
651.539	241.5
651.743	230.5
651.947	239.5
652.152	229.5
652.356	231.5
652.56	227.5
652.764	204.5
652.969	218.5
653.173	223.5
653.377	225.5
653.581	240.5
653.785	225.5
653.99	221.5
654.194	224.5
654.398	214.5
654.602	204.5
654.806	201.5
655.01	213.5
655.214	230.5
655.418	233.5
655.622	223.5
655.826	222.5
656.03	245.5
656.234	262.5
656.438	265.5
656.642	275.5
656.846	250.5
657.049	231.5
657.253	224.5
657.457	192.5
657.661	206.5
657.865	200.5
658.068	169.5
658.272	159.5
658.476	158.5
658.68	139.5
658.883	147.5
659.087	161.5
659.291	138.5
659.494	131.5
659.698	140.5
659.901	139.5
660.105	127.5
660.309	118.5
660.512	119.5
660.716	117.5
660.919	117.5
661.123	115.5
661.326	111.5
661.53	104.5
661.733	97.5
661.936	91.5
662.14	103.5
662.343	104.5
662.546	102.5
662.75	82.5
662.953	97.5
663.156	83.5
663.36	97.5
663.563	91.5
663.766	85.5
663.969	85.5
664.173	80.5
664.376	94.5
664.579	79.5
664.782	85.5
664.985	84.5
665.188	75.5
665.391	81.5
665.594	81.5
665.797	86.5
666	87.5
666.203	72.5
666.406	70.5
666.609	77.5
666.812	81.5
667.015	71.5
667.218	86.5
667.421	66.5
667.624	79.5
667.827	81.5
668.03	77.5
668.232	69.5
668.435	80.5
668.638	81.5
668.841	92.5
669.043	85.5
669.246	82.5
669.449	65.5
669.651	81.5
669.854	80.5
670.057	79.5
670.259	80.5
670.462	80.5
670.665	71.5
670.867	91.5
671.07	74.5
671.272	81.5
671.475	87.5
671.677	75.5
671.88	90.5
672.082	89.5
672.284	86.5
672.487	97.5
672.689	90.5
672.892	78.5
