Data from WStandard_LampEnergy5.5LIBS07252019.E.O._I.C._HRD10591_16-07-43-920.txt Node
Date: Thu Jul 25 16:07:43 EDT 2019
User: cochatt
Spectrometer: HR+D1059
Trigger mode: 1
Integration Time (sec): 1.000000E-1
Scans to average: 1
Electric dark correction enabled: true
Nonlinearity correction enabled: false
Boxcar width: 0
XAxis mode: Wavelengths
Number of Pixels in Spectrum: 2048
>>>>>Begin Spectral Data<<<<<
223.165	-23.19
223.4	-23.19
223.635	-23.19
223.869	-16.19
224.104	-20.19
224.338	-13.19
224.573	-26.19
224.808	-17.19
225.042	0.81
225.277	-22.19
225.511	0.81
225.746	9.81
225.98	10.81
226.215	18.81
226.449	16.81
226.683	17.81
226.918	34.81
227.152	27.81
227.387	37.81
227.621	34.81
227.856	36.81
228.09	43.81
228.324	40.81
228.559	46.81
228.793	144.81
229.027	362.81
229.262	378.81
229.496	392.81
229.73	390.81
229.964	425.81
230.199	462.81
230.433	461.81
230.667	534.81
230.901	537.81
231.136	523.81
231.37	476.81
231.604	475.81
231.838	466.81
232.072	496.81
232.306	464.81
232.541	486.81
232.775	556.81
233.009	605.81
233.243	576.81
233.477	535.81
233.711	550.81
233.945	559.81
234.179	540.81
234.413	590.81
234.647	652.81
234.881	594.81
235.115	570.81
235.349	553.81
235.583	572.81
235.817	562.81
236.051	542.81
236.285	566.81
236.519	603.81
236.753	664.81
236.987	696.81
237.221	662.81
237.455	765.81
237.689	734.81
237.922	710.81
238.156	686.81
238.39	670.81
238.624	719.81
238.858	756.81
239.091	804.81
239.325	810.81
239.559	943.81
239.793	975.81
240.027	1077.81
240.26	1052.81
240.494	768.81
240.728	710.81
240.961	708.81
241.195	743.81
241.429	846.81
241.662	852.81
241.896	786.81
242.13	778.81
242.363	829.81
242.597	924.81
242.83	902.81
243.064	898.81
243.298	965.81
243.531	950.81
243.765	954.81
243.998	954.81
244.232	832.81
244.465	792.81
244.699	807.81
244.932	909.81
245.166	1080.81
245.399	1024.81
245.633	920.81
245.866	902.81
246.099	939.81
246.333	946.81
246.566	966.81
246.8	1057.81
247.033	1206.81
247.266	1094.81
247.5	1082.81
247.733	1052.81
247.966	1114.81
248.2	1265.81
248.433	1185.81
248.666	1215.81
248.899	1322.81
249.133	1567.81
249.366	1790.81
249.599	1406.81
249.832	1244.81
250.066	1270.81
250.299	1345.81
250.532	1240.81
250.765	1106.81
250.998	1194.81
251.231	1204.81
251.465	1268.81
251.698	1224.81
251.931	1180.81
252.164	1238.81
252.397	1281.81
252.63	1274.81
252.863	1135.81
253.096	1114.81
253.329	1164.81
253.562	1198.81
253.795	1307.81
254.028	1316.81
254.261	1195.81
254.494	1185.81
254.727	1125.81
254.96	1177.81
255.193	1245.81
255.426	1443.81
255.659	1646.81
255.892	1706.81
256.124	1393.81
256.357	1306.81
256.59	1469.81
256.823	1426.81
257.056	1409.81
257.289	1737.81
257.521	1956.81
257.754	1740.81
257.987	1626.81
258.22	1789.81
258.452	1825.81
258.685	1414.81
258.918	1371.81
259.151	1419.81
259.383	1353.81
259.616	1172.81
259.849	1272.81
260.081	1371.81
260.314	1594.81
260.547	1698.81
260.779	1803.81
261.012	1621.81
261.244	1461.81
261.477	1390.81
261.71	1403.81
261.942	1440.81
262.175	1378.81
262.407	1484.81
262.64	1388.81
262.872	1282.81
263.105	1275.81
263.337	1311.81
263.57	1302.81
263.802	1338.81
264.035	1243.81
264.267	1145.81
264.499	1135.81
264.732	1247.81
264.964	1353.81
265.197	1386.81
265.429	1429.81
265.661	1606.81
265.894	1766.81
266.126	1801.81
266.358	1618.81
266.591	1675.81
266.823	1832.81
267.055	1660.81
267.287	1591.81
267.52	1563.81
267.752	1584.81
267.984	1566.81
268.216	1633.81
268.448	1722.81
268.681	1698.81
268.913	1519.81
269.145	1482.81
269.377	1423.81
269.609	1540.81
269.841	1806.81
270.073	2056.81
270.306	2310.81
270.538	2428.81
270.77	2089.81
271.002	1769.81
271.234	1654.81
271.466	1650.81
271.698	1844.81
271.93	2253.81
272.162	2246.81
272.394	2005.81
272.626	1919.81
272.858	1668.81
273.09	1483.81
273.322	1496.81
273.553	1392.81
273.785	1428.81
274.017	1457.81
274.249	1561.81
274.481	1594.81
274.713	1464.81
274.945	1424.81
275.176	1422.81
275.408	1395.81
275.64	1393.81
275.872	1389.81
276.104	1462.81
276.335	1654.81
276.567	1882.81
276.799	1915.81
277.031	1712.81
277.262	1633.81
277.494	1692.81
277.726	1864.81
277.957	1874.81
278.189	1705.81
278.421	1556.81
278.652	1528.81
278.884	1495.81
279.115	1470.81
279.347	1536.81
279.579	1474.81
279.81	1471.81
280.042	1663.81
280.273	1806.81
280.505	1812.81
280.736	1873.81
280.968	1719.81
281.199	1515.81
281.431	1455.81
281.662	1482.81
281.894	1436.81
282.125	1463.81
282.356	1538.81
282.588	1549.81
282.819	1563.81
283.051	1666.81
283.282	1827.81
283.513	1737.81
283.745	1540.81
283.976	1428.81
284.207	1434.81
284.439	1472.81
284.67	1486.81
284.901	1538.81
285.132	1594.81
285.364	1560.81
285.595	1580.81
285.826	1541.81
286.057	1550.81
286.288	1478.81
286.52	1593.81
286.751	1684.81
286.982	1790.81
287.213	1611.81
287.444	1473.81
287.675	1466.81
287.906	1577.81
288.138	1652.81
288.369	1614.81
288.6	1521.81
288.831	1467.81
289.062	1536.81
289.293	1536.81
289.524	1520.81
289.755	1575.81
289.986	1602.81
290.217	1488.81
290.448	1481.81
290.679	1587.81
290.91	1572.81
291.141	1593.81
291.371	1652.81
291.602	1634.81
291.833	1611.81
292.064	1676.81
292.295	1592.81
292.526	1662.81
292.757	1749.81
292.987	1664.81
293.218	1584.81
293.449	1686.81
293.68	1910.81
293.91	2073.81
294.141	1893.81
294.372	1798.81
294.603	1839.81
294.833	1926.81
295.064	1818.81
295.295	1660.81
295.525	1614.81
295.756	1505.81
295.987	1424.81
296.217	1481.81
296.448	1534.81
296.679	1523.81
296.909	1523.81
297.14	1507.81
297.37	1563.81
297.601	1610.81
297.831	1722.81
298.062	1770.81
298.292	1628.81
298.523	1523.81
298.753	1571.81
298.984	1587.81
299.214	1540.81
299.445	1585.81
299.675	1634.81
299.905	1638.81
300.136	1612.81
300.366	1561.81
300.597	1520.81
300.827	1486.81
301.057	1554.81
301.288	1646.81
301.518	1659.81
301.748	1664.81
301.979	1754.81
302.209	1734.81
302.439	1868.81
302.669	1957.81
302.9	1865.81
303.13	1689.81
303.36	1686.81
303.59	1705.81
303.82	1705.81
304.051	1631.81
304.281	1662.81
304.511	1680.81
304.741	1732.81
304.971	1913.81
305.201	2059.81
305.431	1994.81
305.661	1650.81
305.891	1472.81
306.121	1462.81
306.352	1495.81
306.582	1568.81
306.812	1675.81
307.042	1840.81
307.272	1804.81
307.502	1865.81
307.731	2025.81
307.961	2196.81
308.191	2055.81
308.421	1743.81
308.651	1632.81
308.881	1598.81
309.111	1626.81
309.341	1547.81
309.571	1601.81
309.8	1587.81
310.03	1599.81
310.26	1607.81
310.49	1598.81
310.72	1596.81
310.949	1691.81
311.179	1711.81
311.409	1698.81
311.639	1624.81
311.868	1619.81
312.098	1638.81
312.328	1590.81
312.557	1621.81
312.787	1640.81
313.017	1680.81
313.246	1665.81
313.476	1666.81
313.706	1732.81
313.935	1673.81
314.165	1709.81
314.394	1754.81
314.624	1844.81
314.853	1950.81
315.083	2012.81
315.312	2084.81
315.542	1979.81
315.771	1729.81
316.001	1708.81
316.23	1817.81
316.46	1794.81
316.689	1774.81
316.919	1667.81
317.148	1633.81
317.377	1650.81
317.607	1769.81
317.836	1957.81
318.065	2080.81
318.295	2010.81
318.524	1890.81
318.753	1801.81
318.983	1828.81
319.212	1800.81
319.441	1738.81
319.67	1706.81
319.9	1762.81
320.129	1860.81
320.358	1910.81
320.587	1964.81
320.816	1942.81
321.046	1919.81
321.275	1835.81
321.504	1834.81
321.733	1986.81
321.962	1916.81
322.191	1741.81
322.42	1767.81
322.649	1746.81
322.878	1720.81
323.108	1730.81
323.337	1840.81
323.566	1817.81
323.795	1822.81
324.024	1808.81
324.253	1760.81
324.482	1813.81
324.71	1739.81
324.939	1643.81
325.168	1692.81
325.397	1755.81
325.626	1793.81
325.855	1822.81
326.084	1748.81
326.313	1791.81
326.542	1784.81
326.77	1844.81
326.999	1858.81
327.228	1746.81
327.457	1632.81
327.686	1658.81
327.914	1662.81
328.143	1766.81
328.372	1770.81
328.6	1723.81
328.829	1735.81
329.058	1741.81
329.287	1743.81
329.515	1736.81
329.744	1803.81
329.972	1875.81
330.201	1930.81
330.43	1942.81
330.658	1841.81
330.887	1864.81
331.115	1847.81
331.344	1874.81
331.572	1840.81
331.801	1825.81
332.03	1820.81
332.258	1875.81
332.486	1851.81
332.715	1916.81
332.943	1908.81
333.172	1801.81
333.4	1905.81
333.629	1917.81
333.857	2015.81
334.085	2222.81
334.314	2458.81
334.542	2758.81
334.771	2554.81
334.999	2257.81
335.227	2106.81
335.455	1986.81
335.684	1963.81
335.912	2018.81
336.14	2117.81
336.369	2037.81
336.597	1919.81
336.825	1843.81
337.053	1968.81
337.281	2012.81
337.51	2113.81
337.738	2214.81
337.966	2134.81
338.194	1903.81
338.422	1886.81
338.65	1844.81
338.878	1823.81
339.106	1756.81
339.334	1762.81
339.562	1743.81
339.79	1742.81
340.018	1886.81
340.246	1976.81
340.474	1956.81
340.702	1875.81
340.93	1964.81
341.158	1925.81
341.386	1850.81
341.614	1838.81
341.842	1847.81
342.07	1829.81
342.298	1867.81
342.526	1876.81
342.754	1825.81
342.981	1784.81
343.209	1833.81
343.437	1810.81
343.665	1816.81
343.893	1850.81
344.12	1975.81
344.348	2000.81
344.576	1893.81
344.804	1833.81
345.031	1811.81
345.259	1822.81
345.487	1795.81
345.714	1698.81
345.942	1658.81
346.17	1714.81
346.397	1735.81
346.625	1746.81
346.853	1683.81
347.08	1620.81
347.308	1660.81
347.535	1664.81
347.763	1780.81
347.99	1742.81
348.218	1635.81
348.445	1670.81
348.673	1694.81
348.9	1763.81
349.128	1816.81
349.355	1863.81
349.583	1797.81
349.81	1725.81
350.037	1616.81
350.265	1554.81
350.492	1600.81
350.72	1680.81
350.947	1707.81
351.174	1763.81
351.402	1671.81
351.629	1598.81
351.856	1600.81
352.083	1612.81
352.311	1564.81
352.538	1657.81
352.765	1707.81
352.992	1752.81
353.22	1700.81
353.447	1636.81
353.674	1691.81
353.901	1709.81
354.128	1653.81
354.355	1640.81
354.583	1706.81
354.81	1742.81
355.037	1740.81
355.264	1730.81
355.491	1746.81
355.718	1692.81
355.945	1690.81
356.172	1614.81
356.399	1592.81
356.626	1620.81
356.853	1697.81
357.08	1779.81
357.307	1987.81
357.534	2039.81
357.761	1748.81
357.988	1627.81
358.215	1552.81
358.441	1603.81
358.668	1573.81
358.895	1618.81
359.122	1729.81
359.349	1886.81
359.576	1866.81
359.802	1646.81
360.029	1620.81
360.256	1603.81
360.483	1608.81
360.709	1671.81
360.936	1734.81
361.163	1825.81
361.39	1996.81
361.616	2102.81
361.843	2040.81
362.07	1912.81
362.296	1714.81
362.523	1650.81
362.749	1677.81
362.976	1692.81
363.203	1704.81
363.429	1660.81
363.656	1615.81
363.882	1691.81
364.109	1873.81
364.335	1991.81
364.562	1873.81
364.788	1781.81
365.015	1730.81
365.241	1638.81
365.468	1674.81
365.694	1737.81
365.92	1812.81
366.147	1798.81
366.373	1619.81
366.599	1606.81
366.826	1595.81
367.052	1593.81
367.278	1637.81
367.505	1684.81
367.731	1732.81
367.957	1720.81
368.184	1760.81
368.41	1842.81
368.636	1858.81
368.862	1867.81
369.089	1899.81
369.315	1805.81
369.541	1794.81
369.767	1688.81
369.993	1660.81
370.219	1664.81
370.445	1699.81
370.672	1748.81
370.898	1918.81
371.124	1861.81
371.35	1802.81
371.576	1840.81
371.802	1908.81
372.028	1830.81
372.254	1735.81
372.48	1689.81
372.706	1672.81
372.932	1663.81
373.158	1700.81
373.384	1744.81
373.61	1743.81
373.835	1861.81
374.061	1806.81
374.287	1744.81
374.513	1758.81
374.739	1752.81
374.965	1792.81
375.191	1838.81
375.416	1798.81
375.642	1851.81
375.868	1932.81
376.094	1970.81
376.319	1877.81
376.545	1790.81
376.771	1762.81
376.997	1881.81
377.222	1866.81
377.448	1817.81
377.674	1843.81
377.899	1855.81
378.125	1922.81
378.35	1946.81
378.576	1778.81
378.802	1691.81
379.027	1695.81
379.253	1726.81
379.478	1720.81
379.704	1742.81
379.929	1703.81
380.155	1761.81
380.38	1727.81
380.606	1766.81
380.831	1767.81
381.057	1835.81
381.282	1854.81
381.507	1806.81
381.733	1902.81
381.958	2054.81
382.184	1872.81
382.409	1848.81
382.634	1833.81
382.86	1831.81
383.085	1855.81
383.31	1876.81
383.535	1976.81
383.761	2120.81
383.986	2079.81
384.211	1946.81
384.436	1942.81
384.662	2011.81
384.887	2144.81
385.112	2036.81
385.337	2025.81
385.562	2003.81
385.787	2011.81
386.013	2062.81
386.238	2108.81
386.463	2023.81
386.688	2141.81
386.913	2299.81
387.138	2225.81
387.363	2065.81
387.588	2114.81
387.813	2062.81
388.038	2093.81
388.263	2137.81
388.488	2103.81
388.713	1934.81
388.938	1890.81
389.163	1936.81
389.387	1973.81
389.612	1974.81
389.837	2026.81
390.062	2040.81
390.287	2031.81
390.512	1996.81
390.736	1960.81
390.961	1936.81
391.186	1886.81
391.411	1916.81
391.636	1981.81
391.86	2028.81
392.085	1962.81
392.31	1998.81
392.534	1974.81
392.759	2011.81
392.984	1991.81
393.208	2013.81
393.433	2044.81
393.658	2169.81
393.882	2180.81
394.107	2048.81
394.331	2009.81
394.556	2019.81
394.78	2019.81
395.005	2086.81
395.229	2152.81
395.454	2261.81
395.678	2375.81
395.903	2261.81
396.127	2075.81
396.352	2139.81
396.576	2212.81
396.801	2238.81
397.025	2197.81
397.249	2201.81
397.474	2185.81
397.698	2160.81
397.922	2194.81
398.147	2316.81
398.371	2382.81
398.595	2442.81
398.82	2313.81
399.044	2324.81
399.268	2421.81
399.492	2582.81
399.717	2682.81
399.941	2703.81
400.165	2654.81
400.389	2545.81
400.613	2546.81
400.837	2796.81
401.062	3176.81
401.286	2760.81
401.51	2466.81
401.734	2628.81
401.958	2532.81
402.182	2383.81
402.406	2272.81
402.63	2265.81
402.854	2241.81
403.078	2303.81
403.302	2328.81
403.526	2378.81
403.75	2408.81
403.974	2383.81
404.198	2364.81
404.422	2480.81
404.645	2577.81
404.869	2546.81
405.093	2373.81
405.317	2322.81
405.541	2378.81
405.765	2436.81
405.988	2350.81
406.212	2451.81
406.436	2502.81
406.66	2558.81
406.883	2586.81
407.107	2841.81
407.331	3108.81
407.555	3357.81
407.778	3109.81
408.002	2636.81
408.226	2497.81
408.449	2526.81
408.673	2391.81
408.896	2446.81
409.12	2587.81
409.344	2433.81
409.567	2398.81
409.791	2398.81
410.014	2384.81
410.238	2560.81
410.461	2661.81
410.685	2414.81
410.908	2315.81
411.132	2426.81
411.355	2423.81
411.578	2346.81
411.802	2372.81
412.025	2393.81
412.249	2323.81
412.472	2244.81
412.695	2274.81
412.919	2244.81
413.142	2242.81
413.365	2280.81
413.589	2386.81
413.812	2441.81
414.035	2538.81
414.258	2340.81
414.482	2254.81
414.705	2266.81
414.928	2252.81
415.151	2260.81
415.374	2230.81
415.597	2271.81
415.821	2337.81
416.044	2406.81
416.267	2371.81
416.49	2164.81
416.713	2168.81
416.936	2227.81
417.159	2320.81
417.382	2355.81
417.605	2159.81
417.828	2256.81
418.051	2353.81
418.274	2273.81
418.497	2189.81
418.72	2198.81
418.943	2171.81
419.166	2343.81
419.389	2448.81
419.611	2314.81
419.834	2266.81
420.057	2306.81
420.28	2230.81
420.503	2194.81
420.726	2256.81
420.948	2228.81
421.171	2175.81
421.394	2206.81
421.617	2269.81
421.839	2304.81
422.062	2206.81
422.285	2181.81
422.507	2189.81
422.73	2119.81
422.953	2126.81
423.175	2150.81
423.398	2176.81
423.621	2198.81
423.843	2179.81
424.066	2240.81
424.288	2289.81
424.511	2370.81
424.733	2276.81
424.956	2064.81
425.178	2095.81
425.401	2118.81
425.623	2138.81
425.846	2118.81
426.068	2232.81
426.291	2296.81
426.513	2259.81
426.735	2222.81
426.958	2391.81
427.18	2517.81
427.402	2272.81
427.625	2383.81
427.847	2386.81
428.069	2288.81
428.292	2134.81
428.514	2107.81
428.736	2052.81
428.958	2098.81
429.181	2084.81
429.403	2388.81
429.625	2971.81
429.847	2630.81
430.069	2222.81
430.292	2378.81
430.514	2443.81
430.736	2245.81
430.958	2400.81
431.18	2287.81
431.402	2104.81
431.624	2105.81
431.846	2086.81
432.068	2063.81
432.29	2112.81
432.512	2197.81
432.734	2192.81
432.956	2203.81
433.178	2293.81
433.4	2268.81
433.622	2249.81
433.844	2203.81
434.066	2132.81
434.287	2071.81
434.509	2201.81
434.731	2270.81
434.953	2438.81
435.175	2359.81
435.397	2270.81
435.618	2228.81
435.84	2246.81
436.062	2218.81
436.284	2196.81
436.505	2177.81
436.727	2266.81
436.949	2245.81
437.17	2153.81
437.392	2108.81
437.614	2162.81
437.835	2061.81
438.057	2182.81
438.278	2308.81
438.5	2138.81
438.721	2140.81
438.943	2115.81
439.165	2112.81
439.386	2042.81
439.608	2068.81
439.829	2130.81
440.05	2104.81
440.272	2046.81
440.493	2030.81
440.715	2092.81
440.936	2233.81
441.158	2515.81
441.379	2418.81
441.6	2403.81
441.822	2294.81
442.043	2277.81
442.264	2230.81
442.486	2100.81
442.707	2109.81
442.928	2097.81
443.149	2199.81
443.371	2330.81
443.592	2382.81
443.813	2337.81
444.034	2275.81
444.255	2298.81
444.476	2344.81
444.698	2414.81
444.919	2369.81
445.14	2434.81
445.361	2456.81
445.582	2548.81
445.803	2426.81
446.024	2335.81
446.245	2400.81
446.466	2309.81
446.687	2224.81
446.908	2186.81
447.129	2137.81
447.35	2206.81
447.571	2205.81
447.792	2090.81
448.013	2017.81
448.234	2127.81
448.455	2177.81
448.675	2240.81
448.896	2069.81
449.117	1976.81
449.338	2079.81
449.559	2195.81
449.779	2286.81
450	2495.81
450.221	2735.81
450.442	2604.81
450.662	2278.81
450.883	2049.81
451.104	1986.81
451.324	2023.81
451.545	2077.81
451.766	2043.81
451.986	1979.81
452.207	1951.81
452.428	1860.81
452.648	1871.81
452.869	1932.81
453.089	2034.81
453.31	2090.81
453.53	2114.81
453.751	2050.81
453.971	1924.81
454.192	1998.81
454.412	2104.81
454.633	2035.81
454.853	1970.81
455.073	1852.81
455.294	1827.81
455.514	1885.81
455.734	1856.81
455.955	1882.81
456.175	1885.81
456.395	1846.81
456.616	1934.81
456.836	2033.81
457.056	1953.81
457.276	1958.81
457.497	1913.81
457.717	1817.81
457.937	1851.81
458.157	1941.81
458.377	1875.81
458.598	1863.81
458.818	1895.81
459.038	1996.81
459.258	2117.81
459.478	2128.81
459.698	2094.81
459.918	2113.81
460.138	2231.81
460.358	2234.81
460.578	2241.81
460.798	2378.81
461.018	2478.81
461.238	2376.81
461.458	2254.81
461.678	2268.81
461.898	2235.81
462.118	2176.81
462.338	2275.81
462.558	2261.81
462.777	2267.81
462.997	2358.81
463.217	2550.81
463.437	2531.81
463.657	2308.81
463.876	2275.81
464.096	2274.81
464.316	2250.81
464.536	2354.81
464.755	2353.81
464.975	2408.81
465.195	2312.81
465.414	2422.81
465.634	2384.81
465.854	2232.81
466.073	2399.81
466.293	2358.81
466.512	2100.81
466.732	2023.81
466.951	2160.81
467.171	2130.81
467.391	2056.81
467.61	1979.81
467.829	2032.81
468.049	2247.81
468.268	2464.81
468.488	2279.81
468.707	2163.81
468.927	2132.81
469.146	2091.81
469.365	2028.81
469.585	2065.81
469.804	2054.81
470.023	2085.81
470.243	2108.81
470.462	2045.81
470.681	2020.81
470.901	2135.81
471.12	2107.81
471.339	2020.81
471.558	1995.81
471.777	1989.81
471.997	2003.81
472.216	2021.81
472.435	1951.81
472.654	2009.81
472.873	2108.81
473.092	2258.81
473.311	2125.81
473.53	1944.81
473.749	1961.81
473.968	2081.81
474.187	2155.81
474.406	2231.81
474.625	2139.81
474.844	2100.81
475.063	2082.81
475.282	2120.81
475.501	2120.81
475.72	2096.81
475.939	2201.81
476.158	2150.81
476.377	2072.81
476.596	2105.81
476.814	2166.81
477.033	2171.81
477.252	2317.81
477.471	2304.81
477.69	2208.81
477.908	2159.81
478.127	2364.81
478.346	2528.81
478.564	2486.81
478.783	2506.81
479.002	2552.81
479.22	2438.81
479.439	2556.81
479.658	2880.81
479.876	2882.81
480.095	2484.81
480.313	2416.81
480.532	2320.81
480.751	2364.81
480.969	2402.81
481.188	2383.81
481.406	2345.81
481.624	2243.81
481.843	2323.81
482.061	2343.81
482.28	2403.81
482.498	2397.81
482.717	2426.81
482.935	2330.81
483.153	2303.81
483.372	2300.81
483.59	2287.81
483.808	2330.81
484.027	2373.81
484.245	2560.81
484.463	2921.81
484.681	3322.81
484.9	2568.81
485.118	2379.81
485.336	2314.81
485.554	2423.81
485.772	2539.81
485.99	2512.81
486.209	2518.81
486.427	2425.81
486.645	2486.81
486.863	2477.81
487.081	2468.81
487.299	2572.81
487.517	2551.81
487.735	2383.81
487.953	2385.81
488.171	2379.81
488.389	2406.81
488.607	2382.81
488.825	2648.81
489.043	2694.81
489.261	2416.81
489.479	2536.81
489.696	2547.81
489.914	2586.81
490.132	2482.81
490.35	2460.81
490.568	2528.81
490.786	2441.81
491.003	2372.81
491.221	2436.81
491.439	2563.81
491.657	2468.81
491.874	2511.81
492.092	2519.81
492.31	2535.81
492.527	2468.81
492.745	2454.81
492.963	2451.81
493.18	2592.81
493.398	2716.81
493.615	2815.81
493.833	2568.81
494.05	2518.81
494.268	2549.81
494.485	2587.81
494.703	2552.81
494.92	2515.81
495.138	2512.81
495.355	2545.81
495.573	2640.81
495.79	2789.81
496.008	2807.81
496.225	2677.81
496.442	2652.81
496.66	2724.81
496.877	2623.81
497.094	2731.81
497.312	2789.81
497.529	2706.81
497.746	2791.81
497.963	3262.81
498.181	3704.81
498.398	3457.81
498.615	3352.81
498.832	3315.81
499.049	3252.81
499.267	3241.81
499.484	3368.81
499.701	3689.81
499.918	3703.81
500.135	4035.81
500.352	4302.81
500.569	4240.81
500.786	4539.81
501.003	4205.81
501.22	3814.81
501.437	3749.81
501.654	3712.81
501.871	3641.81
502.088	3154.81
502.305	3241.81
502.522	3144.81
502.739	2842.81
502.956	2782.81
503.172	2790.81
503.389	2751.81
503.606	2675.81
503.823	2706.81
504.04	2656.81
504.256	2707.81
504.473	2644.81
504.69	2788.81
504.907	2617.81
505.123	2494.81
505.34	2648.81
505.557	3314.81
505.773	2852.81
505.99	2456.81
506.207	2368.81
506.423	2238.81
506.64	2272.81
506.856	2260.81
507.073	2573.81
507.289	2810.81
507.506	2699.81
507.722	2308.81
507.939	2192.81
508.155	2214.81
508.372	2264.81
508.588	2186.81
508.805	2091.81
509.021	2102.81
509.238	2062.81
509.454	2067.81
509.67	2046.81
509.887	2044.81
510.103	2022.81
510.319	2060.81
510.536	2197.81
510.752	2264.81
510.968	2241.81
511.184	2382.81
511.401	2366.81
511.617	2090.81
511.833	2042.81
512.049	2016.81
512.265	2008.81
512.481	1972.81
512.698	2076.81
512.914	2222.81
513.13	2106.81
513.346	2004.81
513.562	1970.81
513.778	2047.81
513.994	2145.81
514.21	2212.81
514.426	2220.81
514.642	2459.81
514.858	2333.81
515.074	2137.81
515.29	2082.81
515.506	2103.81
515.721	2166.81
515.937	2160.81
516.153	2457.81
516.369	2332.81
516.585	2245.81
516.801	2101.81
517.016	2153.81
517.232	2196.81
517.448	2212.81
517.664	2167.81
517.879	2238.81
518.095	2304.81
518.311	2220.81
518.527	2094.81
518.742	2090.81
518.958	2066.81
519.173	1991.81
519.389	2084.81
519.605	2073.81
519.82	2084.81
520.036	2119.81
520.251	2032.81
520.467	2047.81
520.682	2224.81
520.898	2271.81
521.113	2044.81
521.329	2005.81
521.544	2204.81
521.76	2074.81
521.975	1944.81
522.19	1924.81
522.406	1944.81
522.621	2316.81
522.836	2354.81
523.052	1929.81
523.267	1922.81
523.482	1939.81
523.698	1851.81
523.913	1811.81
524.128	1913.81
524.343	1971.81
524.559	2060.81
524.774	1877.81
524.989	1864.81
525.204	1811.81
525.419	1794.81
525.634	1784.81
525.849	1865.81
526.064	1841.81
526.28	1876.81
526.495	1793.81
526.71	1803.81
526.925	1786.81
527.14	1802.81
527.355	1790.81
527.57	1720.81
527.785	1805.81
527.999	1754.81
528.214	1729.81
528.429	1696.81
528.644	1703.81
528.859	1751.81
529.074	1770.81
529.289	1776.81
529.503	1774.81
529.718	1803.81
529.933	1751.81
530.148	1683.81
530.363	1679.81
530.577	1760.81
530.792	1818.81
531.007	1762.81
531.221	1756.81
531.436	1785.81
531.651	1827.81
531.865	1869.81
532.08	1836.81
532.295	1740.81
532.509	1666.81
532.724	1714.81
532.938	1811.81
533.153	1911.81
533.367	1812.81
533.582	1769.81
533.796	1730.81
534.011	1754.81
534.225	1750.81
534.44	1722.81
534.654	1647.81
534.868	1662.81
535.083	1750.81
535.297	1781.81
535.511	1742.81
535.726	1726.81
535.94	1703.81
536.154	1714.81
536.369	1680.81
536.583	1658.81
536.797	1661.81
537.011	1718.81
537.225	1650.81
537.44	1606.81
537.654	1715.81
537.868	1639.81
538.082	1594.81
538.296	1571.81
538.51	1538.81
538.724	1579.81
538.938	1568.81
539.153	1650.81
539.367	1642.81
539.581	1630.81
539.795	1756.81
540.009	1717.81
540.222	1637.81
540.436	1696.81
540.65	1844.81
540.864	1847.81
541.078	1726.81
541.292	1614.81
541.506	1649.81
541.72	1635.81
541.934	1619.81
542.147	1699.81
542.361	1662.81
542.575	1560.81
542.789	1556.81
543.002	1538.81
543.216	1561.81
543.43	1638.81
543.644	1720.81
543.857	1765.81
544.071	1719.81
544.285	1666.81
544.498	1629.81
544.712	1629.81
544.925	1649.81
545.139	1678.81
545.352	1608.81
545.566	1574.81
545.779	1537.81
545.993	1584.81
546.206	1568.81
546.42	1525.81
546.633	1511.81
546.847	1536.81
547.06	1548.81
547.274	1530.81
547.487	1539.81
547.7	1521.81
547.914	1568.81
548.127	1597.81
548.34	1586.81
548.554	1604.81
548.767	1549.81
548.98	1573.81
549.193	1541.81
549.407	1607.81
549.62	1614.81
549.833	1537.81
550.046	1532.81
550.259	1518.81
550.473	1495.81
550.686	1529.81
550.899	1517.81
551.112	1471.81
551.325	1452.81
551.538	1529.81
551.751	1824.81
551.964	1456.81
552.177	1450.81
552.39	1479.81
552.603	1511.81
552.816	1519.81
553.029	1606.81
553.242	1633.81
553.455	1556.81
553.667	1531.81
553.88	1522.81
554.093	1523.81
554.306	1439.81
554.519	1421.81
554.732	1419.81
554.944	1426.81
555.157	1495.81
555.37	1387.81
555.583	1426.81
555.795	1402.81
556.008	1371.81
556.221	1367.81
556.433	1322.81
556.646	1314.81
556.859	1296.81
557.071	1290.81
557.284	1289.81
557.496	1312.81
557.709	1306.81
557.921	1272.81
558.134	1280.81
558.346	1290.81
558.559	1282.81
558.771	1249.81
558.984	1238.81
559.196	1216.81
559.409	1218.81
559.621	1215.81
559.833	1229.81
560.046	1273.81
560.258	1258.81
560.47	1255.81
560.683	1230.81
560.895	1259.81
561.107	1244.81
561.32	1247.81
561.532	1282.81
561.744	1292.81
561.956	1286.81
562.168	1224.81
562.381	1191.81
562.593	1163.81
562.805	1242.81
563.017	1208.81
563.229	1232.81
563.441	1249.81
563.653	1226.81
563.865	1222.81
564.077	1252.81
564.289	1235.81
564.501	1236.81
564.713	1305.81
564.925	1298.81
565.137	1400.81
565.349	1306.81
565.561	1280.81
565.773	1311.81
565.985	1311.81
566.197	1403.81
566.408	1524.81
566.62	1540.81
566.832	1505.81
567.044	1530.81
567.255	1483.81
567.467	1491.81
567.679	1585.81
567.891	1598.81
568.102	1574.81
568.314	1515.81
568.526	1409.81
568.737	1331.81
568.949	1308.81
569.161	1284.81
569.372	1190.81
569.584	1198.81
569.795	1210.81
570.007	1176.81
570.218	1130.81
570.43	1115.81
570.641	1109.81
570.853	1142.81
571.064	1128.81
571.276	1124.81
571.487	1098.81
571.698	1064.81
571.91	1059.81
572.121	1068.81
572.333	1001.81
572.544	1016.81
572.755	986.81
572.966	987.81
573.178	960.81
573.389	1041.81
573.6	1031.81
573.811	1104.81
574.023	1025.81
574.234	998.81
574.445	976.81
574.656	941.81
574.867	924.81
575.078	966.81
575.289	931.81
575.501	908.81
575.712	918.81
575.923	920.81
576.134	948.81
576.345	900.81
576.556	896.81
576.767	906.81
576.978	896.81
577.188	858.81
577.399	891.81
577.61	876.81
577.821	891.81
578.032	849.81
578.243	867.81
578.454	862.81
578.665	839.81
578.875	823.81
579.086	824.81
579.297	833.81
579.508	880.81
579.718	854.81
579.929	818.81
580.14	842.81
580.35	825.81
580.561	815.81
580.772	928.81
580.982	854.81
581.193	814.81
581.403	825.81
581.614	794.81
581.825	792.81
582.035	803.81
582.246	782.81
582.456	810.81
582.667	821.81
582.877	798.81
583.087	790.81
583.298	791.81
583.508	803.81
583.719	802.81
583.929	836.81
584.139	810.81
584.35	766.81
584.56	790.81
584.77	759.81
584.981	795.81
585.191	806.81
585.401	809.81
585.611	774.81
585.821	796.81
586.032	764.81
586.242	746.81
586.452	741.81
586.662	767.81
586.872	754.81
587.082	754.81
587.292	797.81
587.502	795.81
587.713	792.81
587.923	770.81
588.133	758.81
588.343	784.81
588.553	767.81
588.762	768.81
588.972	742.81
589.182	782.81
589.392	774.81
589.602	763.81
589.812	759.81
590.022	729.81
590.232	734.81
590.441	764.81
590.651	750.81
590.861	723.81
591.071	719.81
591.281	733.81
591.49	728.81
591.7	739.81
591.91	731.81
592.119	756.81
592.329	775.81
592.539	778.81
592.748	746.81
592.958	772.81
593.167	781.81
593.377	798.81
593.587	804.81
593.796	784.81
594.006	772.81
594.215	766.81
594.424	750.81
594.634	747.81
594.843	774.81
595.053	775.81
595.262	745.81
595.472	740.81
595.681	737.81
595.89	739.81
596.1	730.81
596.309	720.81
596.518	700.81
596.727	706.81
596.937	708.81
597.146	657.81
597.355	689.81
597.564	665.81
597.774	638.81
597.983	652.81
598.192	634.81
598.401	627.81
598.61	657.81
598.819	663.81
599.028	650.81
599.237	647.81
599.446	624.81
599.655	615.81
599.864	608.81
600.073	634.81
600.282	612.81
600.491	608.81
600.7	582.81
600.909	584.81
601.118	628.81
601.327	617.81
601.536	611.81
601.745	609.81
601.953	627.81
602.162	600.81
602.371	618.81
602.58	612.81
602.789	599.81
602.997	600.81
603.206	602.81
603.415	581.81
603.623	571.81
603.832	596.81
604.041	586.81
604.249	571.81
604.458	587.81
604.666	598.81
604.875	583.81
605.084	592.81
605.292	572.81
605.501	582.81
605.709	598.81
605.918	555.81
606.126	567.81
606.334	568.81
606.543	554.81
606.751	568.81
606.96	572.81
607.168	554.81
607.376	551.81
607.585	547.81
607.793	556.81
608.001	545.81
608.21	534.81
608.418	562.81
608.626	566.81
608.834	536.81
609.043	554.81
609.251	550.81
609.459	539.81
609.667	552.81
609.875	537.81
610.083	576.81
610.291	571.81
610.499	552.81
610.707	554.81
610.916	549.81
611.124	538.81
611.332	527.81
611.54	549.81
611.748	541.81
611.955	530.81
612.163	519.81
612.371	545.81
612.579	532.81
612.787	545.81
612.995	517.81
613.203	546.81
613.411	512.81
613.618	539.81
613.826	547.81
614.034	557.81
614.242	528.81
614.449	520.81
614.657	543.81
614.865	523.81
615.072	523.81
615.28	523.81
615.488	516.81
615.695	558.81
615.903	536.81
616.111	525.81
616.318	508.81
616.526	519.81
616.733	524.81
616.941	516.81
617.148	525.81
617.356	516.81
617.563	503.81
617.771	513.81
617.978	510.81
618.185	494.81
618.393	514.81
618.6	507.81
618.807	481.81
619.015	497.81
619.222	507.81
619.429	487.81
619.637	491.81
619.844	505.81
620.051	467.81
620.258	481.81
620.466	472.81
620.673	464.81
620.88	448.81
621.087	454.81
621.294	456.81
621.501	447.81
621.708	473.81
621.915	466.81
622.122	484.81
622.329	484.81
622.536	465.81
622.743	457.81
622.95	474.81
623.157	463.81
623.364	459.81
623.571	479.81
623.778	451.81
623.985	472.81
624.192	465.81
624.399	456.81
624.606	452.81
624.812	424.81
625.019	448.81
625.226	444.81
625.433	417.81
625.639	419.81
625.846	422.81
626.053	418.81
626.259	414.81
626.466	415.81
626.673	398.81
626.879	408.81
627.086	427.81
627.293	406.81
627.499	416.81
627.706	427.81
627.912	425.81
628.119	416.81
628.325	396.81
628.532	403.81
628.738	414.81
628.945	446.81
629.151	410.81
629.357	410.81
629.564	416.81
629.77	401.81
629.976	410.81
630.183	375.81
630.389	394.81
630.595	408.81
630.802	402.81
631.008	388.81
631.214	384.81
631.42	387.81
631.627	396.81
631.833	385.81
632.039	381.81
632.245	383.81
632.451	362.81
632.657	386.81
632.863	368.81
633.069	367.81
633.275	378.81
633.481	370.81
633.688	362.81
633.893	345.81
634.099	360.81
634.305	352.81
634.511	353.81
634.717	379.81
634.923	362.81
635.129	364.81
635.335	371.81
635.541	354.81
635.747	362.81
635.952	352.81
636.158	351.81
636.364	355.81
636.57	369.81
636.775	363.81
636.981	366.81
637.187	354.81
637.392	333.81
637.598	338.81
637.804	343.81
638.009	336.81
638.215	349.81
638.421	344.81
638.626	344.81
638.832	336.81
639.037	361.81
639.243	340.81
639.448	329.81
639.654	332.81
639.859	312.81
640.065	337.81
640.27	338.81
640.475	332.81
640.681	327.81
640.886	317.81
641.091	317.81
641.297	324.81
641.502	333.81
641.707	336.81
641.913	309.81
642.118	334.81
642.323	310.81
642.528	342.81
642.733	316.81
642.939	314.81
643.144	315.81
643.349	325.81
643.554	326.81
643.759	332.81
643.964	337.81
644.169	319.81
644.374	306.81
644.579	319.81
644.784	326.81
644.989	323.81
645.194	317.81
645.399	299.81
645.604	310.81
645.809	304.81
646.014	321.81
646.219	309.81
646.423	332.81
646.628	338.81
646.833	310.81
647.038	336.81
647.243	340.81
647.447	324.81
647.652	327.81
647.857	331.81
648.062	319.81
648.266	309.81
648.471	330.81
648.676	332.81
648.88	323.81
649.085	323.81
649.289	314.81
649.494	316.81
649.698	313.81
649.903	287.81
650.107	310.81
650.312	313.81
650.516	326.81
650.721	276.81
650.925	268.81
651.13	274.81
651.334	289.81
651.539	278.81
651.743	289.81
651.947	279.81
652.152	288.81
652.356	269.81
652.56	275.81
652.764	258.81
652.969	280.81
653.173	251.81
653.377	258.81
653.581	256.81
653.785	241.81
653.99	247.81
654.194	238.81
654.398	251.81
654.602	235.81
654.806	235.81
655.01	235.81
655.214	243.81
655.418	245.81
655.622	250.81
655.826	256.81
656.03	240.81
656.234	267.81
656.438	257.81
656.642	260.81
656.846	243.81
657.049	243.81
657.253	226.81
657.457	216.81
657.661	219.81
657.865	200.81
658.068	182.81
658.272	146.81
658.476	144.81
658.68	154.81
658.883	149.81
659.087	144.81
659.291	139.81
659.494	136.81
659.698	138.81
659.901	123.81
660.105	122.81
660.309	123.81
660.512	118.81
660.716	118.81
660.919	130.81
661.123	117.81
661.326	130.81
661.53	101.81
661.733	97.81
661.936	100.81
662.14	100.81
662.343	94.81
662.546	105.81
662.75	89.81
662.953	94.81
663.156	104.81
663.36	108.81
663.563	95.81
663.766	91.81
663.969	96.81
664.173	83.81
664.376	79.81
664.579	83.81
664.782	81.81
664.985	91.81
665.188	75.81
665.391	81.81
665.594	78.81
665.797	76.81
666	71.81
666.203	83.81
666.406	84.81
666.609	75.81
666.812	86.81
667.015	89.81
667.218	76.81
667.421	75.81
667.624	97.81
667.827	79.81
668.03	92.81
668.232	64.81
668.435	80.81
668.638	83.81
668.841	77.81
669.043	87.81
669.246	72.81
669.449	93.81
669.651	75.81
669.854	80.81
670.057	86.81
670.259	78.81
670.462	73.81
670.665	89.81
670.867	96.81
671.07	80.81
671.272	71.81
671.475	69.81
671.677	76.81
671.88	80.81
672.082	74.81
672.284	95.81
672.487	95.81
672.689	75.81
672.892	84.81
