Data from WStandard_LampEnergy5.5LIBS07252019.E.O._I.C._HRD10591_16-07-51-921.txt Node
Date: Thu Jul 25 16:07:51 EDT 2019
User: cochatt
Spectrometer: HR+D1059
Trigger mode: 1
Integration Time (sec): 1.000000E-1
Scans to average: 1
Electric dark correction enabled: true
Nonlinearity correction enabled: false
Boxcar width: 0
XAxis mode: Wavelengths
Number of Pixels in Spectrum: 2048
>>>>>Begin Spectral Data<<<<<
223.165	-7.25
223.4	-7.25
223.635	-7.25
223.869	-15.25
224.104	-12.25
224.338	-15.25
224.573	-25.25
224.808	-7.25
225.042	-12.25
225.277	-26.25
225.511	-1.25
225.746	5.75
225.98	4.75
226.215	21.75
226.449	15.75
226.683	20.75
226.918	24.75
227.152	28.75
227.387	37.75
227.621	34.75
227.856	40.75
228.09	38.75
228.324	64.75
228.559	55.75
228.793	129.75
229.027	355.75
229.262	372.75
229.496	379.75
229.73	415.75
229.964	462.75
230.199	454.75
230.433	468.75
230.667	524.75
230.901	549.75
231.136	471.75
231.37	457.75
231.604	450.75
231.838	476.75
232.072	489.75
232.306	466.75
232.541	501.75
232.775	578.75
233.009	605.75
233.243	585.75
233.477	535.75
233.711	563.75
233.945	564.75
234.179	548.75
234.413	612.75
234.647	653.75
234.881	613.75
235.115	528.75
235.349	570.75
235.583	561.75
235.817	539.75
236.051	550.75
236.285	556.75
236.519	612.75
236.753	676.75
236.987	696.75
237.221	706.75
237.455	792.75
237.689	732.75
237.922	679.75
238.156	670.75
238.39	671.75
238.624	706.75
238.858	748.75
239.091	785.75
239.325	826.75
239.559	925.75
239.793	974.75
240.027	1049.75
240.26	1057.75
240.494	776.75
240.728	709.75
240.961	739.75
241.195	743.75
241.429	830.75
241.662	825.75
241.896	776.75
242.13	775.75
242.363	872.75
242.597	916.75
242.83	891.75
243.064	892.75
243.298	978.75
243.531	958.75
243.765	980.75
243.998	938.75
244.232	823.75
244.465	782.75
244.699	820.75
244.932	882.75
245.166	1058.75
245.399	1020.75
245.633	900.75
245.866	906.75
246.099	966.75
246.333	964.75
246.566	973.75
246.8	1065.75
247.033	1178.75
247.266	1117.75
247.5	1046.75
247.733	1072.75
247.966	1125.75
248.2	1281.75
248.433	1184.75
248.666	1238.75
248.899	1334.75
249.133	1523.75
249.366	1772.75
249.599	1442.75
249.832	1266.75
250.066	1290.75
250.299	1339.75
250.532	1214.75
250.765	1111.75
250.998	1164.75
251.231	1245.75
251.465	1231.75
251.698	1170.75
251.931	1200.75
252.164	1218.75
252.397	1267.75
252.63	1268.75
252.863	1109.75
253.096	1088.75
253.329	1179.75
253.562	1206.75
253.795	1319.75
254.028	1296.75
254.261	1181.75
254.494	1196.75
254.727	1146.75
254.96	1193.75
255.193	1253.75
255.426	1425.75
255.659	1636.75
255.892	1708.75
256.124	1402.75
256.357	1343.75
256.59	1428.75
256.823	1447.75
257.056	1451.75
257.289	1745.75
257.521	1917.75
257.754	1688.75
257.987	1603.75
258.22	1812.75
258.452	1756.75
258.685	1404.75
258.918	1399.75
259.151	1411.75
259.383	1341.75
259.616	1166.75
259.849	1244.75
260.081	1414.75
260.314	1558.75
260.547	1714.75
260.779	1717.75
261.012	1625.75
261.244	1458.75
261.477	1357.75
261.71	1450.75
261.942	1470.75
262.175	1416.75
262.407	1515.75
262.64	1410.75
262.872	1301.75
263.105	1242.75
263.337	1302.75
263.57	1313.75
263.802	1308.75
264.035	1232.75
264.267	1186.75
264.499	1130.75
264.732	1208.75
264.964	1308.75
265.197	1338.75
265.429	1397.75
265.661	1597.75
265.894	1779.75
266.126	1833.75
266.358	1600.75
266.591	1662.75
266.823	1830.75
267.055	1674.75
267.287	1610.75
267.52	1563.75
267.752	1585.75
267.984	1521.75
268.216	1643.75
268.448	1682.75
268.681	1636.75
268.913	1560.75
269.145	1432.75
269.377	1387.75
269.609	1539.75
269.841	1781.75
270.073	2037.75
270.306	2325.75
270.538	2435.75
270.77	2072.75
271.002	1718.75
271.234	1668.75
271.466	1690.75
271.698	1846.75
271.93	2244.75
272.162	2275.75
272.394	1992.75
272.626	1959.75
272.858	1738.75
273.09	1490.75
273.322	1442.75
273.553	1375.75
273.785	1411.75
274.017	1456.75
274.249	1560.75
274.481	1589.75
274.713	1442.75
274.945	1425.75
275.176	1430.75
275.408	1428.75
275.64	1369.75
275.872	1380.75
276.104	1460.75
276.335	1674.75
276.567	1916.75
276.799	1965.75
277.031	1770.75
277.262	1611.75
277.494	1678.75
277.726	1865.75
277.957	1894.75
278.189	1674.75
278.421	1556.75
278.652	1513.75
278.884	1484.75
279.115	1499.75
279.347	1529.75
279.579	1474.75
279.81	1451.75
280.042	1636.75
280.273	1803.75
280.505	1800.75
280.736	1842.75
280.968	1725.75
281.199	1538.75
281.431	1428.75
281.662	1426.75
281.894	1438.75
282.125	1510.75
282.356	1574.75
282.588	1589.75
282.819	1556.75
283.051	1672.75
283.282	1846.75
283.513	1764.75
283.745	1545.75
283.976	1435.75
284.207	1439.75
284.439	1486.75
284.67	1482.75
284.901	1568.75
285.132	1574.75
285.364	1534.75
285.595	1547.75
285.826	1527.75
286.057	1465.75
286.288	1522.75
286.52	1541.75
286.751	1679.75
286.982	1744.75
287.213	1609.75
287.444	1505.75
287.675	1505.75
287.906	1527.75
288.138	1640.75
288.369	1614.75
288.6	1528.75
288.831	1488.75
289.062	1499.75
289.293	1544.75
289.524	1512.75
289.755	1572.75
289.986	1578.75
290.217	1454.75
290.448	1516.75
290.679	1511.75
290.91	1549.75
291.141	1628.75
291.371	1638.75
291.602	1605.75
291.833	1593.75
292.064	1652.75
292.295	1636.75
292.526	1652.75
292.757	1769.75
292.987	1666.75
293.218	1580.75
293.449	1657.75
293.68	1883.75
293.91	2058.75
294.141	1889.75
294.372	1777.75
294.603	1822.75
294.833	1936.75
295.064	1842.75
295.295	1630.75
295.525	1590.75
295.756	1514.75
295.987	1422.75
296.217	1481.75
296.448	1528.75
296.679	1497.75
296.909	1509.75
297.14	1537.75
297.37	1487.75
297.601	1613.75
297.831	1741.75
298.062	1770.75
298.292	1619.75
298.523	1501.75
298.753	1511.75
298.984	1562.75
299.214	1538.75
299.445	1591.75
299.675	1631.75
299.905	1622.75
300.136	1565.75
300.366	1562.75
300.597	1496.75
300.827	1487.75
301.057	1571.75
301.288	1645.75
301.518	1617.75
301.748	1674.75
301.979	1744.75
302.209	1755.75
302.439	1886.75
302.669	1968.75
302.9	1870.75
303.13	1644.75
303.36	1644.75
303.59	1707.75
303.82	1626.75
304.051	1648.75
304.281	1649.75
304.511	1655.75
304.741	1756.75
304.971	1905.75
305.201	2071.75
305.431	1934.75
305.661	1594.75
305.891	1481.75
306.121	1471.75
306.352	1458.75
306.582	1598.75
306.812	1720.75
307.042	1831.75
307.272	1835.75
307.502	1834.75
307.731	2012.75
307.961	2169.75
308.191	2019.75
308.421	1720.75
308.651	1592.75
308.881	1568.75
309.111	1555.75
309.341	1565.75
309.571	1588.75
309.8	1605.75
310.03	1561.75
310.26	1558.75
310.49	1564.75
310.72	1619.75
310.949	1691.75
311.179	1692.75
311.409	1657.75
311.639	1616.75
311.868	1590.75
312.098	1612.75
312.328	1629.75
312.557	1588.75
312.787	1602.75
313.017	1635.75
313.246	1691.75
313.476	1642.75
313.706	1706.75
313.935	1669.75
314.165	1684.75
314.394	1721.75
314.624	1846.75
314.853	1916.75
315.083	1993.75
315.312	2112.75
315.542	1922.75
315.771	1704.75
316.001	1691.75
316.23	1819.75
316.46	1805.75
316.689	1770.75
316.919	1680.75
317.148	1630.75
317.377	1608.75
317.607	1706.75
317.836	1981.75
318.065	2054.75
318.295	1955.75
318.524	1901.75
318.753	1784.75
318.983	1779.75
319.212	1778.75
319.441	1685.75
319.67	1681.75
319.9	1757.75
320.129	1828.75
320.358	1909.75
320.587	1945.75
320.816	1962.75
321.046	1884.75
321.275	1777.75
321.504	1796.75
321.733	1937.75
321.962	1920.75
322.191	1763.75
322.42	1718.75
322.649	1701.75
322.878	1712.75
323.108	1709.75
323.337	1757.75
323.566	1790.75
323.795	1820.75
324.024	1798.75
324.253	1731.75
324.482	1831.75
324.71	1714.75
324.939	1602.75
325.168	1643.75
325.397	1705.75
325.626	1802.75
325.855	1792.75
326.084	1703.75
326.313	1699.75
326.542	1734.75
326.77	1776.75
326.999	1845.75
327.228	1764.75
327.457	1659.75
327.686	1658.75
327.914	1646.75
328.143	1736.75
328.372	1710.75
328.6	1748.75
328.829	1733.75
329.058	1679.75
329.287	1663.75
329.515	1745.75
329.744	1768.75
329.972	1856.75
330.201	1924.75
330.43	1898.75
330.658	1824.75
330.887	1836.75
331.115	1842.75
331.344	1847.75
331.572	1806.75
331.801	1785.75
332.03	1830.75
332.258	1806.75
332.486	1878.75
332.715	1841.75
332.943	1860.75
333.172	1814.75
333.4	1899.75
333.629	1857.75
333.857	2014.75
334.085	2206.75
334.314	2509.75
334.542	2740.75
334.771	2515.75
334.999	2192.75
335.227	2116.75
335.455	1924.75
335.684	1915.75
335.912	2015.75
336.14	2079.75
336.369	2005.75
336.597	1870.75
336.825	1816.75
337.053	1905.75
337.281	1978.75
337.51	2091.75
337.738	2185.75
337.966	2133.75
338.194	1895.75
338.422	1794.75
338.65	1801.75
338.878	1742.75
339.106	1769.75
339.334	1714.75
339.562	1696.75
339.79	1729.75
340.018	1856.75
340.246	1951.75
340.474	1942.75
340.702	1884.75
340.93	1882.75
341.158	1856.75
341.386	1831.75
341.614	1811.75
341.842	1823.75
342.07	1848.75
342.298	1845.75
342.526	1805.75
342.754	1798.75
342.981	1795.75
343.209	1777.75
343.437	1740.75
343.665	1782.75
343.893	1849.75
344.12	1972.75
344.348	1982.75
344.576	1869.75
344.804	1780.75
345.031	1788.75
345.259	1781.75
345.487	1763.75
345.714	1671.75
345.942	1645.75
346.17	1679.75
346.397	1672.75
346.625	1748.75
346.853	1633.75
347.08	1608.75
347.308	1616.75
347.535	1663.75
347.763	1750.75
347.99	1671.75
348.218	1595.75
348.445	1659.75
348.673	1670.75
348.9	1709.75
349.128	1761.75
349.355	1847.75
349.583	1764.75
349.81	1719.75
350.037	1600.75
350.265	1555.75
350.492	1582.75
350.72	1610.75
350.947	1665.75
351.174	1692.75
351.402	1641.75
351.629	1570.75
351.856	1551.75
352.083	1512.75
352.311	1564.75
352.538	1592.75
352.765	1684.75
352.992	1717.75
353.22	1668.75
353.447	1596.75
353.674	1660.75
353.901	1658.75
354.128	1608.75
354.355	1545.75
354.583	1667.75
354.81	1704.75
355.037	1714.75
355.264	1701.75
355.491	1678.75
355.718	1691.75
355.945	1701.75
356.172	1611.75
356.399	1612.75
356.626	1634.75
356.853	1623.75
357.08	1765.75
357.307	2010.75
357.534	2003.75
357.761	1712.75
357.988	1632.75
358.215	1548.75
358.441	1584.75
358.668	1555.75
358.895	1556.75
359.122	1665.75
359.349	1858.75
359.576	1869.75
359.802	1660.75
360.029	1557.75
360.256	1568.75
360.483	1593.75
360.709	1679.75
360.936	1705.75
361.163	1733.75
361.39	1895.75
361.616	2091.75
361.843	2009.75
362.07	1980.75
362.296	1658.75
362.523	1604.75
362.749	1648.75
362.976	1657.75
363.203	1700.75
363.429	1640.75
363.656	1540.75
363.882	1613.75
364.109	1824.75
364.335	1990.75
364.562	1814.75
364.788	1755.75
365.015	1652.75
365.241	1644.75
365.468	1660.75
365.694	1689.75
365.92	1765.75
366.147	1727.75
366.373	1618.75
366.599	1598.75
366.826	1586.75
367.052	1619.75
367.278	1594.75
367.505	1618.75
367.731	1670.75
367.957	1701.75
368.184	1721.75
368.41	1826.75
368.636	1844.75
368.862	1866.75
369.089	1890.75
369.315	1813.75
369.541	1760.75
369.767	1696.75
369.993	1652.75
370.219	1635.75
370.445	1658.75
370.672	1760.75
370.898	1826.75
371.124	1853.75
371.35	1750.75
371.576	1771.75
371.802	1873.75
372.028	1769.75
372.254	1706.75
372.48	1671.75
372.706	1656.75
372.932	1666.75
373.158	1670.75
373.384	1717.75
373.61	1743.75
373.835	1824.75
374.061	1754.75
374.287	1679.75
374.513	1742.75
374.739	1732.75
374.965	1728.75
375.191	1755.75
375.416	1783.75
375.642	1761.75
375.868	1870.75
376.094	1936.75
376.319	1868.75
376.545	1746.75
376.771	1742.75
376.997	1861.75
377.222	1829.75
377.448	1802.75
377.674	1848.75
377.899	1799.75
378.125	1952.75
378.35	1908.75
378.576	1725.75
378.802	1659.75
379.027	1666.75
379.253	1672.75
379.478	1691.75
379.704	1698.75
379.929	1683.75
380.155	1749.75
380.38	1732.75
380.606	1767.75
380.831	1753.75
381.057	1821.75
381.282	1860.75
381.507	1784.75
381.733	1910.75
381.958	2008.75
382.184	1861.75
382.409	1773.75
382.634	1835.75
382.86	1776.75
383.085	1834.75
383.31	1841.75
383.535	1971.75
383.761	2089.75
383.986	1980.75
384.211	1995.75
384.436	1969.75
384.662	1993.75
384.887	2123.75
385.112	1984.75
385.337	2002.75
385.562	1971.75
385.787	1968.75
386.013	2037.75
386.238	2029.75
386.463	2032.75
386.688	2138.75
386.913	2254.75
387.138	2218.75
387.363	2005.75
387.588	1985.75
387.813	2017.75
388.038	2046.75
388.263	2111.75
388.488	2075.75
388.713	1903.75
388.938	1889.75
389.163	1908.75
389.387	1926.75
389.612	1963.75
389.837	1952.75
390.062	1986.75
390.287	2001.75
390.512	1953.75
390.736	1933.75
390.961	1885.75
391.186	1870.75
391.411	1870.75
391.636	1919.75
391.86	1982.75
392.085	1986.75
392.31	1972.75
392.534	1976.75
392.759	2022.75
392.984	1966.75
393.208	2011.75
393.433	2032.75
393.658	2077.75
393.882	2196.75
394.107	2014.75
394.331	1955.75
394.556	1941.75
394.78	1969.75
395.005	2058.75
395.229	2090.75
395.454	2243.75
395.678	2275.75
395.903	2172.75
396.127	2027.75
396.352	2083.75
396.576	2155.75
396.801	2202.75
397.025	2134.75
397.249	2153.75
397.474	2082.75
397.698	2092.75
397.922	2181.75
398.147	2257.75
398.371	2354.75
398.595	2349.75
398.82	2251.75
399.044	2268.75
399.268	2425.75
399.492	2548.75
399.717	2605.75
399.941	2692.75
400.165	2582.75
400.389	2490.75
400.613	2464.75
400.837	2730.75
401.062	3180.75
401.286	2743.75
401.51	2440.75
401.734	2588.75
401.958	2500.75
402.182	2368.75
402.406	2218.75
402.63	2252.75
402.854	2240.75
403.078	2255.75
403.302	2304.75
403.526	2305.75
403.75	2302.75
403.974	2376.75
404.198	2341.75
404.422	2413.75
404.645	2533.75
404.869	2463.75
405.093	2305.75
405.317	2270.75
405.541	2365.75
405.765	2341.75
405.988	2334.75
406.212	2383.75
406.436	2444.75
406.66	2494.75
406.883	2501.75
407.107	2777.75
407.331	3060.75
407.555	3306.75
407.778	3119.75
408.002	2600.75
408.226	2456.75
408.449	2473.75
408.673	2402.75
408.896	2404.75
409.12	2479.75
409.344	2409.75
409.567	2362.75
409.791	2378.75
410.014	2449.75
410.238	2486.75
410.461	2670.75
410.685	2388.75
410.908	2264.75
411.132	2309.75
411.355	2325.75
411.578	2273.75
411.802	2313.75
412.025	2340.75
412.249	2271.75
412.472	2208.75
412.695	2191.75
412.919	2199.75
413.142	2172.75
413.365	2233.75
413.589	2337.75
413.812	2376.75
414.035	2503.75
414.258	2298.75
414.482	2250.75
414.705	2268.75
414.928	2205.75
415.151	2235.75
415.374	2208.75
415.597	2288.75
415.821	2286.75
416.044	2400.75
416.267	2383.75
416.49	2159.75
416.713	2115.75
416.936	2198.75
417.159	2334.75
417.382	2311.75
417.605	2180.75
417.828	2285.75
418.051	2300.75
418.274	2237.75
418.497	2153.75
418.72	2144.75
418.943	2131.75
419.166	2299.75
419.389	2379.75
419.611	2250.75
419.834	2191.75
420.057	2236.75
420.28	2148.75
420.503	2146.75
420.726	2206.75
420.948	2202.75
421.171	2109.75
421.394	2134.75
421.617	2255.75
421.839	2201.75
422.062	2167.75
422.285	2083.75
422.507	2139.75
422.73	2132.75
422.953	2078.75
423.175	2028.75
423.398	2089.75
423.621	2143.75
423.843	2163.75
424.066	2235.75
424.288	2295.75
424.511	2300.75
424.733	2267.75
424.956	2017.75
425.178	2043.75
425.401	2074.75
425.623	2113.75
425.846	2104.75
426.068	2194.75
426.291	2210.75
426.513	2164.75
426.735	2185.75
426.958	2348.75
427.18	2546.75
427.402	2265.75
427.625	2341.75
427.847	2352.75
428.069	2181.75
428.292	2158.75
428.514	2054.75
428.736	2043.75
428.958	2112.75
429.181	2070.75
429.403	2324.75
429.625	2967.75
429.847	2581.75
430.069	2141.75
430.292	2331.75
430.514	2435.75
430.736	2256.75
430.958	2380.75
431.18	2275.75
431.402	2093.75
431.624	2104.75
431.846	2101.75
432.068	2022.75
432.29	2078.75
432.512	2078.75
432.734	2117.75
432.956	2189.75
433.178	2267.75
433.4	2245.75
433.622	2219.75
433.844	2133.75
434.066	2048.75
434.287	2056.75
434.509	2153.75
434.731	2250.75
434.953	2404.75
435.175	2349.75
435.397	2179.75
435.618	2208.75
435.84	2213.75
436.062	2144.75
436.284	2218.75
436.505	2191.75
436.727	2234.75
436.949	2171.75
437.17	2107.75
437.392	2106.75
437.614	2107.75
437.835	2085.75
438.057	2168.75
438.278	2304.75
438.5	2102.75
438.721	2092.75
438.943	2076.75
439.165	2060.75
439.386	2012.75
439.608	2076.75
439.829	2053.75
440.05	2068.75
440.272	2010.75
440.493	2003.75
440.715	2097.75
440.936	2214.75
441.158	2467.75
441.379	2421.75
441.6	2345.75
441.822	2250.75
442.043	2248.75
442.264	2215.75
442.486	2118.75
442.707	2082.75
442.928	2101.75
443.149	2149.75
443.371	2288.75
443.592	2330.75
443.813	2270.75
444.034	2273.75
444.255	2246.75
444.476	2314.75
444.698	2382.75
444.919	2352.75
445.14	2418.75
445.361	2409.75
445.582	2506.75
445.803	2377.75
446.024	2274.75
446.245	2380.75
446.466	2288.75
446.687	2152.75
446.908	2192.75
447.129	2113.75
447.35	2133.75
447.571	2161.75
447.792	2108.75
448.013	2026.75
448.234	2065.75
448.455	2185.75
448.675	2197.75
448.896	1975.75
449.117	1998.75
449.338	2076.75
449.559	2129.75
449.779	2261.75
450	2492.75
450.221	2676.75
450.442	2613.75
450.662	2237.75
450.883	2008.75
451.104	1952.75
451.324	1968.75
451.545	2082.75
451.766	2069.75
451.986	1947.75
452.207	1966.75
452.428	1922.75
452.648	1851.75
452.869	1954.75
453.089	2018.75
453.31	2034.75
453.53	2091.75
453.751	1985.75
453.971	1896.75
454.192	1948.75
454.412	2097.75
454.633	2041.75
454.853	1934.75
455.073	1826.75
455.294	1822.75
455.514	1834.75
455.734	1804.75
455.955	1892.75
456.175	1848.75
456.395	1869.75
456.616	1944.75
456.836	1974.75
457.056	1898.75
457.276	1902.75
457.497	1885.75
457.717	1782.75
457.937	1810.75
458.157	1916.75
458.377	1889.75
458.598	1817.75
458.818	1861.75
459.038	2023.75
459.258	2098.75
459.478	2144.75
459.698	2065.75
459.918	2093.75
460.138	2154.75
460.358	2248.75
460.578	2218.75
460.798	2371.75
461.018	2458.75
461.238	2348.75
461.458	2224.75
461.678	2218.75
461.898	2206.75
462.118	2141.75
462.338	2234.75
462.558	2237.75
462.777	2218.75
462.997	2283.75
463.217	2458.75
463.437	2442.75
463.657	2276.75
463.876	2254.75
464.096	2211.75
464.316	2241.75
464.536	2291.75
464.755	2317.75
464.975	2369.75
465.195	2240.75
465.414	2394.75
465.634	2364.75
465.854	2240.75
466.073	2393.75
466.293	2343.75
466.512	2053.75
466.732	2026.75
466.951	2126.75
467.171	2109.75
467.391	1989.75
467.61	1958.75
467.829	2044.75
468.049	2132.75
468.268	2464.75
468.488	2289.75
468.707	2171.75
468.927	2078.75
469.146	2098.75
469.365	2019.75
469.585	2050.75
469.804	1996.75
470.023	2064.75
470.243	2067.75
470.462	2008.75
470.681	2003.75
470.901	2038.75
471.12	2071.75
471.339	2027.75
471.558	1962.75
471.777	1897.75
471.997	2016.75
472.216	1997.75
472.435	1910.75
472.654	1971.75
472.873	2048.75
473.092	2192.75
473.311	2049.75
473.53	1957.75
473.749	1916.75
473.968	2084.75
474.187	2127.75
474.406	2218.75
474.625	2108.75
474.844	2074.75
475.063	2032.75
475.282	2149.75
475.501	2074.75
475.72	2087.75
475.939	2161.75
476.158	2125.75
476.377	2013.75
476.596	2098.75
476.814	2161.75
477.033	2155.75
477.252	2238.75
477.471	2314.75
477.69	2161.75
477.908	2184.75
478.127	2261.75
478.346	2457.75
478.564	2500.75
478.783	2450.75
479.002	2508.75
479.22	2458.75
479.439	2560.75
479.658	2858.75
479.876	2872.75
480.095	2460.75
480.313	2372.75
480.532	2265.75
480.751	2325.75
480.969	2354.75
481.188	2284.75
481.406	2298.75
481.624	2262.75
481.843	2254.75
482.061	2314.75
482.28	2368.75
482.498	2412.75
482.717	2377.75
482.935	2251.75
483.153	2313.75
483.372	2258.75
483.59	2241.75
483.808	2263.75
484.027	2354.75
484.245	2470.75
484.463	2807.75
484.681	3277.75
484.9	2550.75
485.118	2322.75
485.336	2270.75
485.554	2391.75
485.772	2532.75
485.99	2448.75
486.209	2462.75
486.427	2409.75
486.645	2460.75
486.863	2399.75
487.081	2464.75
487.299	2564.75
487.517	2464.75
487.735	2390.75
487.953	2332.75
488.171	2340.75
488.389	2345.75
488.607	2387.75
488.825	2584.75
489.043	2636.75
489.261	2387.75
489.479	2524.75
489.696	2586.75
489.914	2496.75
490.132	2450.75
490.35	2388.75
490.568	2517.75
490.786	2410.75
491.003	2316.75
491.221	2404.75
491.439	2504.75
491.657	2420.75
491.874	2434.75
492.092	2479.75
492.31	2477.75
492.527	2488.75
492.745	2398.75
492.963	2433.75
493.18	2520.75
493.398	2696.75
493.615	2735.75
493.833	2522.75
494.05	2482.75
494.268	2488.75
494.485	2514.75
494.703	2466.75
494.92	2478.75
495.138	2477.75
495.355	2501.75
495.573	2572.75
495.79	2748.75
496.008	2751.75
496.225	2569.75
496.442	2584.75
496.66	2644.75
496.877	2582.75
497.094	2708.75
497.312	2727.75
497.529	2741.75
497.746	2771.75
497.963	3230.75
498.181	3616.75
498.398	3356.75
498.615	3280.75
498.832	3156.75
499.049	3138.75
499.267	3154.75
499.484	3364.75
499.701	3624.75
499.918	3652.75
500.135	3997.75
500.352	4234.75
500.569	4161.75
500.786	4420.75
501.003	4161.75
501.22	3730.75
501.437	3685.75
501.654	3660.75
501.871	3555.75
502.088	3141.75
502.305	3171.75
502.522	3067.75
502.739	2777.75
502.956	2767.75
503.172	2728.75
503.389	2645.75
503.606	2595.75
503.823	2650.75
504.04	2626.75
504.256	2595.75
504.473	2601.75
504.69	2747.75
504.907	2612.75
505.123	2445.75
505.34	2562.75
505.557	3296.75
505.773	2890.75
505.99	2399.75
506.207	2255.75
506.423	2227.75
506.64	2198.75
506.856	2240.75
507.073	2575.75
507.289	2728.75
507.506	2610.75
507.722	2278.75
507.939	2162.75
508.155	2194.75
508.372	2194.75
508.588	2130.75
508.805	2074.75
509.021	2037.75
509.238	2054.75
509.454	1989.75
509.67	2039.75
509.887	2017.75
510.103	2005.75
510.319	2041.75
510.536	2159.75
510.752	2245.75
510.968	2204.75
511.184	2342.75
511.401	2356.75
511.617	2049.75
511.833	1996.75
512.049	1962.75
512.265	1989.75
512.481	1972.75
512.698	2011.75
512.914	2202.75
513.13	2113.75
513.346	1998.75
513.562	1941.75
513.778	2003.75
513.994	2125.75
514.21	2188.75
514.426	2214.75
514.642	2456.75
514.858	2324.75
515.074	2098.75
515.29	1996.75
515.506	2028.75
515.721	2111.75
515.937	2101.75
516.153	2407.75
516.369	2339.75
516.585	2155.75
516.801	2064.75
517.016	2089.75
517.232	2139.75
517.448	2161.75
517.664	2222.75
517.879	2220.75
518.095	2253.75
518.311	2217.75
518.527	2082.75
518.742	2037.75
518.958	2001.75
519.173	1980.75
519.389	2002.75
519.605	2053.75
519.82	2002.75
520.036	2069.75
520.251	1980.75
520.467	2026.75
520.682	2173.75
520.898	2278.75
521.113	2013.75
521.329	1982.75
521.544	2155.75
521.76	2029.75
521.975	1907.75
522.19	1881.75
522.406	1890.75
522.621	2321.75
522.836	2333.75
523.052	1899.75
523.267	1881.75
523.482	1931.75
523.698	1839.75
523.913	1738.75
524.128	1838.75
524.343	1963.75
524.559	1970.75
524.774	1846.75
524.989	1805.75
525.204	1846.75
525.419	1786.75
525.634	1763.75
525.849	1784.75
526.064	1830.75
526.28	1873.75
526.495	1752.75
526.71	1744.75
526.925	1776.75
527.14	1781.75
527.355	1763.75
527.57	1720.75
527.785	1815.75
527.999	1727.75
528.214	1705.75
528.429	1687.75
528.644	1696.75
528.859	1692.75
529.074	1736.75
529.289	1744.75
529.503	1756.75
529.718	1768.75
529.933	1740.75
530.148	1681.75
530.363	1672.75
530.577	1718.75
530.792	1714.75
531.007	1769.75
531.221	1691.75
531.436	1760.75
531.651	1821.75
531.865	1929.75
532.08	1790.75
532.295	1692.75
532.509	1618.75
532.724	1660.75
532.938	1757.75
533.153	1906.75
533.367	1769.75
533.582	1717.75
533.796	1669.75
534.011	1726.75
534.225	1724.75
534.44	1748.75
534.654	1712.75
534.868	1670.75
535.083	1796.75
535.297	1755.75
535.511	1724.75
535.726	1680.75
535.94	1710.75
536.154	1697.75
536.369	1677.75
536.583	1635.75
536.797	1623.75
537.011	1702.75
537.225	1630.75
537.44	1607.75
537.654	1698.75
537.868	1657.75
538.082	1524.75
538.296	1549.75
538.51	1537.75
538.724	1558.75
538.938	1575.75
539.153	1611.75
539.367	1618.75
539.581	1626.75
539.795	1716.75
540.009	1686.75
540.222	1617.75
540.436	1662.75
540.65	1777.75
540.864	1801.75
541.078	1716.75
541.292	1586.75
541.506	1570.75
541.72	1598.75
541.934	1611.75
542.147	1635.75
542.361	1608.75
542.575	1593.75
542.789	1513.75
543.002	1489.75
543.216	1559.75
543.43	1660.75
543.644	1707.75
543.857	1748.75
544.071	1658.75
544.285	1614.75
544.498	1588.75
544.712	1633.75
544.925	1612.75
545.139	1639.75
545.352	1578.75
545.566	1513.75
545.779	1514.75
545.993	1565.75
546.206	1600.75
546.42	1502.75
546.633	1492.75
546.847	1495.75
547.06	1514.75
547.274	1514.75
547.487	1494.75
547.7	1532.75
547.914	1556.75
548.127	1559.75
548.34	1549.75
548.554	1549.75
548.767	1549.75
548.98	1529.75
549.193	1521.75
549.407	1590.75
549.62	1588.75
549.833	1518.75
550.046	1538.75
550.259	1487.75
550.473	1466.75
550.686	1501.75
550.899	1445.75
551.112	1453.75
551.325	1460.75
551.538	1520.75
551.751	1787.75
551.964	1485.75
552.177	1419.75
552.39	1389.75
552.603	1448.75
552.816	1506.75
553.029	1549.75
553.242	1576.75
553.455	1509.75
553.667	1495.75
553.88	1512.75
554.093	1490.75
554.306	1402.75
554.519	1399.75
554.732	1386.75
554.944	1395.75
555.157	1470.75
555.37	1403.75
555.583	1421.75
555.795	1365.75
556.008	1377.75
556.221	1301.75
556.433	1310.75
556.646	1323.75
556.859	1290.75
557.071	1295.75
557.284	1283.75
557.496	1307.75
557.709	1255.75
557.921	1256.75
558.134	1259.75
558.346	1277.75
558.559	1246.75
558.771	1255.75
558.984	1193.75
559.196	1217.75
559.409	1164.75
559.621	1201.75
559.833	1225.75
560.046	1273.75
560.258	1238.75
560.47	1251.75
560.683	1223.75
560.895	1217.75
561.107	1225.75
561.32	1243.75
561.532	1280.75
561.744	1245.75
561.956	1257.75
562.168	1201.75
562.381	1165.75
562.593	1193.75
562.805	1227.75
563.017	1202.75
563.229	1206.75
563.441	1225.75
563.653	1214.75
563.865	1202.75
564.077	1230.75
564.289	1205.75
564.501	1240.75
564.713	1277.75
564.925	1316.75
565.137	1386.75
565.349	1293.75
565.561	1274.75
565.773	1264.75
565.985	1297.75
566.197	1394.75
566.408	1440.75
566.62	1492.75
566.832	1460.75
567.044	1470.75
567.255	1482.75
567.467	1480.75
567.679	1509.75
567.891	1565.75
568.102	1538.75
568.314	1458.75
568.526	1361.75
568.737	1329.75
568.949	1253.75
569.161	1221.75
569.372	1195.75
569.584	1182.75
569.795	1175.75
570.007	1157.75
570.218	1138.75
570.43	1117.75
570.641	1087.75
570.853	1101.75
571.064	1150.75
571.276	1107.75
571.487	1072.75
571.698	1061.75
571.91	1044.75
572.121	1018.75
572.333	996.75
572.544	1030.75
572.755	978.75
572.966	964.75
573.178	963.75
573.389	1009.75
573.6	1031.75
573.811	1111.75
574.023	980.75
574.234	984.75
574.445	950.75
574.656	942.75
574.867	937.75
575.078	949.75
575.289	937.75
575.501	942.75
575.712	880.75
575.923	907.75
576.134	955.75
576.345	922.75
576.556	892.75
576.767	870.75
576.978	880.75
577.188	896.75
577.399	868.75
577.61	865.75
577.821	884.75
578.032	842.75
578.243	887.75
578.454	875.75
578.665	857.75
578.875	806.75
579.086	825.75
579.297	837.75
579.508	865.75
579.718	838.75
579.929	820.75
580.14	789.75
580.35	816.75
580.561	845.75
580.772	939.75
580.982	856.75
581.193	825.75
581.403	791.75
581.614	784.75
581.825	817.75
582.035	792.75
582.246	779.75
582.456	832.75
582.667	808.75
582.877	769.75
583.087	764.75
583.298	770.75
583.508	757.75
583.719	752.75
583.929	779.75
584.139	790.75
584.35	777.75
584.56	757.75
584.77	781.75
584.981	790.75
585.191	798.75
585.401	789.75
585.611	773.75
585.821	759.75
586.032	781.75
586.242	743.75
586.452	746.75
586.662	746.75
586.872	734.75
587.082	746.75
587.292	792.75
587.502	768.75
587.713	782.75
587.923	770.75
588.133	776.75
588.343	759.75
588.553	739.75
588.762	746.75
588.972	735.75
589.182	772.75
589.392	753.75
589.602	749.75
589.812	749.75
590.022	711.75
590.232	711.75
590.441	737.75
590.651	740.75
590.861	733.75
591.071	749.75
591.281	715.75
591.49	729.75
591.7	729.75
591.91	728.75
592.119	723.75
592.329	745.75
592.539	774.75
592.748	765.75
592.958	745.75
593.167	773.75
593.377	784.75
593.587	774.75
593.796	744.75
594.006	780.75
594.215	760.75
594.424	767.75
594.634	780.75
594.843	725.75
595.053	772.75
595.262	736.75
595.472	709.75
595.681	755.75
595.89	733.75
596.1	722.75
596.309	738.75
596.518	702.75
596.727	672.75
596.937	659.75
597.146	631.75
597.355	649.75
597.564	665.75
597.774	664.75
597.983	638.75
598.192	660.75
598.401	627.75
598.61	619.75
598.819	654.75
599.028	638.75
599.237	629.75
599.446	602.75
599.655	622.75
599.864	618.75
600.073	591.75
600.282	591.75
600.491	621.75
600.7	596.75
600.909	600.75
601.118	588.75
601.327	604.75
601.536	616.75
601.745	603.75
601.953	599.75
602.162	604.75
602.371	610.75
602.58	590.75
602.789	595.75
602.997	579.75
603.206	621.75
603.415	598.75
603.623	582.75
603.832	597.75
604.041	598.75
604.249	572.75
604.458	573.75
604.666	589.75
604.875	588.75
605.084	572.75
605.292	595.75
605.501	561.75
605.709	574.75
605.918	562.75
606.126	550.75
606.334	556.75
606.543	562.75
606.751	555.75
606.96	557.75
607.168	564.75
607.376	518.75
607.585	543.75
607.793	539.75
608.001	554.75
608.21	566.75
608.418	540.75
608.626	557.75
608.834	556.75
609.043	546.75
609.251	532.75
609.459	535.75
609.667	541.75
609.875	549.75
610.083	557.75
610.291	557.75
610.499	571.75
610.707	546.75
610.916	534.75
611.124	537.75
611.332	514.75
611.54	533.75
611.748	521.75
611.955	520.75
612.163	534.75
612.371	545.75
612.579	503.75
612.787	493.75
612.995	534.75
613.203	516.75
613.411	518.75
613.618	541.75
613.826	554.75
614.034	522.75
614.242	507.75
614.449	512.75
614.657	515.75
614.865	515.75
615.072	544.75
615.28	533.75
615.488	527.75
615.695	547.75
615.903	533.75
616.111	529.75
616.318	530.75
616.526	519.75
616.733	499.75
616.941	500.75
617.148	500.75
617.356	496.75
617.563	530.75
617.771	508.75
617.978	489.75
618.185	492.75
618.393	480.75
618.6	484.75
618.807	496.75
619.015	514.75
619.222	487.75
619.429	485.75
619.637	491.75
619.844	489.75
620.051	482.75
620.258	475.75
620.466	452.75
620.673	453.75
620.88	455.75
621.087	468.75
621.294	448.75
621.501	481.75
621.708	472.75
621.915	444.75
622.122	467.75
622.329	457.75
622.536	477.75
622.743	465.75
622.95	460.75
623.157	432.75
623.364	451.75
623.571	443.75
623.778	456.75
623.985	475.75
624.192	459.75
624.399	454.75
624.606	458.75
624.812	456.75
625.019	436.75
625.226	441.75
625.433	442.75
625.639	439.75
625.846	430.75
626.053	434.75
626.259	419.75
626.466	426.75
626.673	398.75
626.879	411.75
627.086	414.75
627.293	405.75
627.499	418.75
627.706	440.75
627.912	420.75
628.119	414.75
628.325	399.75
628.532	401.75
628.738	424.75
628.945	394.75
629.151	419.75
629.357	408.75
629.564	393.75
629.77	389.75
629.976	408.75
630.183	420.75
630.389	405.75
630.595	405.75
630.802	394.75
631.008	386.75
631.214	384.75
631.42	381.75
631.627	392.75
631.833	359.75
632.039	378.75
632.245	364.75
632.451	375.75
632.657	392.75
632.863	373.75
633.069	376.75
633.275	381.75
633.481	362.75
633.688	357.75
633.893	363.75
634.099	371.75
634.305	368.75
634.511	355.75
634.717	352.75
634.923	354.75
635.129	338.75
635.335	346.75
635.541	345.75
635.747	365.75
635.952	365.75
636.158	365.75
636.364	337.75
636.57	338.75
636.775	358.75
636.981	339.75
637.187	360.75
637.392	348.75
637.598	345.75
637.804	353.75
638.009	343.75
638.215	336.75
638.421	333.75
638.626	347.75
638.832	339.75
639.037	325.75
639.243	330.75
639.448	325.75
639.654	328.75
639.859	307.75
640.065	322.75
640.27	338.75
640.475	334.75
640.681	330.75
640.886	340.75
641.091	333.75
641.297	342.75
641.502	308.75
641.707	332.75
641.913	324.75
642.118	326.75
642.323	325.75
642.528	333.75
642.733	330.75
642.939	308.75
643.144	332.75
643.349	330.75
643.554	329.75
643.759	327.75
643.964	322.75
644.169	298.75
644.374	314.75
644.579	301.75
644.784	317.75
644.989	316.75
645.194	317.75
645.399	309.75
645.604	300.75
645.809	296.75
646.014	331.75
646.219	332.75
646.423	333.75
646.628	323.75
646.833	300.75
647.038	324.75
647.243	320.75
647.447	313.75
647.652	314.75
647.857	301.75
648.062	330.75
648.266	322.75
648.471	326.75
648.676	342.75
648.88	314.75
649.085	318.75
649.289	317.75
649.494	319.75
649.698	304.75
649.903	318.75
650.107	309.75
650.312	295.75
650.516	292.75
650.721	285.75
650.925	279.75
651.13	289.75
651.334	281.75
651.539	280.75
651.743	278.75
651.947	266.75
652.152	268.75
652.356	275.75
652.56	252.75
652.764	268.75
652.969	253.75
653.173	259.75
653.377	261.75
653.581	265.75
653.785	263.75
653.99	242.75
654.194	243.75
654.398	256.75
654.602	241.75
654.806	242.75
655.01	235.75
655.214	242.75
655.418	238.75
655.622	270.75
655.826	232.75
656.03	258.75
656.234	256.75
656.438	294.75
656.642	261.75
656.846	267.75
657.049	254.75
657.253	223.75
657.457	231.75
657.661	204.75
657.865	174.75
658.068	180.75
658.272	176.75
658.476	150.75
658.68	155.75
658.883	156.75
659.087	154.75
659.291	169.75
659.494	137.75
659.698	134.75
659.901	121.75
660.105	137.75
660.309	124.75
660.512	122.75
660.716	117.75
660.919	106.75
661.123	118.75
661.326	112.75
661.53	101.75
661.733	93.75
661.936	85.75
662.14	103.75
662.343	111.75
662.546	109.75
662.75	91.75
662.953	93.75
663.156	99.75
663.36	99.75
663.563	83.75
663.766	74.75
663.969	95.75
664.173	89.75
664.376	88.75
664.579	87.75
664.782	85.75
664.985	89.75
665.188	84.75
665.391	87.75
665.594	93.75
665.797	87.75
666	98.75
666.203	91.75
666.406	89.75
666.609	73.75
666.812	77.75
667.015	72.75
667.218	78.75
667.421	76.75
667.624	84.75
667.827	80.75
668.03	86.75
668.232	80.75
668.435	81.75
668.638	69.75
668.841	85.75
669.043	95.75
669.246	87.75
669.449	88.75
669.651	82.75
669.854	87.75
670.057	79.75
670.259	83.75
670.462	96.75
670.665	64.75
670.867	84.75
671.07	78.75
671.272	85.75
671.475	90.75
671.677	92.75
671.88	90.75
672.082	71.75
672.284	88.75
672.487	88.75
672.689	90.75
672.892	68.75
