Data from WStandard_LampEnergy5.5LIBS07252019.E.O._I.C._HRD10591_16-08-00-920.txt Node
Date: Thu Jul 25 16:08:00 EDT 2019
User: cochatt
Spectrometer: HR+D1059
Trigger mode: 1
Integration Time (sec): 1.000000E-1
Scans to average: 1
Electric dark correction enabled: true
Nonlinearity correction enabled: false
Boxcar width: 0
XAxis mode: Wavelengths
Number of Pixels in Spectrum: 2048
>>>>>Begin Spectral Data<<<<<
223.165	-6.56
223.4	-6.56
223.635	-6.56
223.869	-18.56
224.104	-13.56
224.338	-14.56
224.573	-5.56
224.808	-17.56
225.042	-14.56
225.277	6.44
225.511	-2.56
225.746	1.44
225.98	0.44
226.215	3.44
226.449	15.44
226.683	11.44
226.918	29.44
227.152	25.44
227.387	27.44
227.621	28.44
227.856	34.44
228.09	38.44
228.324	42.44
228.559	55.44
228.793	163.44
229.027	357.44
229.262	373.44
229.496	383.44
229.73	403.44
229.964	443.44
230.199	438.44
230.433	486.44
230.667	526.44
230.901	553.44
231.136	500.44
231.37	464.44
231.604	470.44
231.838	461.44
232.072	469.44
232.306	455.44
232.541	507.44
232.775	553.44
233.009	624.44
233.243	625.44
233.477	510.44
233.711	557.44
233.945	599.44
234.179	536.44
234.413	581.44
234.647	635.44
234.881	586.44
235.115	559.44
235.349	564.44
235.583	586.44
235.817	573.44
236.051	525.44
236.285	557.44
236.519	579.44
236.753	670.44
236.987	689.44
237.221	663.44
237.455	775.44
237.689	733.44
237.922	681.44
238.156	657.44
238.39	672.44
238.624	730.44
238.858	746.44
239.091	765.44
239.325	791.44
239.559	933.44
239.793	985.44
240.027	1075.44
240.26	1014.44
240.494	753.44
240.728	724.44
240.961	740.44
241.195	750.44
241.429	834.44
241.662	838.44
241.896	780.44
242.13	769.44
242.363	884.44
242.597	910.44
242.83	891.44
243.064	901.44
243.298	1000.44
243.531	926.44
243.765	930.44
243.998	947.44
244.232	853.44
244.465	793.44
244.699	819.44
244.932	902.44
245.166	1043.44
245.399	985.44
245.633	910.44
245.866	902.44
246.099	960.44
246.333	995.44
246.566	997.44
246.8	1030.44
247.033	1193.44
247.266	1093.44
247.5	1066.44
247.733	1063.44
247.966	1137.44
248.2	1262.44
248.433	1203.44
248.666	1231.44
248.899	1337.44
249.133	1550.44
249.366	1782.44
249.599	1459.44
249.832	1272.44
250.066	1276.44
250.299	1330.44
250.532	1212.44
250.765	1086.44
250.998	1181.44
251.231	1219.44
251.465	1250.44
251.698	1181.44
251.931	1172.44
252.164	1217.44
252.397	1286.44
252.63	1266.44
252.863	1102.44
253.096	1084.44
253.329	1160.44
253.562	1236.44
253.795	1331.44
254.028	1293.44
254.261	1198.44
254.494	1193.44
254.727	1119.44
254.96	1177.44
255.193	1273.44
255.426	1404.44
255.659	1635.44
255.892	1725.44
256.124	1376.44
256.357	1348.44
256.59	1448.44
256.823	1480.44
257.056	1416.44
257.289	1762.44
257.521	1934.44
257.754	1725.44
257.987	1612.44
258.22	1813.44
258.452	1765.44
258.685	1426.44
258.918	1399.44
259.151	1451.44
259.383	1335.44
259.616	1210.44
259.849	1272.44
260.081	1408.44
260.314	1586.44
260.547	1750.44
260.779	1755.44
261.012	1618.44
261.244	1445.44
261.477	1343.44
261.71	1456.44
261.942	1446.44
262.175	1390.44
262.407	1488.44
262.64	1396.44
262.872	1308.44
263.105	1265.44
263.337	1327.44
263.57	1309.44
263.802	1303.44
264.035	1248.44
264.267	1161.44
264.499	1115.44
264.732	1243.44
264.964	1323.44
265.197	1378.44
265.429	1393.44
265.661	1583.44
265.894	1717.44
266.126	1786.44
266.358	1613.44
266.591	1659.44
266.823	1830.44
267.055	1622.44
267.287	1602.44
267.52	1595.44
267.752	1604.44
267.984	1543.44
268.216	1648.44
268.448	1695.44
268.681	1673.44
268.913	1533.44
269.145	1445.44
269.377	1398.44
269.609	1536.44
269.841	1775.44
270.073	2050.44
270.306	2315.44
270.538	2482.44
270.77	2100.44
271.002	1751.44
271.234	1665.44
271.466	1678.44
271.698	1858.44
271.93	2244.44
272.162	2243.44
272.394	2046.44
272.626	1912.44
272.858	1685.44
273.09	1474.44
273.322	1477.44
273.553	1413.44
273.785	1432.44
274.017	1435.44
274.249	1570.44
274.481	1599.44
274.713	1489.44
274.945	1442.44
275.176	1426.44
275.408	1410.44
275.64	1360.44
275.872	1381.44
276.104	1466.44
276.335	1671.44
276.567	1925.44
276.799	1937.44
277.031	1762.44
277.262	1620.44
277.494	1661.44
277.726	1859.44
277.957	1877.44
278.189	1711.44
278.421	1596.44
278.652	1522.44
278.884	1486.44
279.115	1515.44
279.347	1555.44
279.579	1493.44
279.81	1493.44
280.042	1622.44
280.273	1810.44
280.505	1781.44
280.736	1855.44
280.968	1743.44
281.199	1560.44
281.431	1467.44
281.662	1432.44
281.894	1447.44
282.125	1471.44
282.356	1562.44
282.588	1565.44
282.819	1546.44
283.051	1681.44
283.282	1840.44
283.513	1812.44
283.745	1537.44
283.976	1402.44
284.207	1465.44
284.439	1488.44
284.67	1525.44
284.901	1564.44
285.132	1594.44
285.364	1553.44
285.595	1594.44
285.826	1557.44
286.057	1546.44
286.288	1521.44
286.52	1605.44
286.751	1678.44
286.982	1781.44
287.213	1635.44
287.444	1495.44
287.675	1486.44
287.906	1561.44
288.138	1676.44
288.369	1657.44
288.6	1505.44
288.831	1484.44
289.062	1484.44
289.293	1553.44
289.524	1541.44
289.755	1569.44
289.986	1588.44
290.217	1461.44
290.448	1511.44
290.679	1526.44
290.91	1538.44
291.141	1617.44
291.371	1680.44
291.602	1651.44
291.833	1619.44
292.064	1702.44
292.295	1644.44
292.526	1688.44
292.757	1779.44
292.987	1685.44
293.218	1555.44
293.449	1744.44
293.68	1901.44
293.91	2086.44
294.141	1884.44
294.372	1748.44
294.603	1859.44
294.833	1959.44
295.064	1856.44
295.295	1675.44
295.525	1614.44
295.756	1537.44
295.987	1445.44
296.217	1449.44
296.448	1520.44
296.679	1507.44
296.909	1545.44
297.14	1526.44
297.37	1525.44
297.601	1645.44
297.831	1729.44
298.062	1764.44
298.292	1625.44
298.523	1533.44
298.753	1535.44
298.984	1537.44
299.214	1532.44
299.445	1598.44
299.675	1641.44
299.905	1632.44
300.136	1587.44
300.366	1558.44
300.597	1512.44
300.827	1494.44
301.057	1574.44
301.288	1630.44
301.518	1666.44
301.748	1700.44
301.979	1713.44
302.209	1749.44
302.439	1893.44
302.669	2015.44
302.9	1830.44
303.13	1665.44
303.36	1647.44
303.59	1709.44
303.82	1673.44
304.051	1691.44
304.281	1657.44
304.511	1665.44
304.741	1729.44
304.971	1929.44
305.201	2089.44
305.431	2011.44
305.661	1623.44
305.891	1472.44
306.121	1449.44
306.352	1468.44
306.582	1576.44
306.812	1712.44
307.042	1852.44
307.272	1867.44
307.502	1894.44
307.731	2021.44
307.961	2160.44
308.191	2025.44
308.421	1757.44
308.651	1651.44
308.881	1599.44
309.111	1634.44
309.341	1539.44
309.571	1577.44
309.8	1614.44
310.03	1597.44
310.26	1567.44
310.49	1544.44
310.72	1606.44
310.949	1740.44
311.179	1758.44
311.409	1657.44
311.639	1644.44
311.868	1605.44
312.098	1650.44
312.328	1619.44
312.557	1615.44
312.787	1621.44
313.017	1693.44
313.246	1668.44
313.476	1674.44
313.706	1723.44
313.935	1675.44
314.165	1690.44
314.394	1740.44
314.624	1827.44
314.853	1992.44
315.083	2025.44
315.312	2127.44
315.542	1976.44
315.771	1739.44
316.001	1707.44
316.23	1851.44
316.46	1851.44
316.689	1785.44
316.919	1670.44
317.148	1681.44
317.377	1669.44
317.607	1773.44
317.836	1961.44
318.065	2047.44
318.295	1986.44
318.524	1885.44
318.753	1812.44
318.983	1791.44
319.212	1749.44
319.441	1697.44
319.67	1752.44
319.9	1735.44
320.129	1866.44
320.358	1909.44
320.587	1955.44
320.816	1967.44
321.046	1907.44
321.275	1811.44
321.504	1795.44
321.733	1967.44
321.962	1918.44
322.191	1795.44
322.42	1752.44
322.649	1725.44
322.878	1738.44
323.108	1725.44
323.337	1813.44
323.566	1805.44
323.795	1793.44
324.024	1807.44
324.253	1787.44
324.482	1766.44
324.71	1719.44
324.939	1653.44
325.168	1693.44
325.397	1717.44
325.626	1782.44
325.855	1798.44
326.084	1739.44
326.313	1688.44
326.542	1773.44
326.77	1832.44
326.999	1841.44
327.228	1755.44
327.457	1710.44
327.686	1701.44
327.914	1682.44
328.143	1752.44
328.372	1718.44
328.6	1788.44
328.829	1721.44
329.058	1688.44
329.287	1725.44
329.515	1779.44
329.744	1791.44
329.972	1854.44
330.201	1926.44
330.43	1897.44
330.658	1817.44
330.887	1854.44
331.115	1863.44
331.344	1873.44
331.572	1794.44
331.801	1808.44
332.03	1826.44
332.258	1860.44
332.486	1867.44
332.715	1875.44
332.943	1844.44
333.172	1873.44
333.4	1875.44
333.629	1921.44
333.857	1993.44
334.085	2180.44
334.314	2503.44
334.542	2747.44
334.771	2523.44
334.999	2268.44
335.227	2127.44
335.455	1997.44
335.684	1946.44
335.912	2019.44
336.14	2093.44
336.369	2035.44
336.597	1949.44
336.825	1863.44
337.053	1959.44
337.281	2000.44
337.51	2120.44
337.738	2262.44
337.966	2116.44
338.194	1941.44
338.422	1858.44
338.65	1839.44
338.878	1817.44
339.106	1793.44
339.334	1804.44
339.562	1744.44
339.79	1776.44
340.018	1873.44
340.246	1976.44
340.474	1944.44
340.702	1895.44
340.93	1914.44
341.158	1903.44
341.386	1840.44
341.614	1857.44
341.842	1815.44
342.07	1825.44
342.298	1855.44
342.526	1817.44
342.754	1778.44
342.981	1813.44
343.209	1830.44
343.437	1821.44
343.665	1849.44
343.893	1877.44
344.12	1934.44
344.348	1939.44
344.576	1913.44
344.804	1794.44
345.031	1786.44
345.259	1813.44
345.487	1781.44
345.714	1709.44
345.942	1637.44
346.17	1682.44
346.397	1712.44
346.625	1746.44
346.853	1644.44
347.08	1611.44
347.308	1637.44
347.535	1687.44
347.763	1799.44
347.99	1766.44
348.218	1656.44
348.445	1639.44
348.673	1667.44
348.9	1762.44
349.128	1782.44
349.355	1876.44
349.583	1789.44
349.81	1747.44
350.037	1586.44
350.265	1575.44
350.492	1621.44
350.72	1636.44
350.947	1698.44
351.174	1769.44
351.402	1649.44
351.629	1606.44
351.856	1570.44
352.083	1569.44
352.311	1561.44
352.538	1614.44
352.765	1696.44
352.992	1757.44
353.22	1686.44
353.447	1607.44
353.674	1656.44
353.901	1682.44
354.128	1643.44
354.355	1631.44
354.583	1684.44
354.81	1714.44
355.037	1710.44
355.264	1722.44
355.491	1638.44
355.718	1690.44
355.945	1678.44
356.172	1657.44
356.399	1620.44
356.626	1605.44
356.853	1690.44
357.08	1749.44
357.307	1993.44
357.534	2008.44
357.761	1800.44
357.988	1605.44
358.215	1561.44
358.441	1612.44
358.668	1591.44
358.895	1582.44
359.122	1679.44
359.349	1921.44
359.576	1876.44
359.802	1705.44
360.029	1617.44
360.256	1604.44
360.483	1608.44
360.709	1679.44
360.936	1742.44
361.163	1782.44
361.39	1929.44
361.616	2131.44
361.843	2024.44
362.07	1926.44
362.296	1685.44
362.523	1640.44
362.749	1659.44
362.976	1686.44
363.203	1750.44
363.429	1673.44
363.656	1591.44
363.882	1658.44
364.109	1853.44
364.335	2000.44
364.562	1863.44
364.788	1764.44
365.015	1725.44
365.241	1621.44
365.468	1685.44
365.694	1751.44
365.92	1830.44
366.147	1749.44
366.373	1600.44
366.599	1611.44
366.826	1578.44
367.052	1654.44
367.278	1595.44
367.505	1646.44
367.731	1688.44
367.957	1705.44
368.184	1751.44
368.41	1830.44
368.636	1858.44
368.862	1882.44
369.089	1894.44
369.315	1817.44
369.541	1767.44
369.767	1760.44
369.993	1675.44
370.219	1671.44
370.445	1693.44
370.672	1791.44
370.898	1844.44
371.124	1850.44
371.35	1803.44
371.576	1773.44
371.802	1898.44
372.028	1757.44
372.254	1720.44
372.48	1720.44
372.706	1668.44
372.932	1682.44
373.158	1694.44
373.384	1732.44
373.61	1736.44
373.835	1842.44
374.061	1778.44
374.287	1738.44
374.513	1717.44
374.739	1783.44
374.965	1740.44
375.191	1773.44
375.416	1817.44
375.642	1838.44
375.868	1889.44
376.094	1974.44
376.319	1876.44
376.545	1764.44
376.771	1776.44
376.997	1913.44
377.222	1855.44
377.448	1789.44
377.674	1843.44
377.899	1807.44
378.125	1905.44
378.35	1911.44
378.576	1734.44
378.802	1720.44
379.027	1701.44
379.253	1729.44
379.478	1767.44
379.704	1705.44
379.929	1753.44
380.155	1727.44
380.38	1729.44
380.606	1777.44
380.831	1762.44
381.057	1822.44
381.282	1850.44
381.507	1824.44
381.733	1963.44
381.958	1988.44
382.184	1903.44
382.409	1796.44
382.634	1849.44
382.86	1815.44
383.085	1826.44
383.31	1872.44
383.535	1985.44
383.761	2148.44
383.986	2063.44
384.211	1998.44
384.436	1983.44
384.662	2036.44
384.887	2104.44
385.112	2017.44
385.337	2045.44
385.562	1975.44
385.787	1993.44
386.013	2050.44
386.238	2079.44
386.463	2025.44
386.688	2161.44
386.913	2305.44
387.138	2218.44
387.363	2105.44
387.588	2074.44
387.813	2057.44
388.038	2085.44
388.263	2125.44
388.488	2083.44
388.713	1903.44
388.938	1903.44
389.163	1958.44
389.387	1947.44
389.612	1951.44
389.837	2014.44
390.062	2018.44
390.287	2006.44
390.512	2004.44
390.736	1952.44
390.961	1949.44
391.186	1953.44
391.411	1944.44
391.636	1969.44
391.86	1999.44
392.085	1946.44
392.31	1965.44
392.534	2005.44
392.759	2036.44
392.984	2009.44
393.208	2003.44
393.433	2051.44
393.658	2122.44
393.882	2158.44
394.107	2021.44
394.331	1991.44
394.556	1974.44
394.78	1979.44
395.005	2052.44
395.229	2123.44
395.454	2295.44
395.678	2325.44
395.903	2192.44
396.127	2116.44
396.352	2097.44
396.576	2178.44
396.801	2176.44
397.025	2154.44
397.249	2168.44
397.474	2165.44
397.698	2139.44
397.922	2199.44
398.147	2293.44
398.371	2388.44
398.595	2404.44
398.82	2311.44
399.044	2309.44
399.268	2472.44
399.492	2543.44
399.717	2686.44
399.941	2709.44
400.165	2627.44
400.389	2557.44
400.613	2523.44
400.837	2790.44
401.062	3182.44
401.286	2747.44
401.51	2500.44
401.734	2631.44
401.958	2532.44
402.182	2379.44
402.406	2279.44
402.63	2225.44
402.854	2286.44
403.078	2290.44
403.302	2341.44
403.526	2396.44
403.75	2377.44
403.974	2388.44
404.198	2389.44
404.422	2430.44
404.645	2547.44
404.869	2521.44
405.093	2353.44
405.317	2319.44
405.541	2415.44
405.765	2386.44
405.988	2396.44
406.212	2398.44
406.436	2486.44
406.66	2551.44
406.883	2574.44
407.107	2900.44
407.331	3154.44
407.555	3371.44
407.778	3131.44
408.002	2550.44
408.226	2528.44
408.449	2509.44
408.673	2427.44
408.896	2491.44
409.12	2506.44
409.344	2447.44
409.567	2354.44
409.791	2385.44
410.014	2423.44
410.238	2538.44
410.461	2692.44
410.685	2434.44
410.908	2349.44
411.132	2396.44
411.355	2349.44
411.578	2316.44
411.802	2333.44
412.025	2373.44
412.249	2355.44
412.472	2248.44
412.695	2199.44
412.919	2217.44
413.142	2276.44
413.365	2315.44
413.589	2361.44
413.812	2429.44
414.035	2487.44
414.258	2313.44
414.482	2295.44
414.705	2325.44
414.928	2289.44
415.151	2232.44
415.374	2260.44
415.597	2263.44
415.821	2357.44
416.044	2419.44
416.267	2427.44
416.49	2182.44
416.713	2169.44
416.936	2249.44
417.159	2385.44
417.382	2345.44
417.605	2219.44
417.828	2247.44
418.051	2324.44
418.274	2256.44
418.497	2179.44
418.72	2163.44
418.943	2158.44
419.166	2343.44
419.389	2415.44
419.611	2306.44
419.834	2231.44
420.057	2284.44
420.28	2193.44
420.503	2171.44
420.726	2247.44
420.948	2266.44
421.171	2142.44
421.394	2180.44
421.617	2249.44
421.839	2240.44
422.062	2214.44
422.285	2169.44
422.507	2195.44
422.73	2128.44
422.953	2065.44
423.175	2130.44
423.398	2183.44
423.621	2197.44
423.843	2192.44
424.066	2250.44
424.288	2266.44
424.511	2364.44
424.733	2313.44
424.956	2118.44
425.178	2079.44
425.401	2129.44
425.623	2117.44
425.846	2116.44
426.068	2273.44
426.291	2304.44
426.513	2243.44
426.735	2244.44
426.958	2400.44
427.18	2525.44
427.402	2301.44
427.625	2328.44
427.847	2381.44
428.069	2185.44
428.292	2165.44
428.514	2077.44
428.736	2097.44
428.958	2074.44
429.181	2115.44
429.403	2392.44
429.625	2980.44
429.847	2690.44
430.069	2183.44
430.292	2329.44
430.514	2478.44
430.736	2278.44
430.958	2358.44
431.18	2291.44
431.402	2157.44
431.624	2096.44
431.846	2134.44
432.068	2088.44
432.29	2079.44
432.512	2129.44
432.734	2146.44
432.956	2166.44
433.178	2280.44
433.4	2237.44
433.622	2281.44
433.844	2166.44
434.066	2073.44
434.287	2106.44
434.509	2146.44
434.731	2276.44
434.953	2423.44
435.175	2402.44
435.397	2199.44
435.618	2246.44
435.84	2244.44
436.062	2184.44
436.284	2206.44
436.505	2233.44
436.727	2274.44
436.949	2218.44
437.17	2113.44
437.392	2141.44
437.614	2135.44
437.835	2093.44
438.057	2230.44
438.278	2298.44
438.5	2201.44
438.721	2109.44
438.943	2117.44
439.165	2098.44
439.386	2016.44
439.608	2109.44
439.829	2049.44
440.05	2136.44
440.272	2082.44
440.493	2062.44
440.715	2113.44
440.936	2233.44
441.158	2448.44
441.379	2395.44
441.6	2313.44
441.822	2249.44
442.043	2258.44
442.264	2215.44
442.486	2107.44
442.707	2119.44
442.928	2096.44
443.149	2167.44
443.371	2319.44
443.592	2402.44
443.813	2333.44
444.034	2287.44
444.255	2281.44
444.476	2307.44
444.698	2442.44
444.919	2378.44
445.14	2421.44
445.361	2398.44
445.582	2531.44
445.803	2394.44
446.024	2307.44
446.245	2432.44
446.466	2321.44
446.687	2201.44
446.908	2176.44
447.129	2168.44
447.35	2187.44
447.571	2189.44
447.792	2058.44
448.013	2051.44
448.234	2095.44
448.455	2207.44
448.675	2191.44
448.896	2019.44
449.117	1997.44
449.338	2088.44
449.559	2145.44
449.779	2271.44
450	2487.44
450.221	2717.44
450.442	2627.44
450.662	2289.44
450.883	2040.44
451.104	2010.44
451.324	2003.44
451.545	2157.44
451.766	2108.44
451.986	1945.44
452.207	1971.44
452.428	1915.44
452.648	1847.44
452.869	1951.44
453.089	2087.44
453.31	2066.44
453.53	2140.44
453.751	2025.44
453.971	1909.44
454.192	1954.44
454.412	2102.44
454.633	2048.44
454.853	1989.44
455.073	1870.44
455.294	1832.44
455.514	1827.44
455.734	1839.44
455.955	1898.44
456.175	1899.44
456.395	1915.44
456.616	1959.44
456.836	1992.44
457.056	1924.44
457.276	1893.44
457.497	1894.44
457.717	1858.44
457.937	1833.44
458.157	1908.44
458.377	1889.44
458.598	1885.44
458.818	1877.44
459.038	2039.44
459.258	2163.44
459.478	2173.44
459.698	2099.44
459.918	2134.44
460.138	2245.44
460.358	2250.44
460.578	2225.44
460.798	2343.44
461.018	2526.44
461.238	2388.44
461.458	2248.44
461.678	2310.44
461.898	2207.44
462.118	2141.44
462.338	2238.44
462.558	2263.44
462.777	2236.44
462.997	2363.44
463.217	2538.44
463.437	2448.44
463.657	2309.44
463.876	2290.44
464.096	2230.44
464.316	2234.44
464.536	2371.44
464.755	2357.44
464.975	2392.44
465.195	2310.44
465.414	2367.44
465.634	2402.44
465.854	2263.44
466.073	2420.44
466.293	2354.44
466.512	2106.44
466.732	2055.44
466.951	2170.44
467.171	2151.44
467.391	2060.44
467.61	1982.44
467.829	2055.44
468.049	2210.44
468.268	2470.44
468.488	2330.44
468.707	2152.44
468.927	2122.44
469.146	2119.44
469.365	2018.44
469.585	2065.44
469.804	2045.44
470.023	2054.44
470.243	2111.44
470.462	2068.44
470.681	1986.44
470.901	2053.44
471.12	2106.44
471.339	2076.44
471.558	2002.44
471.777	1959.44
471.997	1992.44
472.216	2025.44
472.435	1977.44
472.654	2000.44
472.873	2106.44
473.092	2241.44
473.311	2089.44
473.53	1942.44
473.749	2006.44
473.968	2054.44
474.187	2127.44
474.406	2289.44
474.625	2120.44
474.844	2076.44
475.063	2039.44
475.282	2202.44
475.501	2085.44
475.72	2060.44
475.939	2204.44
476.158	2160.44
476.377	2077.44
476.596	2106.44
476.814	2186.44
477.033	2171.44
477.252	2252.44
477.471	2310.44
477.69	2195.44
477.908	2159.44
478.127	2324.44
478.346	2515.44
478.564	2488.44
478.783	2435.44
479.002	2569.44
479.22	2487.44
479.439	2569.44
479.658	2909.44
479.876	2867.44
480.095	2528.44
480.313	2425.44
480.532	2270.44
480.751	2311.44
480.969	2385.44
481.188	2381.44
481.406	2294.44
481.624	2241.44
481.843	2276.44
482.061	2366.44
482.28	2390.44
482.498	2428.44
482.717	2353.44
482.935	2317.44
483.153	2333.44
483.372	2304.44
483.59	2330.44
483.808	2328.44
484.027	2335.44
484.245	2506.44
484.463	2886.44
484.681	3367.44
484.9	2607.44
485.118	2396.44
485.336	2330.44
485.554	2434.44
485.772	2544.44
485.99	2526.44
486.209	2502.44
486.427	2499.44
486.645	2474.44
486.863	2401.44
487.081	2469.44
487.299	2561.44
487.517	2531.44
487.735	2413.44
487.953	2351.44
488.171	2403.44
488.389	2429.44
488.607	2373.44
488.825	2617.44
489.043	2687.44
489.261	2395.44
489.479	2511.44
489.696	2588.44
489.914	2554.44
490.132	2496.44
490.35	2410.44
490.568	2483.44
490.786	2472.44
491.003	2369.44
491.221	2406.44
491.439	2536.44
491.657	2463.44
491.874	2464.44
492.092	2472.44
492.31	2497.44
492.527	2498.44
492.745	2482.44
492.963	2429.44
493.18	2538.44
493.398	2726.44
493.615	2819.44
493.833	2561.44
494.05	2521.44
494.268	2495.44
494.485	2591.44
494.703	2534.44
494.92	2501.44
495.138	2467.44
495.355	2546.44
495.573	2589.44
495.79	2792.44
496.008	2831.44
496.225	2649.44
496.442	2633.44
496.66	2705.44
496.877	2631.44
497.094	2749.44
497.312	2804.44
497.529	2756.44
497.746	2823.44
497.963	3257.44
498.181	3669.44
498.398	3382.44
498.615	3336.44
498.832	3281.44
499.049	3215.44
499.267	3173.44
499.484	3445.44
499.701	3745.44
499.918	3730.44
500.135	4029.44
500.352	4290.44
500.569	4269.44
500.786	4496.44
501.003	4286.44
501.22	3843.44
501.437	3710.44
501.654	3713.44
501.871	3654.44
502.088	3197.44
502.305	3200.44
502.522	3093.44
502.739	2882.44
502.956	2841.44
503.172	2741.44
503.389	2713.44
503.606	2651.44
503.823	2669.44
504.04	2645.44
504.256	2655.44
504.473	2704.44
504.69	2777.44
504.907	2656.44
505.123	2485.44
505.34	2577.44
505.557	3344.44
505.773	2888.44
505.99	2497.44
506.207	2283.44
506.423	2279.44
506.64	2216.44
506.856	2266.44
507.073	2561.44
507.289	2751.44
507.506	2698.44
507.722	2294.44
507.939	2202.44
508.155	2211.44
508.372	2241.44
508.588	2146.44
508.805	2121.44
509.021	2065.44
509.238	2060.44
509.454	2069.44
509.67	2083.44
509.887	2051.44
510.103	2063.44
510.319	2091.44
510.536	2162.44
510.752	2201.44
510.968	2216.44
511.184	2389.44
511.401	2321.44
511.617	2089.44
511.833	2030.44
512.049	1984.44
512.265	2010.44
512.481	1974.44
512.698	2086.44
512.914	2203.44
513.13	2164.44
513.346	2032.44
513.562	1982.44
513.778	2022.44
513.994	2122.44
514.21	2136.44
514.426	2154.44
514.642	2418.44
514.858	2306.44
515.074	2050.44
515.29	2009.44
515.506	2120.44
515.721	2062.44
515.937	2144.44
516.153	2443.44
516.369	2342.44
516.585	2204.44
516.801	2098.44
517.016	2099.44
517.232	2138.44
517.448	2209.44
517.664	2225.44
517.879	2208.44
518.095	2351.44
518.311	2246.44
518.527	2131.44
518.742	2087.44
518.958	1996.44
519.173	2034.44
519.389	2063.44
519.605	2052.44
519.82	2140.44
520.036	2149.44
520.251	2010.44
520.467	2033.44
520.682	2210.44
520.898	2300.44
521.113	2066.44
521.329	1978.44
521.544	2161.44
521.76	2055.44
521.975	1953.44
522.19	1936.44
522.406	1898.44
522.621	2332.44
522.836	2353.44
523.052	1913.44
523.267	1904.44
523.482	1913.44
523.698	1838.44
523.913	1809.44
524.128	1871.44
524.343	1937.44
524.559	1965.44
524.774	1839.44
524.989	1861.44
525.204	1873.44
525.419	1781.44
525.634	1764.44
525.849	1810.44
526.064	1849.44
526.28	1899.44
526.495	1798.44
526.71	1746.44
526.925	1811.44
527.14	1791.44
527.355	1756.44
527.57	1727.44
527.785	1791.44
527.999	1752.44
528.214	1734.44
528.429	1698.44
528.644	1734.44
528.859	1752.44
529.074	1751.44
529.289	1718.44
529.503	1764.44
529.718	1780.44
529.933	1739.44
530.148	1700.44
530.363	1704.44
530.577	1731.44
530.792	1779.44
531.007	1756.44
531.221	1759.44
531.436	1750.44
531.651	1793.44
531.865	1906.44
532.08	1848.44
532.295	1705.44
532.509	1677.44
532.724	1688.44
532.938	1757.44
533.153	1861.44
533.367	1744.44
533.582	1742.44
533.796	1720.44
534.011	1745.44
534.225	1755.44
534.44	1754.44
534.654	1675.44
534.868	1687.44
535.083	1774.44
535.297	1796.44
535.511	1731.44
535.726	1717.44
535.94	1705.44
536.154	1695.44
536.369	1677.44
536.583	1625.44
536.797	1659.44
537.011	1702.44
537.225	1669.44
537.44	1613.44
537.654	1711.44
537.868	1659.44
538.082	1563.44
538.296	1542.44
538.51	1568.44
538.724	1555.44
538.938	1552.44
539.153	1629.44
539.367	1630.44
539.581	1614.44
539.795	1721.44
540.009	1705.44
540.222	1669.44
540.436	1687.44
540.65	1839.44
540.864	1850.44
541.078	1715.44
541.292	1588.44
541.506	1613.44
541.72	1626.44
541.934	1645.44
542.147	1650.44
542.361	1589.44
542.575	1640.44
542.789	1578.44
543.002	1538.44
543.216	1564.44
543.43	1646.44
543.644	1681.44
543.857	1779.44
544.071	1716.44
544.285	1646.44
544.498	1624.44
544.712	1624.44
544.925	1623.44
545.139	1697.44
545.352	1619.44
545.566	1518.44
545.779	1503.44
545.993	1548.44
546.206	1578.44
546.42	1537.44
546.633	1506.44
546.847	1494.44
547.06	1510.44
547.274	1546.44
547.487	1546.44
547.7	1533.44
547.914	1547.44
548.127	1541.44
548.34	1572.44
548.554	1558.44
548.767	1531.44
548.98	1556.44
549.193	1534.44
549.407	1620.44
549.62	1578.44
549.833	1562.44
550.046	1530.44
550.259	1552.44
550.473	1518.44
550.686	1520.44
550.899	1503.44
551.112	1474.44
551.325	1472.44
551.538	1528.44
551.751	1803.44
551.964	1487.44
552.177	1459.44
552.39	1509.44
552.603	1534.44
552.816	1522.44
553.029	1555.44
553.242	1615.44
553.455	1527.44
553.667	1517.44
553.88	1522.44
554.093	1510.44
554.306	1412.44
554.519	1414.44
554.732	1359.44
554.944	1427.44
555.157	1472.44
555.37	1398.44
555.583	1470.44
555.795	1401.44
556.008	1361.44
556.221	1330.44
556.433	1314.44
556.646	1293.44
556.859	1330.44
557.071	1285.44
557.284	1305.44
557.496	1309.44
557.709	1281.44
557.921	1281.44
558.134	1264.44
558.346	1301.44
558.559	1263.44
558.771	1269.44
558.984	1227.44
559.196	1209.44
559.409	1221.44
559.621	1242.44
559.833	1260.44
560.046	1309.44
560.258	1261.44
560.47	1277.44
560.683	1254.44
560.895	1261.44
561.107	1268.44
561.32	1273.44
561.532	1284.44
561.744	1252.44
561.956	1238.44
562.168	1207.44
562.381	1200.44
562.593	1175.44
562.805	1207.44
563.017	1207.44
563.229	1204.44
563.441	1238.44
563.653	1185.44
563.865	1199.44
564.077	1224.44
564.289	1207.44
564.501	1256.44
564.713	1236.44
564.925	1297.44
565.137	1399.44
565.349	1291.44
565.561	1280.44
565.773	1329.44
565.985	1320.44
566.197	1419.44
566.408	1485.44
566.62	1484.44
566.832	1479.44
567.044	1524.44
567.255	1469.44
567.467	1484.44
567.679	1571.44
567.891	1593.44
568.102	1551.44
568.314	1463.44
568.526	1447.44
568.737	1356.44
568.949	1291.44
569.161	1242.44
569.372	1224.44
569.584	1206.44
569.795	1199.44
570.007	1169.44
570.218	1114.44
570.43	1117.44
570.641	1111.44
570.853	1148.44
571.064	1140.44
571.276	1113.44
571.487	1081.44
571.698	1060.44
571.91	1053.44
572.121	1039.44
572.333	1035.44
572.544	1031.44
572.755	998.44
572.966	970.44
573.178	997.44
573.389	986.44
573.6	1017.44
573.811	1109.44
574.023	985.44
574.234	974.44
574.445	943.44
574.656	928.44
574.867	913.44
575.078	949.44
575.289	954.44
575.501	935.44
575.712	936.44
575.923	931.44
576.134	935.44
576.345	885.44
576.556	896.44
576.767	897.44
576.978	871.44
577.188	877.44
577.399	867.44
577.61	890.44
577.821	861.44
578.032	853.44
578.243	882.44
578.454	865.44
578.665	866.44
578.875	826.44
579.086	842.44
579.297	834.44
579.508	858.44
579.718	877.44
579.929	823.44
580.14	794.44
580.35	819.44
580.561	839.44
580.772	908.44
580.982	864.44
581.193	862.44
581.403	850.44
581.614	792.44
581.825	824.44
582.035	792.44
582.246	792.44
582.456	823.44
582.667	799.44
582.877	774.44
583.087	777.44
583.298	770.44
583.508	769.44
583.719	791.44
583.929	815.44
584.139	788.44
584.35	753.44
584.56	769.44
584.77	777.44
584.981	765.44
585.191	800.44
585.401	830.44
585.611	791.44
585.821	764.44
586.032	763.44
586.242	770.44
586.452	762.44
586.662	751.44
586.872	770.44
587.082	768.44
587.292	779.44
587.502	779.44
587.713	777.44
587.923	744.44
588.133	745.44
588.343	763.44
588.553	754.44
588.762	709.44
588.972	736.44
589.182	786.44
589.392	724.44
589.602	762.44
589.812	745.44
590.022	747.44
590.232	729.44
590.441	757.44
590.651	790.44
590.861	738.44
591.071	726.44
591.281	726.44
591.49	704.44
591.7	718.44
591.91	727.44
592.119	721.44
592.329	751.44
592.539	775.44
592.748	782.44
592.958	777.44
593.167	771.44
593.377	785.44
593.587	794.44
593.796	780.44
594.006	786.44
594.215	788.44
594.424	756.44
594.634	746.44
594.843	756.44
595.053	773.44
595.262	745.44
595.472	726.44
595.681	744.44
595.89	720.44
596.1	710.44
596.309	714.44
596.518	696.44
596.727	703.44
596.937	695.44
597.146	664.44
597.355	685.44
597.564	665.44
597.774	640.44
597.983	648.44
598.192	660.44
598.401	633.44
598.61	652.44
598.819	640.44
599.028	638.44
599.237	616.44
599.446	640.44
599.655	625.44
599.864	601.44
600.073	604.44
600.282	598.44
600.491	615.44
600.7	594.44
600.909	606.44
601.118	625.44
601.327	606.44
601.536	597.44
601.745	611.44
601.953	599.44
602.162	579.44
602.371	606.44
602.58	599.44
602.789	607.44
602.997	608.44
603.206	578.44
603.415	581.44
603.623	581.44
603.832	598.44
604.041	578.44
604.249	555.44
604.458	574.44
604.666	602.44
604.875	589.44
605.084	588.44
605.292	568.44
605.501	554.44
605.709	572.44
605.918	567.44
606.126	547.44
606.334	542.44
606.543	557.44
606.751	567.44
606.96	566.44
607.168	552.44
607.376	553.44
607.585	543.44
607.793	565.44
608.001	557.44
608.21	589.44
608.418	542.44
608.626	520.44
608.834	520.44
609.043	562.44
609.251	560.44
609.459	550.44
609.667	569.44
609.875	543.44
610.083	574.44
610.291	564.44
610.499	553.44
610.707	557.44
610.916	553.44
611.124	559.44
611.332	513.44
611.54	531.44
611.748	544.44
611.955	529.44
612.163	510.44
612.371	518.44
612.579	524.44
612.787	520.44
612.995	535.44
613.203	531.44
613.411	513.44
613.618	514.44
613.826	534.44
614.034	538.44
614.242	528.44
614.449	510.44
614.657	501.44
614.865	510.44
615.072	536.44
615.28	508.44
615.488	556.44
615.695	544.44
615.903	557.44
616.111	513.44
616.318	509.44
616.526	531.44
616.733	511.44
616.941	519.44
617.148	504.44
617.356	497.44
617.563	498.44
617.771	493.44
617.978	477.44
618.185	495.44
618.393	503.44
618.6	513.44
618.807	491.44
619.015	500.44
619.222	485.44
619.429	469.44
619.637	486.44
619.844	483.44
620.051	481.44
620.258	482.44
620.466	456.44
620.673	455.44
620.88	456.44
621.087	458.44
621.294	447.44
621.501	451.44
621.708	456.44
621.915	472.44
622.122	467.44
622.329	488.44
622.536	457.44
622.743	474.44
622.95	463.44
623.157	483.44
623.364	469.44
623.571	454.44
623.778	475.44
623.985	433.44
624.192	460.44
624.399	429.44
624.606	430.44
624.812	431.44
625.019	411.44
625.226	450.44
625.433	452.44
625.639	438.44
625.846	458.44
626.053	432.44
626.259	422.44
626.466	412.44
626.673	414.44
626.879	412.44
627.086	404.44
627.293	402.44
627.499	407.44
627.706	417.44
627.912	410.44
628.119	413.44
628.325	416.44
628.532	426.44
628.738	425.44
628.945	400.44
629.151	411.44
629.357	437.44
629.564	412.44
629.77	405.44
629.976	394.44
630.183	413.44
630.389	392.44
630.595	402.44
630.802	415.44
631.008	397.44
631.214	376.44
631.42	386.44
631.627	384.44
631.833	372.44
632.039	381.44
632.245	372.44
632.451	378.44
632.657	365.44
632.863	381.44
633.069	374.44
633.275	375.44
633.481	366.44
633.688	382.44
633.893	366.44
634.099	378.44
634.305	392.44
634.511	355.44
634.717	367.44
634.923	340.44
635.129	340.44
635.335	353.44
635.541	354.44
635.747	357.44
635.952	340.44
636.158	347.44
636.364	360.44
636.57	340.44
636.775	363.44
636.981	340.44
637.187	374.44
637.392	351.44
637.598	356.44
637.804	351.44
638.009	354.44
638.215	342.44
638.421	340.44
638.626	341.44
638.832	345.44
639.037	334.44
639.243	329.44
639.448	349.44
639.654	350.44
639.859	328.44
640.065	324.44
640.27	330.44
640.475	334.44
640.681	334.44
640.886	325.44
641.091	329.44
641.297	316.44
641.502	351.44
641.707	324.44
641.913	343.44
642.118	338.44
642.323	323.44
642.528	343.44
642.733	327.44
642.939	322.44
643.144	309.44
643.349	343.44
643.554	314.44
643.759	323.44
643.964	312.44
644.169	329.44
644.374	319.44
644.579	313.44
644.784	312.44
644.989	319.44
645.194	311.44
645.399	316.44
645.604	298.44
645.809	313.44
646.014	328.44
646.219	329.44
646.423	312.44
646.628	330.44
646.833	320.44
647.038	316.44
647.243	328.44
647.447	307.44
647.652	328.44
647.857	331.44
648.062	320.44
648.266	320.44
648.471	331.44
648.676	329.44
648.88	316.44
649.085	337.44
649.289	308.44
649.494	301.44
649.698	315.44
649.903	309.44
650.107	305.44
650.312	296.44
650.516	283.44
650.721	281.44
650.925	286.44
651.13	266.44
651.334	280.44
651.539	278.44
651.743	275.44
651.947	277.44
652.152	263.44
652.356	261.44
652.56	270.44
652.764	266.44
652.969	268.44
653.173	259.44
653.377	257.44
653.581	263.44
653.785	248.44
653.99	256.44
654.194	241.44
654.398	261.44
654.602	245.44
654.806	262.44
655.01	227.44
655.214	247.44
655.418	247.44
655.622	264.44
655.826	253.44
656.03	266.44
656.234	258.44
656.438	255.44
656.642	271.44
656.846	241.44
657.049	238.44
657.253	229.44
657.457	198.44
657.661	187.44
657.865	201.44
658.068	178.44
658.272	183.44
658.476	154.44
658.68	161.44
658.883	153.44
659.087	158.44
659.291	154.44
659.494	127.44
659.698	117.44
659.901	125.44
660.105	111.44
660.309	110.44
660.512	141.44
660.716	117.44
660.919	118.44
661.123	114.44
661.326	111.44
661.53	107.44
661.733	111.44
661.936	115.44
662.14	95.44
662.343	82.44
662.546	80.44
662.75	78.44
662.953	101.44
663.156	81.44
663.36	76.44
663.563	88.44
663.766	80.44
663.969	113.44
664.173	87.44
664.376	94.44
664.579	84.44
664.782	89.44
664.985	89.44
665.188	88.44
665.391	75.44
665.594	75.44
665.797	97.44
666	75.44
666.203	67.44
666.406	64.44
666.609	73.44
666.812	82.44
667.015	86.44
667.218	83.44
667.421	70.44
667.624	97.44
667.827	79.44
668.03	79.44
668.232	80.44
668.435	90.44
668.638	79.44
668.841	101.44
669.043	81.44
669.246	77.44
669.449	87.44
669.651	88.44
669.854	74.44
670.057	83.44
670.259	72.44
670.462	93.44
670.665	87.44
670.867	89.44
671.07	82.44
671.272	89.44
671.475	83.44
671.677	72.44
671.88	81.44
672.082	81.44
672.284	78.44
672.487	82.44
672.689	85.44
672.892	84.44
