Data from WStandard_LampEnergy8_LIBS07252019.E.O._I.C._HRD10591_15-58-55-929.txt Node
Date: Thu Jul 25 15:58:55 EDT 2019
User: cochatt
Spectrometer: HR+D1059
Trigger mode: 1
Integration Time (sec): 1.000000E-1
Scans to average: 1
Electric dark correction enabled: true
Nonlinearity correction enabled: false
Boxcar width: 0
XAxis mode: Wavelengths
Number of Pixels in Spectrum: 2048
>>>>>Begin Spectral Data<<<<<
223.165	-16.75
223.4	-16.75
223.635	-16.75
223.869	-23.75
224.104	-15.75
224.338	-10.75
224.573	-19.75
224.808	-8.75
225.042	-18.75
225.277	-7.75
225.511	10.25
225.746	-0.75
225.98	5.25
226.215	20.25
226.449	25.25
226.683	15.25
226.918	20.25
227.152	26.25
227.387	34.25
227.621	34.25
227.856	58.25
228.09	47.25
228.324	63.25
228.559	56.25
228.793	95.25
229.027	188.25
229.262	209.25
229.496	204.25
229.73	218.25
229.964	256.25
230.199	251.25
230.433	260.25
230.667	279.25
230.901	282.25
231.136	272.25
231.37	255.25
231.604	251.25
231.838	263.25
232.072	256.25
232.306	258.25
232.541	281.25
232.775	310.25
233.009	330.25
233.243	322.25
233.477	279.25
233.711	303.25
233.945	306.25
234.179	302.25
234.413	312.25
234.647	335.25
234.881	308.25
235.115	283.25
235.349	307.25
235.583	316.25
235.817	314.25
236.051	294.25
236.285	310.25
236.519	328.25
236.753	344.25
236.987	369.25
237.221	346.25
237.455	395.25
237.689	355.25
237.922	360.25
238.156	346.25
238.39	337.25
238.624	379.25
238.858	393.25
239.091	403.25
239.325	405.25
239.559	460.25
239.793	483.25
240.027	501.25
240.26	507.25
240.494	388.25
240.728	353.25
240.961	374.25
241.195	377.25
241.429	412.25
241.662	410.25
241.896	388.25
242.13	394.25
242.363	438.25
242.597	440.25
242.83	440.25
243.064	441.25
243.298	484.25
243.531	480.25
243.765	484.25
243.998	470.25
244.232	415.25
244.465	384.25
244.699	423.25
244.932	449.25
245.166	511.25
245.399	510.25
245.633	461.25
245.866	484.25
246.099	467.25
246.333	494.25
246.566	474.25
246.8	529.25
247.033	585.25
247.266	539.25
247.5	525.25
247.733	546.25
247.966	576.25
248.2	620.25
248.433	627.25
248.666	631.25
248.899	663.25
249.133	753.25
249.366	796.25
249.599	655.25
249.832	607.25
250.066	631.25
250.299	600.25
250.532	591.25
250.765	531.25
250.998	577.25
251.231	584.25
251.465	586.25
251.698	580.25
251.931	580.25
252.164	606.25
252.397	611.25
252.63	610.25
252.863	570.25
253.096	577.25
253.329	587.25
253.562	573.25
253.795	620.25
254.028	602.25
254.261	560.25
254.494	599.25
254.727	569.25
254.96	597.25
255.193	632.25
255.426	707.25
255.659	793.25
255.892	769.25
256.124	652.25
256.357	665.25
256.59	695.25
256.823	704.25
257.056	719.25
257.289	823.25
257.521	889.25
257.754	797.25
257.987	754.25
258.22	815.25
258.452	808.25
258.685	668.25
258.918	681.25
259.151	668.25
259.383	635.25
259.616	596.25
259.849	602.25
260.081	678.25
260.314	773.25
260.547	815.25
260.779	793.25
261.012	756.25
261.244	687.25
261.477	687.25
261.71	676.25
261.942	681.25
262.175	665.25
262.407	714.25
262.64	665.25
262.872	648.25
263.105	607.25
263.337	641.25
263.57	647.25
263.802	635.25
264.035	586.25
264.267	569.25
264.499	583.25
264.732	617.25
264.964	659.25
265.197	691.25
265.429	702.25
265.661	791.25
265.894	849.25
266.126	859.25
266.358	794.25
266.591	802.25
266.823	855.25
267.055	784.25
267.287	783.25
267.52	769.25
267.752	746.25
267.984	773.25
268.216	799.25
268.448	809.25
268.681	798.25
268.913	715.25
269.145	705.25
269.377	682.25
269.609	738.25
269.841	885.25
270.073	998.25
270.306	1080.25
270.538	1143.25
270.77	961.25
271.002	867.25
271.234	831.25
271.466	852.25
271.698	918.25
271.93	1069.25
272.162	1054.25
272.394	949.25
272.626	895.25
272.858	798.25
273.09	710.25
273.322	689.25
273.553	688.25
273.785	672.25
274.017	709.25
274.249	761.25
274.481	772.25
274.713	727.25
274.945	693.25
275.176	707.25
275.408	691.25
275.64	679.25
275.872	665.25
276.104	751.25
276.335	834.25
276.567	940.25
276.799	917.25
277.031	838.25
277.262	819.25
277.494	875.25
277.726	917.25
277.957	859.25
278.189	807.25
278.421	738.25
278.652	711.25
278.884	736.25
279.115	711.25
279.347	723.25
279.579	744.25
279.81	758.25
280.042	835.25
280.273	868.25
280.505	865.25
280.736	907.25
280.968	795.25
281.199	745.25
281.431	727.25
281.662	696.25
281.894	709.25
282.125	741.25
282.356	770.25
282.588	789.25
282.819	781.25
283.051	831.25
283.282	856.25
283.513	833.25
283.745	770.25
283.976	699.25
284.207	716.25
284.439	748.25
284.67	760.25
284.901	788.25
285.132	781.25
285.364	756.25
285.595	774.25
285.826	791.25
286.057	751.25
286.288	759.25
286.52	786.25
286.751	879.25
286.982	864.25
287.213	806.25
287.444	724.25
287.675	755.25
287.906	764.25
288.138	840.25
288.369	809.25
288.6	774.25
288.831	759.25
289.062	753.25
289.293	776.25
289.524	775.25
289.755	773.25
289.986	807.25
290.217	748.25
290.448	760.25
290.679	783.25
290.91	782.25
291.141	807.25
291.371	827.25
291.602	823.25
291.833	796.25
292.064	856.25
292.295	835.25
292.526	861.25
292.757	884.25
292.987	810.25
293.218	793.25
293.449	874.25
293.68	981.25
293.91	1021.25
294.141	921.25
294.372	897.25
294.603	919.25
294.833	999.25
295.064	918.25
295.295	841.25
295.525	811.25
295.756	753.25
295.987	726.25
296.217	753.25
296.448	772.25
296.679	794.25
296.909	781.25
297.14	771.25
297.37	810.25
297.601	825.25
297.831	908.25
298.062	883.25
298.292	843.25
298.523	780.25
298.753	765.25
298.984	805.25
299.214	801.25
299.445	835.25
299.675	843.25
299.905	832.25
300.136	797.25
300.366	807.25
300.597	774.25
300.827	775.25
301.057	829.25
301.288	857.25
301.518	852.25
301.748	870.25
301.979	898.25
302.209	950.25
302.439	1004.25
302.669	1030.25
302.9	945.25
303.13	839.25
303.36	879.25
303.59	873.25
303.82	859.25
304.051	854.25
304.281	866.25
304.511	871.25
304.741	963.25
304.971	1036.25
305.201	1060.25
305.431	946.25
305.661	820.25
305.891	775.25
306.121	769.25
306.352	800.25
306.582	852.25
306.812	922.25
307.042	959.25
307.272	944.25
307.502	1017.25
307.731	1052.25
307.961	1084.25
308.191	1001.25
308.421	902.25
308.651	865.25
308.881	830.25
309.111	851.25
309.341	832.25
309.571	850.25
309.8	835.25
310.03	810.25
310.26	790.25
310.49	812.25
310.72	841.25
310.949	873.25
311.179	888.25
311.409	854.25
311.639	864.25
311.868	860.25
312.098	875.25
312.328	857.25
312.557	835.25
312.787	875.25
313.017	876.25
313.246	873.25
313.476	883.25
313.706	895.25
313.935	906.25
314.165	894.25
314.394	925.25
314.624	963.25
314.853	1018.25
315.083	1045.25
315.312	1064.25
315.542	999.25
315.771	899.25
316.001	922.25
316.23	945.25
316.46	947.25
316.689	953.25
316.919	896.25
317.148	865.25
317.377	899.25
317.607	962.25
317.836	1099.25
318.065	1075.25
318.295	1026.25
318.524	999.25
318.753	955.25
318.983	965.25
319.212	923.25
319.441	934.25
319.67	940.25
319.9	941.25
320.129	984.25
320.358	1018.25
320.587	1051.25
320.816	1014.25
321.046	1010.25
321.275	977.25
321.504	993.25
321.733	1036.25
321.962	981.25
322.191	959.25
322.42	939.25
322.649	907.25
322.878	929.25
323.108	921.25
323.337	964.25
323.566	975.25
323.795	978.25
324.024	950.25
324.253	945.25
324.482	934.25
324.71	903.25
324.939	891.25
325.168	908.25
325.397	936.25
325.626	978.25
325.855	992.25
326.084	937.25
326.313	953.25
326.542	957.25
326.77	954.25
326.999	970.25
327.228	917.25
327.457	888.25
327.686	866.25
327.914	892.25
328.143	929.25
328.372	923.25
328.6	923.25
328.829	915.25
329.058	916.25
329.287	930.25
329.515	949.25
329.744	960.25
329.972	1002.25
330.201	1019.25
330.43	1041.25
330.658	985.25
330.887	999.25
331.115	980.25
331.344	969.25
331.572	1011.25
331.801	992.25
332.03	1000.25
332.258	978.25
332.486	982.25
332.715	1035.25
332.943	985.25
333.172	972.25
333.4	1015.25
333.629	1043.25
333.857	1103.25
334.085	1226.25
334.314	1386.25
334.542	1411.25
334.771	1295.25
334.999	1176.25
335.227	1087.25
335.455	1095.25
335.684	1091.25
335.912	1115.25
336.14	1105.25
336.369	1059.25
336.597	1050.25
336.825	1001.25
337.053	1076.25
337.281	1122.25
337.51	1161.25
337.738	1172.25
337.966	1085.25
338.194	999.25
338.422	975.25
338.65	1001.25
338.878	998.25
339.106	961.25
339.334	952.25
339.562	964.25
339.79	989.25
340.018	986.25
340.246	1064.25
340.474	1046.25
340.702	1014.25
340.93	1042.25
341.158	1011.25
341.386	1017.25
341.614	971.25
341.842	1004.25
342.07	1007.25
342.298	1014.25
342.526	1002.25
342.754	973.25
342.981	990.25
343.209	988.25
343.437	975.25
343.665	989.25
343.893	1010.25
344.12	1051.25
344.348	1046.25
344.576	993.25
344.804	978.25
345.031	1000.25
345.259	984.25
345.487	937.25
345.714	877.25
345.942	922.25
346.17	925.25
346.397	970.25
346.625	919.25
346.853	890.25
347.08	899.25
347.308	898.25
347.535	932.25
347.763	954.25
347.99	917.25
348.218	929.25
348.445	903.25
348.673	954.25
348.9	956.25
349.128	984.25
349.355	1012.25
349.583	965.25
349.81	935.25
350.037	841.25
350.265	882.25
350.492	877.25
350.72	917.25
350.947	918.25
351.174	964.25
351.402	917.25
351.629	875.25
351.856	855.25
352.083	869.25
352.311	876.25
352.538	908.25
352.765	945.25
352.992	957.25
353.22	913.25
353.447	892.25
353.674	909.25
353.901	941.25
354.128	889.25
354.355	885.25
354.583	980.25
354.81	966.25
355.037	983.25
355.264	979.25
355.491	943.25
355.718	952.25
355.945	909.25
356.172	915.25
356.399	899.25
356.626	907.25
356.853	933.25
357.08	1057.25
357.307	1102.25
357.534	1076.25
357.761	969.25
357.988	894.25
358.215	872.25
358.441	881.25
358.668	885.25
358.895	904.25
359.122	992.25
359.349	1050.25
359.576	999.25
359.802	932.25
360.029	911.25
360.256	866.25
360.483	919.25
360.709	959.25
360.936	1001.25
361.163	1054.25
361.39	1115.25
361.616	1170.25
361.843	1156.25
362.07	1052.25
362.296	947.25
362.523	911.25
362.749	948.25
362.976	935.25
363.203	947.25
363.429	931.25
363.656	883.25
363.882	989.25
364.109	1070.25
364.335	1112.25
364.562	1048.25
364.788	986.25
365.015	945.25
365.241	915.25
365.468	943.25
365.694	974.25
365.92	1009.25
366.147	973.25
366.373	907.25
366.599	884.25
366.826	896.25
367.052	911.25
367.278	917.25
367.505	928.25
367.731	962.25
367.957	1000.25
368.184	1018.25
368.41	1095.25
368.636	1075.25
368.862	1087.25
369.089	1076.25
369.315	1013.25
369.541	959.25
369.767	932.25
369.993	914.25
370.219	936.25
370.445	962.25
370.672	1043.25
370.898	1027.25
371.124	1036.25
371.35	1012.25
371.576	1031.25
371.802	1039.25
372.028	992.25
372.254	957.25
372.48	956.25
372.706	952.25
372.932	946.25
373.158	949.25
373.384	984.25
373.61	997.25
373.835	1028.25
374.061	983.25
374.287	993.25
374.513	958.25
374.739	969.25
374.965	1012.25
375.191	1025.25
375.416	1014.25
375.642	1036.25
375.868	1119.25
376.094	1144.25
376.319	1077.25
376.545	1033.25
376.771	1032.25
376.997	1087.25
377.222	1077.25
377.448	1066.25
377.674	1044.25
377.899	1055.25
378.125	1130.25
378.35	1092.25
378.576	1008.25
378.802	958.25
379.027	971.25
379.253	997.25
379.478	985.25
379.704	975.25
379.929	989.25
380.155	997.25
380.38	1024.25
380.606	1009.25
380.831	1026.25
381.057	1083.25
381.282	1056.25
381.507	1055.25
381.733	1143.25
381.958	1146.25
382.184	1069.25
382.409	1045.25
382.634	1051.25
382.86	1025.25
383.085	1066.25
383.31	1100.25
383.535	1169.25
383.761	1242.25
383.986	1191.25
384.211	1154.25
384.436	1114.25
384.662	1183.25
384.887	1209.25
385.112	1127.25
385.337	1149.25
385.562	1143.25
385.787	1132.25
386.013	1171.25
386.238	1195.25
386.463	1172.25
386.688	1265.25
386.913	1341.25
387.138	1289.25
387.363	1214.25
387.588	1184.25
387.813	1193.25
388.038	1206.25
388.263	1241.25
388.488	1156.25
388.713	1084.25
388.938	1076.25
389.163	1076.25
389.387	1127.25
389.612	1113.25
389.837	1146.25
390.062	1123.25
390.287	1118.25
390.512	1119.25
390.736	1115.25
390.961	1086.25
391.186	1106.25
391.411	1080.25
391.636	1147.25
391.86	1137.25
392.085	1148.25
392.31	1137.25
392.534	1120.25
392.759	1151.25
392.984	1131.25
393.208	1147.25
393.433	1169.25
393.658	1261.25
393.882	1232.25
394.107	1150.25
394.331	1145.25
394.556	1142.25
394.78	1186.25
395.005	1192.25
395.229	1250.25
395.454	1322.25
395.678	1327.25
395.903	1253.25
396.127	1187.25
396.352	1208.25
396.576	1249.25
396.801	1260.25
397.025	1263.25
397.249	1256.25
397.474	1235.25
397.698	1228.25
397.922	1281.25
398.147	1329.25
398.371	1370.25
398.595	1375.25
398.82	1313.25
399.044	1336.25
399.268	1394.25
399.492	1458.25
399.717	1485.25
399.941	1484.25
400.165	1456.25
400.389	1419.25
400.613	1471.25
400.837	1696.25
401.062	1822.25
401.286	1511.25
401.51	1404.25
401.734	1482.25
401.958	1446.25
402.182	1332.25
402.406	1322.25
402.63	1304.25
402.854	1315.25
403.078	1345.25
403.302	1338.25
403.526	1331.25
403.75	1340.25
403.974	1376.25
404.198	1380.25
404.422	1430.25
404.645	1490.25
404.869	1448.25
405.093	1331.25
405.317	1317.25
405.541	1379.25
405.765	1376.25
405.988	1404.25
406.212	1420.25
406.436	1414.25
406.66	1441.25
406.883	1532.25
407.107	1669.25
407.331	1828.25
407.555	1948.25
407.778	1731.25
408.002	1447.25
408.226	1421.25
408.449	1410.25
408.673	1400.25
408.896	1378.25
409.12	1411.25
409.344	1373.25
409.567	1334.25
409.791	1378.25
410.014	1425.25
410.238	1491.25
410.461	1553.25
410.685	1414.25
410.908	1359.25
411.132	1363.25
411.355	1320.25
411.578	1347.25
411.802	1372.25
412.025	1364.25
412.249	1370.25
412.472	1311.25
412.695	1322.25
412.919	1328.25
413.142	1312.25
413.365	1335.25
413.589	1346.25
413.812	1485.25
414.035	1464.25
414.258	1356.25
414.482	1330.25
414.705	1348.25
414.928	1344.25
415.151	1279.25
415.374	1322.25
415.597	1339.25
415.821	1364.25
416.044	1378.25
416.267	1328.25
416.49	1251.25
416.713	1265.25
416.936	1349.25
417.159	1387.25
417.382	1399.25
417.605	1339.25
417.828	1335.25
418.051	1359.25
418.274	1314.25
418.497	1281.25
418.72	1299.25
418.943	1323.25
419.166	1352.25
419.389	1401.25
419.611	1319.25
419.834	1277.25
420.057	1324.25
420.28	1286.25
420.503	1315.25
420.726	1338.25
420.948	1316.25
421.171	1268.25
421.394	1293.25
421.617	1348.25
421.839	1330.25
422.062	1307.25
422.285	1258.25
422.507	1282.25
422.73	1241.25
422.953	1228.25
423.175	1214.25
423.398	1303.25
423.621	1246.25
423.843	1305.25
424.066	1337.25
424.288	1393.25
424.511	1407.25
424.733	1354.25
424.956	1253.25
425.178	1228.25
425.401	1235.25
425.623	1289.25
425.846	1257.25
426.068	1337.25
426.291	1341.25
426.513	1339.25
426.735	1325.25
426.958	1459.25
427.18	1507.25
427.402	1398.25
427.625	1428.25
427.847	1395.25
428.069	1286.25
428.292	1269.25
428.514	1244.25
428.736	1250.25
428.958	1256.25
429.181	1293.25
429.403	1512.25
429.625	1771.25
429.847	1502.25
430.069	1301.25
430.292	1453.25
430.514	1441.25
430.736	1337.25
430.958	1361.25
431.18	1324.25
431.402	1247.25
431.624	1204.25
431.846	1199.25
432.068	1143.25
432.29	1171.25
432.512	1199.25
432.734	1281.25
432.956	1281.25
433.178	1340.25
433.4	1349.25
433.622	1306.25
433.844	1267.25
434.066	1192.25
434.287	1191.25
434.509	1230.25
434.731	1292.25
434.953	1415.25
435.175	1317.25
435.397	1297.25
435.618	1272.25
435.84	1226.25
436.062	1218.25
436.284	1271.25
436.505	1325.25
436.727	1325.25
436.949	1274.25
437.17	1262.25
437.392	1238.25
437.614	1225.25
437.835	1159.25
438.057	1206.25
438.278	1245.25
438.5	1223.25
438.721	1220.25
438.943	1275.25
439.165	1212.25
439.386	1203.25
439.608	1280.25
439.829	1273.25
440.05	1260.25
440.272	1249.25
440.493	1258.25
440.715	1275.25
440.936	1315.25
441.158	1427.25
441.379	1402.25
441.6	1416.25
441.822	1348.25
442.043	1359.25
442.264	1346.25
442.486	1314.25
442.707	1274.25
442.928	1265.25
443.149	1294.25
443.371	1386.25
443.592	1395.25
443.813	1382.25
444.034	1353.25
444.255	1390.25
444.476	1391.25
444.698	1430.25
444.919	1400.25
445.14	1497.25
445.361	1488.25
445.582	1479.25
445.803	1435.25
446.024	1394.25
446.245	1446.25
446.466	1381.25
446.687	1356.25
446.908	1344.25
447.129	1293.25
447.35	1319.25
447.571	1316.25
447.792	1236.25
448.013	1256.25
448.234	1304.25
448.455	1325.25
448.675	1329.25
448.896	1243.25
449.117	1211.25
449.338	1229.25
449.559	1269.25
449.779	1331.25
450	1422.25
450.221	1478.25
450.442	1463.25
450.662	1306.25
450.883	1189.25
451.104	1155.25
451.324	1204.25
451.545	1231.25
451.766	1209.25
451.986	1146.25
452.207	1137.25
452.428	1115.25
452.648	1109.25
452.869	1113.25
453.089	1166.25
453.31	1183.25
453.53	1183.25
453.751	1122.25
453.971	1049.25
454.192	1100.25
454.412	1186.25
454.633	1181.25
454.853	1108.25
455.073	1039.25
455.294	1046.25
455.514	1089.25
455.734	1092.25
455.955	1099.25
456.175	1112.25
456.395	1052.25
456.616	1085.25
456.836	1112.25
457.056	1067.25
457.276	1076.25
457.497	1035.25
457.717	1004.25
457.937	1041.25
458.157	1059.25
458.377	1068.25
458.598	1030.25
458.818	1048.25
459.038	1121.25
459.258	1174.25
459.478	1145.25
459.698	1107.25
459.918	1143.25
460.138	1243.25
460.358	1224.25
460.578	1223.25
460.798	1253.25
461.018	1348.25
461.238	1331.25
461.458	1247.25
461.678	1265.25
461.898	1219.25
462.118	1220.25
462.338	1266.25
462.558	1250.25
462.777	1247.25
462.997	1322.25
463.217	1371.25
463.437	1331.25
463.657	1281.25
463.876	1248.25
464.096	1251.25
464.316	1263.25
464.536	1301.25
464.755	1312.25
464.975	1338.25
465.195	1288.25
465.414	1304.25
465.634	1328.25
465.854	1293.25
466.073	1395.25
466.293	1355.25
466.512	1210.25
466.732	1190.25
466.951	1251.25
467.171	1239.25
467.391	1193.25
467.61	1164.25
467.829	1243.25
468.049	1343.25
468.268	1447.25
468.488	1338.25
468.707	1285.25
468.927	1236.25
469.146	1208.25
469.365	1244.25
469.585	1244.25
469.804	1245.25
470.023	1240.25
470.243	1248.25
470.462	1215.25
470.681	1202.25
470.901	1248.25
471.12	1205.25
471.339	1251.25
471.558	1227.25
471.777	1211.25
471.997	1229.25
472.216	1177.25
472.435	1144.25
472.654	1177.25
472.873	1201.25
473.092	1236.25
473.311	1204.25
473.53	1152.25
473.749	1111.25
473.968	1175.25
474.187	1216.25
474.406	1252.25
474.625	1234.25
474.844	1224.25
475.063	1182.25
475.282	1231.25
475.501	1213.25
475.72	1236.25
475.939	1322.25
476.158	1244.25
476.377	1233.25
476.596	1239.25
476.814	1234.25
477.033	1201.25
477.252	1269.25
477.471	1315.25
477.69	1299.25
477.908	1287.25
478.127	1329.25
478.346	1456.25
478.564	1412.25
478.783	1384.25
479.002	1447.25
479.22	1385.25
479.439	1440.25
479.658	1592.25
479.876	1546.25
480.095	1411.25
480.313	1371.25
480.532	1320.25
480.751	1332.25
480.969	1313.25
481.188	1257.25
481.406	1243.25
481.624	1229.25
481.843	1244.25
482.061	1297.25
482.28	1321.25
482.498	1333.25
482.717	1317.25
482.935	1308.25
483.153	1363.25
483.372	1405.25
483.59	1358.25
483.808	1374.25
484.027	1372.25
484.245	1474.25
484.463	1795.25
484.681	1900.25
484.9	1494.25
485.118	1379.25
485.336	1338.25
485.554	1365.25
485.772	1374.25
485.99	1385.25
486.209	1411.25
486.427	1388.25
486.645	1384.25
486.863	1411.25
487.081	1471.25
487.299	1436.25
487.517	1424.25
487.735	1459.25
487.953	1500.25
488.171	1493.25
488.389	1456.25
488.607	1459.25
488.825	1627.25
489.043	1588.25
489.261	1429.25
489.479	1444.25
489.696	1515.25
489.914	1457.25
490.132	1455.25
490.35	1469.25
490.568	1551.25
490.786	1542.25
491.003	1452.25
491.221	1563.25
491.439	1576.25
491.657	1602.25
491.874	1648.25
492.092	1700.25
492.31	1681.25
492.527	1689.25
492.745	1603.25
492.963	1572.25
493.18	1629.25
493.398	1707.25
493.615	1702.25
493.833	1592.25
494.05	1571.25
494.268	1562.25
494.485	1628.25
494.703	1568.25
494.92	1541.25
495.138	1554.25
495.355	1573.25
495.573	1627.25
495.79	1658.25
496.008	1687.25
496.225	1572.25
496.442	1660.25
496.66	1584.25
496.877	1549.25
497.094	1647.25
497.312	1645.25
497.529	1628.25
497.746	1713.25
497.963	1909.25
498.181	1957.25
498.398	1885.25
498.615	1824.25
498.832	1791.25
499.049	1764.25
499.267	1778.25
499.484	1914.25
499.701	2033.25
499.918	2063.25
500.135	2237.25
500.352	2353.25
500.569	2374.25
500.786	2556.25
501.003	2312.25
501.22	2114.25
501.437	2069.25
501.654	2141.25
501.871	2045.25
502.088	1797.25
502.305	1791.25
502.522	1701.25
502.739	1609.25
502.956	1580.25
503.172	1543.25
503.389	1485.25
503.606	1481.25
503.823	1492.25
504.04	1473.25
504.256	1498.25
504.473	1490.25
504.69	1547.25
504.907	1467.25
505.123	1437.25
505.34	1539.25
505.557	2051.25
505.773	1683.25
505.99	1409.25
506.207	1296.25
506.423	1338.25
506.64	1290.25
506.856	1340.25
507.073	1563.25
507.289	1634.25
507.506	1500.25
507.722	1300.25
507.939	1260.25
508.155	1284.25
508.372	1295.25
508.588	1215.25
508.805	1172.25
509.021	1183.25
509.238	1143.25
509.454	1152.25
509.67	1157.25
509.887	1123.25
510.103	1158.25
510.319	1187.25
510.536	1205.25
510.752	1240.25
510.968	1219.25
511.184	1300.25
511.401	1221.25
511.617	1122.25
511.833	1091.25
512.049	1139.25
512.265	1100.25
512.481	1084.25
512.698	1124.25
512.914	1186.25
513.13	1148.25
513.346	1135.25
513.562	1097.25
513.778	1135.25
513.994	1199.25
514.21	1225.25
514.426	1219.25
514.642	1334.25
514.858	1266.25
515.074	1171.25
515.29	1110.25
515.506	1177.25
515.721	1176.25
515.937	1173.25
516.153	1271.25
516.369	1279.25
516.585	1201.25
516.801	1157.25
517.016	1142.25
517.232	1205.25
517.448	1227.25
517.664	1214.25
517.879	1239.25
518.095	1260.25
518.311	1217.25
518.527	1176.25
518.742	1183.25
518.958	1123.25
519.173	1169.25
519.389	1146.25
519.605	1217.25
519.82	1160.25
520.036	1213.25
520.251	1124.25
520.467	1183.25
520.682	1247.25
520.898	1272.25
521.113	1142.25
521.329	1115.25
521.544	1200.25
521.76	1140.25
521.975	1101.25
522.19	1089.25
522.406	1111.25
522.621	1412.25
522.836	1335.25
523.052	1107.25
523.267	1135.25
523.482	1123.25
523.698	1082.25
523.913	1044.25
524.128	1100.25
524.343	1160.25
524.559	1191.25
524.774	1099.25
524.989	1075.25
525.204	1108.25
525.419	1078.25
525.634	1052.25
525.849	1114.25
526.064	1090.25
526.28	1087.25
526.495	1009.25
526.71	1007.25
526.925	1001.25
527.14	994.25
527.355	959.25
527.57	980.25
527.785	1009.25
527.999	1007.25
528.214	981.25
528.429	1016.25
528.644	1026.25
528.859	1056.25
529.074	1101.25
529.289	1104.25
529.503	1111.25
529.718	1093.25
529.933	1049.25
530.148	999.25
530.363	981.25
530.577	1002.25
530.792	992.25
531.007	991.25
531.221	981.25
531.436	987.25
531.651	1043.25
531.865	1040.25
532.08	1013.25
532.295	969.25
532.509	939.25
532.724	972.25
532.938	979.25
533.153	1067.25
533.367	1052.25
533.582	1021.25
533.796	1014.25
534.011	1035.25
534.225	973.25
534.44	973.25
534.654	972.25
534.868	969.25
535.083	1022.25
535.297	1052.25
535.511	992.25
535.726	1014.25
535.94	979.25
536.154	989.25
536.369	981.25
536.583	916.25
536.797	918.25
537.011	980.25
537.225	938.25
537.44	940.25
537.654	978.25
537.868	950.25
538.082	910.25
538.296	909.25
538.51	900.25
538.724	944.25
538.938	982.25
539.153	1020.25
539.367	987.25
539.581	966.25
539.795	987.25
540.009	971.25
540.222	954.25
540.436	976.25
540.65	1074.25
540.864	1102.25
541.078	1091.25
541.292	1031.25
541.506	1100.25
541.72	1105.25
541.934	1154.25
542.147	1182.25
542.361	1177.25
542.575	1081.25
542.789	1048.25
543.002	980.25
543.216	963.25
543.43	1040.25
543.644	1077.25
543.857	1117.25
544.071	1113.25
544.285	1082.25
544.498	1101.25
544.712	1066.25
544.925	1143.25
545.139	1120.25
545.352	1081.25
545.566	1082.25
545.779	1065.25
545.993	1098.25
546.206	1094.25
546.42	1081.25
546.633	1084.25
546.847	1037.25
547.06	1035.25
547.274	1102.25
547.487	1084.25
547.7	1098.25
547.914	1109.25
548.127	1119.25
548.34	1102.25
548.554	1060.25
548.767	1066.25
548.98	1055.25
549.193	1064.25
549.407	1116.25
549.62	1088.25
549.833	1044.25
550.046	1039.25
550.259	1065.25
550.473	1041.25
550.686	1026.25
550.899	1005.25
551.112	992.25
551.325	972.25
551.538	1073.25
551.751	1147.25
551.964	937.25
552.177	929.25
552.39	988.25
552.603	1009.25
552.816	1045.25
553.029	1043.25
553.242	1094.25
553.455	1042.25
553.667	1061.25
553.88	1049.25
554.093	1009.25
554.306	981.25
554.519	974.25
554.732	967.25
554.944	972.25
555.157	992.25
555.37	970.25
555.583	959.25
555.795	950.25
556.008	914.25
556.221	899.25
556.433	863.25
556.646	879.25
556.859	881.25
557.071	876.25
557.284	913.25
557.496	855.25
557.709	855.25
557.921	857.25
558.134	857.25
558.346	870.25
558.559	863.25
558.771	845.25
558.984	846.25
559.196	804.25
559.409	809.25
559.621	789.25
559.833	827.25
560.046	831.25
560.258	825.25
560.47	837.25
560.683	837.25
560.895	819.25
561.107	822.25
561.32	834.25
561.532	806.25
561.744	819.25
561.956	826.25
562.168	815.25
562.381	798.25
562.593	779.25
562.805	810.25
563.017	781.25
563.229	794.25
563.441	810.25
563.653	802.25
563.865	777.25
564.077	776.25
564.289	800.25
564.501	770.25
564.713	813.25
564.925	828.25
565.137	912.25
565.349	822.25
565.561	810.25
565.773	821.25
565.985	823.25
566.197	891.25
566.408	915.25
566.62	904.25
566.832	903.25
567.044	908.25
567.255	892.25
567.467	918.25
567.679	944.25
567.891	956.25
568.102	917.25
568.314	859.25
568.526	805.25
568.737	789.25
568.949	732.25
569.161	752.25
569.372	697.25
569.584	682.25
569.795	699.25
570.007	680.25
570.218	668.25
570.43	653.25
570.641	634.25
570.853	664.25
571.064	693.25
571.276	677.25
571.487	669.25
571.698	651.25
571.91	656.25
572.121	631.25
572.333	624.25
572.544	599.25
572.755	603.25
572.966	605.25
573.178	569.25
573.389	581.25
573.6	623.25
573.811	661.25
574.023	593.25
574.234	581.25
574.445	548.25
574.656	560.25
574.867	565.25
575.078	567.25
575.289	562.25
575.501	560.25
575.712	555.25
575.923	551.25
576.134	565.25
576.345	546.25
576.556	580.25
576.767	548.25
576.978	552.25
577.188	526.25
577.399	537.25
577.61	541.25
577.821	526.25
578.032	516.25
578.243	521.25
578.454	519.25
578.665	507.25
578.875	492.25
579.086	488.25
579.297	506.25
579.508	529.25
579.718	522.25
579.929	498.25
580.14	488.25
580.35	489.25
580.561	531.25
580.772	573.25
580.982	513.25
581.193	491.25
581.403	488.25
581.614	498.25
581.825	488.25
582.035	479.25
582.246	488.25
582.456	502.25
582.667	472.25
582.877	481.25
583.087	468.25
583.298	485.25
583.508	481.25
583.719	468.25
583.929	477.25
584.139	498.25
584.35	445.25
584.56	455.25
584.77	467.25
584.981	455.25
585.191	481.25
585.401	498.25
585.611	466.25
585.821	465.25
586.032	439.25
586.242	446.25
586.452	458.25
586.662	474.25
586.872	449.25
587.082	478.25
587.292	455.25
587.502	473.25
587.713	475.25
587.923	458.25
588.133	467.25
588.343	470.25
588.553	432.25
588.762	448.25
588.972	445.25
589.182	439.25
589.392	469.25
589.602	451.25
589.812	458.25
590.022	429.25
590.232	441.25
590.441	486.25
590.651	427.25
590.861	446.25
591.071	427.25
591.281	420.25
591.49	447.25
591.7	461.25
591.91	434.25
592.119	435.25
592.329	476.25
592.539	459.25
592.748	447.25
592.958	471.25
593.167	458.25
593.377	471.25
593.587	489.25
593.796	483.25
594.006	461.25
594.215	458.25
594.424	465.25
594.634	457.25
594.843	491.25
595.053	466.25
595.262	461.25
595.472	441.25
595.681	437.25
595.89	455.25
596.1	443.25
596.309	433.25
596.518	438.25
596.727	460.25
596.937	441.25
597.146	423.25
597.355	422.25
597.564	433.25
597.774	415.25
597.983	402.25
598.192	397.25
598.401	406.25
598.61	434.25
598.819	378.25
599.028	391.25
599.237	394.25
599.446	379.25
599.655	395.25
599.864	378.25
600.073	377.25
600.282	373.25
600.491	404.25
600.7	389.25
600.909	389.25
601.118	389.25
601.327	398.25
601.536	403.25
601.745	421.25
601.953	424.25
602.162	415.25
602.371	432.25
602.58	407.25
602.789	403.25
602.997	403.25
603.206	424.25
603.415	409.25
603.623	400.25
603.832	410.25
604.041	373.25
604.249	404.25
604.458	383.25
604.666	372.25
604.875	375.25
605.084	381.25
605.292	396.25
605.501	399.25
605.709	435.25
605.918	419.25
606.126	385.25
606.334	397.25
606.543	396.25
606.751	412.25
606.96	421.25
607.168	408.25
607.376	391.25
607.585	384.25
607.793	401.25
608.001	406.25
608.21	398.25
608.418	399.25
608.626	390.25
608.834	414.25
609.043	415.25
609.251	387.25
609.459	392.25
609.667	390.25
609.875	410.25
610.083	422.25
610.291	395.25
610.499	425.25
610.707	422.25
610.916	400.25
611.124	377.25
611.332	397.25
611.54	400.25
611.748	385.25
611.955	401.25
612.163	390.25
612.371	399.25
612.579	372.25
612.787	415.25
612.995	385.25
613.203	395.25
613.411	382.25
613.618	377.25
613.826	404.25
614.034	395.25
614.242	403.25
614.449	405.25
614.657	387.25
614.865	391.25
615.072	388.25
615.28	373.25
615.488	376.25
615.695	412.25
615.903	400.25
616.111	393.25
616.318	392.25
616.526	388.25
616.733	398.25
616.941	391.25
617.148	391.25
617.356	384.25
617.563	350.25
617.771	375.25
617.978	368.25
618.185	374.25
618.393	360.25
618.6	371.25
618.807	379.25
619.015	373.25
619.222	364.25
619.429	377.25
619.637	344.25
619.844	349.25
620.051	355.25
620.258	359.25
620.466	357.25
620.673	346.25
620.88	340.25
621.087	339.25
621.294	332.25
621.501	329.25
621.708	321.25
621.915	345.25
622.122	357.25
622.329	349.25
622.536	360.25
622.743	357.25
622.95	358.25
623.157	334.25
623.364	357.25
623.571	355.25
623.778	368.25
623.985	352.25
624.192	341.25
624.399	344.25
624.606	348.25
624.812	336.25
625.019	320.25
625.226	327.25
625.433	315.25
625.639	314.25
625.846	307.25
626.053	298.25
626.259	306.25
626.466	299.25
626.673	312.25
626.879	289.25
627.086	289.25
627.293	322.25
627.499	329.25
627.706	323.25
627.912	312.25
628.119	312.25
628.325	337.25
628.532	324.25
628.738	303.25
628.945	323.25
629.151	312.25
629.357	313.25
629.564	316.25
629.77	313.25
629.976	303.25
630.183	312.25
630.389	297.25
630.595	305.25
630.802	278.25
631.008	306.25
631.214	296.25
631.42	312.25
631.627	294.25
631.833	298.25
632.039	289.25
632.245	317.25
632.451	292.25
632.657	278.25
632.863	284.25
633.069	277.25
633.275	301.25
633.481	268.25
633.688	297.25
633.893	269.25
634.099	287.25
634.305	285.25
634.511	276.25
634.717	272.25
634.923	266.25
635.129	263.25
635.335	269.25
635.541	284.25
635.747	285.25
635.952	295.25
636.158	291.25
636.364	305.25
636.57	290.25
636.775	273.25
636.981	282.25
637.187	284.25
637.392	291.25
637.598	274.25
637.804	273.25
638.009	292.25
638.215	278.25
638.421	275.25
638.626	282.25
638.832	279.25
639.037	276.25
639.243	252.25
639.448	266.25
639.654	260.25
639.859	272.25
640.065	248.25
640.27	273.25
640.475	266.25
640.681	262.25
640.886	274.25
641.091	256.25
641.297	267.25
641.502	257.25
641.707	279.25
641.913	267.25
642.118	259.25
642.323	254.25
642.528	264.25
642.733	263.25
642.939	244.25
643.144	253.25
643.349	272.25
643.554	269.25
643.759	263.25
643.964	245.25
644.169	255.25
644.374	243.25
644.579	251.25
644.784	274.25
644.989	259.25
645.194	255.25
645.399	247.25
645.604	258.25
645.809	257.25
646.014	253.25
646.219	243.25
646.423	246.25
646.628	269.25
646.833	264.25
647.038	272.25
647.243	242.25
647.447	259.25
647.652	246.25
647.857	251.25
648.062	262.25
648.266	265.25
648.471	284.25
648.676	273.25
648.88	249.25
649.085	250.25
649.289	259.25
649.494	231.25
649.698	260.25
649.903	257.25
650.107	258.25
650.312	249.25
650.516	255.25
650.721	256.25
650.925	244.25
651.13	219.25
651.334	255.25
651.539	251.25
651.743	242.25
651.947	227.25
652.152	236.25
652.356	219.25
652.56	227.25
652.764	224.25
652.969	226.25
653.173	226.25
653.377	223.25
653.581	230.25
653.785	200.25
653.99	231.25
654.194	235.25
654.398	203.25
654.602	220.25
654.806	213.25
655.01	219.25
655.214	240.25
655.418	224.25
655.622	227.25
655.826	229.25
656.03	232.25
656.234	246.25
656.438	257.25
656.642	271.25
656.846	248.25
657.049	237.25
657.253	212.25
657.457	200.25
657.661	200.25
657.865	197.25
658.068	176.25
658.272	151.25
658.476	173.25
658.68	162.25
658.883	151.25
659.087	154.25
659.291	139.25
659.494	116.25
659.698	122.25
659.901	142.25
660.105	138.25
660.309	132.25
660.512	120.25
660.716	108.25
660.919	133.25
661.123	122.25
661.326	118.25
661.53	113.25
661.733	108.25
661.936	90.25
662.14	107.25
662.343	107.25
662.546	107.25
662.75	99.25
662.953	108.25
663.156	81.25
663.36	81.25
663.563	89.25
663.766	89.25
663.969	92.25
664.173	93.25
664.376	95.25
664.579	85.25
664.782	81.25
664.985	90.25
665.188	85.25
665.391	82.25
665.594	77.25
665.797	81.25
666	81.25
666.203	83.25
666.406	85.25
666.609	89.25
666.812	96.25
667.015	99.25
667.218	84.25
667.421	95.25
667.624	72.25
667.827	86.25
668.03	87.25
668.232	83.25
668.435	78.25
668.638	81.25
668.841	76.25
669.043	81.25
669.246	87.25
669.449	82.25
669.651	96.25
669.854	75.25
670.057	79.25
670.259	86.25
670.462	70.25
670.665	79.25
670.867	77.25
671.07	90.25
671.272	91.25
671.475	89.25
671.677	74.25
671.88	78.25
672.082	94.25
672.284	79.25
672.487	82.25
672.689	82.25
672.892	84.25
