Data from WStandard_LampEnergy5.5LIBS07252019.E.O._I.C._HRD10591_16-08-39-920.txt Node
Date: Thu Jul 25 16:08:39 EDT 2019
User: cochatt
Spectrometer: HR+D1059
Trigger mode: 1
Integration Time (sec): 1.000000E-1
Scans to average: 1
Electric dark correction enabled: true
Nonlinearity correction enabled: false
Boxcar width: 0
XAxis mode: Wavelengths
Number of Pixels in Spectrum: 2048
>>>>>Begin Spectral Data<<<<<
223.165	-17.31
223.4	-17.31
223.635	-17.31
223.869	-20.31
224.104	-28.31
224.338	-12.31
224.573	-17.31
224.808	-16.31
225.042	5.69
225.277	-3.31
225.511	4.69
225.746	2.69
225.98	4.69
226.215	11.69
226.449	10.69
226.683	23.69
226.918	26.69
227.152	24.69
227.387	29.69
227.621	29.69
227.856	40.69
228.09	36.69
228.324	34.69
228.559	64.69
228.793	146.69
229.027	363.69
229.262	364.69
229.496	350.69
229.73	385.69
229.964	438.69
230.199	454.69
230.433	462.69
230.667	480.69
230.901	510.69
231.136	471.69
231.37	462.69
231.604	448.69
231.838	458.69
232.072	448.69
232.306	430.69
232.541	450.69
232.775	527.69
233.009	574.69
233.243	571.69
233.477	532.69
233.711	542.69
233.945	545.69
234.179	507.69
234.413	579.69
234.647	623.69
234.881	561.69
235.115	520.69
235.349	540.69
235.583	545.69
235.817	552.69
236.051	531.69
236.285	556.69
236.519	583.69
236.753	683.69
236.987	688.69
237.221	648.69
237.455	721.69
237.689	726.69
237.922	636.69
238.156	616.69
238.39	662.69
238.624	697.69
238.858	736.69
239.091	768.69
239.325	802.69
239.559	898.69
239.793	960.69
240.027	1001.69
240.26	1000.69
240.494	745.69
240.728	697.69
240.961	709.69
241.195	727.69
241.429	816.69
241.662	784.69
241.896	757.69
242.13	748.69
242.363	795.69
242.597	893.69
242.83	849.69
243.064	858.69
243.298	919.69
243.531	921.69
243.765	896.69
243.998	940.69
244.232	785.69
244.465	766.69
244.699	741.69
244.932	886.69
245.166	1042.69
245.399	955.69
245.633	946.69
245.866	872.69
246.099	902.69
246.333	918.69
246.566	927.69
246.8	1018.69
247.033	1152.69
247.266	1054.69
247.5	1020.69
247.733	1028.69
247.966	1097.69
248.2	1211.69
248.433	1127.69
248.666	1187.69
248.899	1301.69
249.133	1472.69
249.366	1682.69
249.599	1386.69
249.832	1193.69
250.066	1255.69
250.299	1255.69
250.532	1194.69
250.765	1042.69
250.998	1098.69
251.231	1165.69
251.465	1225.69
251.698	1154.69
251.931	1138.69
252.164	1156.69
252.397	1217.69
252.63	1210.69
252.863	1049.69
253.096	1035.69
253.329	1129.69
253.562	1168.69
253.795	1230.69
254.028	1240.69
254.261	1169.69
254.494	1160.69
254.727	1079.69
254.96	1119.69
255.193	1209.69
255.426	1385.69
255.659	1573.69
255.892	1660.69
256.124	1370.69
256.357	1296.69
256.59	1401.69
256.823	1410.69
257.056	1364.69
257.289	1630.69
257.521	1823.69
257.754	1674.69
257.987	1576.69
258.22	1743.69
258.452	1684.69
258.685	1373.69
258.918	1327.69
259.151	1372.69
259.383	1323.69
259.616	1164.69
259.849	1201.69
260.081	1348.69
260.314	1484.69
260.547	1658.69
260.779	1663.69
261.012	1570.69
261.244	1366.69
261.477	1313.69
261.71	1411.69
261.942	1363.69
262.175	1321.69
262.407	1418.69
262.64	1381.69
262.872	1256.69
263.105	1204.69
263.337	1274.69
263.57	1262.69
263.802	1270.69
264.035	1193.69
264.267	1146.69
264.499	1103.69
264.732	1160.69
264.964	1290.69
265.197	1290.69
265.429	1359.69
265.661	1531.69
265.894	1716.69
266.126	1792.69
266.358	1543.69
266.591	1583.69
266.823	1791.69
267.055	1589.69
267.287	1547.69
267.52	1519.69
267.752	1495.69
267.984	1499.69
268.216	1587.69
268.448	1613.69
268.681	1595.69
268.913	1479.69
269.145	1383.69
269.377	1334.69
269.609	1484.69
269.841	1695.69
270.073	1991.69
270.306	2180.69
270.538	2390.69
270.77	1976.69
271.002	1703.69
271.234	1618.69
271.466	1575.69
271.698	1767.69
271.93	2115.69
272.162	2153.69
272.394	1917.69
272.626	1886.69
272.858	1624.69
273.09	1415.69
273.322	1412.69
273.553	1338.69
273.785	1354.69
274.017	1395.69
274.249	1502.69
274.481	1534.69
274.713	1411.69
274.945	1340.69
275.176	1410.69
275.408	1367.69
275.64	1351.69
275.872	1334.69
276.104	1406.69
276.335	1614.69
276.567	1837.69
276.799	1863.69
277.031	1652.69
277.262	1601.69
277.494	1610.69
277.726	1807.69
277.957	1805.69
278.189	1634.69
278.421	1442.69
278.652	1461.69
278.884	1430.69
279.115	1442.69
279.347	1468.69
279.579	1437.69
279.81	1410.69
280.042	1587.69
280.273	1721.69
280.505	1720.69
280.736	1755.69
280.968	1668.69
281.199	1451.69
281.431	1426.69
281.662	1433.69
281.894	1440.69
282.125	1437.69
282.356	1484.69
282.588	1507.69
282.819	1493.69
283.051	1610.69
283.282	1751.69
283.513	1703.69
283.745	1491.69
283.976	1367.69
284.207	1400.69
284.439	1434.69
284.67	1441.69
284.901	1455.69
285.132	1496.69
285.364	1508.69
285.595	1471.69
285.826	1518.69
286.057	1459.69
286.288	1464.69
286.52	1521.69
286.751	1663.69
286.982	1661.69
287.213	1553.69
287.444	1410.69
287.675	1406.69
287.906	1494.69
288.138	1622.69
288.369	1557.69
288.6	1496.69
288.831	1443.69
289.062	1435.69
289.293	1474.69
289.524	1499.69
289.755	1520.69
289.986	1558.69
290.217	1408.69
290.448	1429.69
290.679	1499.69
290.91	1450.69
291.141	1510.69
291.371	1595.69
291.602	1586.69
291.833	1556.69
292.064	1608.69
292.295	1576.69
292.526	1652.69
292.757	1663.69
292.987	1572.69
293.218	1530.69
293.449	1651.69
293.68	1826.69
293.91	1974.69
294.141	1875.69
294.372	1737.69
294.603	1768.69
294.833	1902.69
295.064	1748.69
295.295	1572.69
295.525	1560.69
295.756	1423.69
295.987	1356.69
296.217	1412.69
296.448	1495.69
296.679	1484.69
296.909	1470.69
297.14	1450.69
297.37	1486.69
297.601	1572.69
297.831	1658.69
298.062	1718.69
298.292	1563.69
298.523	1458.69
298.753	1446.69
298.984	1545.69
299.214	1497.69
299.445	1513.69
299.675	1578.69
299.905	1573.69
300.136	1546.69
300.366	1491.69
300.597	1477.69
300.827	1446.69
301.057	1524.69
301.288	1623.69
301.518	1607.69
301.748	1608.69
301.979	1684.69
302.209	1697.69
302.439	1831.69
302.669	1880.69
302.9	1814.69
303.13	1603.69
303.36	1642.69
303.59	1619.69
303.82	1613.69
304.051	1601.69
304.281	1632.69
304.511	1593.69
304.741	1666.69
304.971	1871.69
305.201	2024.69
305.431	1922.69
305.661	1571.69
305.891	1430.69
306.121	1461.69
306.352	1445.69
306.582	1557.69
306.812	1618.69
307.042	1783.69
307.272	1738.69
307.502	1780.69
307.731	1883.69
307.961	2048.69
308.191	1931.69
308.421	1678.69
308.651	1615.69
308.881	1540.69
309.111	1542.69
309.341	1502.69
309.571	1541.69
309.8	1558.69
310.03	1525.69
310.26	1514.69
310.49	1546.69
310.72	1578.69
310.949	1595.69
311.179	1650.69
311.409	1620.69
311.639	1555.69
311.868	1539.69
312.098	1563.69
312.328	1613.69
312.557	1578.69
312.787	1573.69
313.017	1638.69
313.246	1657.69
313.476	1596.69
313.706	1656.69
313.935	1621.69
314.165	1646.69
314.394	1698.69
314.624	1753.69
314.853	1890.69
315.083	1940.69
315.312	2040.69
315.542	1864.69
315.771	1660.69
316.001	1662.69
316.23	1734.69
316.46	1737.69
316.689	1742.69
316.919	1618.69
317.148	1601.69
317.377	1591.69
317.607	1690.69
317.836	1882.69
318.065	1985.69
318.295	1858.69
318.524	1803.69
318.753	1752.69
318.983	1733.69
319.212	1685.69
319.441	1696.69
319.67	1648.69
319.9	1693.69
320.129	1812.69
320.358	1842.69
320.587	1914.69
320.816	1861.69
321.046	1848.69
321.275	1721.69
321.504	1796.69
321.733	1950.69
321.962	1870.69
322.191	1730.69
322.42	1723.69
322.649	1688.69
322.878	1683.69
323.108	1696.69
323.337	1761.69
323.566	1781.69
323.795	1730.69
324.024	1739.69
324.253	1747.69
324.482	1715.69
324.71	1649.69
324.939	1596.69
325.168	1628.69
325.397	1716.69
325.626	1805.69
325.855	1752.69
326.084	1705.69
326.313	1678.69
326.542	1710.69
326.77	1789.69
326.999	1768.69
327.228	1680.69
327.457	1577.69
327.686	1595.69
327.914	1644.69
328.143	1706.69
328.372	1699.69
328.6	1703.69
328.829	1680.69
329.058	1620.69
329.287	1670.69
329.515	1718.69
329.744	1744.69
329.972	1816.69
330.201	1871.69
330.43	1818.69
330.658	1812.69
330.887	1817.69
331.115	1793.69
331.344	1814.69
331.572	1766.69
331.801	1778.69
332.03	1794.69
332.258	1808.69
332.486	1806.69
332.715	1833.69
332.943	1851.69
333.172	1767.69
333.4	1807.69
333.629	1818.69
333.857	1932.69
334.085	2158.69
334.314	2342.69
334.542	2639.69
334.771	2491.69
334.999	2166.69
335.227	2009.69
335.455	1915.69
335.684	1893.69
335.912	1958.69
336.14	2054.69
336.369	1977.69
336.597	1811.69
336.825	1805.69
337.053	1846.69
337.281	1942.69
337.51	2052.69
337.738	2133.69
337.966	2015.69
338.194	1862.69
338.422	1812.69
338.65	1735.69
338.878	1776.69
339.106	1756.69
339.334	1690.69
339.562	1685.69
339.79	1695.69
340.018	1806.69
340.246	1872.69
340.474	1931.69
340.702	1851.69
340.93	1843.69
341.158	1846.69
341.386	1828.69
341.614	1779.69
341.842	1794.69
342.07	1743.69
342.298	1784.69
342.526	1770.69
342.754	1760.69
342.981	1711.69
343.209	1792.69
343.437	1755.69
343.665	1734.69
343.893	1828.69
344.12	1920.69
344.348	1924.69
344.576	1857.69
344.804	1747.69
345.031	1730.69
345.259	1792.69
345.487	1714.69
345.714	1641.69
345.942	1598.69
346.17	1626.69
346.397	1660.69
346.625	1702.69
346.853	1632.69
347.08	1562.69
347.308	1607.69
347.535	1658.69
347.763	1710.69
347.99	1654.69
348.218	1610.69
348.445	1586.69
348.673	1659.69
348.9	1675.69
349.128	1728.69
349.355	1785.69
349.583	1740.69
349.81	1692.69
350.037	1567.69
350.265	1530.69
350.492	1568.69
350.72	1615.69
350.947	1657.69
351.174	1701.69
351.402	1639.69
351.629	1549.69
351.856	1518.69
352.083	1531.69
352.311	1573.69
352.538	1619.69
352.765	1638.69
352.992	1706.69
353.22	1641.69
353.447	1570.69
353.674	1602.69
353.901	1611.69
354.128	1589.69
354.355	1620.69
354.583	1624.69
354.81	1693.69
355.037	1669.69
355.264	1672.69
355.491	1601.69
355.718	1662.69
355.945	1644.69
356.172	1583.69
356.399	1592.69
356.626	1588.69
356.853	1582.69
357.08	1739.69
357.307	1910.69
357.534	1942.69
357.761	1677.69
357.988	1584.69
358.215	1537.69
358.441	1554.69
358.668	1552.69
358.895	1563.69
359.122	1651.69
359.349	1797.69
359.576	1810.69
359.802	1665.69
360.029	1597.69
360.256	1548.69
360.483	1572.69
360.709	1630.69
360.936	1684.69
361.163	1699.69
361.39	1866.69
361.616	2000.69
361.843	1976.69
362.07	1894.69
362.296	1658.69
362.523	1589.69
362.749	1583.69
362.976	1607.69
363.203	1698.69
363.429	1632.69
363.656	1562.69
363.882	1579.69
364.109	1749.69
364.335	1912.69
364.562	1817.69
364.788	1723.69
365.015	1646.69
365.241	1616.69
365.468	1620.69
365.694	1702.69
365.92	1760.69
366.147	1703.69
366.373	1613.69
366.599	1590.69
366.826	1549.69
367.052	1589.69
367.278	1609.69
367.505	1591.69
367.731	1692.69
367.957	1652.69
368.184	1705.69
368.41	1799.69
368.636	1827.69
368.862	1808.69
369.089	1818.69
369.315	1806.69
369.541	1698.69
369.767	1667.69
369.993	1612.69
370.219	1608.69
370.445	1655.69
370.672	1762.69
370.898	1836.69
371.124	1819.69
371.35	1683.69
371.576	1744.69
371.802	1804.69
372.028	1768.69
372.254	1695.69
372.48	1632.69
372.706	1602.69
372.932	1606.69
373.158	1655.69
373.384	1677.69
373.61	1705.69
373.835	1765.69
374.061	1678.69
374.287	1678.69
374.513	1702.69
374.739	1727.69
374.965	1764.69
375.191	1705.69
375.416	1742.69
375.642	1774.69
375.868	1854.69
376.094	1910.69
376.319	1828.69
376.545	1720.69
376.771	1671.69
376.997	1821.69
377.222	1794.69
377.448	1730.69
377.674	1754.69
377.899	1740.69
378.125	1796.69
378.35	1855.69
378.576	1685.69
378.802	1642.69
379.027	1642.69
379.253	1667.69
379.478	1719.69
379.704	1714.69
379.929	1714.69
380.155	1720.69
380.38	1697.69
380.606	1739.69
380.831	1723.69
381.057	1789.69
381.282	1820.69
381.507	1751.69
381.733	1883.69
381.958	1946.69
382.184	1813.69
382.409	1744.69
382.634	1738.69
382.86	1794.69
383.085	1815.69
383.31	1822.69
383.535	1964.69
383.761	2087.69
383.986	1987.69
384.211	1943.69
384.436	1882.69
384.662	1955.69
384.887	2068.69
385.112	1947.69
385.337	1998.69
385.562	1929.69
385.787	1930.69
386.013	1954.69
386.238	2034.69
386.463	1990.69
386.688	2077.69
386.913	2212.69
387.138	2198.69
387.363	2001.69
387.588	1976.69
387.813	1961.69
388.038	2020.69
388.263	2088.69
388.488	2034.69
388.713	1821.69
388.938	1861.69
389.163	1868.69
389.387	1903.69
389.612	1930.69
389.837	1976.69
390.062	1973.69
390.287	1968.69
390.512	1960.69
390.736	1932.69
390.961	1858.69
391.186	1867.69
391.411	1938.69
391.636	1940.69
391.86	1960.69
392.085	1971.69
392.31	1916.69
392.534	1907.69
392.759	1979.69
392.984	1967.69
393.208	1935.69
393.433	2018.69
393.658	2014.69
393.882	2111.69
394.107	1993.69
394.331	1924.69
394.556	1899.69
394.78	2002.69
395.005	2056.69
395.229	2109.69
395.454	2217.69
395.678	2198.69
395.903	2169.69
396.127	2038.69
396.352	2078.69
396.576	2104.69
396.801	2121.69
397.025	2065.69
397.249	2091.69
397.474	2096.69
397.698	2087.69
397.922	2140.69
398.147	2226.69
398.371	2342.69
398.595	2297.69
398.82	2274.69
399.044	2281.69
399.268	2356.69
399.492	2466.69
399.717	2585.69
399.941	2668.69
400.165	2574.69
400.389	2498.69
400.613	2440.69
400.837	2713.69
401.062	3058.69
401.286	2653.69
401.51	2383.69
401.734	2544.69
401.958	2450.69
402.182	2296.69
402.406	2250.69
402.63	2208.69
402.854	2238.69
403.078	2202.69
403.302	2259.69
403.526	2318.69
403.75	2318.69
403.974	2351.69
404.198	2301.69
404.422	2400.69
404.645	2476.69
404.869	2470.69
405.093	2236.69
405.317	2231.69
405.541	2316.69
405.765	2344.69
405.988	2291.69
406.212	2322.69
406.436	2368.69
406.66	2452.69
406.883	2498.69
407.107	2768.69
407.331	2962.69
407.555	3253.69
407.778	2994.69
408.002	2522.69
408.226	2432.69
408.449	2466.69
408.673	2398.69
408.896	2364.69
409.12	2416.69
409.344	2347.69
409.567	2294.69
409.791	2325.69
410.014	2388.69
410.238	2452.69
410.461	2625.69
410.685	2392.69
410.908	2228.69
411.132	2256.69
411.355	2282.69
411.578	2264.69
411.802	2274.69
412.025	2306.69
412.249	2256.69
412.472	2186.69
412.695	2230.69
412.919	2240.69
413.142	2192.69
413.365	2222.69
413.589	2283.69
413.812	2321.69
414.035	2415.69
414.258	2243.69
414.482	2195.69
414.705	2201.69
414.928	2161.69
415.151	2197.69
415.374	2218.69
415.597	2209.69
415.821	2245.69
416.044	2367.69
416.267	2355.69
416.49	2136.69
416.713	2123.69
416.936	2180.69
417.159	2270.69
417.382	2324.69
417.605	2158.69
417.828	2215.69
418.051	2272.69
418.274	2197.69
418.497	2106.69
418.72	2138.69
418.943	2082.69
419.166	2257.69
419.389	2377.69
419.611	2222.69
419.834	2219.69
420.057	2214.69
420.28	2108.69
420.503	2108.69
420.726	2181.69
420.948	2122.69
421.171	2078.69
421.394	2108.69
421.617	2222.69
421.839	2186.69
422.062	2154.69
422.285	2072.69
422.507	2098.69
422.73	2043.69
422.953	2025.69
423.175	2046.69
423.398	2146.69
423.621	2111.69
423.843	2144.69
424.066	2134.69
424.288	2190.69
424.511	2268.69
424.733	2198.69
424.956	1961.69
425.178	2027.69
425.401	2057.69
425.623	2084.69
425.846	2044.69
426.068	2171.69
426.291	2170.69
426.513	2129.69
426.735	2145.69
426.958	2253.69
427.18	2423.69
427.402	2200.69
427.625	2288.69
427.847	2331.69
428.069	2145.69
428.292	2085.69
428.514	2019.69
428.736	2038.69
428.958	2059.69
429.181	2057.69
429.403	2343.69
429.625	2910.69
429.847	2530.69
430.069	2116.69
430.292	2326.69
430.514	2388.69
430.736	2249.69
430.958	2339.69
431.18	2218.69
431.402	2046.69
431.624	2058.69
431.846	2066.69
432.068	1994.69
432.29	2070.69
432.512	2024.69
432.734	2070.69
432.956	2130.69
433.178	2254.69
433.4	2216.69
433.622	2194.69
433.844	2106.69
434.066	1999.69
434.287	2069.69
434.509	2124.69
434.731	2192.69
434.953	2295.69
435.175	2314.69
435.397	2154.69
435.618	2139.69
435.84	2198.69
436.062	2170.69
436.284	2154.69
436.505	2167.69
436.727	2228.69
436.949	2116.69
437.17	2056.69
437.392	2036.69
437.614	2122.69
437.835	2069.69
438.057	2159.69
438.278	2241.69
438.5	2113.69
438.721	2051.69
438.943	2063.69
439.165	2058.69
439.386	2028.69
439.608	2051.69
439.829	2038.69
440.05	2038.69
440.272	2027.69
440.493	1995.69
440.715	2049.69
440.936	2146.69
441.158	2382.69
441.379	2326.69
441.6	2275.69
441.822	2262.69
442.043	2189.69
442.264	2165.69
442.486	2038.69
442.707	2034.69
442.928	2035.69
443.149	2138.69
443.371	2230.69
443.592	2279.69
443.813	2195.69
444.034	2248.69
444.255	2269.69
444.476	2260.69
444.698	2340.69
444.919	2254.69
445.14	2404.69
445.361	2370.69
445.582	2439.69
445.803	2347.69
446.024	2246.69
446.245	2342.69
446.466	2238.69
446.687	2114.69
446.908	2097.69
447.129	2047.69
447.35	2123.69
447.571	2126.69
447.792	2038.69
448.013	1982.69
448.234	2061.69
448.455	2160.69
448.675	2118.69
448.896	1974.69
449.117	1958.69
449.338	1966.69
449.559	2064.69
449.779	2196.69
450	2387.69
450.221	2597.69
450.442	2546.69
450.662	2196.69
450.883	1957.69
451.104	1916.69
451.324	1977.69
451.545	2033.69
451.766	2054.69
451.986	1890.69
452.207	1908.69
452.428	1891.69
452.648	1820.69
452.869	1862.69
453.089	1984.69
453.31	1968.69
453.53	2062.69
453.751	2022.69
453.971	1869.69
454.192	1896.69
454.412	2064.69
454.633	1989.69
454.853	1885.69
455.073	1770.69
455.294	1786.69
455.514	1803.69
455.734	1810.69
455.955	1835.69
456.175	1859.69
456.395	1846.69
456.616	1904.69
456.836	1906.69
457.056	1880.69
457.276	1888.69
457.497	1825.69
457.717	1795.69
457.937	1769.69
458.157	1888.69
458.377	1818.69
458.598	1826.69
458.818	1833.69
459.038	1970.69
459.258	2090.69
459.478	2070.69
459.698	1989.69
459.918	2077.69
460.138	2169.69
460.358	2158.69
460.578	2167.69
460.798	2232.69
461.018	2401.69
461.238	2298.69
461.458	2167.69
461.678	2214.69
461.898	2162.69
462.118	2075.69
462.338	2202.69
462.558	2169.69
462.777	2173.69
462.997	2302.69
463.217	2439.69
463.437	2426.69
463.657	2238.69
463.876	2226.69
464.096	2147.69
464.316	2174.69
464.536	2243.69
464.755	2273.69
464.975	2335.69
465.195	2208.69
465.414	2337.69
465.634	2337.69
465.854	2156.69
466.073	2312.69
466.293	2265.69
466.512	2048.69
466.732	1992.69
466.951	2102.69
467.171	2064.69
467.391	2031.69
467.61	1961.69
467.829	1982.69
468.049	2147.69
468.268	2364.69
468.488	2227.69
468.707	2129.69
468.927	2073.69
469.146	2000.69
469.365	1986.69
469.585	1981.69
469.804	1956.69
470.023	1975.69
470.243	2028.69
470.462	1995.69
470.681	1947.69
470.901	2038.69
471.12	2008.69
471.339	2012.69
471.558	1925.69
471.777	1915.69
471.997	1947.69
472.216	1967.69
472.435	1911.69
472.654	1914.69
472.873	1990.69
473.092	2121.69
473.311	2035.69
473.53	1924.69
473.749	1902.69
473.968	1986.69
474.187	2074.69
474.406	2166.69
474.625	2068.69
474.844	2026.69
475.063	2018.69
475.282	2064.69
475.501	2029.69
475.72	2026.69
475.939	2154.69
476.158	2086.69
476.377	2040.69
476.596	2028.69
476.814	2099.69
477.033	2108.69
477.252	2202.69
477.471	2223.69
477.69	2120.69
477.908	2110.69
478.127	2217.69
478.346	2426.69
478.564	2439.69
478.783	2400.69
479.002	2486.69
479.22	2398.69
479.439	2484.69
479.658	2793.69
479.876	2805.69
480.095	2459.69
480.313	2295.69
480.532	2241.69
480.751	2227.69
480.969	2325.69
481.188	2224.69
481.406	2251.69
481.624	2216.69
481.843	2214.69
482.061	2282.69
482.28	2281.69
482.498	2321.69
482.717	2320.69
482.935	2194.69
483.153	2276.69
483.372	2242.69
483.59	2194.69
483.808	2242.69
484.027	2269.69
484.245	2433.69
484.463	2798.69
484.681	3151.69
484.9	2485.69
485.118	2334.69
485.336	2270.69
485.554	2375.69
485.772	2500.69
485.99	2423.69
486.209	2500.69
486.427	2437.69
486.645	2398.69
486.863	2379.69
487.081	2428.69
487.299	2475.69
487.517	2426.69
487.735	2350.69
487.953	2293.69
488.171	2303.69
488.389	2322.69
488.607	2331.69
488.825	2559.69
489.043	2585.69
489.261	2376.69
489.479	2430.69
489.696	2504.69
489.914	2487.69
490.132	2434.69
490.35	2411.69
490.568	2432.69
490.786	2391.69
491.003	2308.69
491.221	2329.69
491.439	2471.69
491.657	2422.69
491.874	2378.69
492.092	2485.69
492.31	2428.69
492.527	2400.69
492.745	2385.69
492.963	2380.69
493.18	2484.69
493.398	2618.69
493.615	2768.69
493.833	2519.69
494.05	2398.69
494.268	2456.69
494.485	2514.69
494.703	2446.69
494.92	2401.69
495.138	2385.69
495.355	2416.69
495.573	2556.69
495.79	2713.69
496.008	2712.69
496.225	2522.69
496.442	2547.69
496.66	2606.69
496.877	2588.69
497.094	2705.69
497.312	2729.69
497.529	2610.69
497.746	2714.69
497.963	3126.69
498.181	3538.69
498.398	3251.69
498.615	3212.69
498.832	3138.69
499.049	3113.69
499.267	3091.69
499.484	3360.69
499.701	3614.69
499.918	3618.69
500.135	3889.69
500.352	4210.69
500.569	4134.69
500.786	4393.69
501.003	4108.69
501.22	3707.69
501.437	3670.69
501.654	3591.69
501.871	3484.69
502.088	3075.69
502.305	3107.69
502.522	2964.69
502.739	2778.69
502.956	2726.69
503.172	2678.69
503.389	2620.69
503.606	2597.69
503.823	2581.69
504.04	2594.69
504.256	2585.69
504.473	2597.69
504.69	2705.69
504.907	2589.69
505.123	2386.69
505.34	2536.69
505.557	3271.69
505.773	2802.69
505.99	2414.69
506.207	2196.69
506.423	2212.69
506.64	2171.69
506.856	2234.69
507.073	2482.69
507.289	2686.69
507.506	2554.69
507.722	2202.69
507.939	2118.69
508.155	2168.69
508.372	2161.69
508.588	2093.69
508.805	2018.69
509.021	2001.69
509.238	1997.69
509.454	1999.69
509.67	2072.69
509.887	1991.69
510.103	2008.69
510.319	2049.69
510.536	2106.69
510.752	2191.69
510.968	2179.69
511.184	2306.69
511.401	2276.69
511.617	1975.69
511.833	1945.69
512.049	1937.69
512.265	1936.69
512.481	1894.69
512.698	2046.69
512.914	2155.69
513.13	2070.69
513.346	1962.69
513.562	1868.69
513.778	1975.69
513.994	2046.69
514.21	2110.69
514.426	2127.69
514.642	2350.69
514.858	2243.69
515.074	2014.69
515.29	1981.69
515.506	2038.69
515.721	2056.69
515.937	2085.69
516.153	2345.69
516.369	2265.69
516.585	2140.69
516.801	2047.69
517.016	2040.69
517.232	2129.69
517.448	2150.69
517.664	2186.69
517.879	2112.69
518.095	2246.69
518.311	2137.69
518.527	2091.69
518.742	1998.69
518.958	1954.69
519.173	1978.69
519.389	2044.69
519.605	2032.69
519.82	2007.69
520.036	2023.69
520.251	1964.69
520.467	1972.69
520.682	2126.69
520.898	2213.69
521.113	1982.69
521.329	1941.69
521.544	2059.69
521.76	1988.69
521.975	1914.69
522.19	1872.69
522.406	1878.69
522.621	2237.69
522.836	2264.69
523.052	1865.69
523.267	1834.69
523.482	1864.69
523.698	1782.69
523.913	1720.69
524.128	1780.69
524.343	1893.69
524.559	1952.69
524.774	1801.69
524.989	1790.69
525.204	1813.69
525.419	1766.69
525.634	1723.69
525.849	1795.69
526.064	1775.69
526.28	1811.69
526.495	1782.69
526.71	1726.69
526.925	1720.69
527.14	1736.69
527.355	1665.69
527.57	1684.69
527.785	1745.69
527.999	1719.69
528.214	1672.69
528.429	1675.69
528.644	1673.69
528.859	1702.69
529.074	1687.69
529.289	1664.69
529.503	1731.69
529.718	1757.69
529.933	1699.69
530.148	1646.69
530.363	1650.69
530.577	1682.69
530.792	1722.69
531.007	1707.69
531.221	1728.69
531.436	1710.69
531.651	1756.69
531.865	1853.69
532.08	1772.69
532.295	1694.69
532.509	1598.69
532.724	1667.69
532.938	1744.69
533.153	1864.69
533.367	1728.69
533.582	1717.69
533.796	1662.69
534.011	1704.69
534.225	1741.69
534.44	1646.69
534.654	1662.69
534.868	1626.69
535.083	1743.69
535.297	1715.69
535.511	1678.69
535.726	1671.69
535.94	1639.69
536.154	1672.69
536.369	1632.69
536.583	1632.69
536.797	1633.69
537.011	1653.69
537.225	1612.69
537.44	1531.69
537.654	1678.69
537.868	1581.69
538.082	1526.69
538.296	1551.69
538.51	1539.69
538.724	1518.69
538.938	1506.69
539.153	1587.69
539.367	1602.69
539.581	1575.69
539.795	1656.69
540.009	1638.69
540.222	1584.69
540.436	1621.69
540.65	1741.69
540.864	1781.69
541.078	1656.69
541.292	1570.69
541.506	1512.69
541.72	1574.69
541.934	1567.69
542.147	1624.69
542.361	1588.69
542.575	1543.69
542.789	1510.69
543.002	1478.69
543.216	1506.69
543.43	1624.69
543.644	1640.69
543.857	1709.69
544.071	1666.69
544.285	1580.69
544.498	1536.69
544.712	1586.69
544.925	1611.69
545.139	1599.69
545.352	1542.69
545.566	1479.69
545.779	1482.69
545.993	1543.69
546.206	1538.69
546.42	1509.69
546.633	1474.69
546.847	1478.69
547.06	1494.69
547.274	1495.69
547.487	1482.69
547.7	1479.69
547.914	1502.69
548.127	1544.69
548.34	1528.69
548.554	1518.69
548.767	1519.69
548.98	1480.69
549.193	1511.69
549.407	1563.69
549.62	1576.69
549.833	1518.69
550.046	1484.69
550.259	1513.69
550.473	1481.69
550.686	1512.69
550.899	1420.69
551.112	1432.69
551.325	1435.69
551.538	1502.69
551.751	1746.69
551.964	1436.69
552.177	1418.69
552.39	1425.69
552.603	1447.69
552.816	1469.69
553.029	1524.69
553.242	1593.69
553.455	1502.69
553.667	1476.69
553.88	1483.69
554.093	1480.69
554.306	1401.69
554.519	1398.69
554.732	1360.69
554.944	1375.69
555.157	1449.69
555.37	1370.69
555.583	1420.69
555.795	1358.69
556.008	1326.69
556.221	1291.69
556.433	1298.69
556.646	1286.69
556.859	1292.69
557.071	1251.69
557.284	1273.69
557.496	1287.69
557.709	1241.69
557.921	1213.69
558.134	1263.69
558.346	1229.69
558.559	1262.69
558.771	1263.69
558.984	1208.69
559.196	1195.69
559.409	1168.69
559.621	1209.69
559.833	1227.69
560.046	1248.69
560.258	1262.69
560.47	1227.69
560.683	1211.69
560.895	1193.69
561.107	1216.69
561.32	1243.69
561.532	1258.69
561.744	1215.69
561.956	1223.69
562.168	1203.69
562.381	1181.69
562.593	1203.69
562.805	1176.69
563.017	1186.69
563.229	1182.69
563.441	1227.69
563.653	1220.69
563.865	1215.69
564.077	1206.69
564.289	1154.69
564.501	1220.69
564.713	1226.69
564.925	1298.69
565.137	1342.69
565.349	1247.69
565.561	1270.69
565.773	1290.69
565.985	1308.69
566.197	1388.69
566.408	1443.69
566.62	1449.69
566.832	1458.69
567.044	1456.69
567.255	1456.69
567.467	1439.69
567.679	1510.69
567.891	1557.69
568.102	1541.69
568.314	1450.69
568.526	1382.69
568.737	1348.69
568.949	1288.69
569.161	1228.69
569.372	1185.69
569.584	1167.69
569.795	1203.69
570.007	1174.69
570.218	1107.69
570.43	1101.69
570.641	1120.69
570.853	1116.69
571.064	1084.69
571.276	1092.69
571.487	1090.69
571.698	1044.69
571.91	1049.69
572.121	980.69
572.333	977.69
572.544	973.69
572.755	976.69
572.966	968.69
573.178	965.69
573.389	964.69
573.6	1003.69
573.811	1050.69
574.023	979.69
574.234	969.69
574.445	927.69
574.656	911.69
574.867	894.69
575.078	920.69
575.289	939.69
575.501	892.69
575.712	891.69
575.923	896.69
576.134	932.69
576.345	909.69
576.556	888.69
576.767	855.69
576.978	861.69
577.188	867.69
577.399	853.69
577.61	866.69
577.821	867.69
578.032	836.69
578.243	847.69
578.454	827.69
578.665	816.69
578.875	819.69
579.086	800.69
579.297	858.69
579.508	873.69
579.718	855.69
579.929	846.69
580.14	811.69
580.35	798.69
580.561	859.69
580.772	894.69
580.982	842.69
581.193	786.69
581.403	802.69
581.614	783.69
581.825	776.69
582.035	802.69
582.246	784.69
582.456	829.69
582.667	783.69
582.877	776.69
583.087	785.69
583.298	771.69
583.508	743.69
583.719	764.69
583.929	773.69
584.139	772.69
584.35	748.69
584.56	738.69
584.77	797.69
584.981	743.69
585.191	775.69
585.401	774.69
585.611	768.69
585.821	759.69
586.032	755.69
586.242	705.69
586.452	740.69
586.662	762.69
586.872	734.69
587.082	698.69
587.292	723.69
587.502	772.69
587.713	757.69
587.923	717.69
588.133	751.69
588.343	762.69
588.553	732.69
588.762	709.69
588.972	704.69
589.182	743.69
589.392	756.69
589.602	728.69
589.812	756.69
590.022	708.69
590.232	716.69
590.441	720.69
590.651	720.69
590.861	711.69
591.071	701.69
591.281	736.69
591.49	711.69
591.7	704.69
591.91	719.69
592.119	709.69
592.329	738.69
592.539	747.69
592.748	754.69
592.958	752.69
593.167	747.69
593.377	788.69
593.587	768.69
593.796	788.69
594.006	777.69
594.215	783.69
594.424	755.69
594.634	747.69
594.843	733.69
595.053	752.69
595.262	720.69
595.472	711.69
595.681	721.69
595.89	715.69
596.1	694.69
596.309	704.69
596.518	691.69
596.727	691.69
596.937	679.69
597.146	649.69
597.355	631.69
597.564	655.69
597.774	633.69
597.983	640.69
598.192	622.69
598.401	615.69
598.61	626.69
598.819	628.69
599.028	624.69
599.237	607.69
599.446	617.69
599.655	602.69
599.864	620.69
600.073	634.69
600.282	592.69
600.491	594.69
600.7	624.69
600.909	615.69
601.118	610.69
601.327	614.69
601.536	586.69
601.745	583.69
601.953	567.69
602.162	553.69
602.371	622.69
602.58	592.69
602.789	579.69
602.997	590.69
603.206	611.69
603.415	600.69
603.623	578.69
603.832	582.69
604.041	564.69
604.249	565.69
604.458	585.69
604.666	568.69
604.875	540.69
605.084	569.69
605.292	581.69
605.501	563.69
605.709	573.69
605.918	550.69
606.126	565.69
606.334	534.69
606.543	544.69
606.751	559.69
606.96	548.69
607.168	524.69
607.376	538.69
607.585	548.69
607.793	536.69
608.001	547.69
608.21	555.69
608.418	551.69
608.626	531.69
608.834	533.69
609.043	555.69
609.251	547.69
609.459	544.69
609.667	539.69
609.875	543.69
610.083	547.69
610.291	543.69
610.499	559.69
610.707	523.69
610.916	524.69
611.124	520.69
611.332	508.69
611.54	523.69
611.748	502.69
611.955	515.69
612.163	503.69
612.371	504.69
612.579	500.69
612.787	513.69
612.995	518.69
613.203	533.69
613.411	527.69
613.618	500.69
613.826	519.69
614.034	508.69
614.242	506.69
614.449	501.69
614.657	529.69
614.865	515.69
615.072	496.69
615.28	520.69
615.488	530.69
615.695	542.69
615.903	546.69
616.111	485.69
616.318	487.69
616.526	523.69
616.733	496.69
616.941	486.69
617.148	502.69
617.356	494.69
617.563	499.69
617.771	503.69
617.978	478.69
618.185	472.69
618.393	490.69
618.6	481.69
618.807	493.69
619.015	483.69
619.222	469.69
619.429	491.69
619.637	482.69
619.844	473.69
620.051	478.69
620.258	458.69
620.466	486.69
620.673	437.69
620.88	435.69
621.087	440.69
621.294	453.69
621.501	442.69
621.708	447.69
621.915	475.69
622.122	454.69
622.329	456.69
622.536	449.69
622.743	458.69
622.95	447.69
623.157	414.69
623.364	446.69
623.571	444.69
623.778	453.69
623.985	458.69
624.192	455.69
624.399	433.69
624.606	438.69
624.812	431.69
625.019	434.69
625.226	422.69
625.433	419.69
625.639	432.69
625.846	415.69
626.053	423.69
626.259	405.69
626.466	403.69
626.673	399.69
626.879	397.69
627.086	406.69
627.293	430.69
627.499	395.69
627.706	424.69
627.912	420.69
628.119	414.69
628.325	396.69
628.532	418.69
628.738	385.69
628.945	420.69
629.151	424.69
629.357	415.69
629.564	398.69
629.77	390.69
629.976	404.69
630.183	377.69
630.389	381.69
630.595	393.69
630.802	363.69
631.008	359.69
631.214	374.69
631.42	373.69
631.627	384.69
631.833	370.69
632.039	373.69
632.245	410.69
632.451	359.69
632.657	375.69
632.863	366.69
633.069	355.69
633.275	363.69
633.481	357.69
633.688	356.69
633.893	364.69
634.099	352.69
634.305	350.69
634.511	363.69
634.717	339.69
634.923	340.69
635.129	344.69
635.335	348.69
635.541	340.69
635.747	367.69
635.952	352.69
636.158	329.69
636.364	358.69
636.57	349.69
636.775	327.69
636.981	338.69
637.187	328.69
637.392	343.69
637.598	345.69
637.804	330.69
638.009	341.69
638.215	338.69
638.421	346.69
638.626	337.69
638.832	337.69
639.037	328.69
639.243	332.69
639.448	328.69
639.654	338.69
639.859	323.69
640.065	314.69
640.27	312.69
640.475	321.69
640.681	319.69
640.886	326.69
641.091	335.69
641.297	330.69
641.502	306.69
641.707	330.69
641.913	340.69
642.118	329.69
642.323	310.69
642.528	331.69
642.733	294.69
642.939	321.69
643.144	299.69
643.349	314.69
643.554	321.69
643.759	309.69
643.964	294.69
644.169	313.69
644.374	306.69
644.579	311.69
644.784	302.69
644.989	329.69
645.194	304.69
645.399	315.69
645.604	305.69
645.809	309.69
646.014	325.69
646.219	308.69
646.423	311.69
646.628	309.69
646.833	318.69
647.038	306.69
647.243	313.69
647.447	294.69
647.652	310.69
647.857	313.69
648.062	322.69
648.266	307.69
648.471	298.69
648.676	314.69
648.88	307.69
649.085	318.69
649.289	323.69
649.494	327.69
649.698	316.69
649.903	293.69
650.107	296.69
650.312	294.69
650.516	285.69
650.721	296.69
650.925	279.69
651.13	293.69
651.334	295.69
651.539	268.69
651.743	276.69
651.947	263.69
652.152	279.69
652.356	266.69
652.56	262.69
652.764	274.69
652.969	253.69
653.173	249.69
653.377	243.69
653.581	258.69
653.785	255.69
653.99	245.69
654.194	238.69
654.398	244.69
654.602	240.69
654.806	253.69
655.01	234.69
655.214	236.69
655.418	241.69
655.622	246.69
655.826	241.69
656.03	227.69
656.234	262.69
656.438	275.69
656.642	279.69
656.846	265.69
657.049	232.69
657.253	210.69
657.457	198.69
657.661	208.69
657.865	184.69
658.068	162.69
658.272	170.69
658.476	160.69
658.68	145.69
658.883	157.69
659.087	142.69
659.291	142.69
659.494	132.69
659.698	138.69
659.901	123.69
660.105	123.69
660.309	113.69
660.512	111.69
660.716	116.69
660.919	111.69
661.123	112.69
661.326	116.69
661.53	82.69
661.733	103.69
661.936	102.69
662.14	83.69
662.343	103.69
662.546	88.69
662.75	94.69
662.953	90.69
663.156	76.69
663.36	104.69
663.563	89.69
663.766	90.69
663.969	89.69
664.173	90.69
664.376	79.69
664.579	85.69
664.782	72.69
664.985	73.69
665.188	88.69
665.391	83.69
665.594	86.69
665.797	72.69
666	75.69
666.203	77.69
666.406	88.69
666.609	79.69
666.812	74.69
667.015	70.69
667.218	99.69
667.421	72.69
667.624	91.69
667.827	88.69
668.03	93.69
668.232	82.69
668.435	76.69
668.638	89.69
668.841	92.69
669.043	84.69
669.246	91.69
669.449	90.69
669.651	63.69
669.854	84.69
670.057	99.69
670.259	82.69
670.462	85.69
670.665	76.69
670.867	80.69
671.07	69.69
671.272	68.69
671.475	88.69
671.677	76.69
671.88	97.69
672.082	80.69
672.284	79.69
672.487	98.69
672.689	77.69
672.892	77.69
