Data from WStandard_LampEnergy10_LIBS07252019.E.O._I.C._HRD10591_15-55-50-928.txt Node
Date: Thu Jul 25 15:55:50 EDT 2019
User: cochatt
Spectrometer: HR+D1059
Trigger mode: 1
Integration Time (sec): 1.000000E-1
Scans to average: 1
Electric dark correction enabled: true
Nonlinearity correction enabled: false
Boxcar width: 0
XAxis mode: Wavelengths
Number of Pixels in Spectrum: 2048
>>>>>Begin Spectral Data<<<<<
223.165	-8.94
223.4	-8.94
223.635	-8.94
223.869	-16.94
224.104	-32.94
224.338	-15.94
224.573	-8.94
224.808	-13.94
225.042	1.06
225.277	-6.94
225.511	-13.94
225.746	-5.94
225.98	14.06
226.215	12.06
226.449	19.06
226.683	17.06
226.918	22.06
227.152	39.06
227.387	41.06
227.621	38.06
227.856	39.06
228.09	43.06
228.324	54.06
228.559	55.06
228.793	65.06
229.027	136.06
229.262	141.06
229.496	135.06
229.73	168.06
229.964	158.06
230.199	175.06
230.433	173.06
230.667	169.06
230.901	182.06
231.136	188.06
231.37	180.06
231.604	171.06
231.838	184.06
232.072	163.06
232.306	157.06
232.541	190.06
232.775	191.06
233.009	216.06
233.243	210.06
233.477	168.06
233.711	202.06
233.945	214.06
234.179	206.06
234.413	226.06
234.647	219.06
234.881	208.06
235.115	187.06
235.349	197.06
235.583	191.06
235.817	195.06
236.051	205.06
236.285	201.06
236.519	201.06
236.753	231.06
236.987	225.06
237.221	217.06
237.455	229.06
237.689	233.06
237.922	220.06
238.156	229.06
238.39	209.06
238.624	217.06
238.858	234.06
239.091	250.06
239.325	266.06
239.559	286.06
239.793	288.06
240.027	302.06
240.26	282.06
240.494	249.06
240.728	222.06
240.961	246.06
241.195	229.06
241.429	235.06
241.662	266.06
241.896	230.06
242.13	250.06
242.363	275.06
242.597	303.06
242.83	270.06
243.064	276.06
243.298	291.06
243.531	282.06
243.765	277.06
243.998	286.06
244.232	235.06
244.465	248.06
244.699	258.06
244.932	276.06
245.166	314.06
245.399	302.06
245.633	287.06
245.866	278.06
246.099	280.06
246.333	292.06
246.566	269.06
246.8	316.06
247.033	332.06
247.266	316.06
247.5	303.06
247.733	325.06
247.966	348.06
248.2	354.06
248.433	341.06
248.666	356.06
248.899	399.06
249.133	424.06
249.366	444.06
249.599	382.06
249.832	358.06
250.066	376.06
250.299	350.06
250.532	337.06
250.765	309.06
250.998	352.06
251.231	344.06
251.465	328.06
251.698	349.06
251.931	349.06
252.164	345.06
252.397	367.06
252.63	344.06
252.863	318.06
253.096	327.06
253.329	338.06
253.562	355.06
253.795	360.06
254.028	382.06
254.261	334.06
254.494	341.06
254.727	345.06
254.96	325.06
255.193	381.06
255.426	419.06
255.659	447.06
255.892	454.06
256.124	381.06
256.357	386.06
256.59	395.06
256.823	384.06
257.056	402.06
257.289	475.06
257.521	498.06
257.754	462.06
257.987	444.06
258.22	472.06
258.452	453.06
258.685	372.06
258.918	389.06
259.151	399.06
259.383	386.06
259.616	364.06
259.849	333.06
260.081	398.06
260.314	428.06
260.547	474.06
260.779	463.06
261.012	424.06
261.244	394.06
261.477	382.06
261.71	383.06
261.942	420.06
262.175	376.06
262.407	407.06
262.64	369.06
262.872	376.06
263.105	367.06
263.337	363.06
263.57	367.06
263.802	366.06
264.035	347.06
264.267	341.06
264.499	325.06
264.732	366.06
264.964	391.06
265.197	389.06
265.429	411.06
265.661	438.06
265.894	491.06
266.126	488.06
266.358	440.06
266.591	469.06
266.823	477.06
267.055	444.06
267.287	460.06
267.52	436.06
267.752	419.06
267.984	458.06
268.216	466.06
268.448	469.06
268.681	447.06
268.913	418.06
269.145	404.06
269.377	420.06
269.609	445.06
269.841	514.06
270.073	580.06
270.306	624.06
270.538	622.06
270.77	528.06
271.002	476.06
271.234	446.06
271.466	498.06
271.698	507.06
271.93	588.06
272.162	582.06
272.394	526.06
272.626	487.06
272.858	460.06
273.09	427.06
273.322	406.06
273.553	382.06
273.785	408.06
274.017	413.06
274.249	447.06
274.481	452.06
274.713	434.06
274.945	408.06
275.176	404.06
275.408	403.06
275.64	382.06
275.872	384.06
276.104	422.06
276.335	511.06
276.567	543.06
276.799	529.06
277.031	476.06
277.262	465.06
277.494	484.06
277.726	526.06
277.957	491.06
278.189	460.06
278.421	425.06
278.652	422.06
278.884	430.06
279.115	428.06
279.347	430.06
279.579	439.06
279.81	428.06
280.042	455.06
280.273	511.06
280.505	521.06
280.736	509.06
280.968	483.06
281.199	422.06
281.431	407.06
281.662	412.06
281.894	422.06
282.125	411.06
282.356	443.06
282.588	473.06
282.819	473.06
283.051	493.06
283.282	495.06
283.513	495.06
283.745	445.06
283.976	426.06
284.207	436.06
284.439	437.06
284.67	458.06
284.901	436.06
285.132	445.06
285.364	458.06
285.595	452.06
285.826	451.06
286.057	444.06
286.288	440.06
286.52	467.06
286.751	488.06
286.982	494.06
287.213	462.06
287.444	432.06
287.675	435.06
287.906	460.06
288.138	498.06
288.369	466.06
288.6	471.06
288.831	427.06
289.062	421.06
289.293	455.06
289.524	460.06
289.755	453.06
289.986	430.06
290.217	439.06
290.448	451.06
290.679	446.06
290.91	477.06
291.141	466.06
291.371	481.06
291.602	468.06
291.833	474.06
292.064	491.06
292.295	470.06
292.526	486.06
292.757	505.06
292.987	466.06
293.218	478.06
293.449	516.06
293.68	546.06
293.91	575.06
294.141	543.06
294.372	532.06
294.603	568.06
294.833	571.06
295.064	559.06
295.295	465.06
295.525	472.06
295.756	432.06
295.987	439.06
296.217	466.06
296.448	467.06
296.679	468.06
296.909	467.06
297.14	463.06
297.37	474.06
297.601	509.06
297.831	518.06
298.062	500.06
298.292	474.06
298.523	442.06
298.753	473.06
298.984	480.06
299.214	455.06
299.445	485.06
299.675	485.06
299.905	529.06
300.136	476.06
300.366	444.06
300.597	467.06
300.827	488.06
301.057	496.06
301.288	496.06
301.518	498.06
301.748	510.06
301.979	546.06
302.209	558.06
302.439	590.06
302.669	572.06
302.9	539.06
303.13	510.06
303.36	510.06
303.59	532.06
303.82	510.06
304.051	499.06
304.281	523.06
304.511	544.06
304.741	549.06
304.971	600.06
305.201	611.06
305.431	559.06
305.661	464.06
305.891	447.06
306.121	441.06
306.352	498.06
306.582	514.06
306.812	537.06
307.042	559.06
307.272	578.06
307.502	583.06
307.731	624.06
307.961	630.06
308.191	575.06
308.421	520.06
308.651	496.06
308.881	466.06
309.111	488.06
309.341	480.06
309.571	502.06
309.8	493.06
310.03	478.06
310.26	476.06
310.49	479.06
310.72	495.06
310.949	534.06
311.179	523.06
311.409	507.06
311.639	487.06
311.868	498.06
312.098	489.06
312.328	495.06
312.557	484.06
312.787	519.06
313.017	515.06
313.246	522.06
313.476	511.06
313.706	533.06
313.935	524.06
314.165	540.06
314.394	563.06
314.624	581.06
314.853	581.06
315.083	604.06
315.312	624.06
315.542	563.06
315.771	536.06
316.001	540.06
316.23	586.06
316.46	560.06
316.689	546.06
316.919	522.06
317.148	536.06
317.377	554.06
317.607	564.06
317.836	625.06
318.065	618.06
318.295	609.06
318.524	580.06
318.753	554.06
318.983	550.06
319.212	554.06
319.441	538.06
319.67	539.06
319.9	540.06
320.129	590.06
320.358	610.06
320.587	609.06
320.816	617.06
321.046	598.06
321.275	569.06
321.504	588.06
321.733	633.06
321.962	592.06
322.191	572.06
322.42	555.06
322.649	523.06
322.878	550.06
323.108	550.06
323.337	561.06
323.566	566.06
323.795	566.06
324.024	558.06
324.253	560.06
324.482	543.06
324.71	543.06
324.939	527.06
325.168	541.06
325.397	549.06
325.626	578.06
325.855	556.06
326.084	552.06
326.313	567.06
326.542	564.06
326.77	591.06
326.999	570.06
327.228	552.06
327.457	548.06
327.686	543.06
327.914	556.06
328.143	544.06
328.372	536.06
328.6	554.06
328.829	549.06
329.058	546.06
329.287	555.06
329.515	588.06
329.744	579.06
329.972	602.06
330.201	617.06
330.43	599.06
330.658	578.06
330.887	596.06
331.115	602.06
331.344	605.06
331.572	584.06
331.801	570.06
332.03	594.06
332.258	596.06
332.486	617.06
332.715	619.06
332.943	609.06
333.172	582.06
333.4	603.06
333.629	634.06
333.857	668.06
334.085	751.06
334.314	811.06
334.542	837.06
334.771	749.06
334.999	678.06
335.227	647.06
335.455	619.06
335.684	633.06
335.912	630.06
336.14	642.06
336.369	631.06
336.597	619.06
336.825	606.06
337.053	614.06
337.281	644.06
337.51	696.06
337.738	676.06
337.966	647.06
338.194	605.06
338.422	588.06
338.65	591.06
338.878	571.06
339.106	565.06
339.334	569.06
339.562	554.06
339.79	580.06
340.018	634.06
340.246	651.06
340.474	606.06
340.702	597.06
340.93	611.06
341.158	587.06
341.386	599.06
341.614	600.06
341.842	600.06
342.07	587.06
342.298	603.06
342.526	598.06
342.754	585.06
342.981	589.06
343.209	598.06
343.437	580.06
343.665	596.06
343.893	600.06
344.12	635.06
344.348	619.06
344.576	574.06
344.804	617.06
345.031	575.06
345.259	598.06
345.487	570.06
345.714	524.06
345.942	551.06
346.17	550.06
346.397	539.06
346.625	544.06
346.853	542.06
347.08	523.06
347.308	564.06
347.535	570.06
347.763	578.06
347.99	568.06
348.218	551.06
348.445	551.06
348.673	565.06
348.9	568.06
349.128	578.06
349.355	607.06
349.583	560.06
349.81	570.06
350.037	518.06
350.265	523.06
350.492	527.06
350.72	572.06
350.947	575.06
351.174	572.06
351.402	541.06
351.629	523.06
351.856	538.06
352.083	518.06
352.311	547.06
352.538	544.06
352.765	587.06
352.992	560.06
353.22	549.06
353.447	546.06
353.674	543.06
353.901	557.06
354.128	589.06
354.355	553.06
354.583	558.06
354.81	589.06
355.037	604.06
355.264	597.06
355.491	558.06
355.718	566.06
355.945	570.06
356.172	557.06
356.399	531.06
356.626	558.06
356.853	580.06
357.08	636.06
357.307	666.06
357.534	645.06
357.761	581.06
357.988	546.06
358.215	525.06
358.441	523.06
358.668	534.06
358.895	558.06
359.122	589.06
359.349	650.06
359.576	621.06
359.802	559.06
360.029	555.06
360.256	531.06
360.483	525.06
360.709	586.06
360.936	606.06
361.163	615.06
361.39	664.06
361.616	735.06
361.843	690.06
362.07	638.06
362.296	600.06
362.523	570.06
362.749	580.06
362.976	588.06
363.203	576.06
363.429	594.06
363.656	536.06
363.882	587.06
364.109	656.06
364.335	658.06
364.562	613.06
364.788	602.06
365.015	551.06
365.241	579.06
365.468	552.06
365.694	628.06
365.92	613.06
366.147	581.06
366.373	566.06
366.599	543.06
366.826	536.06
367.052	566.06
367.278	557.06
367.505	571.06
367.731	603.06
367.957	593.06
368.184	614.06
368.41	671.06
368.636	670.06
368.862	664.06
369.089	656.06
369.315	630.06
369.541	612.06
369.767	582.06
369.993	575.06
370.219	604.06
370.445	618.06
370.672	659.06
370.898	648.06
371.124	656.06
371.35	631.06
371.576	646.06
371.802	660.06
372.028	636.06
372.254	616.06
372.48	572.06
372.706	572.06
372.932	597.06
373.158	613.06
373.384	626.06
373.61	636.06
373.835	662.06
374.061	629.06
374.287	610.06
374.513	628.06
374.739	617.06
374.965	634.06
375.191	636.06
375.416	639.06
375.642	667.06
375.868	711.06
376.094	703.06
376.319	655.06
376.545	642.06
376.771	669.06
376.997	698.06
377.222	664.06
377.448	653.06
377.674	664.06
377.899	660.06
378.125	702.06
378.35	690.06
378.576	632.06
378.802	626.06
379.027	630.06
379.253	654.06
379.478	658.06
379.704	610.06
379.929	638.06
380.155	642.06
380.38	647.06
380.606	667.06
380.831	655.06
381.057	683.06
381.282	681.06
381.507	657.06
381.733	726.06
381.958	750.06
382.184	671.06
382.409	664.06
382.634	667.06
382.86	660.06
383.085	651.06
383.31	683.06
383.535	778.06
383.761	795.06
383.986	729.06
384.211	725.06
384.436	720.06
384.662	778.06
384.887	798.06
385.112	727.06
385.337	747.06
385.562	729.06
385.787	742.06
386.013	758.06
386.238	746.06
386.463	783.06
386.688	820.06
386.913	850.06
387.138	837.06
387.363	789.06
387.588	750.06
387.813	711.06
388.038	776.06
388.263	794.06
388.488	742.06
388.713	722.06
388.938	708.06
389.163	717.06
389.387	736.06
389.612	742.06
389.837	767.06
390.062	770.06
390.287	758.06
390.512	749.06
390.736	755.06
390.961	733.06
391.186	722.06
391.411	725.06
391.636	751.06
391.86	766.06
392.085	747.06
392.31	744.06
392.534	758.06
392.759	738.06
392.984	769.06
393.208	770.06
393.433	774.06
393.658	812.06
393.882	803.06
394.107	760.06
394.331	762.06
394.556	729.06
394.78	774.06
395.005	806.06
395.229	842.06
395.454	860.06
395.678	874.06
395.903	813.06
396.127	807.06
396.352	820.06
396.576	827.06
396.801	852.06
397.025	856.06
397.249	827.06
397.474	797.06
397.698	812.06
397.922	868.06
398.147	892.06
398.371	911.06
398.595	887.06
398.82	870.06
399.044	846.06
399.268	902.06
399.492	968.06
399.717	972.06
399.941	982.06
400.165	955.06
400.389	953.06
400.613	976.06
400.837	1106.06
401.062	1202.06
401.286	1016.06
401.51	950.06
401.734	952.06
401.958	919.06
402.182	909.06
402.406	868.06
402.63	868.06
402.854	892.06
403.078	876.06
403.302	893.06
403.526	902.06
403.75	912.06
403.974	926.06
404.198	895.06
404.422	974.06
404.645	1001.06
404.869	958.06
405.093	901.06
405.317	887.06
405.541	917.06
405.765	908.06
405.988	914.06
406.212	954.06
406.436	975.06
406.66	973.06
406.883	1008.06
407.107	1138.06
407.331	1210.06
407.555	1291.06
407.778	1111.06
408.002	966.06
408.226	973.06
408.449	949.06
408.673	915.06
408.896	926.06
409.12	932.06
409.344	934.06
409.567	923.06
409.791	948.06
410.014	957.06
410.238	1007.06
410.461	1066.06
410.685	927.06
410.908	929.06
411.132	950.06
411.355	874.06
411.578	918.06
411.802	896.06
412.025	926.06
412.249	922.06
412.472	903.06
412.695	914.06
412.919	908.06
413.142	920.06
413.365	927.06
413.589	936.06
413.812	989.06
414.035	979.06
414.258	919.06
414.482	918.06
414.705	934.06
414.928	919.06
415.151	922.06
415.374	907.06
415.597	921.06
415.821	941.06
416.044	953.06
416.267	939.06
416.49	904.06
416.713	918.06
416.936	953.06
417.159	988.06
417.382	959.06
417.605	929.06
417.828	946.06
418.051	932.06
418.274	935.06
418.497	931.06
418.72	934.06
418.943	932.06
419.166	935.06
419.389	986.06
419.611	947.06
419.834	907.06
420.057	969.06
420.28	948.06
420.503	948.06
420.726	965.06
420.948	925.06
421.171	912.06
421.394	940.06
421.617	948.06
421.839	967.06
422.062	960.06
422.285	924.06
422.507	911.06
422.73	882.06
422.953	858.06
423.175	854.06
423.398	902.06
423.621	928.06
423.843	932.06
424.066	966.06
424.288	1008.06
424.511	1016.06
424.733	999.06
424.956	939.06
425.178	923.06
425.401	939.06
425.623	940.06
425.846	902.06
426.068	950.06
426.291	980.06
426.513	960.06
426.735	953.06
426.958	1027.06
427.18	1032.06
427.402	986.06
427.625	1039.06
427.847	988.06
428.069	913.06
428.292	905.06
428.514	896.06
428.736	917.06
428.958	909.06
429.181	931.06
429.403	1078.06
429.625	1223.06
429.847	1047.06
430.069	984.06
430.292	1028.06
430.514	1039.06
430.736	981.06
430.958	983.06
431.18	912.06
431.402	871.06
431.624	828.06
431.846	793.06
432.068	751.06
432.29	735.06
432.512	792.06
432.734	852.06
432.956	910.06
433.178	968.06
433.4	955.06
433.622	950.06
433.844	913.06
434.066	813.06
434.287	807.06
434.509	777.06
434.731	819.06
434.953	894.06
435.175	904.06
435.397	910.06
435.618	887.06
435.84	820.06
436.062	832.06
436.284	881.06
436.505	933.06
436.727	933.06
436.949	899.06
437.17	886.06
437.392	892.06
437.614	840.06
437.835	785.06
438.057	787.06
438.278	816.06
438.5	846.06
438.721	894.06
438.943	917.06
439.165	906.06
439.386	890.06
439.608	934.06
439.829	952.06
440.05	937.06
440.272	957.06
440.493	926.06
440.715	957.06
440.936	1003.06
441.158	1078.06
441.379	1022.06
441.6	1027.06
441.822	1004.06
442.043	993.06
442.264	979.06
442.486	938.06
442.707	922.06
442.928	928.06
443.149	988.06
443.371	1007.06
443.592	1014.06
443.813	1028.06
444.034	1003.06
444.255	1030.06
444.476	1017.06
444.698	1041.06
444.919	1048.06
445.14	1106.06
445.361	1075.06
445.582	1063.06
445.803	1032.06
446.024	997.06
446.245	1085.06
446.466	1061.06
446.687	1007.06
446.908	1039.06
447.129	1011.06
447.35	1014.06
447.571	983.06
447.792	948.06
448.013	918.06
448.234	948.06
448.455	981.06
448.675	975.06
448.896	906.06
449.117	913.06
449.338	904.06
449.559	940.06
449.779	980.06
450	994.06
450.221	1029.06
450.442	1012.06
450.662	943.06
450.883	877.06
451.104	875.06
451.324	865.06
451.545	879.06
451.766	849.06
451.986	783.06
452.207	807.06
452.428	787.06
452.648	775.06
452.869	782.06
453.089	761.06
453.31	762.06
453.53	777.06
453.751	712.06
453.971	703.06
454.192	729.06
454.412	756.06
454.633	774.06
454.853	786.06
455.073	759.06
455.294	759.06
455.514	758.06
455.734	747.06
455.955	727.06
456.175	727.06
456.395	711.06
456.616	715.06
456.836	732.06
457.056	736.06
457.276	734.06
457.497	687.06
457.717	699.06
457.937	702.06
458.157	708.06
458.377	704.06
458.598	666.06
458.818	662.06
459.038	715.06
459.258	722.06
459.478	734.06
459.698	710.06
459.918	739.06
460.138	800.06
460.358	804.06
460.578	843.06
460.798	854.06
461.018	869.06
461.238	843.06
461.458	846.06
461.678	812.06
461.898	815.06
462.118	812.06
462.338	849.06
462.558	834.06
462.777	829.06
462.997	851.06
463.217	877.06
463.437	886.06
463.657	848.06
463.876	820.06
464.096	825.06
464.316	806.06
464.536	876.06
464.755	891.06
464.975	879.06
465.195	851.06
465.414	877.06
465.634	872.06
465.854	876.06
466.073	947.06
466.293	946.06
466.512	858.06
466.732	856.06
466.951	904.06
467.171	889.06
467.391	882.06
467.61	891.06
467.829	910.06
468.049	976.06
468.268	1034.06
468.488	943.06
468.707	916.06
468.927	889.06
469.146	884.06
469.365	912.06
469.585	954.06
469.804	912.06
470.023	925.06
470.243	952.06
470.462	921.06
470.681	894.06
470.901	915.06
471.12	934.06
471.339	914.06
471.558	903.06
471.777	879.06
471.997	883.06
472.216	840.06
472.435	808.06
472.654	745.06
472.873	781.06
473.092	815.06
473.311	826.06
473.53	800.06
473.749	816.06
473.968	826.06
474.187	853.06
474.406	830.06
474.625	823.06
474.844	872.06
475.063	872.06
475.282	851.06
475.501	826.06
475.72	826.06
475.939	915.06
476.158	886.06
476.377	856.06
476.596	842.06
476.814	840.06
477.033	797.06
477.252	837.06
477.471	916.06
477.69	920.06
477.908	923.06
478.127	975.06
478.346	1000.06
478.564	970.06
478.783	991.06
479.002	992.06
479.22	990.06
479.439	1003.06
479.658	1046.06
479.876	972.06
480.095	889.06
480.313	906.06
480.532	877.06
480.751	864.06
480.969	834.06
481.188	802.06
481.406	788.06
481.624	767.06
481.843	806.06
482.061	837.06
482.28	878.06
482.498	869.06
482.717	836.06
482.935	878.06
483.153	964.06
483.372	1016.06
483.59	1022.06
483.808	974.06
484.027	936.06
484.245	1019.06
484.463	1192.06
484.681	1272.06
484.9	1030.06
485.118	962.06
485.336	926.06
485.554	915.06
485.772	871.06
485.99	896.06
486.209	884.06
486.427	904.06
486.645	952.06
486.863	998.06
487.081	1026.06
487.299	996.06
487.517	1007.06
487.735	1093.06
487.953	1178.06
488.171	1178.06
488.389	1131.06
488.607	1094.06
488.825	1162.06
489.043	1056.06
489.261	989.06
489.479	1030.06
489.696	1019.06
489.914	1006.06
490.132	1034.06
490.35	1096.06
490.568	1169.06
490.786	1160.06
491.003	1155.06
491.221	1236.06
491.439	1271.06
491.657	1283.06
491.874	1338.06
492.092	1427.06
492.31	1490.06
492.527	1460.06
492.745	1319.06
492.963	1324.06
493.18	1302.06
493.398	1330.06
493.615	1310.06
493.833	1244.06
494.05	1233.06
494.268	1213.06
494.485	1238.06
494.703	1230.06
494.92	1203.06
495.138	1214.06
495.355	1229.06
495.573	1259.06
495.79	1246.06
496.008	1272.06
496.225	1212.06
496.442	1215.06
496.66	1234.06
496.877	1197.06
497.094	1217.06
497.312	1204.06
497.529	1223.06
497.746	1167.06
497.963	1250.06
498.181	1302.06
498.398	1266.06
498.615	1195.06
498.832	1144.06
499.049	1148.06
499.267	1176.06
499.484	1239.06
499.701	1327.06
499.918	1344.06
500.135	1503.06
500.352	1548.06
500.569	1568.06
500.786	1667.06
501.003	1561.06
501.22	1442.06
501.437	1403.06
501.654	1421.06
501.871	1323.06
502.088	1183.06
502.305	1184.06
502.522	1120.06
502.739	1110.06
502.956	1113.06
503.172	1057.06
503.389	1028.06
503.606	1004.06
503.823	1005.06
504.04	980.06
504.256	994.06
504.473	994.06
504.69	1004.06
504.907	966.06
505.123	971.06
505.34	1090.06
505.557	1326.06
505.773	1097.06
505.99	938.06
506.207	916.06
506.423	891.06
506.64	894.06
506.856	895.06
507.073	1019.06
507.289	1089.06
507.506	994.06
507.722	892.06
507.939	842.06
508.155	838.06
508.372	855.06
508.588	823.06
508.805	801.06
509.021	780.06
509.238	770.06
509.454	756.06
509.67	736.06
509.887	734.06
510.103	725.06
510.319	733.06
510.536	749.06
510.752	767.06
510.968	754.06
511.184	794.06
511.401	763.06
511.617	732.06
511.833	701.06
512.049	687.06
512.265	696.06
512.481	721.06
512.698	742.06
512.914	758.06
513.13	762.06
513.346	698.06
513.562	683.06
513.778	700.06
513.994	750.06
514.21	735.06
514.426	776.06
514.642	828.06
514.858	782.06
515.074	715.06
515.29	723.06
515.506	741.06
515.721	739.06
515.937	720.06
516.153	787.06
516.369	788.06
516.585	758.06
516.801	715.06
517.016	740.06
517.232	768.06
517.448	782.06
517.664	778.06
517.879	805.06
518.095	799.06
518.311	776.06
518.527	750.06
518.742	731.06
518.958	733.06
519.173	748.06
519.389	774.06
519.605	781.06
519.82	779.06
520.036	783.06
520.251	790.06
520.467	776.06
520.682	818.06
520.898	780.06
521.113	713.06
521.329	709.06
521.544	763.06
521.76	725.06
521.975	712.06
522.19	719.06
522.406	738.06
522.621	922.06
522.836	890.06
523.052	725.06
523.267	756.06
523.482	772.06
523.698	735.06
523.913	724.06
524.128	772.06
524.343	815.06
524.559	838.06
524.774	787.06
524.989	736.06
525.204	760.06
525.419	758.06
525.634	741.06
525.849	724.06
526.064	724.06
526.28	707.06
526.495	658.06
526.71	647.06
526.925	658.06
527.14	618.06
527.355	626.06
527.57	633.06
527.785	640.06
527.999	687.06
528.214	669.06
528.429	664.06
528.644	743.06
528.859	790.06
529.074	823.06
529.289	869.06
529.503	857.06
529.718	827.06
529.933	721.06
530.148	674.06
530.363	691.06
530.577	639.06
530.792	639.06
531.007	627.06
531.221	634.06
531.436	636.06
531.651	657.06
531.865	653.06
532.08	630.06
532.295	646.06
532.509	611.06
532.724	598.06
532.938	657.06
533.153	698.06
533.367	707.06
533.582	742.06
533.796	728.06
534.011	704.06
534.225	656.06
534.44	636.06
534.654	628.06
534.868	642.06
535.083	680.06
535.297	708.06
535.511	671.06
535.726	688.06
535.94	659.06
536.154	645.06
536.369	625.06
536.583	613.06
536.797	613.06
537.011	599.06
537.225	619.06
537.44	592.06
537.654	639.06
537.868	613.06
538.082	620.06
538.296	597.06
538.51	614.06
538.724	688.06
538.938	703.06
539.153	735.06
539.367	736.06
539.581	674.06
539.795	666.06
540.009	636.06
540.222	643.06
540.436	678.06
540.65	749.06
540.864	807.06
541.078	797.06
541.292	828.06
541.506	892.06
541.72	969.06
541.934	1016.06
542.147	1057.06
542.361	993.06
542.575	915.06
542.789	827.06
543.002	780.06
543.216	746.06
543.43	740.06
543.644	804.06
543.857	900.06
544.071	895.06
544.285	904.06
544.498	904.06
544.712	934.06
544.925	939.06
545.139	928.06
545.352	952.06
545.566	929.06
545.779	918.06
545.993	964.06
546.206	943.06
546.42	920.06
546.633	935.06
546.847	937.06
547.06	950.06
547.274	970.06
547.487	999.06
547.7	982.06
547.914	977.06
548.127	940.06
548.34	951.06
548.554	933.06
548.767	901.06
548.98	901.06
549.193	907.06
549.407	962.06
549.62	962.06
549.833	922.06
550.046	904.06
550.259	910.06
550.473	872.06
550.686	852.06
550.899	837.06
551.112	845.06
551.325	826.06
551.538	832.06
551.751	867.06
551.964	678.06
552.177	720.06
552.39	766.06
552.603	843.06
552.816	862.06
553.029	908.06
553.242	904.06
553.455	910.06
553.667	908.06
553.88	893.06
554.093	869.06
554.306	840.06
554.519	823.06
554.732	821.06
554.944	830.06
555.157	823.06
555.37	798.06
555.583	790.06
555.795	775.06
556.008	739.06
556.221	707.06
556.433	708.06
556.646	727.06
556.859	725.06
557.071	721.06
557.284	732.06
557.496	751.06
557.709	745.06
557.921	738.06
558.134	744.06
558.346	733.06
558.559	744.06
558.771	719.06
558.984	677.06
559.196	679.06
559.409	671.06
559.621	649.06
559.833	644.06
560.046	667.06
560.258	665.06
560.47	671.06
560.683	692.06
560.895	690.06
561.107	668.06
561.32	660.06
561.532	682.06
561.744	674.06
561.956	662.06
562.168	680.06
562.381	652.06
562.593	653.06
562.805	653.06
563.017	634.06
563.229	635.06
563.441	627.06
563.653	627.06
563.865	633.06
564.077	632.06
564.289	608.06
564.501	590.06
564.713	604.06
564.925	642.06
565.137	661.06
565.349	604.06
565.561	618.06
565.773	606.06
565.985	612.06
566.197	676.06
566.408	667.06
566.62	677.06
566.832	688.06
567.044	666.06
567.255	642.06
567.467	650.06
567.679	664.06
567.891	655.06
568.102	620.06
568.314	582.06
568.526	544.06
568.737	527.06
568.949	504.06
569.161	469.06
569.372	465.06
569.584	469.06
569.795	457.06
570.007	476.06
570.218	433.06
570.43	423.06
570.641	445.06
570.853	451.06
571.064	477.06
571.276	502.06
571.487	480.06
571.698	468.06
571.91	431.06
572.121	463.06
572.333	449.06
572.544	430.06
572.755	421.06
572.966	406.06
573.178	393.06
573.389	383.06
573.6	398.06
573.811	438.06
574.023	404.06
574.234	391.06
574.445	378.06
574.656	404.06
574.867	396.06
575.078	379.06
575.289	398.06
575.501	404.06
575.712	377.06
575.923	378.06
576.134	406.06
576.345	405.06
576.556	404.06
576.767	406.06
576.978	392.06
577.188	376.06
577.399	385.06
577.61	375.06
577.821	365.06
578.032	376.06
578.243	366.06
578.454	370.06
578.665	347.06
578.875	346.06
579.086	328.06
579.297	334.06
579.508	371.06
579.718	361.06
579.929	350.06
580.14	351.06
580.35	350.06
580.561	330.06
580.772	389.06
580.982	378.06
581.193	349.06
581.403	335.06
581.614	342.06
581.825	332.06
582.035	355.06
582.246	341.06
582.456	366.06
582.667	329.06
582.877	344.06
583.087	331.06
583.298	314.06
583.508	339.06
583.719	343.06
583.929	324.06
584.139	314.06
584.35	321.06
584.56	322.06
584.77	321.06
584.981	356.06
585.191	321.06
585.401	332.06
585.611	336.06
585.821	317.06
586.032	334.06
586.242	310.06
586.452	326.06
586.662	315.06
586.872	303.06
587.082	295.06
587.292	319.06
587.502	336.06
587.713	315.06
587.923	299.06
588.133	310.06
588.343	319.06
588.553	318.06
588.762	320.06
588.972	310.06
589.182	318.06
589.392	311.06
589.602	325.06
589.812	313.06
590.022	319.06
590.232	302.06
590.441	302.06
590.651	327.06
590.861	299.06
591.071	300.06
591.281	311.06
591.49	298.06
591.7	310.06
591.91	308.06
592.119	318.06
592.329	313.06
592.539	328.06
592.748	324.06
592.958	317.06
593.167	316.06
593.377	331.06
593.587	325.06
593.796	344.06
594.006	322.06
594.215	329.06
594.424	335.06
594.634	355.06
594.843	335.06
595.053	358.06
595.262	355.06
595.472	304.06
595.681	320.06
595.89	319.06
596.1	309.06
596.309	316.06
596.518	332.06
596.727	339.06
596.937	334.06
597.146	327.06
597.355	333.06
597.564	302.06
597.774	274.06
597.983	283.06
598.192	265.06
598.401	287.06
598.61	290.06
598.819	268.06
599.028	303.06
599.237	302.06
599.446	285.06
599.655	277.06
599.864	297.06
600.073	292.06
600.282	276.06
600.491	286.06
600.7	292.06
600.909	314.06
601.118	316.06
601.327	311.06
601.536	342.06
601.745	351.06
601.953	372.06
602.162	360.06
602.371	376.06
602.58	351.06
602.789	348.06
602.997	363.06
603.206	341.06
603.415	342.06
603.623	326.06
603.832	347.06
604.041	334.06
604.249	321.06
604.458	309.06
604.666	313.06
604.875	328.06
605.084	327.06
605.292	335.06
605.501	355.06
605.709	355.06
605.918	356.06
606.126	357.06
606.334	333.06
606.543	363.06
606.751	361.06
606.96	354.06
607.168	375.06
607.376	346.06
607.585	343.06
607.793	361.06
608.001	362.06
608.21	372.06
608.418	381.06
608.626	364.06
608.834	353.06
609.043	366.06
609.251	363.06
609.459	349.06
609.667	362.06
609.875	365.06
610.083	361.06
610.291	360.06
610.499	363.06
610.707	378.06
610.916	370.06
611.124	368.06
611.332	370.06
611.54	370.06
611.748	381.06
611.955	372.06
612.163	358.06
612.371	372.06
612.579	355.06
612.787	355.06
612.995	359.06
613.203	339.06
613.411	347.06
613.618	360.06
613.826	344.06
614.034	361.06
614.242	365.06
614.449	367.06
614.657	348.06
614.865	356.06
615.072	351.06
615.28	376.06
615.488	354.06
615.695	369.06
615.903	363.06
616.111	363.06
616.318	367.06
616.526	351.06
616.733	355.06
616.941	359.06
617.148	359.06
617.356	346.06
617.563	334.06
617.771	341.06
617.978	334.06
618.185	350.06
618.393	358.06
618.6	341.06
618.807	338.06
619.015	331.06
619.222	333.06
619.429	331.06
619.637	311.06
619.844	318.06
620.051	306.06
620.258	325.06
620.466	309.06
620.673	315.06
620.88	301.06
621.087	308.06
621.294	322.06
621.501	297.06
621.708	299.06
621.915	320.06
622.122	351.06
622.329	312.06
622.536	331.06
622.743	318.06
622.95	316.06
623.157	303.06
623.364	320.06
623.571	315.06
623.778	314.06
623.985	309.06
624.192	319.06
624.399	309.06
624.606	294.06
624.812	308.06
625.019	304.06
625.226	306.06
625.433	314.06
625.639	289.06
625.846	274.06
626.053	251.06
626.259	247.06
626.466	233.06
626.673	230.06
626.879	242.06
627.086	258.06
627.293	282.06
627.499	285.06
627.706	291.06
627.912	314.06
628.119	298.06
628.325	306.06
628.532	291.06
628.738	301.06
628.945	297.06
629.151	283.06
629.357	282.06
629.564	275.06
629.77	266.06
629.976	249.06
630.183	257.06
630.389	264.06
630.595	267.06
630.802	274.06
631.008	272.06
631.214	290.06
631.42	254.06
631.627	247.06
631.833	258.06
632.039	266.06
632.245	272.06
632.451	277.06
632.657	258.06
632.863	266.06
633.069	274.06
633.275	264.06
633.481	240.06
633.688	265.06
633.893	250.06
634.099	253.06
634.305	245.06
634.511	246.06
634.717	222.06
634.923	237.06
635.129	220.06
635.335	222.06
635.541	220.06
635.747	225.06
635.952	248.06
636.158	259.06
636.364	261.06
636.57	276.06
636.775	255.06
636.981	262.06
637.187	269.06
637.392	263.06
637.598	264.06
637.804	250.06
638.009	276.06
638.215	272.06
638.421	254.06
638.626	248.06
638.832	273.06
639.037	245.06
639.243	237.06
639.448	232.06
639.654	244.06
639.859	260.06
640.065	239.06
640.27	255.06
640.475	258.06
640.681	244.06
640.886	251.06
641.091	263.06
641.297	250.06
641.502	252.06
641.707	252.06
641.913	250.06
642.118	242.06
642.323	244.06
642.528	234.06
642.733	244.06
642.939	243.06
643.144	247.06
643.349	235.06
643.554	238.06
643.759	227.06
643.964	231.06
644.169	234.06
644.374	255.06
644.579	256.06
644.784	265.06
644.989	240.06
645.194	242.06
645.399	260.06
645.604	246.06
645.809	247.06
646.014	245.06
646.219	252.06
646.423	239.06
646.628	242.06
646.833	247.06
647.038	239.06
647.243	239.06
647.447	233.06
647.652	266.06
647.857	245.06
648.062	236.06
648.266	240.06
648.471	256.06
648.676	246.06
648.88	235.06
649.085	226.06
649.289	254.06
649.494	215.06
649.698	232.06
649.903	248.06
650.107	230.06
650.312	228.06
650.516	229.06
650.721	228.06
650.925	212.06
651.13	246.06
651.334	215.06
651.539	229.06
651.743	218.06
651.947	210.06
652.152	243.06
652.356	227.06
652.56	206.06
652.764	217.06
652.969	228.06
653.173	206.06
653.377	218.06
653.581	218.06
653.785	196.06
653.99	204.06
654.194	200.06
654.398	213.06
654.602	209.06
654.806	207.06
655.01	223.06
655.214	205.06
655.418	200.06
655.622	208.06
655.826	211.06
656.03	223.06
656.234	225.06
656.438	218.06
656.642	231.06
656.846	238.06
657.049	204.06
657.253	214.06
657.457	190.06
657.661	168.06
657.865	178.06
658.068	176.06
658.272	163.06
658.476	165.06
658.68	159.06
658.883	150.06
659.087	149.06
659.291	134.06
659.494	149.06
659.698	132.06
659.901	137.06
660.105	127.06
660.309	122.06
660.512	123.06
660.716	136.06
660.919	134.06
661.123	126.06
661.326	126.06
661.53	118.06
661.733	114.06
661.936	112.06
662.14	106.06
662.343	97.06
662.546	99.06
662.75	91.06
662.953	99.06
663.156	90.06
663.36	88.06
663.563	96.06
663.766	77.06
663.969	93.06
664.173	91.06
664.376	89.06
664.579	81.06
664.782	96.06
664.985	89.06
665.188	91.06
665.391	83.06
665.594	89.06
665.797	78.06
666	99.06
666.203	74.06
666.406	84.06
666.609	75.06
666.812	86.06
667.015	82.06
667.218	88.06
667.421	98.06
667.624	79.06
667.827	99.06
668.03	79.06
668.232	75.06
668.435	71.06
668.638	85.06
668.841	72.06
669.043	83.06
669.246	83.06
669.449	77.06
669.651	73.06
669.854	79.06
670.057	78.06
670.259	83.06
670.462	95.06
670.665	73.06
670.867	88.06
671.07	82.06
671.272	86.06
671.475	97.06
671.677	99.06
671.88	77.06
672.082	78.06
672.284	92.06
672.487	82.06
672.689	78.06
672.892	86.06
