Data from WStandard_LampEnergy8_LIBS07252019.E.O._I.C._HRD10591_15-57-52-929.txt Node
Date: Thu Jul 25 15:57:52 EDT 2019
User: cochatt
Spectrometer: HR+D1059
Trigger mode: 1
Integration Time (sec): 1.000000E-1
Scans to average: 1
Electric dark correction enabled: true
Nonlinearity correction enabled: false
Boxcar width: 0
XAxis mode: Wavelengths
Number of Pixels in Spectrum: 2048
>>>>>Begin Spectral Data<<<<<
223.165	-32.31
223.4	-32.31
223.635	-32.31
223.869	-10.31
224.104	-23.31
224.338	-17.31
224.573	-9.31
224.808	2.69
225.042	-16.31
225.277	-11.31
225.511	-2.31
225.746	5.69
225.98	8.69
226.215	11.69
226.449	10.69
226.683	31.69
226.918	20.69
227.152	30.69
227.387	32.69
227.621	26.69
227.856	40.69
228.09	50.69
228.324	40.69
228.559	59.69
228.793	97.69
229.027	223.69
229.262	216.69
229.496	229.69
229.73	234.69
229.964	254.69
230.199	268.69
230.433	276.69
230.667	281.69
230.901	302.69
231.136	264.69
231.37	277.69
231.604	279.69
231.838	278.69
232.072	280.69
232.306	249.69
232.541	282.69
232.775	305.69
233.009	337.69
233.243	331.69
233.477	317.69
233.711	322.69
233.945	305.69
234.179	305.69
234.413	321.69
234.647	351.69
234.881	331.69
235.115	289.69
235.349	330.69
235.583	337.69
235.817	323.69
236.051	300.69
236.285	315.69
236.519	324.69
236.753	376.69
236.987	395.69
237.221	377.69
237.455	404.69
237.689	389.69
237.922	355.69
238.156	360.69
238.39	367.69
238.624	391.69
238.858	405.69
239.091	424.69
239.325	449.69
239.559	507.69
239.793	527.69
240.027	549.69
240.26	521.69
240.494	410.69
240.728	395.69
240.961	386.69
241.195	422.69
241.429	447.69
241.662	445.69
241.896	424.69
242.13	423.69
242.363	467.69
242.597	492.69
242.83	466.69
243.064	498.69
243.298	520.69
243.531	490.69
243.765	495.69
243.998	472.69
244.232	415.69
244.465	431.69
244.699	434.69
244.932	483.69
245.166	544.69
245.399	521.69
245.633	484.69
245.866	471.69
246.099	509.69
246.333	513.69
246.566	525.69
246.8	596.69
247.033	643.69
247.266	575.69
247.5	573.69
247.733	561.69
247.966	585.69
248.2	639.69
248.433	631.69
248.666	655.69
248.899	695.69
249.133	781.69
249.366	851.69
249.599	725.69
249.832	654.69
250.066	656.69
250.299	663.69
250.532	624.69
250.765	595.69
250.998	602.69
251.231	637.69
251.465	641.69
251.698	611.69
251.931	616.69
252.164	616.69
252.397	620.69
252.63	654.69
252.863	579.69
253.096	597.69
253.329	613.69
253.562	634.69
253.795	637.69
254.028	663.69
254.261	632.69
254.494	601.69
254.727	590.69
254.96	599.69
255.193	687.69
255.426	777.69
255.659	818.69
255.892	871.69
256.124	716.69
256.357	701.69
256.59	744.69
256.823	731.69
257.056	773.69
257.289	884.69
257.521	948.69
257.754	853.69
257.987	823.69
258.22	907.69
258.452	868.69
258.685	705.69
258.918	710.69
259.151	707.69
259.383	665.69
259.616	605.69
259.849	671.69
260.081	757.69
260.314	819.69
260.547	866.69
260.779	892.69
261.012	810.69
261.244	724.69
261.477	718.69
261.71	755.69
261.942	733.69
262.175	726.69
262.407	738.69
262.64	698.69
262.872	650.69
263.105	653.69
263.337	667.69
263.57	653.69
263.802	672.69
264.035	651.69
264.267	581.69
264.499	617.69
264.732	652.69
264.964	673.69
265.197	699.69
265.429	748.69
265.661	812.69
265.894	919.69
266.126	895.69
266.358	848.69
266.591	866.69
266.823	920.69
267.055	844.69
267.287	834.69
267.52	810.69
267.752	785.69
267.984	799.69
268.216	867.69
268.448	848.69
268.681	856.69
268.913	801.69
269.145	747.69
269.377	746.69
269.609	813.69
269.841	945.69
270.073	1093.69
270.306	1173.69
270.538	1222.69
270.77	1027.69
271.002	903.69
271.234	849.69
271.466	883.69
271.698	993.69
271.93	1142.69
272.162	1107.69
272.394	1028.69
272.626	963.69
272.858	832.69
273.09	756.69
273.322	740.69
273.553	695.69
273.785	742.69
274.017	759.69
274.249	788.69
274.481	781.69
274.713	724.69
274.945	716.69
275.176	734.69
275.408	725.69
275.64	731.69
275.872	708.69
276.104	816.69
276.335	875.69
276.567	1007.69
276.799	969.69
277.031	873.69
277.262	872.69
277.494	881.69
277.726	953.69
277.957	959.69
278.189	843.69
278.421	805.69
278.652	788.69
278.884	777.69
279.115	771.69
279.347	787.69
279.579	755.69
279.81	778.69
280.042	879.69
280.273	932.69
280.505	963.69
280.736	946.69
280.968	848.69
281.199	763.69
281.431	743.69
281.662	756.69
281.894	747.69
282.125	791.69
282.356	825.69
282.588	837.69
282.819	807.69
283.051	903.69
283.282	951.69
283.513	905.69
283.745	787.69
283.976	751.69
284.207	775.69
284.439	784.69
284.67	807.69
284.901	803.69
285.132	829.69
285.364	818.69
285.595	811.69
285.826	806.69
286.057	797.69
286.288	778.69
286.52	831.69
286.751	903.69
286.982	914.69
287.213	815.69
287.444	763.69
287.675	776.69
287.906	827.69
288.138	874.69
288.369	844.69
288.6	769.69
288.831	771.69
289.062	774.69
289.293	804.69
289.524	799.69
289.755	810.69
289.986	825.69
290.217	785.69
290.448	789.69
290.679	803.69
290.91	827.69
291.141	870.69
291.371	872.69
291.602	884.69
291.833	833.69
292.064	889.69
292.295	880.69
292.526	903.69
292.757	916.69
292.987	867.69
293.218	858.69
293.449	905.69
293.68	1017.69
293.91	1076.69
294.141	957.69
294.372	942.69
294.603	969.69
294.833	996.69
295.064	970.69
295.295	876.69
295.525	834.69
295.756	793.69
295.987	747.69
296.217	776.69
296.448	808.69
296.679	808.69
296.909	833.69
297.14	832.69
297.37	834.69
297.601	875.69
297.831	946.69
298.062	919.69
298.292	852.69
298.523	809.69
298.753	833.69
298.984	827.69
299.214	848.69
299.445	881.69
299.675	874.69
299.905	867.69
300.136	849.69
300.366	822.69
300.597	810.69
300.827	787.69
301.057	831.69
301.288	928.69
301.518	916.69
301.748	917.69
301.979	945.69
302.209	985.69
302.439	1033.69
302.669	1064.69
302.9	974.69
303.13	904.69
303.36	899.69
303.59	922.69
303.82	915.69
304.051	892.69
304.281	888.69
304.511	910.69
304.741	1018.69
304.971	1095.69
305.201	1117.69
305.431	1004.69
305.661	857.69
305.891	813.69
306.121	774.69
306.352	820.69
306.582	904.69
306.812	940.69
307.042	1006.69
307.272	1018.69
307.502	1045.69
307.731	1127.69
307.961	1155.69
308.191	1051.69
308.421	902.69
308.651	882.69
308.881	873.69
309.111	871.69
309.341	862.69
309.571	876.69
309.8	867.69
310.03	852.69
310.26	852.69
310.49	840.69
310.72	873.69
310.949	921.69
311.179	915.69
311.409	893.69
311.639	891.69
311.868	883.69
312.098	892.69
312.328	889.69
312.557	872.69
312.787	880.69
313.017	926.69
313.246	919.69
313.476	901.69
313.706	928.69
313.935	943.69
314.165	926.69
314.394	959.69
314.624	1046.69
314.853	1081.69
315.083	1089.69
315.312	1110.69
315.542	1048.69
315.771	947.69
316.001	961.69
316.23	1014.69
316.46	992.69
316.689	963.69
316.919	931.69
317.148	909.69
317.377	928.69
317.607	1017.69
317.836	1099.69
318.065	1151.69
318.295	1071.69
318.524	1029.69
318.753	1011.69
318.983	1012.69
319.212	939.69
319.441	952.69
319.67	958.69
319.9	984.69
320.129	1057.69
320.358	1062.69
320.587	1079.69
320.816	1087.69
321.046	1053.69
321.275	1004.69
321.504	1013.69
321.733	1111.69
321.962	1051.69
322.191	977.69
322.42	980.69
322.649	924.69
322.878	989.69
323.108	966.69
323.337	997.69
323.566	980.69
323.795	988.69
324.024	991.69
324.253	962.69
324.482	976.69
324.71	928.69
324.939	912.69
325.168	928.69
325.397	937.69
325.626	1003.69
325.855	991.69
326.084	948.69
326.313	957.69
326.542	965.69
326.77	993.69
326.999	981.69
327.228	954.69
327.457	895.69
327.686	897.69
327.914	939.69
328.143	968.69
328.372	936.69
328.6	971.69
328.829	969.69
329.058	909.69
329.287	953.69
329.515	988.69
329.744	989.69
329.972	1043.69
330.201	1087.69
330.43	1060.69
330.658	1020.69
330.887	1012.69
331.115	1052.69
331.344	1013.69
331.572	1020.69
331.801	1041.69
332.03	1039.69
332.258	1045.69
332.486	1053.69
332.715	1054.69
332.943	1049.69
333.172	1041.69
333.4	1046.69
333.629	1048.69
333.857	1149.69
334.085	1307.69
334.314	1447.69
334.542	1521.69
334.771	1357.69
334.999	1228.69
335.227	1141.69
335.455	1097.69
335.684	1115.69
335.912	1151.69
336.14	1162.69
336.369	1111.69
336.597	1015.69
336.825	1008.69
337.053	1088.69
337.281	1176.69
337.51	1218.69
337.738	1243.69
337.966	1143.69
338.194	1034.69
338.422	1012.69
338.65	1039.69
338.878	985.69
339.106	998.69
339.334	960.69
339.562	967.69
339.79	998.69
340.018	1081.69
340.246	1106.69
340.474	1090.69
340.702	1064.69
340.93	1061.69
341.158	1054.69
341.386	1031.69
341.614	1041.69
341.842	1018.69
342.07	1034.69
342.298	1048.69
342.526	1038.69
342.754	1034.69
342.981	972.69
343.209	1023.69
343.437	1002.69
343.665	1009.69
343.893	1023.69
344.12	1099.69
344.348	1090.69
344.576	1043.69
344.804	1012.69
345.031	1014.69
345.259	1017.69
345.487	975.69
345.714	954.69
345.942	887.69
346.17	937.69
346.397	984.69
346.625	961.69
346.853	919.69
347.08	917.69
347.308	946.69
347.535	933.69
347.763	1000.69
347.99	949.69
348.218	961.69
348.445	945.69
348.673	974.69
348.9	991.69
349.128	1020.69
349.355	1039.69
349.583	1005.69
349.81	947.69
350.037	913.69
350.265	877.69
350.492	917.69
350.72	934.69
350.947	981.69
351.174	979.69
351.402	914.69
351.629	902.69
351.856	889.69
352.083	857.69
352.311	915.69
352.538	915.69
352.765	955.69
352.992	1000.69
353.22	960.69
353.447	918.69
353.674	960.69
353.901	952.69
354.128	935.69
354.355	921.69
354.583	995.69
354.81	1004.69
355.037	971.69
355.264	967.69
355.491	965.69
355.718	940.69
355.945	954.69
356.172	907.69
356.399	909.69
356.626	931.69
356.853	990.69
357.08	1075.69
357.307	1201.69
357.534	1103.69
357.761	1002.69
357.988	920.69
358.215	893.69
358.441	916.69
358.668	901.69
358.895	913.69
359.122	1004.69
359.349	1082.69
359.576	1054.69
359.802	969.69
360.029	919.69
360.256	908.69
360.483	933.69
360.709	952.69
360.936	1007.69
361.163	1068.69
361.39	1167.69
361.616	1233.69
361.843	1191.69
362.07	1097.69
362.296	963.69
362.523	926.69
362.749	942.69
362.976	980.69
363.203	971.69
363.429	938.69
363.656	937.69
363.882	987.69
364.109	1095.69
364.335	1151.69
364.562	1057.69
364.788	1032.69
365.015	990.69
365.241	934.69
365.468	969.69
365.694	1023.69
365.92	1049.69
366.147	980.69
366.373	943.69
366.599	931.69
366.826	943.69
367.052	930.69
367.278	961.69
367.505	965.69
367.731	997.69
367.957	986.69
368.184	1018.69
368.41	1081.69
368.636	1091.69
368.862	1106.69
369.089	1106.69
369.315	1032.69
369.541	962.69
369.767	971.69
369.993	957.69
370.219	951.69
370.445	990.69
370.672	1058.69
370.898	1120.69
371.124	1076.69
371.35	1013.69
371.576	1046.69
371.802	1076.69
372.028	1045.69
372.254	1008.69
372.48	934.69
372.706	935.69
372.932	971.69
373.158	980.69
373.384	972.69
373.61	1055.69
373.835	1088.69
374.061	1015.69
374.287	989.69
374.513	1013.69
374.739	1027.69
374.965	989.69
375.191	1047.69
375.416	1055.69
375.642	1067.69
375.868	1131.69
376.094	1146.69
376.319	1097.69
376.545	1039.69
376.771	1076.69
376.997	1100.69
377.222	1091.69
377.448	1095.69
377.674	1047.69
377.899	1081.69
378.125	1156.69
378.35	1119.69
378.576	1041.69
378.802	964.69
379.027	989.69
379.253	1022.69
379.478	993.69
379.704	1017.69
379.929	1003.69
380.155	1009.69
380.38	1028.69
380.606	1018.69
380.831	1037.69
381.057	1094.69
381.282	1124.69
381.507	1083.69
381.733	1143.69
381.958	1166.69
382.184	1069.69
382.409	1046.69
382.634	1101.69
382.86	1039.69
383.085	1067.69
383.31	1107.69
383.535	1231.69
383.761	1261.69
383.986	1217.69
384.211	1136.69
384.436	1141.69
384.662	1203.69
384.887	1216.69
385.112	1184.69
385.337	1217.69
385.562	1149.69
385.787	1163.69
386.013	1192.69
386.238	1200.69
386.463	1173.69
386.688	1321.69
386.913	1347.69
387.138	1321.69
387.363	1213.69
387.588	1186.69
387.813	1174.69
388.038	1264.69
388.263	1285.69
388.488	1190.69
388.713	1103.69
388.938	1109.69
389.163	1114.69
389.387	1149.69
389.612	1167.69
389.837	1172.69
390.062	1151.69
390.287	1183.69
390.512	1163.69
390.736	1120.69
390.961	1119.69
391.186	1091.69
391.411	1107.69
391.636	1149.69
391.86	1126.69
392.085	1147.69
392.31	1135.69
392.534	1168.69
392.759	1187.69
392.984	1136.69
393.208	1180.69
393.433	1201.69
393.658	1291.69
393.882	1252.69
394.107	1188.69
394.331	1141.69
394.556	1140.69
394.78	1187.69
395.005	1234.69
395.229	1277.69
395.454	1367.69
395.678	1365.69
395.903	1282.69
396.127	1235.69
396.352	1228.69
396.576	1313.69
396.801	1282.69
397.025	1281.69
397.249	1276.69
397.474	1252.69
397.698	1244.69
397.922	1282.69
398.147	1361.69
398.371	1411.69
398.595	1398.69
398.82	1336.69
399.044	1351.69
399.268	1375.69
399.492	1484.69
399.717	1510.69
399.941	1511.69
400.165	1504.69
400.389	1450.69
400.613	1483.69
400.837	1737.69
401.062	1904.69
401.286	1587.69
401.51	1483.69
401.734	1519.69
401.958	1411.69
402.182	1380.69
402.406	1313.69
402.63	1305.69
402.854	1338.69
403.078	1311.69
403.302	1351.69
403.526	1361.69
403.75	1396.69
403.974	1415.69
404.198	1369.69
404.422	1452.69
404.645	1531.69
404.869	1460.69
405.093	1372.69
405.317	1360.69
405.541	1393.69
405.765	1357.69
405.988	1359.69
406.212	1407.69
406.436	1418.69
406.66	1476.69
406.883	1535.69
407.107	1720.69
407.331	1845.69
407.555	1968.69
407.778	1735.69
408.002	1489.69
408.226	1469.69
408.449	1429.69
408.673	1388.69
408.896	1411.69
409.12	1429.69
409.344	1388.69
409.567	1369.69
409.791	1395.69
410.014	1449.69
410.238	1529.69
410.461	1567.69
410.685	1415.69
410.908	1354.69
411.132	1422.69
411.355	1381.69
411.578	1345.69
411.802	1360.69
412.025	1402.69
412.249	1374.69
412.472	1348.69
412.695	1325.69
412.919	1322.69
413.142	1343.69
413.365	1349.69
413.589	1361.69
413.812	1447.69
414.035	1481.69
414.258	1386.69
414.482	1337.69
414.705	1333.69
414.928	1347.69
415.151	1314.69
415.374	1319.69
415.597	1365.69
415.821	1399.69
416.044	1411.69
416.267	1377.69
416.49	1297.69
416.713	1265.69
416.936	1344.69
417.159	1406.69
417.382	1384.69
417.605	1319.69
417.828	1357.69
418.051	1368.69
418.274	1346.69
418.497	1266.69
418.72	1261.69
418.943	1260.69
419.166	1359.69
419.389	1403.69
419.611	1337.69
419.834	1291.69
420.057	1332.69
420.28	1312.69
420.503	1317.69
420.726	1371.69
420.948	1354.69
421.171	1293.69
421.394	1306.69
421.617	1395.69
421.839	1380.69
422.062	1356.69
422.285	1319.69
422.507	1307.69
422.73	1225.69
422.953	1236.69
423.175	1249.69
423.398	1292.69
423.621	1281.69
423.843	1303.69
424.066	1323.69
424.288	1396.69
424.511	1429.69
424.733	1394.69
424.956	1298.69
425.178	1275.69
425.401	1301.69
425.623	1321.69
425.846	1293.69
426.068	1356.69
426.291	1389.69
426.513	1347.69
426.735	1359.69
426.958	1476.69
427.18	1507.69
427.402	1435.69
427.625	1443.69
427.847	1436.69
428.069	1340.69
428.292	1255.69
428.514	1244.69
428.736	1252.69
428.958	1274.69
429.181	1301.69
429.403	1548.69
429.625	1831.69
429.847	1524.69
430.069	1336.69
430.292	1537.69
430.514	1452.69
430.736	1387.69
430.958	1395.69
431.18	1299.69
431.402	1259.69
431.624	1273.69
431.846	1203.69
432.068	1139.69
432.29	1148.69
432.512	1242.69
432.734	1272.69
432.956	1302.69
433.178	1383.69
433.4	1365.69
433.622	1336.69
433.844	1273.69
434.066	1228.69
434.287	1208.69
434.509	1226.69
434.731	1317.69
434.953	1360.69
435.175	1370.69
435.397	1311.69
435.618	1294.69
435.84	1328.69
436.062	1273.69
436.284	1315.69
436.505	1371.69
436.727	1350.69
436.949	1328.69
437.17	1259.69
437.392	1277.69
437.614	1239.69
437.835	1198.69
438.057	1272.69
438.278	1301.69
438.5	1272.69
438.721	1255.69
438.943	1302.69
439.165	1247.69
439.386	1273.69
439.608	1299.69
439.829	1248.69
440.05	1301.69
440.272	1269.69
440.493	1247.69
440.715	1303.69
440.936	1349.69
441.158	1493.69
441.379	1413.69
441.6	1424.69
441.822	1412.69
442.043	1370.69
442.264	1355.69
442.486	1321.69
442.707	1298.69
442.928	1251.69
443.149	1336.69
443.371	1414.69
443.592	1413.69
443.813	1422.69
444.034	1426.69
444.255	1384.69
444.476	1437.69
444.698	1462.69
444.919	1432.69
445.14	1504.69
445.361	1487.69
445.582	1497.69
445.803	1421.69
446.024	1405.69
446.245	1478.69
446.466	1385.69
446.687	1375.69
446.908	1375.69
447.129	1347.69
447.35	1345.69
447.571	1343.69
447.792	1297.69
448.013	1252.69
448.234	1308.69
448.455	1352.69
448.675	1333.69
448.896	1248.69
449.117	1203.69
449.338	1265.69
449.559	1312.69
449.779	1388.69
450	1480.69
450.221	1543.69
450.442	1478.69
450.662	1328.69
450.883	1194.69
451.104	1187.69
451.324	1234.69
451.545	1272.69
451.766	1222.69
451.986	1179.69
452.207	1175.69
452.428	1133.69
452.648	1104.69
452.869	1127.69
453.089	1151.69
453.31	1216.69
453.53	1200.69
453.751	1141.69
453.971	1085.69
454.192	1120.69
454.412	1170.69
454.633	1153.69
454.853	1147.69
455.073	1097.69
455.294	1101.69
455.514	1081.69
455.734	1103.69
455.955	1145.69
456.175	1069.69
456.395	1105.69
456.616	1117.69
456.836	1140.69
457.056	1111.69
457.276	1101.69
457.497	1082.69
457.717	1020.69
457.937	1055.69
458.157	1113.69
458.377	1074.69
458.598	1027.69
458.818	1070.69
459.038	1161.69
459.258	1183.69
459.478	1194.69
459.698	1181.69
459.918	1162.69
460.138	1240.69
460.358	1303.69
460.578	1268.69
460.798	1333.69
461.018	1412.69
461.238	1361.69
461.458	1324.69
461.678	1304.69
461.898	1217.69
462.118	1223.69
462.338	1276.69
462.558	1283.69
462.777	1275.69
462.997	1333.69
463.217	1383.69
463.437	1357.69
463.657	1317.69
463.876	1304.69
464.096	1272.69
464.316	1268.69
464.536	1331.69
464.755	1356.69
464.975	1330.69
465.195	1296.69
465.414	1323.69
465.634	1335.69
465.854	1344.69
466.073	1429.69
466.293	1368.69
466.512	1253.69
466.732	1245.69
466.951	1289.69
467.171	1241.69
467.391	1193.69
467.61	1209.69
467.829	1239.69
468.049	1396.69
468.268	1553.69
468.488	1365.69
468.707	1299.69
468.927	1248.69
469.146	1246.69
469.365	1234.69
469.585	1286.69
469.804	1231.69
470.023	1268.69
470.243	1273.69
470.462	1273.69
470.681	1248.69
470.901	1248.69
471.12	1267.69
471.339	1265.69
471.558	1215.69
471.777	1209.69
471.997	1231.69
472.216	1200.69
472.435	1139.69
472.654	1147.69
472.873	1191.69
473.092	1251.69
473.311	1232.69
473.53	1175.69
473.749	1147.69
473.968	1229.69
474.187	1251.69
474.406	1298.69
474.625	1223.69
474.844	1245.69
475.063	1266.69
475.282	1269.69
475.501	1204.69
475.72	1239.69
475.939	1341.69
476.158	1291.69
476.377	1245.69
476.596	1248.69
476.814	1243.69
477.033	1258.69
477.252	1283.69
477.471	1362.69
477.69	1311.69
477.908	1313.69
478.127	1387.69
478.346	1484.69
478.564	1441.69
478.783	1407.69
479.002	1497.69
479.22	1411.69
479.439	1554.69
479.658	1633.69
479.876	1531.69
480.095	1445.69
480.313	1367.69
480.532	1303.69
480.751	1324.69
480.969	1322.69
481.188	1282.69
481.406	1283.69
481.624	1209.69
481.843	1271.69
482.061	1314.69
482.28	1361.69
482.498	1393.69
482.717	1332.69
482.935	1340.69
483.153	1382.69
483.372	1393.69
483.59	1393.69
483.808	1379.69
484.027	1365.69
484.245	1485.69
484.463	1794.69
484.681	1957.69
484.9	1483.69
485.118	1373.69
485.336	1357.69
485.554	1404.69
485.772	1444.69
485.99	1412.69
486.209	1415.69
486.427	1421.69
486.645	1411.69
486.863	1440.69
487.081	1489.69
487.299	1487.69
487.517	1471.69
487.735	1483.69
487.953	1521.69
488.171	1546.69
488.389	1503.69
488.607	1508.69
488.825	1660.69
489.043	1634.69
489.261	1411.69
489.479	1521.69
489.696	1551.69
489.914	1501.69
490.132	1473.69
490.35	1523.69
490.568	1568.69
490.786	1555.69
491.003	1524.69
491.221	1576.69
491.439	1600.69
491.657	1624.69
491.874	1635.69
492.092	1675.69
492.31	1760.69
492.527	1705.69
492.745	1633.69
492.963	1614.69
493.18	1684.69
493.398	1731.69
493.615	1689.69
493.833	1624.69
494.05	1579.69
494.268	1597.69
494.485	1592.69
494.703	1586.69
494.92	1574.69
495.138	1568.69
495.355	1611.69
495.573	1651.69
495.79	1731.69
496.008	1748.69
496.225	1622.69
496.442	1624.69
496.66	1653.69
496.877	1610.69
497.094	1669.69
497.312	1683.69
497.529	1654.69
497.746	1721.69
497.963	1928.69
498.181	2061.69
498.398	1968.69
498.615	1930.69
498.832	1828.69
499.049	1778.69
499.267	1797.69
499.484	1933.69
499.701	2061.69
499.918	2070.69
500.135	2223.69
500.352	2375.69
500.569	2375.69
500.786	2628.69
501.003	2335.69
501.22	2171.69
501.437	2089.69
501.654	2140.69
501.871	2064.69
502.088	1798.69
502.305	1840.69
502.522	1730.69
502.739	1615.69
502.956	1556.69
503.172	1557.69
503.389	1521.69
503.606	1494.69
503.823	1542.69
504.04	1517.69
504.256	1548.69
504.473	1543.69
504.69	1525.69
504.907	1492.69
505.123	1468.69
505.34	1607.69
505.557	2074.69
505.773	1737.69
505.99	1445.69
506.207	1365.69
506.423	1332.69
506.64	1307.69
506.856	1318.69
507.073	1574.69
507.289	1640.69
507.506	1567.69
507.722	1334.69
507.939	1292.69
508.155	1283.69
508.372	1307.69
508.588	1235.69
508.805	1222.69
509.021	1207.69
509.238	1164.69
509.454	1163.69
509.67	1164.69
509.887	1131.69
510.103	1117.69
510.319	1197.69
510.536	1221.69
510.752	1268.69
510.968	1252.69
511.184	1350.69
511.401	1259.69
511.617	1144.69
511.833	1116.69
512.049	1119.69
512.265	1129.69
512.481	1115.69
512.698	1175.69
512.914	1243.69
513.13	1205.69
513.346	1165.69
513.562	1119.69
513.778	1116.69
513.994	1210.69
514.21	1209.69
514.426	1249.69
514.642	1348.69
514.858	1280.69
515.074	1172.69
515.29	1160.69
515.506	1194.69
515.721	1220.69
515.937	1217.69
516.153	1362.69
516.369	1300.69
516.585	1225.69
516.801	1167.69
517.016	1173.69
517.232	1215.69
517.448	1235.69
517.664	1215.69
517.879	1236.69
518.095	1290.69
518.311	1259.69
518.527	1199.69
518.742	1196.69
518.958	1155.69
519.173	1151.69
519.389	1196.69
519.605	1221.69
519.82	1229.69
520.036	1236.69
520.251	1182.69
520.467	1216.69
520.682	1319.69
520.898	1311.69
521.113	1140.69
521.329	1142.69
521.544	1216.69
521.76	1157.69
521.975	1123.69
522.19	1105.69
522.406	1128.69
522.621	1441.69
522.836	1385.69
523.052	1102.69
523.267	1104.69
523.482	1102.69
523.698	1082.69
523.913	1069.69
524.128	1125.69
524.343	1207.69
524.559	1182.69
524.774	1129.69
524.989	1087.69
525.204	1121.69
525.419	1094.69
525.634	1071.69
525.849	1086.69
526.064	1100.69
526.28	1109.69
526.495	1007.69
526.71	1010.69
526.925	1017.69
527.14	1034.69
527.355	1009.69
527.57	991.69
527.785	1028.69
527.999	1004.69
528.214	1010.69
528.429	996.69
528.644	1023.69
528.859	1097.69
529.074	1087.69
529.289	1150.69
529.503	1135.69
529.718	1141.69
529.933	1043.69
530.148	1001.69
530.363	970.69
530.577	999.69
530.792	1004.69
531.007	1027.69
531.221	1007.69
531.436	992.69
531.651	1021.69
531.865	1076.69
532.08	1055.69
532.295	977.69
532.509	989.69
532.724	980.69
532.938	1002.69
533.153	1081.69
533.367	1067.69
533.582	1063.69
533.796	1043.69
534.011	1043.69
534.225	1037.69
534.44	953.69
534.654	991.69
534.868	1013.69
535.083	1031.69
535.297	1053.69
535.511	1030.69
535.726	1027.69
535.94	969.69
536.154	997.69
536.369	997.69
536.583	963.69
536.797	952.69
537.011	1007.69
537.225	934.69
537.44	937.69
537.654	1005.69
537.868	949.69
538.082	945.69
538.296	924.69
538.51	933.69
538.724	961.69
538.938	971.69
539.153	1001.69
539.367	996.69
539.581	1032.69
539.795	1071.69
540.009	1003.69
540.222	959.69
540.436	994.69
540.65	1089.69
540.864	1115.69
541.078	1086.69
541.292	1039.69
541.506	1084.69
541.72	1140.69
541.934	1164.69
542.147	1229.69
542.361	1164.69
542.575	1113.69
542.789	1019.69
543.002	959.69
543.216	1000.69
543.43	1037.69
543.644	1079.69
543.857	1138.69
544.071	1121.69
544.285	1129.69
544.498	1104.69
544.712	1100.69
544.925	1137.69
545.139	1131.69
545.352	1077.69
545.566	1077.69
545.779	1083.69
545.993	1099.69
546.206	1097.69
546.42	1056.69
546.633	1043.69
546.847	1085.69
547.06	1115.69
547.274	1083.69
547.487	1091.69
547.7	1105.69
547.914	1095.69
548.127	1115.69
548.34	1095.69
548.554	1121.69
548.767	1059.69
548.98	1078.69
549.193	1095.69
549.407	1107.69
549.62	1150.69
549.833	1093.69
550.046	1067.69
550.259	1067.69
550.473	1053.69
550.686	1056.69
550.899	1019.69
551.112	1010.69
551.325	973.69
551.538	1069.69
551.751	1192.69
551.964	954.69
552.177	945.69
552.39	981.69
552.603	1007.69
552.816	1044.69
553.029	1049.69
553.242	1093.69
553.455	1049.69
553.667	1049.69
553.88	1052.69
554.093	1041.69
554.306	996.69
554.519	962.69
554.732	984.69
554.944	981.69
555.157	1011.69
555.37	957.69
555.583	956.69
555.795	941.69
556.008	896.69
556.221	861.69
556.433	866.69
556.646	875.69
556.859	928.69
557.071	864.69
557.284	914.69
557.496	903.69
557.709	900.69
557.921	883.69
558.134	875.69
558.346	877.69
558.559	861.69
558.771	884.69
558.984	820.69
559.196	841.69
559.409	812.69
559.621	811.69
559.833	836.69
560.046	857.69
560.258	839.69
560.47	842.69
560.683	825.69
560.895	841.69
561.107	812.69
561.32	833.69
561.532	868.69
561.744	850.69
561.956	833.69
562.168	824.69
562.381	808.69
562.593	782.69
562.805	800.69
563.017	781.69
563.229	780.69
563.441	835.69
563.653	826.69
563.865	790.69
564.077	781.69
564.289	790.69
564.501	801.69
564.713	827.69
564.925	858.69
565.137	881.69
565.349	851.69
565.561	795.69
565.773	827.69
565.985	832.69
566.197	886.69
566.408	927.69
566.62	933.69
566.832	900.69
567.044	905.69
567.255	885.69
567.467	922.69
567.679	937.69
567.891	909.69
568.102	882.69
568.314	852.69
568.526	809.69
568.737	756.69
568.949	727.69
569.161	705.69
569.372	696.69
569.584	684.69
569.795	699.69
570.007	694.69
570.218	666.69
570.43	641.69
570.641	655.69
570.853	674.69
571.064	651.69
571.276	671.69
571.487	670.69
571.698	649.69
571.91	633.69
572.121	653.69
572.333	621.69
572.544	661.69
572.755	608.69
572.966	588.69
573.178	601.69
573.389	602.69
573.6	613.69
573.811	655.69
574.023	590.69
574.234	577.69
574.445	579.69
574.656	563.69
574.867	556.69
575.078	580.69
575.289	555.69
575.501	575.69
575.712	565.69
575.923	551.69
576.134	580.69
576.345	561.69
576.556	564.69
576.767	544.69
576.978	566.69
577.188	520.69
577.399	520.69
577.61	509.69
577.821	528.69
578.032	524.69
578.243	555.69
578.454	521.69
578.665	496.69
578.875	495.69
579.086	501.69
579.297	523.69
579.508	551.69
579.718	536.69
579.929	503.69
580.14	490.69
580.35	509.69
580.561	524.69
580.772	576.69
580.982	546.69
581.193	503.69
581.403	508.69
581.614	484.69
581.825	496.69
582.035	478.69
582.246	465.69
582.456	487.69
582.667	496.69
582.877	484.69
583.087	476.69
583.298	468.69
583.508	482.69
583.719	489.69
583.929	491.69
584.139	492.69
584.35	455.69
584.56	480.69
584.77	487.69
584.981	472.69
585.191	469.69
585.401	514.69
585.611	476.69
585.821	472.69
586.032	472.69
586.242	458.69
586.452	451.69
586.662	466.69
586.872	460.69
587.082	446.69
587.292	475.69
587.502	448.69
587.713	470.69
587.923	456.69
588.133	452.69
588.343	470.69
588.553	459.69
588.762	446.69
588.972	442.69
589.182	456.69
589.392	449.69
589.602	459.69
589.812	474.69
590.022	455.69
590.232	436.69
590.441	452.69
590.651	470.69
590.861	450.69
591.071	459.69
591.281	432.69
591.49	433.69
591.7	442.69
591.91	440.69
592.119	441.69
592.329	467.69
592.539	478.69
592.748	475.69
592.958	478.69
593.167	463.69
593.377	472.69
593.587	500.69
593.796	486.69
594.006	483.69
594.215	468.69
594.424	490.69
594.634	467.69
594.843	495.69
595.053	521.69
595.262	459.69
595.472	449.69
595.681	463.69
595.89	456.69
596.1	446.69
596.309	457.69
596.518	425.69
596.727	444.69
596.937	436.69
597.146	407.69
597.355	424.69
597.564	401.69
597.774	406.69
597.983	422.69
598.192	409.69
598.401	419.69
598.61	405.69
598.819	404.69
599.028	418.69
599.237	410.69
599.446	391.69
599.655	392.69
599.864	403.69
600.073	387.69
600.282	387.69
600.491	397.69
600.7	372.69
600.909	387.69
601.118	394.69
601.327	424.69
601.536	434.69
601.745	411.69
601.953	427.69
602.162	424.69
602.371	409.69
602.58	435.69
602.789	430.69
602.997	430.69
603.206	407.69
603.415	412.69
603.623	424.69
603.832	428.69
604.041	396.69
604.249	395.69
604.458	375.69
604.666	379.69
604.875	370.69
605.084	407.69
605.292	414.69
605.501	381.69
605.709	397.69
605.918	395.69
606.126	395.69
606.334	389.69
606.543	406.69
606.751	409.69
606.96	386.69
607.168	405.69
607.376	388.69
607.585	399.69
607.793	399.69
608.001	395.69
608.21	409.69
608.418	394.69
608.626	415.69
608.834	393.69
609.043	419.69
609.251	395.69
609.459	393.69
609.667	392.69
609.875	413.69
610.083	420.69
610.291	419.69
610.499	395.69
610.707	415.69
610.916	415.69
611.124	408.69
611.332	385.69
611.54	391.69
611.748	411.69
611.955	401.69
612.163	395.69
612.371	406.69
612.579	407.69
612.787	402.69
612.995	387.69
613.203	406.69
613.411	398.69
613.618	396.69
613.826	395.69
614.034	419.69
614.242	383.69
614.449	388.69
614.657	410.69
614.865	376.69
615.072	387.69
615.28	381.69
615.488	411.69
615.695	413.69
615.903	391.69
616.111	401.69
616.318	397.69
616.526	402.69
616.733	391.69
616.941	377.69
617.148	378.69
617.356	364.69
617.563	394.69
617.771	393.69
617.978	367.69
618.185	389.69
618.393	394.69
618.6	397.69
618.807	364.69
619.015	375.69
619.222	387.69
619.429	376.69
619.637	354.69
619.844	339.69
620.051	375.69
620.258	337.69
620.466	341.69
620.673	364.69
620.88	341.69
621.087	353.69
621.294	342.69
621.501	329.69
621.708	342.69
621.915	356.69
622.122	343.69
622.329	360.69
622.536	369.69
622.743	343.69
622.95	356.69
623.157	352.69
623.364	337.69
623.571	361.69
623.778	381.69
623.985	347.69
624.192	361.69
624.399	352.69
624.606	355.69
624.812	349.69
625.019	328.69
625.226	357.69
625.433	332.69
625.639	322.69
625.846	288.69
626.053	298.69
626.259	294.69
626.466	301.69
626.673	282.69
626.879	306.69
627.086	299.69
627.293	309.69
627.499	312.69
627.706	315.69
627.912	344.69
628.119	330.69
628.325	323.69
628.532	323.69
628.738	340.69
628.945	339.69
629.151	305.69
629.357	333.69
629.564	310.69
629.77	311.69
629.976	311.69
630.183	292.69
630.389	282.69
630.595	322.69
630.802	314.69
631.008	299.69
631.214	299.69
631.42	288.69
631.627	291.69
631.833	287.69
632.039	288.69
632.245	297.69
632.451	307.69
632.657	305.69
632.863	280.69
633.069	292.69
633.275	299.69
633.481	268.69
633.688	278.69
633.893	284.69
634.099	270.69
634.305	293.69
634.511	280.69
634.717	260.69
634.923	270.69
635.129	267.69
635.335	262.69
635.541	287.69
635.747	268.69
635.952	279.69
636.158	288.69
636.364	277.69
636.57	270.69
636.775	282.69
636.981	280.69
637.187	288.69
637.392	292.69
637.598	307.69
637.804	305.69
638.009	303.69
638.215	273.69
638.421	258.69
638.626	283.69
638.832	280.69
639.037	269.69
639.243	281.69
639.448	269.69
639.654	267.69
639.859	268.69
640.065	265.69
640.27	260.69
640.475	273.69
640.681	284.69
640.886	296.69
641.091	280.69
641.297	283.69
641.502	260.69
641.707	263.69
641.913	264.69
642.118	261.69
642.323	241.69
642.528	279.69
642.733	280.69
642.939	285.69
643.144	267.69
643.349	268.69
643.554	258.69
643.759	275.69
643.964	261.69
644.169	269.69
644.374	250.69
644.579	260.69
644.784	259.69
644.989	268.69
645.194	256.69
645.399	269.69
645.604	259.69
645.809	266.69
646.014	273.69
646.219	242.69
646.423	284.69
646.628	264.69
646.833	287.69
647.038	248.69
647.243	249.69
647.447	239.69
647.652	269.69
647.857	265.69
648.062	259.69
648.266	261.69
648.471	255.69
648.676	242.69
648.88	260.69
649.085	261.69
649.289	259.69
649.494	249.69
649.698	266.69
649.903	262.69
650.107	250.69
650.312	251.69
650.516	259.69
650.721	236.69
650.925	227.69
651.13	248.69
651.334	245.69
651.539	237.69
651.743	235.69
651.947	228.69
652.152	237.69
652.356	236.69
652.56	230.69
652.764	223.69
652.969	220.69
653.173	216.69
653.377	213.69
653.581	226.69
653.785	221.69
653.99	232.69
654.194	234.69
654.398	227.69
654.602	218.69
654.806	227.69
655.01	213.69
655.214	217.69
655.418	199.69
655.622	230.69
655.826	220.69
656.03	227.69
656.234	250.69
656.438	262.69
656.642	260.69
656.846	241.69
657.049	240.69
657.253	213.69
657.457	209.69
657.661	198.69
657.865	169.69
658.068	179.69
658.272	179.69
658.476	175.69
658.68	165.69
658.883	166.69
659.087	143.69
659.291	145.69
659.494	148.69
659.698	117.69
659.901	136.69
660.105	131.69
660.309	136.69
660.512	121.69
660.716	113.69
660.919	124.69
661.123	123.69
661.326	114.69
661.53	113.69
661.733	125.69
661.936	102.69
662.14	97.69
662.343	105.69
662.546	106.69
662.75	84.69
662.953	85.69
663.156	97.69
663.36	97.69
663.563	88.69
663.766	93.69
663.969	80.69
664.173	91.69
664.376	92.69
664.579	81.69
664.782	96.69
664.985	91.69
665.188	81.69
665.391	92.69
665.594	96.69
665.797	99.69
666	74.69
666.203	85.69
666.406	87.69
666.609	66.69
666.812	88.69
667.015	77.69
667.218	88.69
667.421	85.69
667.624	74.69
667.827	99.69
668.03	87.69
668.232	83.69
668.435	73.69
668.638	77.69
668.841	81.69
669.043	72.69
669.246	88.69
669.449	80.69
669.651	83.69
669.854	91.69
670.057	82.69
670.259	99.69
670.462	81.69
670.665	79.69
670.867	88.69
671.07	92.69
671.272	84.69
671.475	83.69
671.677	95.69
671.88	79.69
672.082	76.69
672.284	84.69
672.487	73.69
672.689	81.69
672.892	82.69
