Data from WStandard_LampEnergy10_LIBS07252019.E.O._I.C._HRD10591_15-53-00-927.txt Node
Date: Thu Jul 25 15:53:00 EDT 2019
User: cochatt
Spectrometer: HR+D1059
Trigger mode: 1
Integration Time (sec): 1.000000E-1
Scans to average: 1
Electric dark correction enabled: true
Nonlinearity correction enabled: false
Boxcar width: 0
XAxis mode: Wavelengths
Number of Pixels in Spectrum: 2048
>>>>>Begin Spectral Data<<<<<
223.165	-14.75
223.4	-14.75
223.635	-14.75
223.869	-14.75
224.104	-18.75
224.338	-13.75
224.573	-11.75
224.808	-21.75
225.042	-6.75
225.277	2.25
225.511	-2.75
225.746	18.25
225.98	13.25
226.215	4.25
226.449	8.25
226.683	11.25
226.918	12.25
227.152	35.25
227.387	39.25
227.621	31.25
227.856	36.25
228.09	36.25
228.324	54.25
228.559	47.25
228.793	70.25
229.027	146.25
229.262	151.25
229.496	154.25
229.73	145.25
229.964	159.25
230.199	166.25
230.433	165.25
230.667	182.25
230.901	183.25
231.136	204.25
231.37	189.25
231.604	159.25
231.838	179.25
232.072	185.25
232.306	173.25
232.541	188.25
232.775	210.25
233.009	234.25
233.243	189.25
233.477	201.25
233.711	195.25
233.945	205.25
234.179	181.25
234.413	216.25
234.647	219.25
234.881	204.25
235.115	210.25
235.349	195.25
235.583	199.25
235.817	205.25
236.051	191.25
236.285	206.25
236.519	221.25
236.753	236.25
236.987	228.25
237.221	229.25
237.455	237.25
237.689	234.25
237.922	230.25
238.156	218.25
238.39	220.25
238.624	234.25
238.858	256.25
239.091	255.25
239.325	267.25
239.559	297.25
239.793	308.25
240.027	334.25
240.26	301.25
240.494	243.25
240.728	217.25
240.961	242.25
241.195	244.25
241.429	245.25
241.662	264.25
241.896	245.25
242.13	258.25
242.363	257.25
242.597	267.25
242.83	284.25
243.064	287.25
243.298	297.25
243.531	293.25
243.765	291.25
243.998	263.25
244.232	246.25
244.465	271.25
244.699	272.25
244.932	301.25
245.166	319.25
245.399	307.25
245.633	272.25
245.866	277.25
246.099	300.25
246.333	287.25
246.566	285.25
246.8	349.25
247.033	339.25
247.266	342.25
247.5	336.25
247.733	336.25
247.966	349.25
248.2	376.25
248.433	358.25
248.666	371.25
248.899	393.25
249.133	449.25
249.366	475.25
249.599	392.25
249.832	372.25
250.066	373.25
250.299	374.25
250.532	356.25
250.765	345.25
250.998	361.25
251.231	347.25
251.465	378.25
251.698	331.25
251.931	368.25
252.164	353.25
252.397	373.25
252.63	360.25
252.863	347.25
253.096	325.25
253.329	341.25
253.562	392.25
253.795	385.25
254.028	380.25
254.261	373.25
254.494	345.25
254.727	335.25
254.96	369.25
255.193	397.25
255.426	409.25
255.659	461.25
255.892	432.25
256.124	395.25
256.357	414.25
256.59	436.25
256.823	434.25
257.056	438.25
257.289	511.25
257.521	529.25
257.754	461.25
257.987	468.25
258.22	480.25
258.452	465.25
258.685	424.25
258.918	405.25
259.151	403.25
259.383	378.25
259.616	370.25
259.849	375.25
260.081	412.25
260.314	447.25
260.547	509.25
260.779	484.25
261.012	443.25
261.244	412.25
261.477	415.25
261.71	417.25
261.942	421.25
262.175	404.25
262.407	424.25
262.64	383.25
262.872	362.25
263.105	351.25
263.337	369.25
263.57	374.25
263.802	375.25
264.035	351.25
264.267	355.25
264.499	344.25
264.732	377.25
264.964	390.25
265.197	416.25
265.429	455.25
265.661	444.25
265.894	515.25
266.126	504.25
266.358	457.25
266.591	472.25
266.823	497.25
267.055	455.25
267.287	453.25
267.52	448.25
267.752	453.25
267.984	451.25
268.216	480.25
268.448	495.25
268.681	474.25
268.913	435.25
269.145	424.25
269.377	420.25
269.609	471.25
269.841	535.25
270.073	604.25
270.306	631.25
270.538	637.25
270.77	551.25
271.002	496.25
271.234	474.25
271.466	487.25
271.698	547.25
271.93	616.25
272.162	626.25
272.394	549.25
272.626	529.25
272.858	476.25
273.09	431.25
273.322	426.25
273.553	404.25
273.785	409.25
274.017	421.25
274.249	463.25
274.481	462.25
274.713	420.25
274.945	439.25
275.176	412.25
275.408	422.25
275.64	422.25
275.872	425.25
276.104	427.25
276.335	515.25
276.567	529.25
276.799	536.25
277.031	484.25
277.262	457.25
277.494	487.25
277.726	541.25
277.957	514.25
278.189	472.25
278.421	467.25
278.652	437.25
278.884	455.25
279.115	455.25
279.347	441.25
279.579	444.25
279.81	470.25
280.042	483.25
280.273	515.25
280.505	533.25
280.736	516.25
280.968	482.25
281.199	462.25
281.431	438.25
281.662	420.25
281.894	425.25
282.125	432.25
282.356	457.25
282.588	468.25
282.819	473.25
283.051	505.25
283.282	522.25
283.513	510.25
283.745	474.25
283.976	443.25
284.207	441.25
284.439	440.25
284.67	458.25
284.901	469.25
285.132	471.25
285.364	453.25
285.595	476.25
285.826	461.25
286.057	455.25
286.288	465.25
286.52	479.25
286.751	536.25
286.982	503.25
287.213	460.25
287.444	454.25
287.675	439.25
287.906	476.25
288.138	504.25
288.369	485.25
288.6	477.25
288.831	444.25
289.062	449.25
289.293	468.25
289.524	486.25
289.755	495.25
289.986	501.25
290.217	462.25
290.448	441.25
290.679	488.25
290.91	473.25
291.141	488.25
291.371	489.25
291.602	520.25
291.833	497.25
292.064	494.25
292.295	506.25
292.526	498.25
292.757	515.25
292.987	511.25
293.218	505.25
293.449	533.25
293.68	574.25
293.91	595.25
294.141	589.25
294.372	546.25
294.603	571.25
294.833	567.25
295.064	555.25
295.295	530.25
295.525	474.25
295.756	482.25
295.987	438.25
296.217	460.25
296.448	487.25
296.679	481.25
296.909	455.25
297.14	472.25
297.37	459.25
297.601	524.25
297.831	541.25
298.062	530.25
298.292	498.25
298.523	509.25
298.753	499.25
298.984	489.25
299.214	496.25
299.445	511.25
299.675	535.25
299.905	500.25
300.136	491.25
300.366	490.25
300.597	467.25
300.827	475.25
301.057	510.25
301.288	525.25
301.518	513.25
301.748	539.25
301.979	569.25
302.209	578.25
302.439	606.25
302.669	587.25
302.9	561.25
303.13	517.25
303.36	533.25
303.59	522.25
303.82	506.25
304.051	522.25
304.281	545.25
304.511	560.25
304.741	593.25
304.971	642.25
305.201	648.25
305.431	573.25
305.661	489.25
305.891	429.25
306.121	471.25
306.352	506.25
306.582	515.25
306.812	554.25
307.042	590.25
307.272	593.25
307.502	611.25
307.731	654.25
307.961	655.25
308.191	594.25
308.421	535.25
308.651	516.25
308.881	509.25
309.111	497.25
309.341	493.25
309.571	535.25
309.8	511.25
310.03	513.25
310.26	511.25
310.49	501.25
310.72	529.25
310.949	568.25
311.179	525.25
311.409	516.25
311.639	514.25
311.868	520.25
312.098	511.25
312.328	528.25
312.557	517.25
312.787	527.25
313.017	531.25
313.246	526.25
313.476	555.25
313.706	539.25
313.935	555.25
314.165	547.25
314.394	564.25
314.624	595.25
314.853	633.25
315.083	645.25
315.312	645.25
315.542	597.25
315.771	557.25
316.001	550.25
316.23	579.25
316.46	602.25
316.689	553.25
316.919	526.25
317.148	512.25
317.377	554.25
317.607	613.25
317.836	656.25
318.065	684.25
318.295	619.25
318.524	599.25
318.753	571.25
318.983	551.25
319.212	567.25
319.441	551.25
319.67	540.25
319.9	570.25
320.129	615.25
320.358	626.25
320.587	615.25
320.816	615.25
321.046	607.25
321.275	609.25
321.504	621.25
321.733	611.25
321.962	620.25
322.191	568.25
322.42	586.25
322.649	560.25
322.878	570.25
323.108	595.25
323.337	602.25
323.566	603.25
323.795	603.25
324.024	578.25
324.253	586.25
324.482	579.25
324.71	561.25
324.939	539.25
325.168	575.25
325.397	576.25
325.626	570.25
325.855	604.25
326.084	592.25
326.313	581.25
326.542	583.25
326.77	629.25
326.999	600.25
327.228	537.25
327.457	535.25
327.686	548.25
327.914	551.25
328.143	603.25
328.372	560.25
328.6	597.25
328.829	552.25
329.058	553.25
329.287	548.25
329.515	576.25
329.744	581.25
329.972	611.25
330.201	641.25
330.43	632.25
330.658	604.25
330.887	604.25
331.115	621.25
331.344	626.25
331.572	615.25
331.801	587.25
332.03	572.25
332.258	612.25
332.486	630.25
332.715	618.25
332.943	628.25
333.172	610.25
333.4	602.25
333.629	655.25
333.857	683.25
334.085	757.25
334.314	830.25
334.542	855.25
334.771	773.25
334.999	718.25
335.227	669.25
335.455	663.25
335.684	671.25
335.912	652.25
336.14	663.25
336.369	657.25
336.597	626.25
336.825	643.25
337.053	661.25
337.281	682.25
337.51	712.25
337.738	716.25
337.966	672.25
338.194	607.25
338.422	605.25
338.65	612.25
338.878	587.25
339.106	578.25
339.334	580.25
339.562	583.25
339.79	595.25
340.018	611.25
340.246	644.25
340.474	645.25
340.702	619.25
340.93	631.25
341.158	612.25
341.386	613.25
341.614	617.25
341.842	627.25
342.07	627.25
342.298	614.25
342.526	609.25
342.754	587.25
342.981	611.25
343.209	608.25
343.437	601.25
343.665	599.25
343.893	628.25
344.12	663.25
344.348	657.25
344.576	626.25
344.804	591.25
345.031	610.25
345.259	604.25
345.487	594.25
345.714	564.25
345.942	573.25
346.17	611.25
346.397	586.25
346.625	563.25
346.853	570.25
347.08	575.25
347.308	555.25
347.535	580.25
347.763	606.25
347.99	602.25
348.218	577.25
348.445	585.25
348.673	573.25
348.9	629.25
349.128	628.25
349.355	634.25
349.583	610.25
349.81	579.25
350.037	530.25
350.265	547.25
350.492	548.25
350.72	576.25
350.947	581.25
351.174	580.25
351.402	576.25
351.629	556.25
351.856	548.25
352.083	533.25
352.311	560.25
352.538	580.25
352.765	588.25
352.992	576.25
353.22	554.25
353.447	559.25
353.674	565.25
353.901	583.25
354.128	593.25
354.355	598.25
354.583	633.25
354.81	620.25
355.037	583.25
355.264	603.25
355.491	563.25
355.718	583.25
355.945	568.25
356.172	558.25
356.399	574.25
356.626	586.25
356.853	603.25
357.08	668.25
357.307	709.25
357.534	653.25
357.761	577.25
357.988	563.25
358.215	531.25
358.441	570.25
358.668	548.25
358.895	564.25
359.122	628.25
359.349	648.25
359.576	624.25
359.802	589.25
360.029	579.25
360.256	568.25
360.483	562.25
360.709	593.25
360.936	623.25
361.163	653.25
361.39	716.25
361.616	720.25
361.843	723.25
362.07	641.25
362.296	595.25
362.523	559.25
362.749	580.25
362.976	598.25
363.203	585.25
363.429	586.25
363.656	585.25
363.882	633.25
364.109	689.25
364.335	688.25
364.562	644.25
364.788	609.25
365.015	578.25
365.241	583.25
365.468	589.25
365.694	607.25
365.92	614.25
366.147	598.25
366.373	593.25
366.599	572.25
366.826	565.25
367.052	568.25
367.278	579.25
367.505	617.25
367.731	639.25
367.957	608.25
368.184	645.25
368.41	659.25
368.636	664.25
368.862	683.25
369.089	664.25
369.315	634.25
369.541	641.25
369.767	619.25
369.993	587.25
370.219	624.25
370.445	626.25
370.672	641.25
370.898	701.25
371.124	695.25
371.35	617.25
371.576	687.25
371.802	692.25
372.028	640.25
372.254	644.25
372.48	598.25
372.706	590.25
372.932	602.25
373.158	609.25
373.384	640.25
373.61	654.25
373.835	648.25
374.061	625.25
374.287	616.25
374.513	647.25
374.739	631.25
374.965	657.25
375.191	659.25
375.416	671.25
375.642	669.25
375.868	703.25
376.094	714.25
376.319	685.25
376.545	652.25
376.771	704.25
376.997	711.25
377.222	710.25
377.448	697.25
377.674	691.25
377.899	719.25
378.125	722.25
378.35	697.25
378.576	624.25
378.802	636.25
379.027	630.25
379.253	654.25
379.478	674.25
379.704	650.25
379.929	648.25
380.155	660.25
380.38	661.25
380.606	689.25
380.831	674.25
381.057	716.25
381.282	746.25
381.507	706.25
381.733	755.25
381.958	772.25
382.184	692.25
382.409	687.25
382.634	703.25
382.86	700.25
383.085	716.25
383.31	720.25
383.535	797.25
383.761	799.25
383.986	776.25
384.211	747.25
384.436	732.25
384.662	776.25
384.887	794.25
385.112	730.25
385.337	758.25
385.562	735.25
385.787	743.25
386.013	794.25
386.238	787.25
386.463	775.25
386.688	861.25
386.913	889.25
387.138	834.25
387.363	801.25
387.588	769.25
387.813	753.25
388.038	791.25
388.263	805.25
388.488	761.25
388.713	736.25
388.938	747.25
389.163	744.25
389.387	772.25
389.612	732.25
389.837	760.25
390.062	792.25
390.287	791.25
390.512	793.25
390.736	776.25
390.961	716.25
391.186	715.25
391.411	752.25
391.636	738.25
391.86	765.25
392.085	765.25
392.31	773.25
392.534	777.25
392.759	768.25
392.984	764.25
393.208	795.25
393.433	821.25
393.658	848.25
393.882	852.25
394.107	800.25
394.331	768.25
394.556	786.25
394.78	817.25
395.005	826.25
395.229	873.25
395.454	901.25
395.678	893.25
395.903	843.25
396.127	793.25
396.352	837.25
396.576	868.25
396.801	860.25
397.025	865.25
397.249	888.25
397.474	840.25
397.698	844.25
397.922	892.25
398.147	904.25
398.371	912.25
398.595	917.25
398.82	880.25
399.044	905.25
399.268	954.25
399.492	982.25
399.717	1008.25
399.941	1012.25
400.165	1019.25
400.389	984.25
400.613	1002.25
400.837	1152.25
401.062	1196.25
401.286	1027.25
401.51	996.25
401.734	1031.25
401.958	959.25
402.182	922.25
402.406	895.25
402.63	892.25
402.854	921.25
403.078	958.25
403.302	896.25
403.526	936.25
403.75	939.25
403.974	963.25
404.198	941.25
404.422	992.25
404.645	1034.25
404.869	998.25
405.093	905.25
405.317	899.25
405.541	927.25
405.765	922.25
405.988	941.25
406.212	957.25
406.436	1009.25
406.66	1042.25
406.883	1053.25
407.107	1154.25
407.331	1223.25
407.555	1301.25
407.778	1138.25
408.002	979.25
408.226	961.25
408.449	985.25
408.673	973.25
408.896	985.25
409.12	956.25
409.344	929.25
409.567	936.25
409.791	967.25
410.014	960.25
410.238	1041.25
410.461	1083.25
410.685	979.25
410.908	959.25
411.132	977.25
411.355	979.25
411.578	958.25
411.802	954.25
412.025	958.25
412.249	965.25
412.472	925.25
412.695	940.25
412.919	922.25
413.142	945.25
413.365	943.25
413.589	969.25
413.812	1007.25
414.035	1019.25
414.258	936.25
414.482	921.25
414.705	937.25
414.928	923.25
415.151	949.25
415.374	932.25
415.597	957.25
415.821	948.25
416.044	951.25
416.267	972.25
416.49	932.25
416.713	907.25
416.936	959.25
417.159	1000.25
417.382	977.25
417.605	945.25
417.828	939.25
418.051	978.25
418.274	947.25
418.497	942.25
418.72	923.25
418.943	929.25
419.166	998.25
419.389	986.25
419.611	984.25
419.834	966.25
420.057	987.25
420.28	946.25
420.503	971.25
420.726	992.25
420.948	957.25
421.171	929.25
421.394	956.25
421.617	1025.25
421.839	1011.25
422.062	984.25
422.285	987.25
422.507	969.25
422.73	919.25
422.953	905.25
423.175	885.25
423.398	949.25
423.621	938.25
423.843	975.25
424.066	994.25
424.288	1052.25
424.511	1049.25
424.733	1000.25
424.956	953.25
425.178	931.25
425.401	943.25
425.623	989.25
425.846	949.25
426.068	981.25
426.291	985.25
426.513	955.25
426.735	986.25
426.958	1055.25
427.18	1072.25
427.402	999.25
427.625	1077.25
427.847	1027.25
428.069	945.25
428.292	930.25
428.514	917.25
428.736	912.25
428.958	925.25
429.181	964.25
429.403	1116.25
429.625	1258.25
429.847	1078.25
430.069	989.25
430.292	1077.25
430.514	1046.25
430.736	990.25
430.958	1032.25
431.18	948.25
431.402	892.25
431.624	861.25
431.846	819.25
432.068	732.25
432.29	769.25
432.512	821.25
432.734	908.25
432.956	924.25
433.178	1007.25
433.4	979.25
433.622	973.25
433.844	926.25
434.066	871.25
434.287	817.25
434.509	799.25
434.731	834.25
434.953	941.25
435.175	919.25
435.397	925.25
435.618	894.25
435.84	869.25
436.062	848.25
436.284	918.25
436.505	927.25
436.727	969.25
436.949	933.25
437.17	912.25
437.392	907.25
437.614	871.25
437.835	819.25
438.057	839.25
438.278	861.25
438.5	877.25
438.721	920.25
438.943	957.25
439.165	945.25
439.386	957.25
439.608	989.25
439.829	951.25
440.05	999.25
440.272	961.25
440.493	980.25
440.715	1008.25
440.936	1043.25
441.158	1116.25
441.379	1074.25
441.6	1046.25
441.822	1033.25
442.043	1012.25
442.264	1032.25
442.486	988.25
442.707	994.25
442.928	970.25
443.149	987.25
443.371	1034.25
443.592	1049.25
443.813	1045.25
444.034	1028.25
444.255	1040.25
444.476	1025.25
444.698	1041.25
444.919	1071.25
445.14	1132.25
445.361	1130.25
445.582	1083.25
445.803	1053.25
446.024	1075.25
446.245	1084.25
446.466	1071.25
446.687	1074.25
446.908	1083.25
447.129	1057.25
447.35	1045.25
447.571	1009.25
447.792	977.25
448.013	956.25
448.234	987.25
448.455	1002.25
448.675	996.25
448.896	959.25
449.117	949.25
449.338	965.25
449.559	1004.25
449.779	995.25
450	1033.25
450.221	1077.25
450.442	988.25
450.662	937.25
450.883	920.25
451.104	913.25
451.324	890.25
451.545	919.25
451.766	887.25
451.986	868.25
452.207	847.25
452.428	817.25
452.648	804.25
452.869	819.25
453.089	791.25
453.31	775.25
453.53	780.25
453.751	731.25
453.971	712.25
454.192	757.25
454.412	789.25
454.633	807.25
454.853	827.25
455.073	743.25
455.294	781.25
455.514	783.25
455.734	777.25
455.955	810.25
456.175	754.25
456.395	740.25
456.616	771.25
456.836	778.25
457.056	761.25
457.276	719.25
457.497	741.25
457.717	710.25
457.937	741.25
458.157	727.25
458.377	713.25
458.598	701.25
458.818	675.25
459.038	712.25
459.258	727.25
459.478	725.25
459.698	730.25
459.918	746.25
460.138	797.25
460.358	855.25
460.578	846.25
460.798	864.25
461.018	898.25
461.238	866.25
461.458	871.25
461.678	849.25
461.898	835.25
462.118	836.25
462.338	857.25
462.558	868.25
462.777	856.25
462.997	905.25
463.217	907.25
463.437	881.25
463.657	882.25
463.876	858.25
464.096	860.25
464.316	863.25
464.536	898.25
464.755	899.25
464.975	887.25
465.195	873.25
465.414	898.25
465.634	887.25
465.854	927.25
466.073	980.25
466.293	977.25
466.512	901.25
466.732	880.25
466.951	927.25
467.171	922.25
467.391	900.25
467.61	925.25
467.829	963.25
468.049	1013.25
468.268	1093.25
468.488	999.25
468.707	902.25
468.927	970.25
469.146	930.25
469.365	934.25
469.585	965.25
469.804	945.25
470.023	938.25
470.243	972.25
470.462	974.25
470.681	948.25
470.901	940.25
471.12	921.25
471.339	965.25
471.558	961.25
471.777	928.25
471.997	904.25
472.216	916.25
472.435	823.25
472.654	799.25
472.873	807.25
473.092	862.25
473.311	831.25
473.53	843.25
473.749	865.25
473.968	862.25
474.187	863.25
474.406	851.25
474.625	873.25
474.844	907.25
475.063	887.25
475.282	881.25
475.501	849.25
475.72	885.25
475.939	930.25
476.158	883.25
476.377	873.25
476.596	871.25
476.814	865.25
477.033	843.25
477.252	864.25
477.471	932.25
477.69	940.25
477.908	965.25
478.127	999.25
478.346	1033.25
478.564	1030.25
478.783	1043.25
479.002	1055.25
479.22	1044.25
479.439	1037.25
479.658	1072.25
479.876	1007.25
480.095	918.25
480.313	935.25
480.532	870.25
480.751	866.25
480.969	855.25
481.188	807.25
481.406	805.25
481.624	779.25
481.843	807.25
482.061	861.25
482.28	892.25
482.498	909.25
482.717	886.25
482.935	940.25
483.153	1019.25
483.372	1045.25
483.59	1042.25
483.808	980.25
484.027	925.25
484.245	1019.25
484.463	1224.25
484.681	1324.25
484.9	1052.25
485.118	1012.25
485.336	965.25
485.554	931.25
485.772	908.25
485.99	915.25
486.209	919.25
486.427	922.25
486.645	953.25
486.863	1017.25
487.081	1091.25
487.299	1031.25
487.517	1017.25
487.735	1113.25
487.953	1239.25
488.171	1237.25
488.389	1159.25
488.607	1126.25
488.825	1163.25
489.043	1091.25
489.261	991.25
489.479	1052.25
489.696	1060.25
489.914	1089.25
490.132	1092.25
490.35	1113.25
490.568	1204.25
490.786	1217.25
491.003	1203.25
491.221	1285.25
491.439	1332.25
491.657	1335.25
491.874	1407.25
492.092	1512.25
492.31	1540.25
492.527	1483.25
492.745	1400.25
492.963	1351.25
493.18	1365.25
493.398	1383.25
493.615	1394.25
493.833	1290.25
494.05	1255.25
494.268	1271.25
494.485	1275.25
494.703	1279.25
494.92	1248.25
495.138	1279.25
495.355	1241.25
495.573	1255.25
495.79	1330.25
496.008	1354.25
496.225	1273.25
496.442	1285.25
496.66	1271.25
496.877	1228.25
497.094	1281.25
497.312	1254.25
497.529	1258.25
497.746	1231.25
497.963	1260.25
498.181	1370.25
498.398	1282.25
498.615	1226.25
498.832	1183.25
499.049	1170.25
499.267	1189.25
499.484	1294.25
499.701	1358.25
499.918	1421.25
500.135	1496.25
500.352	1577.25
500.569	1611.25
500.786	1697.25
501.003	1600.25
501.22	1458.25
501.437	1427.25
501.654	1422.25
501.871	1359.25
502.088	1183.25
502.305	1211.25
502.522	1186.25
502.739	1106.25
502.956	1075.25
503.172	1075.25
503.389	1023.25
503.606	1002.25
503.823	1046.25
504.04	993.25
504.256	1021.25
504.473	1054.25
504.69	1034.25
504.907	976.25
505.123	1002.25
505.34	1099.25
505.557	1375.25
505.773	1115.25
505.99	980.25
506.207	902.25
506.423	932.25
506.64	909.25
506.856	957.25
507.073	1051.25
507.289	1124.25
507.506	1032.25
507.722	887.25
507.939	888.25
508.155	864.25
508.372	857.25
508.588	834.25
508.805	836.25
509.021	809.25
509.238	795.25
509.454	779.25
509.67	751.25
509.887	770.25
510.103	756.25
510.319	752.25
510.536	796.25
510.752	797.25
510.968	776.25
511.184	811.25
511.401	778.25
511.617	712.25
511.833	712.25
512.049	738.25
512.265	732.25
512.481	738.25
512.698	772.25
512.914	791.25
513.13	759.25
513.346	721.25
513.562	719.25
513.778	713.25
513.994	783.25
514.21	749.25
514.426	767.25
514.642	848.25
514.858	803.25
515.074	739.25
515.29	705.25
515.506	736.25
515.721	732.25
515.937	773.25
516.153	809.25
516.369	785.25
516.585	770.25
516.801	741.25
517.016	747.25
517.232	749.25
517.448	788.25
517.664	789.25
517.879	815.25
518.095	812.25
518.311	800.25
518.527	753.25
518.742	761.25
518.958	778.25
519.173	760.25
519.389	794.25
519.605	803.25
519.82	820.25
520.036	801.25
520.251	778.25
520.467	787.25
520.682	838.25
520.898	848.25
521.113	756.25
521.329	738.25
521.544	785.25
521.76	760.25
521.975	744.25
522.19	727.25
522.406	742.25
522.621	955.25
522.836	905.25
523.052	756.25
523.267	755.25
523.482	803.25
523.698	746.25
523.913	725.25
524.128	786.25
524.343	823.25
524.559	831.25
524.774	790.25
524.989	787.25
525.204	797.25
525.419	769.25
525.634	748.25
525.849	759.25
526.064	729.25
526.28	723.25
526.495	689.25
526.71	664.25
526.925	658.25
527.14	617.25
527.355	641.25
527.57	657.25
527.785	695.25
527.999	680.25
528.214	681.25
528.429	735.25
528.644	748.25
528.859	811.25
529.074	836.25
529.289	873.25
529.503	867.25
529.718	805.25
529.933	756.25
530.148	687.25
530.363	666.25
530.577	647.25
530.792	639.25
531.007	640.25
531.221	602.25
531.436	674.25
531.651	673.25
531.865	705.25
532.08	647.25
532.295	658.25
532.509	648.25
532.724	631.25
532.938	675.25
533.153	725.25
533.367	714.25
533.582	724.25
533.796	740.25
534.011	733.25
534.225	684.25
534.44	658.25
534.654	679.25
534.868	676.25
535.083	690.25
535.297	727.25
535.511	692.25
535.726	682.25
535.94	712.25
536.154	669.25
536.369	629.25
536.583	634.25
536.797	612.25
537.011	620.25
537.225	610.25
537.44	603.25
537.654	649.25
537.868	623.25
538.082	618.25
538.296	627.25
538.51	635.25
538.724	687.25
538.938	705.25
539.153	763.25
539.367	748.25
539.581	739.25
539.795	688.25
540.009	641.25
540.222	654.25
540.436	699.25
540.65	738.25
540.864	827.25
541.078	826.25
541.292	860.25
541.506	890.25
541.72	973.25
541.934	1062.25
542.147	1093.25
542.361	1002.25
542.575	939.25
542.789	846.25
543.002	789.25
543.216	744.25
543.43	766.25
543.644	825.25
543.857	917.25
544.071	956.25
544.285	963.25
544.498	955.25
544.712	917.25
544.925	967.25
545.139	951.25
545.352	980.25
545.566	971.25
545.779	953.25
545.993	975.25
546.206	995.25
546.42	968.25
546.633	981.25
546.847	948.25
547.06	947.25
547.274	978.25
547.487	990.25
547.7	1033.25
547.914	1011.25
548.127	974.25
548.34	975.25
548.554	952.25
548.767	939.25
548.98	940.25
549.193	969.25
549.407	960.25
549.62	968.25
549.833	937.25
550.046	927.25
550.259	920.25
550.473	917.25
550.686	916.25
550.899	883.25
551.112	882.25
551.325	847.25
551.538	865.25
551.751	907.25
551.964	710.25
552.177	744.25
552.39	816.25
552.603	853.25
552.816	869.25
553.029	908.25
553.242	945.25
553.455	929.25
553.667	926.25
553.88	923.25
554.093	891.25
554.306	859.25
554.519	859.25
554.732	828.25
554.944	842.25
555.157	842.25
555.37	824.25
555.583	811.25
555.795	815.25
556.008	774.25
556.221	731.25
556.433	748.25
556.646	769.25
556.859	747.25
557.071	756.25
557.284	775.25
557.496	802.25
557.709	744.25
557.921	768.25
558.134	731.25
558.346	738.25
558.559	736.25
558.771	733.25
558.984	723.25
559.196	691.25
559.409	696.25
559.621	675.25
559.833	659.25
560.046	696.25
560.258	668.25
560.47	688.25
560.683	689.25
560.895	671.25
561.107	693.25
561.32	684.25
561.532	691.25
561.744	697.25
561.956	693.25
562.168	669.25
562.381	676.25
562.593	660.25
562.805	661.25
563.017	644.25
563.229	653.25
563.441	660.25
563.653	627.25
563.865	639.25
564.077	631.25
564.289	634.25
564.501	644.25
564.713	662.25
564.925	652.25
565.137	683.25
565.349	617.25
565.561	606.25
565.773	628.25
565.985	621.25
566.197	698.25
566.408	696.25
566.62	689.25
566.832	680.25
567.044	669.25
567.255	683.25
567.467	688.25
567.679	682.25
567.891	656.25
568.102	625.25
568.314	605.25
568.526	575.25
568.737	520.25
568.949	500.25
569.161	473.25
569.372	476.25
569.584	447.25
569.795	460.25
570.007	467.25
570.218	458.25
570.43	447.25
570.641	474.25
570.853	493.25
571.064	494.25
571.276	483.25
571.487	492.25
571.698	493.25
571.91	476.25
572.121	464.25
572.333	459.25
572.544	431.25
572.755	428.25
572.966	412.25
573.178	394.25
573.389	396.25
573.6	416.25
573.811	419.25
574.023	431.25
574.234	408.25
574.445	381.25
574.656	401.25
574.867	393.25
575.078	421.25
575.289	409.25
575.501	426.25
575.712	394.25
575.923	408.25
576.134	432.25
576.345	419.25
576.556	415.25
576.767	403.25
576.978	421.25
577.188	379.25
577.399	385.25
577.61	387.25
577.821	369.25
578.032	379.25
578.243	377.25
578.454	393.25
578.665	378.25
578.875	338.25
579.086	346.25
579.297	360.25
579.508	356.25
579.718	357.25
579.929	364.25
580.14	334.25
580.35	355.25
580.561	362.25
580.772	402.25
580.982	377.25
581.193	362.25
581.403	357.25
581.614	361.25
581.825	347.25
582.035	362.25
582.246	342.25
582.456	354.25
582.667	348.25
582.877	339.25
583.087	344.25
583.298	353.25
583.508	323.25
583.719	328.25
583.929	328.25
584.139	341.25
584.35	341.25
584.56	336.25
584.77	348.25
584.981	329.25
585.191	326.25
585.401	346.25
585.611	338.25
585.821	329.25
586.032	320.25
586.242	314.25
586.452	331.25
586.662	321.25
586.872	296.25
587.082	318.25
587.292	332.25
587.502	312.25
587.713	336.25
587.923	336.25
588.133	322.25
588.343	332.25
588.553	313.25
588.762	299.25
588.972	307.25
589.182	323.25
589.392	309.25
589.602	330.25
589.812	316.25
590.022	321.25
590.232	323.25
590.441	330.25
590.651	309.25
590.861	304.25
591.071	306.25
591.281	312.25
591.49	298.25
591.7	326.25
591.91	323.25
592.119	307.25
592.329	333.25
592.539	341.25
592.748	323.25
592.958	331.25
593.167	326.25
593.377	325.25
593.587	317.25
593.796	338.25
594.006	330.25
594.215	341.25
594.424	329.25
594.634	328.25
594.843	351.25
595.053	364.25
595.262	328.25
595.472	331.25
595.681	332.25
595.89	322.25
596.1	321.25
596.309	323.25
596.518	315.25
596.727	321.25
596.937	327.25
597.146	333.25
597.355	324.25
597.564	316.25
597.774	301.25
597.983	307.25
598.192	288.25
598.401	287.25
598.61	282.25
598.819	294.25
599.028	312.25
599.237	308.25
599.446	308.25
599.655	293.25
599.864	295.25
600.073	291.25
600.282	291.25
600.491	312.25
600.7	291.25
600.909	289.25
601.118	327.25
601.327	325.25
601.536	352.25
601.745	351.25
601.953	344.25
602.162	374.25
602.371	356.25
602.58	351.25
602.789	353.25
602.997	354.25
603.206	341.25
603.415	354.25
603.623	356.25
603.832	349.25
604.041	328.25
604.249	332.25
604.458	305.25
604.666	315.25
604.875	298.25
605.084	332.25
605.292	340.25
605.501	368.25
605.709	345.25
605.918	354.25
606.126	348.25
606.334	373.25
606.543	373.25
606.751	363.25
606.96	375.25
607.168	374.25
607.376	359.25
607.585	368.25
607.793	373.25
608.001	367.25
608.21	361.25
608.418	377.25
608.626	385.25
608.834	373.25
609.043	377.25
609.251	365.25
609.459	367.25
609.667	372.25
609.875	386.25
610.083	394.25
610.291	384.25
610.499	363.25
610.707	379.25
610.916	359.25
611.124	351.25
611.332	384.25
611.54	359.25
611.748	359.25
611.955	392.25
612.163	368.25
612.371	367.25
612.579	363.25
612.787	338.25
612.995	374.25
613.203	379.25
613.411	348.25
613.618	335.25
613.826	357.25
614.034	352.25
614.242	376.25
614.449	365.25
614.657	358.25
614.865	379.25
615.072	377.25
615.28	363.25
615.488	351.25
615.695	377.25
615.903	367.25
616.111	347.25
616.318	346.25
616.526	375.25
616.733	360.25
616.941	355.25
617.148	365.25
617.356	362.25
617.563	364.25
617.771	366.25
617.978	323.25
618.185	339.25
618.393	377.25
618.6	361.25
618.807	368.25
619.015	379.25
619.222	339.25
619.429	337.25
619.637	323.25
619.844	310.25
620.051	327.25
620.258	327.25
620.466	334.25
620.673	328.25
620.88	295.25
621.087	324.25
621.294	332.25
621.501	321.25
621.708	305.25
621.915	322.25
622.122	322.25
622.329	321.25
622.536	324.25
622.743	323.25
622.95	315.25
623.157	320.25
623.364	323.25
623.571	303.25
623.778	317.25
623.985	344.25
624.192	331.25
624.399	322.25
624.606	314.25
624.812	305.25
625.019	299.25
625.226	295.25
625.433	300.25
625.639	299.25
625.846	269.25
626.053	267.25
626.259	263.25
626.466	265.25
626.673	243.25
626.879	231.25
627.086	267.25
627.293	259.25
627.499	297.25
627.706	292.25
627.912	303.25
628.119	315.25
628.325	314.25
628.532	323.25
628.738	298.25
628.945	299.25
629.151	284.25
629.357	272.25
629.564	273.25
629.77	290.25
629.976	270.25
630.183	263.25
630.389	273.25
630.595	286.25
630.802	285.25
631.008	309.25
631.214	267.25
631.42	289.25
631.627	288.25
631.833	266.25
632.039	260.25
632.245	280.25
632.451	268.25
632.657	282.25
632.863	284.25
633.069	283.25
633.275	265.25
633.481	269.25
633.688	265.25
633.893	257.25
634.099	251.25
634.305	245.25
634.511	268.25
634.717	245.25
634.923	252.25
635.129	223.25
635.335	244.25
635.541	246.25
635.747	231.25
635.952	253.25
636.158	261.25
636.364	266.25
636.57	280.25
636.775	278.25
636.981	261.25
637.187	267.25
637.392	266.25
637.598	269.25
637.804	268.25
638.009	285.25
638.215	241.25
638.421	247.25
638.626	260.25
638.832	268.25
639.037	245.25
639.243	250.25
639.448	245.25
639.654	236.25
639.859	233.25
640.065	253.25
640.27	258.25
640.475	251.25
640.681	257.25
640.886	251.25
641.091	247.25
641.297	237.25
641.502	253.25
641.707	255.25
641.913	264.25
642.118	275.25
642.323	234.25
642.528	260.25
642.733	236.25
642.939	256.25
643.144	231.25
643.349	245.25
643.554	263.25
643.759	239.25
643.964	255.25
644.169	252.25
644.374	244.25
644.579	241.25
644.784	249.25
644.989	251.25
645.194	240.25
645.399	239.25
645.604	249.25
645.809	251.25
646.014	250.25
646.219	235.25
646.423	253.25
646.628	250.25
646.833	229.25
647.038	238.25
647.243	247.25
647.447	249.25
647.652	240.25
647.857	240.25
648.062	255.25
648.266	231.25
648.471	239.25
648.676	255.25
648.88	250.25
649.085	257.25
649.289	240.25
649.494	239.25
649.698	239.25
649.903	220.25
650.107	250.25
650.312	235.25
650.516	231.25
650.721	224.25
650.925	223.25
651.13	220.25
651.334	232.25
651.539	231.25
651.743	220.25
651.947	217.25
652.152	216.25
652.356	232.25
652.56	225.25
652.764	202.25
652.969	222.25
653.173	210.25
653.377	217.25
653.581	213.25
653.785	208.25
653.99	210.25
654.194	215.25
654.398	200.25
654.602	207.25
654.806	191.25
655.01	211.25
655.214	214.25
655.418	201.25
655.622	195.25
655.826	208.25
656.03	213.25
656.234	209.25
656.438	228.25
656.642	229.25
656.846	208.25
657.049	208.25
657.253	190.25
657.457	175.25
657.661	173.25
657.865	183.25
658.068	172.25
658.272	150.25
658.476	152.25
658.68	169.25
658.883	144.25
659.087	137.25
659.291	149.25
659.494	139.25
659.698	147.25
659.901	138.25
660.105	141.25
660.309	132.25
660.512	126.25
660.716	118.25
660.919	106.25
661.123	111.25
661.326	111.25
661.53	133.25
661.733	119.25
661.936	92.25
662.14	93.25
662.343	92.25
662.546	111.25
662.75	83.25
662.953	81.25
663.156	96.25
663.36	77.25
663.563	76.25
663.766	98.25
663.969	98.25
664.173	87.25
664.376	85.25
664.579	83.25
664.782	74.25
664.985	84.25
665.188	91.25
665.391	88.25
665.594	80.25
665.797	76.25
666	79.25
666.203	82.25
666.406	79.25
666.609	74.25
666.812	78.25
667.015	85.25
667.218	74.25
667.421	75.25
667.624	83.25
667.827	77.25
668.03	84.25
668.232	85.25
668.435	80.25
668.638	95.25
668.841	94.25
669.043	81.25
669.246	87.25
669.449	94.25
669.651	93.25
669.854	89.25
670.057	77.25
670.259	80.25
670.462	90.25
670.665	75.25
670.867	73.25
671.07	78.25
671.272	87.25
671.475	77.25
671.677	84.25
671.88	82.25
672.082	74.25
672.284	84.25
672.487	92.25
672.689	79.25
672.892	83.25
