Data from WStandard_LampEnergy10_LIBS07252019.E.O._I.C._HRD10591_15-54-04-928.txt Node
Date: Thu Jul 25 15:54:04 EDT 2019
User: cochatt
Spectrometer: HR+D1059
Trigger mode: 1
Integration Time (sec): 1.000000E-1
Scans to average: 1
Electric dark correction enabled: true
Nonlinearity correction enabled: false
Boxcar width: 0
XAxis mode: Wavelengths
Number of Pixels in Spectrum: 2048
>>>>>Begin Spectral Data<<<<<
223.165	-20.12
223.4	-20.12
223.635	-20.12
223.869	-20.12
224.104	-17.12
224.338	-12.12
224.573	-5.12
224.808	-3.12
225.042	-10.12
225.277	-4.12
225.511	1.88
225.746	4.88
225.98	5.88
226.215	4.88
226.449	10.88
226.683	18.88
226.918	21.88
227.152	22.88
227.387	32.88
227.621	49.88
227.856	53.88
228.09	43.88
228.324	49.88
228.559	73.88
228.793	84.88
229.027	143.88
229.262	143.88
229.496	164.88
229.73	165.88
229.964	158.88
230.199	160.88
230.433	178.88
230.667	187.88
230.901	199.88
231.136	195.88
231.37	178.88
231.604	169.88
231.838	187.88
232.072	177.88
232.306	173.88
232.541	187.88
232.775	211.88
233.009	213.88
233.243	201.88
233.477	179.88
233.711	203.88
233.945	201.88
234.179	203.88
234.413	209.88
234.647	233.88
234.881	219.88
235.115	216.88
235.349	196.88
235.583	179.88
235.817	190.88
236.051	178.88
236.285	202.88
236.519	203.88
236.753	218.88
236.987	235.88
237.221	235.88
237.455	250.88
237.689	235.88
237.922	245.88
238.156	211.88
238.39	232.88
238.624	250.88
238.858	253.88
239.091	231.88
239.325	271.88
239.559	278.88
239.793	303.88
240.027	297.88
240.26	281.88
240.494	251.88
240.728	237.88
240.961	238.88
241.195	243.88
241.429	269.88
241.662	283.88
241.896	247.88
242.13	262.88
242.363	275.88
242.597	284.88
242.83	267.88
243.064	285.88
243.298	292.88
243.531	285.88
243.765	297.88
243.998	299.88
244.232	260.88
244.465	258.88
244.699	257.88
244.932	296.88
245.166	313.88
245.399	280.88
245.633	289.88
245.866	282.88
246.099	302.88
246.333	281.88
246.566	305.88
246.8	340.88
247.033	349.88
247.266	325.88
247.5	328.88
247.733	319.88
247.966	331.88
248.2	361.88
248.433	362.88
248.666	385.88
248.899	402.88
249.133	418.88
249.366	477.88
249.599	408.88
249.832	378.88
250.066	373.88
250.299	378.88
250.532	358.88
250.765	337.88
250.998	330.88
251.231	360.88
251.465	347.88
251.698	351.88
251.931	342.88
252.164	347.88
252.397	363.88
252.63	370.88
252.863	335.88
253.096	314.88
253.329	347.88
253.562	352.88
253.795	367.88
254.028	349.88
254.261	326.88
254.494	347.88
254.727	343.88
254.96	355.88
255.193	386.88
255.426	427.88
255.659	465.88
255.892	434.88
256.124	415.88
256.357	379.88
256.59	410.88
256.823	387.88
257.056	415.88
257.289	491.88
257.521	531.88
257.754	453.88
257.987	425.88
258.22	499.88
258.452	487.88
258.685	417.88
258.918	398.88
259.151	418.88
259.383	387.88
259.616	359.88
259.849	366.88
260.081	401.88
260.314	456.88
260.547	486.88
260.779	461.88
261.012	440.88
261.244	417.88
261.477	393.88
261.71	406.88
261.942	412.88
262.175	404.88
262.407	412.88
262.64	401.88
262.872	397.88
263.105	373.88
263.337	374.88
263.57	365.88
263.802	377.88
264.035	356.88
264.267	351.88
264.499	345.88
264.732	364.88
264.964	387.88
265.197	418.88
265.429	415.88
265.661	477.88
265.894	499.88
266.126	482.88
266.358	476.88
266.591	493.88
266.823	517.88
267.055	468.88
267.287	438.88
267.52	478.88
267.752	427.88
267.984	460.88
268.216	466.88
268.448	462.88
268.681	444.88
268.913	422.88
269.145	421.88
269.377	418.88
269.609	460.88
269.841	535.88
270.073	587.88
270.306	645.88
270.538	637.88
270.77	563.88
271.002	503.88
271.234	488.88
271.466	502.88
271.698	529.88
271.93	603.88
272.162	602.88
272.394	552.88
272.626	517.88
272.858	464.88
273.09	417.88
273.322	423.88
273.553	381.88
273.785	399.88
274.017	423.88
274.249	435.88
274.481	434.88
274.713	405.88
274.945	433.88
275.176	403.88
275.408	425.88
275.64	411.88
275.872	409.88
276.104	429.88
276.335	502.88
276.567	527.88
276.799	549.88
277.031	494.88
277.262	475.88
277.494	506.88
277.726	541.88
277.957	546.88
278.189	485.88
278.421	433.88
278.652	413.88
278.884	429.88
279.115	448.88
279.347	441.88
279.579	435.88
279.81	453.88
280.042	492.88
280.273	537.88
280.505	531.88
280.736	514.88
280.968	482.88
281.199	446.88
281.431	414.88
281.662	449.88
281.894	437.88
282.125	450.88
282.356	451.88
282.588	458.88
282.819	436.88
283.051	505.88
283.282	524.88
283.513	505.88
283.745	453.88
283.976	429.88
284.207	435.88
284.439	439.88
284.67	467.88
284.901	469.88
285.132	465.88
285.364	477.88
285.595	474.88
285.826	465.88
286.057	456.88
286.288	463.88
286.52	479.88
286.751	497.88
286.982	486.88
287.213	439.88
287.444	433.88
287.675	459.88
287.906	483.88
288.138	507.88
288.369	493.88
288.6	457.88
288.831	433.88
289.062	440.88
289.293	469.88
289.524	478.88
289.755	459.88
289.986	464.88
290.217	437.88
290.448	443.88
290.679	469.88
290.91	475.88
291.141	487.88
291.371	505.88
291.602	481.88
291.833	511.88
292.064	501.88
292.295	484.88
292.526	491.88
292.757	543.88
292.987	490.88
293.218	506.88
293.449	535.88
293.68	584.88
293.91	594.88
294.141	559.88
294.372	552.88
294.603	582.88
294.833	573.88
295.064	546.88
295.295	500.88
295.525	482.88
295.756	462.88
295.987	428.88
296.217	462.88
296.448	479.88
296.679	459.88
296.909	464.88
297.14	479.88
297.37	497.88
297.601	498.88
297.831	537.88
298.062	541.88
298.292	501.88
298.523	491.88
298.753	465.88
298.984	477.88
299.214	485.88
299.445	529.88
299.675	520.88
299.905	511.88
300.136	481.88
300.366	455.88
300.597	442.88
300.827	476.88
301.057	481.88
301.288	521.88
301.518	519.88
301.748	516.88
301.979	535.88
302.209	564.88
302.439	586.88
302.669	611.88
302.9	567.88
303.13	501.88
303.36	506.88
303.59	532.88
303.82	532.88
304.051	535.88
304.281	534.88
304.511	548.88
304.741	580.88
304.971	626.88
305.201	627.88
305.431	577.88
305.661	505.88
305.891	479.88
306.121	467.88
306.352	486.88
306.582	517.88
306.812	539.88
307.042	586.88
307.272	579.88
307.502	599.88
307.731	650.88
307.961	645.88
308.191	582.88
308.421	549.88
308.651	495.88
308.881	497.88
309.111	529.88
309.341	494.88
309.571	507.88
309.8	488.88
310.03	477.88
310.26	523.88
310.49	505.88
310.72	524.88
310.949	507.88
311.179	542.88
311.409	511.88
311.639	498.88
311.868	511.88
312.098	522.88
312.328	497.88
312.557	511.88
312.787	525.88
313.017	510.88
313.246	523.88
313.476	538.88
313.706	552.88
313.935	547.88
314.165	581.88
314.394	591.88
314.624	605.88
314.853	633.88
315.083	639.88
315.312	626.88
315.542	575.88
315.771	558.88
316.001	574.88
316.23	590.88
316.46	584.88
316.689	566.88
316.919	552.88
317.148	518.88
317.377	537.88
317.607	579.88
317.836	632.88
318.065	651.88
318.295	629.88
318.524	614.88
318.753	565.88
318.983	585.88
319.212	573.88
319.441	567.88
319.67	554.88
319.9	584.88
320.129	597.88
320.358	624.88
320.587	623.88
320.816	624.88
321.046	622.88
321.275	609.88
321.504	600.88
321.733	638.88
321.962	607.88
322.191	573.88
322.42	561.88
322.649	555.88
322.878	563.88
323.108	581.88
323.337	580.88
323.566	595.88
323.795	599.88
324.024	583.88
324.253	585.88
324.482	552.88
324.71	561.88
324.939	544.88
325.168	563.88
325.397	569.88
325.626	584.88
325.855	602.88
326.084	587.88
326.313	598.88
326.542	577.88
326.77	597.88
326.999	606.88
327.228	561.88
327.457	543.88
327.686	540.88
327.914	538.88
328.143	584.88
328.372	578.88
328.6	567.88
328.829	544.88
329.058	587.88
329.287	547.88
329.515	569.88
329.744	607.88
329.972	600.88
330.201	628.88
330.43	620.88
330.658	604.88
330.887	614.88
331.115	607.88
331.344	618.88
331.572	578.88
331.801	606.88
332.03	616.88
332.258	601.88
332.486	623.88
332.715	607.88
332.943	609.88
333.172	590.88
333.4	613.88
333.629	641.88
333.857	666.88
334.085	732.88
334.314	839.88
334.542	860.88
334.771	769.88
334.999	717.88
335.227	653.88
335.455	651.88
335.684	642.88
335.912	674.88
336.14	667.88
336.369	626.88
336.597	599.88
336.825	601.88
337.053	677.88
337.281	683.88
337.51	712.88
337.738	695.88
337.966	653.88
338.194	612.88
338.422	607.88
338.65	605.88
338.878	588.88
339.106	590.88
339.334	584.88
339.562	591.88
339.79	594.88
340.018	654.88
340.246	631.88
340.474	622.88
340.702	631.88
340.93	608.88
341.158	618.88
341.386	626.88
341.614	618.88
341.842	597.88
342.07	631.88
342.298	613.88
342.526	626.88
342.754	605.88
342.981	585.88
343.209	599.88
343.437	606.88
343.665	625.88
343.893	647.88
344.12	653.88
344.348	642.88
344.576	630.88
344.804	611.88
345.031	599.88
345.259	584.88
345.487	582.88
345.714	567.88
345.942	569.88
346.17	582.88
346.397	570.88
346.625	558.88
346.853	553.88
347.08	545.88
347.308	551.88
347.535	587.88
347.763	588.88
347.99	577.88
348.218	569.88
348.445	556.88
348.673	598.88
348.9	589.88
349.128	621.88
349.355	628.88
349.583	612.88
349.81	569.88
350.037	553.88
350.265	529.88
350.492	550.88
350.72	566.88
350.947	586.88
351.174	577.88
351.402	575.88
351.629	537.88
351.856	538.88
352.083	540.88
352.311	562.88
352.538	575.88
352.765	564.88
352.992	600.88
353.22	563.88
353.447	575.88
353.674	586.88
353.901	581.88
354.128	558.88
354.355	579.88
354.583	589.88
354.81	623.88
355.037	580.88
355.264	582.88
355.491	572.88
355.718	579.88
355.945	589.88
356.172	573.88
356.399	550.88
356.626	555.88
356.853	601.88
357.08	647.88
357.307	710.88
357.534	674.88
357.761	590.88
357.988	554.88
358.215	546.88
358.441	546.88
358.668	565.88
358.895	574.88
359.122	607.88
359.349	663.88
359.576	619.88
359.802	571.88
360.029	540.88
360.256	557.88
360.483	580.88
360.709	599.88
360.936	614.88
361.163	649.88
361.39	699.88
361.616	686.88
361.843	731.88
362.07	659.88
362.296	580.88
362.523	569.88
362.749	589.88
362.976	575.88
363.203	611.88
363.429	590.88
363.656	561.88
363.882	614.88
364.109	693.88
364.335	693.88
364.562	631.88
364.788	604.88
365.015	576.88
365.241	563.88
365.468	586.88
365.694	630.88
365.92	618.88
366.147	596.88
366.373	578.88
366.599	563.88
366.826	585.88
367.052	579.88
367.278	574.88
367.505	587.88
367.731	618.88
367.957	639.88
368.184	663.88
368.41	704.88
368.636	685.88
368.862	677.88
369.089	674.88
369.315	655.88
369.541	622.88
369.767	607.88
369.993	610.88
370.219	608.88
370.445	635.88
370.672	658.88
370.898	714.88
371.124	661.88
371.35	641.88
371.576	666.88
371.802	677.88
372.028	639.88
372.254	633.88
372.48	596.88
372.706	595.88
372.932	618.88
373.158	641.88
373.384	654.88
373.61	649.88
373.835	675.88
374.061	647.88
374.287	637.88
374.513	639.88
374.739	662.88
374.965	634.88
375.191	671.88
375.416	667.88
375.642	687.88
375.868	705.88
376.094	719.88
376.319	682.88
376.545	653.88
376.771	655.88
376.997	695.88
377.222	687.88
377.448	660.88
377.674	670.88
377.899	709.88
378.125	725.88
378.35	727.88
378.576	658.88
378.802	629.88
379.027	630.88
379.253	662.88
379.478	638.88
379.704	683.88
379.929	660.88
380.155	669.88
380.38	676.88
380.606	669.88
380.831	670.88
381.057	722.88
381.282	714.88
381.507	703.88
381.733	759.88
381.958	761.88
382.184	701.88
382.409	681.88
382.634	709.88
382.86	709.88
383.085	693.88
383.31	721.88
383.535	799.88
383.761	818.88
383.986	785.88
384.211	755.88
384.436	774.88
384.662	776.88
384.887	803.88
385.112	765.88
385.337	754.88
385.562	721.88
385.787	767.88
386.013	791.88
386.238	763.88
386.463	778.88
386.688	841.88
386.913	885.88
387.138	825.88
387.363	805.88
387.588	774.88
387.813	787.88
388.038	796.88
388.263	800.88
388.488	777.88
388.713	748.88
388.938	737.88
389.163	751.88
389.387	775.88
389.612	752.88
389.837	750.88
390.062	766.88
390.287	775.88
390.512	745.88
390.736	773.88
390.961	763.88
391.186	716.88
391.411	735.88
391.636	792.88
391.86	785.88
392.085	776.88
392.31	789.88
392.534	777.88
392.759	787.88
392.984	796.88
393.208	765.88
393.433	820.88
393.658	838.88
393.882	835.88
394.107	814.88
394.331	769.88
394.556	787.88
394.78	775.88
395.005	825.88
395.229	825.88
395.454	897.88
395.678	885.88
395.903	839.88
396.127	835.88
396.352	825.88
396.576	875.88
396.801	867.88
397.025	845.88
397.249	872.88
397.474	847.88
397.698	856.88
397.922	885.88
398.147	881.88
398.371	940.88
398.595	898.88
398.82	893.88
399.044	922.88
399.268	935.88
399.492	985.88
399.717	1005.88
399.941	1003.88
400.165	989.88
400.389	946.88
400.613	993.88
400.837	1126.88
401.062	1220.88
401.286	1027.88
401.51	992.88
401.734	993.88
401.958	941.88
402.182	936.88
402.406	898.88
402.63	881.88
402.854	900.88
403.078	928.88
403.302	940.88
403.526	950.88
403.75	933.88
403.974	945.88
404.198	938.88
404.422	998.88
404.645	1027.88
404.869	1013.88
405.093	907.88
405.317	895.88
405.541	943.88
405.765	962.88
405.988	945.88
406.212	938.88
406.436	965.88
406.66	984.88
406.883	1053.88
407.107	1182.88
407.331	1265.88
407.555	1320.88
407.778	1143.88
408.002	1012.88
408.226	991.88
408.449	977.88
408.673	942.88
408.896	975.88
409.12	977.88
409.344	986.88
409.567	911.88
409.791	960.88
410.014	997.88
410.238	1043.88
410.461	1070.88
410.685	983.88
410.908	964.88
411.132	954.88
411.355	938.88
411.578	980.88
411.802	958.88
412.025	970.88
412.249	967.88
412.472	941.88
412.695	950.88
412.919	935.88
413.142	926.88
413.365	919.88
413.589	958.88
413.812	1029.88
414.035	990.88
414.258	957.88
414.482	956.88
414.705	955.88
414.928	932.88
415.151	916.88
415.374	963.88
415.597	945.88
415.821	957.88
416.044	965.88
416.267	952.88
416.49	902.88
416.713	937.88
416.936	978.88
417.159	1002.88
417.382	995.88
417.605	943.88
417.828	949.88
418.051	969.88
418.274	964.88
418.497	947.88
418.72	957.88
418.943	948.88
419.166	990.88
419.389	987.88
419.611	954.88
419.834	963.88
420.057	947.88
420.28	949.88
420.503	953.88
420.726	973.88
420.948	961.88
421.171	929.88
421.394	932.88
421.617	1006.88
421.839	1014.88
422.062	993.88
422.285	985.88
422.507	929.88
422.73	916.88
422.953	924.88
423.175	919.88
423.398	921.88
423.621	961.88
423.843	954.88
424.066	1002.88
424.288	1044.88
424.511	1037.88
424.733	1030.88
424.956	950.88
425.178	955.88
425.401	936.88
425.623	955.88
425.846	961.88
426.068	978.88
426.291	979.88
426.513	988.88
426.735	981.88
426.958	1069.88
427.18	1082.88
427.402	1012.88
427.625	1056.88
427.847	1022.88
428.069	949.88
428.292	938.88
428.514	924.88
428.736	937.88
428.958	930.88
429.181	957.88
429.403	1107.88
429.625	1244.88
429.847	1059.88
430.069	975.88
430.292	1055.88
430.514	1085.88
430.736	990.88
430.958	1011.88
431.18	919.88
431.402	894.88
431.624	849.88
431.846	830.88
432.068	743.88
432.29	745.88
432.512	807.88
432.734	878.88
432.956	923.88
433.178	1014.88
433.4	1011.88
433.622	967.88
433.844	889.88
434.066	865.88
434.287	827.88
434.509	806.88
434.731	847.88
434.953	931.88
435.175	925.88
435.397	922.88
435.618	915.88
435.84	849.88
436.062	855.88
436.284	926.88
436.505	953.88
436.727	966.88
436.949	927.88
437.17	912.88
437.392	925.88
437.614	864.88
437.835	817.88
438.057	843.88
438.278	855.88
438.5	879.88
438.721	869.88
438.943	945.88
439.165	936.88
439.386	952.88
439.608	963.88
439.829	959.88
440.05	970.88
440.272	964.88
440.493	987.88
440.715	989.88
440.936	1019.88
441.158	1070.88
441.379	1061.88
441.6	1074.88
441.822	1038.88
442.043	1048.88
442.264	995.88
442.486	970.88
442.707	957.88
442.928	959.88
443.149	991.88
443.371	1022.88
443.592	1040.88
443.813	994.88
444.034	1038.88
444.255	1026.88
444.476	1065.88
444.698	1046.88
444.919	1050.88
445.14	1143.88
445.361	1077.88
445.582	1084.88
445.803	1057.88
446.024	1068.88
446.245	1069.88
446.466	1065.88
446.687	1066.88
446.908	1055.88
447.129	1030.88
447.35	1049.88
447.571	1036.88
447.792	996.88
448.013	964.88
448.234	995.88
448.455	993.88
448.675	1017.88
448.896	948.88
449.117	917.88
449.338	965.88
449.559	990.88
449.779	1025.88
450	1036.88
450.221	1055.88
450.442	1020.88
450.662	989.88
450.883	895.88
451.104	895.88
451.324	896.88
451.545	882.88
451.766	879.88
451.986	848.88
452.207	824.88
452.428	821.88
452.648	790.88
452.869	794.88
453.089	815.88
453.31	779.88
453.53	791.88
453.751	747.88
453.971	697.88
454.192	760.88
454.412	799.88
454.633	802.88
454.853	816.88
455.073	764.88
455.294	798.88
455.514	790.88
455.734	785.88
455.955	784.88
456.175	771.88
456.395	740.88
456.616	732.88
456.836	717.88
457.056	752.88
457.276	749.88
457.497	719.88
457.717	721.88
457.937	737.88
458.157	733.88
458.377	710.88
458.598	689.88
458.818	681.88
459.038	722.88
459.258	733.88
459.478	727.88
459.698	689.88
459.918	742.88
460.138	799.88
460.358	833.88
460.578	837.88
460.798	879.88
461.018	918.88
461.238	877.88
461.458	864.88
461.678	875.88
461.898	831.88
462.118	851.88
462.338	843.88
462.558	871.88
462.777	862.88
462.997	893.88
463.217	897.88
463.437	894.88
463.657	855.88
463.876	847.88
464.096	836.88
464.316	853.88
464.536	882.88
464.755	873.88
464.975	912.88
465.195	893.88
465.414	896.88
465.634	901.88
465.854	933.88
466.073	957.88
466.293	937.88
466.512	892.88
466.732	902.88
466.951	916.88
467.171	937.88
467.391	905.88
467.61	881.88
467.829	925.88
468.049	986.88
468.268	1068.88
468.488	973.88
468.707	922.88
468.927	917.88
469.146	908.88
469.365	923.88
469.585	954.88
469.804	942.88
470.023	923.88
470.243	935.88
470.462	937.88
470.681	933.88
470.901	920.88
471.12	943.88
471.339	951.88
471.558	919.88
471.777	955.88
471.997	915.88
472.216	862.88
472.435	800.88
472.654	777.88
472.873	802.88
473.092	824.88
473.311	858.88
473.53	811.88
473.749	858.88
473.968	867.88
474.187	881.88
474.406	884.88
474.625	881.88
474.844	882.88
475.063	892.88
475.282	878.88
475.501	847.88
475.72	841.88
475.939	921.88
476.158	909.88
476.377	889.88
476.596	895.88
476.814	822.88
477.033	841.88
477.252	888.88
477.471	907.88
477.69	900.88
477.908	961.88
478.127	982.88
478.346	997.88
478.564	1026.88
478.783	993.88
479.002	1040.88
479.22	1004.88
479.439	1051.88
479.658	1103.88
479.876	1009.88
480.095	897.88
480.313	908.88
480.532	904.88
480.751	882.88
480.969	855.88
481.188	819.88
481.406	798.88
481.624	787.88
481.843	803.88
482.061	806.88
482.28	890.88
482.498	895.88
482.717	851.88
482.935	903.88
483.153	979.88
483.372	1064.88
483.59	1029.88
483.808	995.88
484.027	960.88
484.245	1050.88
484.463	1235.88
484.681	1326.88
484.9	1033.88
485.118	964.88
485.336	934.88
485.554	929.88
485.772	912.88
485.99	898.88
486.209	922.88
486.427	928.88
486.645	973.88
486.863	1058.88
487.081	1042.88
487.299	1025.88
487.517	1015.88
487.735	1099.88
487.953	1228.88
488.171	1215.88
488.389	1141.88
488.607	1121.88
488.825	1155.88
489.043	1094.88
489.261	1021.88
489.479	1079.88
489.696	1065.88
489.914	1045.88
490.132	1077.88
490.35	1120.88
490.568	1166.88
490.786	1194.88
491.003	1196.88
491.221	1236.88
491.439	1316.88
491.657	1309.88
491.874	1397.88
492.092	1477.88
492.31	1534.88
492.527	1474.88
492.745	1417.88
492.963	1351.88
493.18	1320.88
493.398	1351.88
493.615	1384.88
493.833	1319.88
494.05	1275.88
494.268	1259.88
494.485	1269.88
494.703	1224.88
494.92	1231.88
495.138	1252.88
495.355	1258.88
495.573	1278.88
495.79	1310.88
496.008	1327.88
496.225	1250.88
496.442	1215.88
496.66	1264.88
496.877	1245.88
497.094	1265.88
497.312	1246.88
497.529	1209.88
497.746	1254.88
497.963	1305.88
498.181	1340.88
498.398	1269.88
498.615	1255.88
498.832	1215.88
499.049	1180.88
499.267	1211.88
499.484	1261.88
499.701	1358.88
499.918	1385.88
500.135	1497.88
500.352	1617.88
500.569	1601.88
500.786	1720.88
501.003	1616.88
501.22	1446.88
501.437	1449.88
501.654	1444.88
501.871	1365.88
502.088	1237.88
502.305	1209.88
502.522	1158.88
502.739	1110.88
502.956	1077.88
503.172	1081.88
503.389	1004.88
503.606	1019.88
503.823	1012.88
504.04	1023.88
504.256	1022.88
504.473	1025.88
504.69	1049.88
504.907	983.88
505.123	987.88
505.34	1073.88
505.557	1405.88
505.773	1155.88
505.99	963.88
506.207	913.88
506.423	908.88
506.64	915.88
506.856	947.88
507.073	1068.88
507.289	1130.88
507.506	1037.88
507.722	910.88
507.939	911.88
508.155	885.88
508.372	870.88
508.588	821.88
508.805	825.88
509.021	809.88
509.238	795.88
509.454	760.88
509.67	755.88
509.887	727.88
510.103	751.88
510.319	763.88
510.536	787.88
510.752	772.88
510.968	779.88
511.184	795.88
511.401	795.88
511.617	728.88
511.833	718.88
512.049	743.88
512.265	733.88
512.481	744.88
512.698	769.88
512.914	795.88
513.13	761.88
513.346	723.88
513.562	713.88
513.778	740.88
513.994	768.88
514.21	778.88
514.426	777.88
514.642	822.88
514.858	799.88
515.074	749.88
515.29	718.88
515.506	738.88
515.721	746.88
515.937	765.88
516.153	840.88
516.369	789.88
516.585	753.88
516.801	720.88
517.016	734.88
517.232	781.88
517.448	778.88
517.664	799.88
517.879	813.88
518.095	858.88
518.311	783.88
518.527	797.88
518.742	756.88
518.958	744.88
519.173	783.88
519.389	803.88
519.605	831.88
519.82	809.88
520.036	811.88
520.251	799.88
520.467	791.88
520.682	813.88
520.898	820.88
521.113	734.88
521.329	733.88
521.544	784.88
521.76	767.88
521.975	766.88
522.19	711.88
522.406	760.88
522.621	963.88
522.836	886.88
523.052	772.88
523.267	762.88
523.482	789.88
523.698	759.88
523.913	757.88
524.128	781.88
524.343	824.88
524.559	856.88
524.774	802.88
524.989	800.88
525.204	775.88
525.419	746.88
525.634	765.88
525.849	751.88
526.064	738.88
526.28	767.88
526.495	684.88
526.71	651.88
526.925	658.88
527.14	647.88
527.355	631.88
527.57	641.88
527.785	675.88
527.999	671.88
528.214	690.88
528.429	719.88
528.644	746.88
528.859	824.88
529.074	875.88
529.289	861.88
529.503	874.88
529.718	819.88
529.933	730.88
530.148	695.88
530.363	676.88
530.577	641.88
530.792	636.88
531.007	650.88
531.221	646.88
531.436	668.88
531.651	651.88
531.865	679.88
532.08	661.88
532.295	667.88
532.509	609.88
532.724	628.88
532.938	671.88
533.153	705.88
533.367	714.88
533.582	747.88
533.796	724.88
534.011	725.88
534.225	683.88
534.44	659.88
534.654	645.88
534.868	672.88
535.083	708.88
535.297	723.88
535.511	695.88
535.726	708.88
535.94	687.88
536.154	675.88
536.369	636.88
536.583	611.88
536.797	628.88
537.011	642.88
537.225	623.88
537.44	602.88
537.654	640.88
537.868	641.88
538.082	628.88
538.296	617.88
538.51	621.88
538.724	695.88
538.938	718.88
539.153	774.88
539.367	777.88
539.581	707.88
539.795	706.88
540.009	656.88
540.222	654.88
540.436	637.88
540.65	771.88
540.864	814.88
541.078	855.88
541.292	869.88
541.506	922.88
541.72	952.88
541.934	1030.88
542.147	1106.88
542.361	996.88
542.575	923.88
542.789	851.88
543.002	789.88
543.216	738.88
543.43	786.88
543.644	848.88
543.857	909.88
544.071	930.88
544.285	938.88
544.498	934.88
544.712	946.88
544.925	940.88
545.139	980.88
545.352	939.88
545.566	942.88
545.779	961.88
545.993	988.88
546.206	988.88
546.42	945.88
546.633	957.88
546.847	951.88
547.06	945.88
547.274	977.88
547.487	1014.88
547.7	1000.88
547.914	977.88
548.127	994.88
548.34	974.88
548.554	956.88
548.767	946.88
548.98	950.88
549.193	930.88
549.407	970.88
549.62	949.88
549.833	929.88
550.046	922.88
550.259	942.88
550.473	889.88
550.686	891.88
550.899	882.88
551.112	846.88
551.325	819.88
551.538	857.88
551.751	874.88
551.964	732.88
552.177	735.88
552.39	793.88
552.603	836.88
552.816	865.88
553.029	916.88
553.242	941.88
553.455	921.88
553.667	935.88
553.88	925.88
554.093	887.88
554.306	865.88
554.519	855.88
554.732	843.88
554.944	870.88
555.157	866.88
555.37	829.88
555.583	822.88
555.795	780.88
556.008	735.88
556.221	719.88
556.433	725.88
556.646	753.88
556.859	740.88
557.071	737.88
557.284	754.88
557.496	737.88
557.709	756.88
557.921	759.88
558.134	756.88
558.346	763.88
558.559	726.88
558.771	702.88
558.984	702.88
559.196	674.88
559.409	694.88
559.621	664.88
559.833	691.88
560.046	665.88
560.258	665.88
560.47	668.88
560.683	693.88
560.895	699.88
561.107	708.88
561.32	678.88
561.532	672.88
561.744	686.88
561.956	680.88
562.168	676.88
562.381	661.88
562.593	659.88
562.805	655.88
563.017	649.88
563.229	643.88
563.441	655.88
563.653	633.88
563.865	611.88
564.077	639.88
564.289	631.88
564.501	643.88
564.713	618.88
564.925	648.88
565.137	683.88
565.349	625.88
565.561	613.88
565.773	620.88
565.985	637.88
566.197	663.88
566.408	661.88
566.62	696.88
566.832	723.88
567.044	684.88
567.255	653.88
567.467	685.88
567.679	663.88
567.891	640.88
568.102	627.88
568.314	607.88
568.526	561.88
568.737	521.88
568.949	486.88
569.161	479.88
569.372	462.88
569.584	466.88
569.795	467.88
570.007	447.88
570.218	445.88
570.43	446.88
570.641	458.88
570.853	461.88
571.064	503.88
571.276	497.88
571.487	481.88
571.698	483.88
571.91	478.88
572.121	483.88
572.333	464.88
572.544	443.88
572.755	420.88
572.966	421.88
573.178	398.88
573.389	403.88
573.6	417.88
573.811	462.88
574.023	419.88
574.234	392.88
574.445	415.88
574.656	396.88
574.867	422.88
575.078	425.88
575.289	423.88
575.501	393.88
575.712	409.88
575.923	407.88
576.134	414.88
576.345	410.88
576.556	405.88
576.767	410.88
576.978	391.88
577.188	389.88
577.399	403.88
577.61	382.88
577.821	377.88
578.032	378.88
578.243	375.88
578.454	379.88
578.665	350.88
578.875	340.88
579.086	344.88
579.297	331.88
579.508	351.88
579.718	372.88
579.929	350.88
580.14	342.88
580.35	355.88
580.561	371.88
580.772	389.88
580.982	382.88
581.193	352.88
581.403	363.88
581.614	374.88
581.825	351.88
582.035	351.88
582.246	354.88
582.456	360.88
582.667	354.88
582.877	355.88
583.087	343.88
583.298	348.88
583.508	330.88
583.719	329.88
583.929	339.88
584.139	346.88
584.35	329.88
584.56	333.88
584.77	338.88
584.981	332.88
585.191	336.88
585.401	341.88
585.611	335.88
585.821	318.88
586.032	324.88
586.242	328.88
586.452	331.88
586.662	326.88
586.872	324.88
587.082	319.88
587.292	340.88
587.502	331.88
587.713	322.88
587.923	307.88
588.133	303.88
588.343	317.88
588.553	328.88
588.762	317.88
588.972	334.88
589.182	328.88
589.392	312.88
589.602	337.88
589.812	310.88
590.022	317.88
590.232	305.88
590.441	332.88
590.651	330.88
590.861	302.88
591.071	307.88
591.281	323.88
591.49	303.88
591.7	307.88
591.91	310.88
592.119	311.88
592.329	327.88
592.539	334.88
592.748	321.88
592.958	341.88
593.167	355.88
593.377	331.88
593.587	325.88
593.796	322.88
594.006	333.88
594.215	333.88
594.424	345.88
594.634	328.88
594.843	358.88
595.053	378.88
595.262	366.88
595.472	339.88
595.681	339.88
595.89	322.88
596.1	328.88
596.309	336.88
596.518	330.88
596.727	353.88
596.937	341.88
597.146	338.88
597.355	309.88
597.564	311.88
597.774	302.88
597.983	311.88
598.192	291.88
598.401	291.88
598.61	290.88
598.819	316.88
599.028	289.88
599.237	320.88
599.446	308.88
599.655	308.88
599.864	300.88
600.073	300.88
600.282	296.88
600.491	295.88
600.7	295.88
600.909	311.88
601.118	327.88
601.327	348.88
601.536	358.88
601.745	351.88
601.953	372.88
602.162	366.88
602.371	374.88
602.58	350.88
602.789	346.88
602.997	361.88
603.206	348.88
603.415	361.88
603.623	350.88
603.832	358.88
604.041	337.88
604.249	328.88
604.458	305.88
604.666	315.88
604.875	303.88
605.084	334.88
605.292	350.88
605.501	343.88
605.709	369.88
605.918	369.88
606.126	350.88
606.334	369.88
606.543	371.88
606.751	379.88
606.96	358.88
607.168	371.88
607.376	381.88
607.585	367.88
607.793	358.88
608.001	366.88
608.21	360.88
608.418	363.88
608.626	363.88
608.834	356.88
609.043	374.88
609.251	369.88
609.459	356.88
609.667	386.88
609.875	383.88
610.083	383.88
610.291	384.88
610.499	376.88
610.707	378.88
610.916	370.88
611.124	372.88
611.332	376.88
611.54	382.88
611.748	357.88
611.955	364.88
612.163	367.88
612.371	377.88
612.579	377.88
612.787	367.88
612.995	369.88
613.203	373.88
613.411	355.88
613.618	363.88
613.826	353.88
614.034	358.88
614.242	361.88
614.449	382.88
614.657	358.88
614.865	367.88
615.072	373.88
615.28	378.88
615.488	369.88
615.695	361.88
615.903	361.88
616.111	358.88
616.318	375.88
616.526	364.88
616.733	379.88
616.941	344.88
617.148	359.88
617.356	341.88
617.563	351.88
617.771	344.88
617.978	337.88
618.185	352.88
618.393	346.88
618.6	355.88
618.807	364.88
619.015	348.88
619.222	340.88
619.429	324.88
619.637	326.88
619.844	296.88
620.051	328.88
620.258	332.88
620.466	330.88
620.673	319.88
620.88	298.88
621.087	308.88
621.294	302.88
621.501	304.88
621.708	321.88
621.915	297.88
622.122	312.88
622.329	324.88
622.536	343.88
622.743	329.88
622.95	322.88
623.157	322.88
623.364	344.88
623.571	337.88
623.778	318.88
623.985	324.88
624.192	323.88
624.399	318.88
624.606	325.88
624.812	318.88
625.019	301.88
625.226	310.88
625.433	303.88
625.639	299.88
625.846	275.88
626.053	249.88
626.259	269.88
626.466	233.88
626.673	261.88
626.879	230.88
627.086	266.88
627.293	257.88
627.499	286.88
627.706	299.88
627.912	301.88
628.119	299.88
628.325	298.88
628.532	313.88
628.738	297.88
628.945	306.88
629.151	302.88
629.357	285.88
629.564	294.88
629.77	305.88
629.976	270.88
630.183	257.88
630.389	269.88
630.595	282.88
630.802	285.88
631.008	292.88
631.214	267.88
631.42	267.88
631.627	250.88
631.833	238.88
632.039	257.88
632.245	265.88
632.451	275.88
632.657	267.88
632.863	287.88
633.069	275.88
633.275	270.88
633.481	250.88
633.688	263.88
633.893	267.88
634.099	263.88
634.305	282.88
634.511	267.88
634.717	248.88
634.923	222.88
635.129	211.88
635.335	236.88
635.541	245.88
635.747	263.88
635.952	269.88
636.158	277.88
636.364	254.88
636.57	263.88
636.775	251.88
636.981	259.88
637.187	271.88
637.392	275.88
637.598	268.88
637.804	281.88
638.009	261.88
638.215	261.88
638.421	249.88
638.626	255.88
638.832	257.88
639.037	260.88
639.243	246.88
639.448	262.88
639.654	247.88
639.859	245.88
640.065	243.88
640.27	258.88
640.475	249.88
640.681	237.88
640.886	239.88
641.091	261.88
641.297	275.88
641.502	246.88
641.707	253.88
641.913	250.88
642.118	246.88
642.323	247.88
642.528	257.88
642.733	231.88
642.939	255.88
643.144	245.88
643.349	245.88
643.554	230.88
643.759	250.88
643.964	247.88
644.169	228.88
644.374	245.88
644.579	238.88
644.784	247.88
644.989	255.88
645.194	226.88
645.399	239.88
645.604	230.88
645.809	247.88
646.014	266.88
646.219	234.88
646.423	242.88
646.628	253.88
646.833	241.88
647.038	263.88
647.243	238.88
647.447	249.88
647.652	249.88
647.857	251.88
648.062	258.88
648.266	247.88
648.471	238.88
648.676	253.88
648.88	251.88
649.085	244.88
649.289	229.88
649.494	234.88
649.698	220.88
649.903	226.88
650.107	238.88
650.312	250.88
650.516	243.88
650.721	215.88
650.925	232.88
651.13	241.88
651.334	234.88
651.539	230.88
651.743	216.88
651.947	235.88
652.152	219.88
652.356	201.88
652.56	221.88
652.764	222.88
652.969	218.88
653.173	200.88
653.377	209.88
653.581	209.88
653.785	207.88
653.99	217.88
654.194	216.88
654.398	216.88
654.602	207.88
654.806	196.88
655.01	200.88
655.214	200.88
655.418	218.88
655.622	206.88
655.826	204.88
656.03	221.88
656.234	215.88
656.438	240.88
656.642	219.88
656.846	221.88
657.049	206.88
657.253	191.88
657.457	183.88
657.661	198.88
657.865	164.88
658.068	159.88
658.272	159.88
658.476	141.88
658.68	170.88
658.883	173.88
659.087	148.88
659.291	140.88
659.494	135.88
659.698	133.88
659.901	136.88
660.105	136.88
660.309	120.88
660.512	127.88
660.716	121.88
660.919	111.88
661.123	111.88
661.326	138.88
661.53	125.88
661.733	121.88
661.936	105.88
662.14	94.88
662.343	102.88
662.546	107.88
662.75	105.88
662.953	99.88
663.156	82.88
663.36	93.88
663.563	85.88
663.766	87.88
663.969	81.88
664.173	93.88
664.376	89.88
664.579	89.88
664.782	91.88
664.985	100.88
665.188	99.88
665.391	80.88
665.594	102.88
665.797	95.88
666	85.88
666.203	80.88
666.406	89.88
666.609	81.88
666.812	89.88
667.015	80.88
667.218	87.88
667.421	85.88
667.624	95.88
667.827	111.88
668.03	92.88
668.232	81.88
668.435	76.88
668.638	88.88
668.841	87.88
669.043	76.88
669.246	77.88
669.449	74.88
669.651	86.88
669.854	99.88
670.057	74.88
670.259	76.88
670.462	93.88
670.665	90.88
670.867	91.88
671.07	88.88
671.272	84.88
671.475	83.88
671.677	85.88
671.88	83.88
672.082	76.88
672.284	89.88
672.487	101.88
672.689	78.88
672.892	92.88
