Data from WStandard_LampEnergy5.5LIBS07252019.E.O._I.C._HRD10591_16-08-46-920.txt Node
Date: Thu Jul 25 16:08:46 EDT 2019
User: cochatt
Spectrometer: HR+D1059
Trigger mode: 1
Integration Time (sec): 1.000000E-1
Scans to average: 1
Electric dark correction enabled: true
Nonlinearity correction enabled: false
Boxcar width: 0
XAxis mode: Wavelengths
Number of Pixels in Spectrum: 2048
>>>>>Begin Spectral Data<<<<<
223.165	-13.69
223.4	-13.69
223.635	-13.69
223.869	-17.69
224.104	-9.69
224.338	-12.69
224.573	-10.69
224.808	-10.69
225.042	-19.69
225.277	-0.69
225.511	-2.69
225.746	3.31
225.98	-3.69
226.215	9.31
226.449	13.31
226.683	26.31
226.918	22.31
227.152	27.31
227.387	26.31
227.621	35.31
227.856	41.31
228.09	50.31
228.324	50.31
228.559	59.31
228.793	141.31
229.027	366.31
229.262	373.31
229.496	364.31
229.73	389.31
229.964	409.31
230.199	421.31
230.433	454.31
230.667	493.31
230.901	536.31
231.136	466.31
231.37	448.31
231.604	438.31
231.838	458.31
232.072	449.31
232.306	415.31
232.541	464.31
232.775	541.31
233.009	587.31
233.243	576.31
233.477	519.31
233.711	532.31
233.945	530.31
234.179	524.31
234.413	556.31
234.647	625.31
234.881	570.31
235.115	530.31
235.349	523.31
235.583	550.31
235.817	540.31
236.051	516.31
236.285	544.31
236.519	581.31
236.753	644.31
236.987	651.31
237.221	626.31
237.455	753.31
237.689	686.31
237.922	640.31
238.156	646.31
238.39	647.31
238.624	705.31
238.858	743.31
239.091	749.31
239.325	768.31
239.559	878.31
239.793	933.31
240.027	1024.31
240.26	1018.31
240.494	741.31
240.728	700.31
240.961	704.31
241.195	708.31
241.429	809.31
241.662	802.31
241.896	741.31
242.13	745.31
242.363	817.31
242.597	890.31
242.83	856.31
243.064	888.31
243.298	921.31
243.531	921.31
243.765	879.31
243.998	891.31
244.232	786.31
244.465	755.31
244.699	776.31
244.932	879.31
245.166	999.31
245.399	949.31
245.633	890.31
245.866	857.31
246.099	921.31
246.333	942.31
246.566	944.31
246.8	1016.31
247.033	1127.31
247.266	1050.31
247.5	1043.31
247.733	1036.31
247.966	1076.31
248.2	1175.31
248.433	1163.31
248.666	1207.31
248.899	1262.31
249.133	1467.31
249.366	1688.31
249.599	1399.31
249.832	1203.31
250.066	1219.31
250.299	1269.31
250.532	1155.31
250.765	1074.31
250.998	1107.31
251.231	1174.31
251.465	1208.31
251.698	1139.31
251.931	1140.31
252.164	1161.31
252.397	1223.31
252.63	1208.31
252.863	1093.31
253.096	1065.31
253.329	1127.31
253.562	1141.31
253.795	1236.31
254.028	1224.31
254.261	1135.31
254.494	1128.31
254.727	1076.31
254.96	1114.31
255.193	1222.31
255.426	1392.31
255.659	1570.31
255.892	1659.31
256.124	1344.31
256.357	1273.31
256.59	1376.31
256.823	1377.31
257.056	1364.31
257.289	1653.31
257.521	1841.31
257.754	1686.31
257.987	1554.31
258.22	1733.31
258.452	1686.31
258.685	1370.31
258.918	1313.31
259.151	1344.31
259.383	1256.31
259.616	1109.31
259.849	1199.31
260.081	1344.31
260.314	1527.31
260.547	1657.31
260.779	1683.31
261.012	1553.31
261.244	1404.31
261.477	1310.31
261.71	1394.31
261.942	1375.31
262.175	1326.31
262.407	1422.31
262.64	1344.31
262.872	1268.31
263.105	1222.31
263.337	1261.31
263.57	1262.31
263.802	1265.31
264.035	1200.31
264.267	1136.31
264.499	1094.31
264.732	1221.31
264.964	1252.31
265.197	1300.31
265.429	1340.31
265.661	1524.31
265.894	1665.31
266.126	1767.31
266.358	1569.31
266.591	1583.31
266.823	1755.31
267.055	1602.31
267.287	1538.31
267.52	1545.31
267.752	1523.31
267.984	1482.31
268.216	1546.31
268.448	1595.31
268.681	1586.31
268.913	1452.31
269.145	1377.31
269.377	1342.31
269.609	1456.31
269.841	1674.31
270.073	1982.31
270.306	2173.31
270.538	2398.31
270.77	2012.31
271.002	1688.31
271.234	1620.31
271.466	1588.31
271.698	1785.31
271.93	2165.31
272.162	2134.31
272.394	1920.31
272.626	1863.31
272.858	1644.31
273.09	1431.31
273.322	1395.31
273.553	1340.31
273.785	1369.31
274.017	1400.31
274.249	1508.31
274.481	1538.31
274.713	1369.31
274.945	1375.31
275.176	1377.31
275.408	1358.31
275.64	1340.31
275.872	1350.31
276.104	1368.31
276.335	1575.31
276.567	1803.31
276.799	1867.31
277.031	1648.31
277.262	1582.31
277.494	1596.31
277.726	1785.31
277.957	1818.31
278.189	1635.31
278.421	1508.31
278.652	1481.31
278.884	1426.31
279.115	1460.31
279.347	1496.31
279.579	1407.31
279.81	1412.31
280.042	1565.31
280.273	1737.31
280.505	1732.31
280.736	1766.31
280.968	1675.31
281.199	1473.31
281.431	1399.31
281.662	1462.31
281.894	1364.31
282.125	1449.31
282.356	1515.31
282.588	1489.31
282.819	1472.31
283.051	1618.31
283.282	1740.31
283.513	1706.31
283.745	1460.31
283.976	1388.31
284.207	1392.31
284.439	1443.31
284.67	1466.31
284.901	1494.31
285.132	1509.31
285.364	1471.31
285.595	1521.31
285.826	1470.31
286.057	1461.31
286.288	1432.31
286.52	1508.31
286.751	1639.31
286.982	1677.31
287.213	1569.31
287.444	1441.31
287.675	1416.31
287.906	1484.31
288.138	1623.31
288.369	1554.31
288.6	1483.31
288.831	1464.31
289.062	1449.31
289.293	1470.31
289.524	1515.31
289.755	1522.31
289.986	1543.31
290.217	1411.31
290.448	1439.31
290.679	1446.31
290.91	1512.31
291.141	1530.31
291.371	1608.31
291.602	1557.31
291.833	1552.31
292.064	1588.31
292.295	1602.31
292.526	1582.31
292.757	1706.31
292.987	1565.31
293.218	1526.31
293.449	1664.31
293.68	1865.31
293.91	1979.31
294.141	1880.31
294.372	1722.31
294.603	1769.31
294.833	1914.31
295.064	1763.31
295.295	1584.31
295.525	1578.31
295.756	1454.31
295.987	1361.31
296.217	1400.31
296.448	1458.31
296.679	1474.31
296.909	1453.31
297.14	1434.31
297.37	1446.31
297.601	1547.31
297.831	1686.31
298.062	1703.31
298.292	1546.31
298.523	1495.31
298.753	1485.31
298.984	1518.31
299.214	1500.31
299.445	1516.31
299.675	1618.31
299.905	1591.31
300.136	1545.31
300.366	1521.31
300.597	1472.31
300.827	1440.31
301.057	1526.31
301.288	1600.31
301.518	1592.31
301.748	1638.31
301.979	1710.31
302.209	1700.31
302.439	1844.31
302.669	1902.31
302.9	1796.31
303.13	1623.31
303.36	1575.31
303.59	1663.31
303.82	1631.31
304.051	1604.31
304.281	1615.31
304.511	1610.31
304.741	1707.31
304.971	1815.31
305.201	1997.31
305.431	1919.31
305.661	1563.31
305.891	1410.31
306.121	1412.31
306.352	1465.31
306.582	1541.31
306.812	1654.31
307.042	1765.31
307.272	1752.31
307.502	1788.31
307.731	1945.31
307.961	2108.31
308.191	1953.31
308.421	1692.31
308.651	1571.31
308.881	1538.31
309.111	1532.31
309.341	1511.31
309.571	1507.31
309.8	1543.31
310.03	1542.31
310.26	1517.31
310.49	1510.31
310.72	1539.31
310.949	1652.31
311.179	1650.31
311.409	1616.31
311.639	1587.31
311.868	1539.31
312.098	1571.31
312.328	1557.31
312.557	1529.31
312.787	1583.31
313.017	1584.31
313.246	1609.31
313.476	1603.31
313.706	1666.31
313.935	1610.31
314.165	1652.31
314.394	1705.31
314.624	1761.31
314.853	1886.31
315.083	1942.31
315.312	2023.31
315.542	1917.31
315.771	1697.31
316.001	1658.31
316.23	1748.31
316.46	1710.31
316.689	1678.31
316.919	1598.31
317.148	1635.31
317.377	1621.31
317.607	1737.31
317.836	1919.31
318.065	1985.31
318.295	1972.31
318.524	1885.31
318.753	1725.31
318.983	1750.31
319.212	1697.31
319.441	1697.31
319.67	1678.31
319.9	1667.31
320.129	1792.31
320.358	1798.31
320.587	1900.31
320.816	1891.31
321.046	1859.31
321.275	1726.31
321.504	1752.31
321.733	1944.31
321.962	1859.31
322.191	1710.31
322.42	1667.31
322.649	1635.31
322.878	1660.31
323.108	1701.31
323.337	1748.31
323.566	1772.31
323.795	1741.31
324.024	1699.31
324.253	1682.31
324.482	1710.31
324.71	1645.31
324.939	1588.31
325.168	1633.31
325.397	1683.31
325.626	1725.31
325.855	1752.31
326.084	1705.31
326.313	1685.31
326.542	1722.31
326.77	1730.31
326.999	1838.31
327.228	1717.31
327.457	1597.31
327.686	1590.31
327.914	1658.31
328.143	1696.31
328.372	1692.31
328.6	1695.31
328.829	1644.31
329.058	1673.31
329.287	1642.31
329.515	1674.31
329.744	1734.31
329.972	1833.31
330.201	1878.31
330.43	1842.31
330.658	1779.31
330.887	1774.31
331.115	1824.31
331.344	1825.31
331.572	1773.31
331.801	1734.31
332.03	1751.31
332.258	1799.31
332.486	1819.31
332.715	1831.31
332.943	1831.31
333.172	1802.31
333.4	1808.31
333.629	1876.31
333.857	1947.31
334.085	2140.31
334.314	2393.31
334.542	2647.31
334.771	2422.31
334.999	2108.31
335.227	2000.31
335.455	1967.31
335.684	1896.31
335.912	1958.31
336.14	2032.31
336.369	1925.31
336.597	1823.31
336.825	1802.31
337.053	1864.31
337.281	1943.31
337.51	2041.31
337.738	2143.31
337.966	2068.31
338.194	1845.31
338.422	1776.31
338.65	1795.31
338.878	1756.31
339.106	1752.31
339.334	1688.31
339.562	1682.31
339.79	1704.31
340.018	1829.31
340.246	1958.31
340.474	1900.31
340.702	1812.31
340.93	1836.31
341.158	1833.31
341.386	1800.31
341.614	1752.31
341.842	1754.31
342.07	1736.31
342.298	1763.31
342.526	1765.31
342.754	1801.31
342.981	1758.31
343.209	1746.31
343.437	1706.31
343.665	1772.31
343.893	1786.31
344.12	1863.31
344.348	1920.31
344.576	1833.31
344.804	1743.31
345.031	1746.31
345.259	1744.31
345.487	1686.31
345.714	1633.31
345.942	1609.31
346.17	1623.31
346.397	1660.31
346.625	1708.31
346.853	1613.31
347.08	1589.31
347.308	1605.31
347.535	1609.31
347.763	1703.31
347.99	1663.31
348.218	1587.31
348.445	1594.31
348.673	1640.31
348.9	1696.31
349.128	1746.31
349.355	1796.31
349.583	1786.31
349.81	1675.31
350.037	1538.31
350.265	1540.31
350.492	1548.31
350.72	1581.31
350.947	1614.31
351.174	1676.31
351.402	1624.31
351.629	1568.31
351.856	1536.31
352.083	1545.31
352.311	1547.31
352.538	1552.31
352.765	1620.31
352.992	1689.31
353.22	1668.31
353.447	1594.31
353.674	1613.31
353.901	1653.31
354.128	1560.31
354.355	1545.31
354.583	1654.31
354.81	1667.31
355.037	1670.31
355.264	1709.31
355.491	1608.31
355.718	1664.31
355.945	1609.31
356.172	1596.31
356.399	1602.31
356.626	1596.31
356.853	1614.31
357.08	1739.31
357.307	1895.31
357.534	1958.31
357.761	1712.31
357.988	1601.31
358.215	1562.31
358.441	1542.31
358.668	1565.31
358.895	1534.31
359.122	1634.31
359.349	1800.31
359.576	1788.31
359.802	1628.31
360.029	1590.31
360.256	1570.31
360.483	1598.31
360.709	1618.31
360.936	1656.31
361.163	1716.31
361.39	1867.31
361.616	2017.31
361.843	2004.31
362.07	1894.31
362.296	1653.31
362.523	1614.31
362.749	1598.31
362.976	1672.31
363.203	1666.31
363.429	1591.31
363.656	1538.31
363.882	1609.31
364.109	1762.31
364.335	1945.31
364.562	1819.31
364.788	1724.31
365.015	1651.31
365.241	1573.31
365.468	1638.31
365.694	1679.31
365.92	1758.31
366.147	1680.31
366.373	1577.31
366.599	1553.31
366.826	1572.31
367.052	1589.31
367.278	1636.31
367.505	1604.31
367.731	1626.31
367.957	1638.31
368.184	1735.31
368.41	1806.31
368.636	1778.31
368.862	1822.31
369.089	1854.31
369.315	1737.31
369.541	1708.31
369.767	1652.31
369.993	1610.31
370.219	1622.31
370.445	1655.31
370.672	1726.31
370.898	1774.31
371.124	1802.31
371.35	1715.31
371.576	1762.31
371.802	1813.31
372.028	1758.31
372.254	1654.31
372.48	1620.31
372.706	1632.31
372.932	1605.31
373.158	1655.31
373.384	1682.31
373.61	1729.31
373.835	1828.31
374.061	1740.31
374.287	1672.31
374.513	1705.31
374.739	1657.31
374.965	1698.31
375.191	1727.31
375.416	1755.31
375.642	1767.31
375.868	1809.31
376.094	1922.31
376.319	1835.31
376.545	1699.31
376.771	1756.31
376.997	1834.31
377.222	1840.31
377.448	1734.31
377.674	1776.31
377.899	1782.31
378.125	1880.31
378.35	1863.31
378.576	1648.31
378.802	1630.31
379.027	1627.31
379.253	1656.31
379.478	1668.31
379.704	1687.31
379.929	1648.31
380.155	1686.31
380.38	1706.31
380.606	1707.31
380.831	1697.31
381.057	1770.31
381.282	1826.31
381.507	1791.31
381.733	1845.31
381.958	1944.31
382.184	1795.31
382.409	1767.31
382.634	1811.31
382.86	1797.31
383.085	1799.31
383.31	1827.31
383.535	1980.31
383.761	2046.31
383.986	1965.31
384.211	1940.31
384.436	1856.31
384.662	1937.31
384.887	2038.31
385.112	1969.31
385.337	1932.31
385.562	1873.31
385.787	1925.31
386.013	2017.31
386.238	2003.31
386.463	1990.31
386.688	2105.31
386.913	2215.31
387.138	2184.31
387.363	2062.31
387.588	1980.31
387.813	1988.31
388.038	1985.31
388.263	2045.31
388.488	1976.31
388.713	1906.31
388.938	1852.31
389.163	1902.31
389.387	1895.31
389.612	1910.31
389.837	1944.31
390.062	1964.31
390.287	1928.31
390.512	1956.31
390.736	1898.31
390.961	1873.31
391.186	1830.31
391.411	1842.31
391.636	1942.31
391.86	1941.31
392.085	2016.31
392.31	1943.31
392.534	1920.31
392.759	1989.31
392.984	1946.31
393.208	1961.31
393.433	2006.31
393.658	2069.31
393.882	2095.31
394.107	1958.31
394.331	1943.31
394.556	1920.31
394.78	1939.31
395.005	1998.31
395.229	2046.31
395.454	2247.31
395.678	2213.31
395.903	2140.31
396.127	2062.31
396.352	2070.31
396.576	2162.31
396.801	2142.31
397.025	2144.31
397.249	2139.31
397.474	2131.31
397.698	2110.31
397.922	2156.31
398.147	2212.31
398.371	2290.31
398.595	2325.31
398.82	2229.31
399.044	2241.31
399.268	2330.31
399.492	2532.31
399.717	2624.31
399.941	2671.31
400.165	2519.31
400.389	2500.31
400.613	2450.31
400.837	2654.31
401.062	3126.31
401.286	2716.31
401.51	2432.31
401.734	2522.31
401.958	2453.31
402.182	2322.31
402.406	2199.31
402.63	2190.31
402.854	2229.31
403.078	2271.31
403.302	2304.31
403.526	2295.31
403.75	2297.31
403.974	2272.31
404.198	2264.31
404.422	2387.31
404.645	2526.31
404.869	2468.31
405.093	2290.31
405.317	2237.31
405.541	2318.31
405.765	2326.31
405.988	2295.31
406.212	2312.31
406.436	2439.31
406.66	2471.31
406.883	2519.31
407.107	2721.31
407.331	2977.31
407.555	3265.31
407.778	3033.31
408.002	2494.31
408.226	2419.31
408.449	2438.31
408.673	2352.31
408.896	2358.31
409.12	2452.31
409.344	2382.31
409.567	2270.31
409.791	2371.31
410.014	2394.31
410.238	2525.31
410.461	2604.31
410.685	2414.31
410.908	2301.31
411.132	2311.31
411.355	2293.31
411.578	2255.31
411.802	2278.31
412.025	2327.31
412.249	2280.31
412.472	2172.31
412.695	2170.31
412.919	2190.31
413.142	2177.31
413.365	2210.31
413.589	2259.31
413.812	2350.31
414.035	2446.31
414.258	2257.31
414.482	2198.31
414.705	2239.31
414.928	2182.31
415.151	2184.31
415.374	2229.31
415.597	2239.31
415.821	2248.31
416.044	2355.31
416.267	2369.31
416.49	2112.31
416.713	2128.31
416.936	2140.31
417.159	2285.31
417.382	2302.31
417.605	2149.31
417.828	2247.31
418.051	2244.31
418.274	2209.31
418.497	2127.31
418.72	2100.31
418.943	2117.31
419.166	2279.31
419.389	2388.31
419.611	2240.31
419.834	2176.31
420.057	2244.31
420.28	2128.31
420.503	2157.31
420.726	2194.31
420.948	2166.31
421.171	2135.31
421.394	2137.31
421.617	2165.31
421.839	2164.31
422.062	2124.31
422.285	2084.31
422.507	2094.31
422.73	2056.31
422.953	2027.31
423.175	2025.31
423.398	2105.31
423.621	2140.31
423.843	2158.31
424.066	2160.31
424.288	2209.31
424.511	2275.31
424.733	2227.31
424.956	2007.31
425.178	2055.31
425.401	2055.31
425.623	2071.31
425.846	2077.31
426.068	2156.31
426.291	2222.31
426.513	2162.31
426.735	2174.31
426.958	2264.31
427.18	2443.31
427.402	2220.31
427.625	2306.31
427.847	2324.31
428.069	2227.31
428.292	2076.31
428.514	2031.31
428.736	2047.31
428.958	2032.31
429.181	2089.31
429.403	2294.31
429.625	2893.31
429.847	2522.31
430.069	2109.31
430.292	2312.31
430.514	2432.31
430.736	2258.31
430.958	2358.31
431.18	2232.31
431.402	2051.31
431.624	2046.31
431.846	2048.31
432.068	2015.31
432.29	2073.31
432.512	2074.31
432.734	2123.31
432.956	2154.31
433.178	2202.31
433.4	2210.31
433.622	2183.31
433.844	2141.31
434.066	2032.31
434.287	2062.31
434.509	2136.31
434.731	2163.31
434.953	2382.31
435.175	2274.31
435.397	2123.31
435.618	2192.31
435.84	2180.31
436.062	2141.31
436.284	2132.31
436.505	2183.31
436.727	2189.31
436.949	2150.31
437.17	2033.31
437.392	2030.31
437.614	2092.31
437.835	2002.31
438.057	2129.31
438.278	2266.31
438.5	2080.31
438.721	2033.31
438.943	2065.31
439.165	2069.31
439.386	1973.31
439.608	2031.31
439.829	2033.31
440.05	2069.31
440.272	2010.31
440.493	1983.31
440.715	2051.31
440.936	2115.31
441.158	2426.31
441.379	2305.31
441.6	2248.31
441.822	2242.31
442.043	2190.31
442.264	2184.31
442.486	2090.31
442.707	2045.31
442.928	2018.31
443.149	2121.31
443.371	2211.31
443.592	2283.31
443.813	2263.31
444.034	2290.31
444.255	2255.31
444.476	2262.31
444.698	2314.31
444.919	2318.31
445.14	2440.31
445.361	2405.31
445.582	2504.31
445.803	2352.31
446.024	2264.31
446.245	2353.31
446.466	2254.31
446.687	2124.31
446.908	2130.31
447.129	2031.31
447.35	2112.31
447.571	2095.31
447.792	2024.31
448.013	1995.31
448.234	2054.31
448.455	2142.31
448.675	2140.31
448.896	1987.31
449.117	1936.31
449.338	1998.31
449.559	2083.31
449.779	2219.31
450	2382.31
450.221	2565.31
450.442	2510.31
450.662	2244.31
450.883	1939.31
451.104	1888.31
451.324	1958.31
451.545	2018.31
451.766	1983.31
451.986	1913.31
452.207	1874.31
452.428	1839.31
452.648	1803.31
452.869	1905.31
453.089	2004.31
453.31	1987.31
453.53	2073.31
453.751	2001.31
453.971	1855.31
454.192	1906.31
454.412	2019.31
454.633	1972.31
454.853	1862.31
455.073	1769.31
455.294	1750.31
455.514	1803.31
455.734	1790.31
455.955	1871.31
456.175	1825.31
456.395	1827.31
456.616	1912.31
456.836	1949.31
457.056	1885.31
457.276	1878.31
457.497	1844.31
457.717	1761.31
457.937	1836.31
458.157	1880.31
458.377	1849.31
458.598	1837.31
458.818	1808.31
459.038	1966.31
459.258	2076.31
459.478	2079.31
459.698	2000.31
459.918	2023.31
460.138	2186.31
460.358	2177.31
460.578	2211.31
460.798	2272.31
461.018	2440.31
461.238	2291.31
461.458	2210.31
461.678	2174.31
461.898	2150.31
462.118	2111.31
462.338	2172.31
462.558	2220.31
462.777	2210.31
462.997	2302.31
463.217	2472.31
463.437	2403.31
463.657	2260.31
463.876	2215.31
464.096	2184.31
464.316	2228.31
464.536	2338.31
464.755	2295.31
464.975	2327.31
465.195	2223.31
465.414	2327.31
465.634	2346.31
465.854	2140.31
466.073	2298.31
466.293	2264.31
466.512	2021.31
466.732	1982.31
466.951	2117.31
467.171	2115.31
467.391	1990.31
467.61	1959.31
467.829	1968.31
468.049	2132.31
468.268	2366.31
468.488	2232.31
468.707	2131.31
468.927	2070.31
469.146	2053.31
469.365	1983.31
469.585	1978.31
469.804	1980.31
470.023	1999.31
470.243	2026.31
470.462	2022.31
470.681	1959.31
470.901	1953.31
471.12	2002.31
471.339	2016.31
471.558	1933.31
471.777	1903.31
471.997	1959.31
472.216	1969.31
472.435	1876.31
472.654	1966.31
472.873	2028.31
473.092	2158.31
473.311	2036.31
473.53	1919.31
473.749	1867.31
473.968	1988.31
474.187	2096.31
474.406	2184.31
474.625	2095.31
474.844	1998.31
475.063	2025.31
475.282	2082.31
475.501	2020.31
475.72	2027.31
475.939	2190.31
476.158	2050.31
476.377	2016.31
476.596	2066.31
476.814	2116.31
477.033	2100.31
477.252	2215.31
477.471	2262.31
477.69	2137.31
477.908	2163.31
478.127	2266.31
478.346	2441.31
478.564	2439.31
478.783	2370.31
479.002	2478.31
479.22	2393.31
479.439	2497.31
479.658	2831.31
479.876	2821.31
480.095	2438.31
480.313	2356.31
480.532	2217.31
480.751	2264.31
480.969	2345.31
481.188	2262.31
481.406	2284.31
481.624	2172.31
481.843	2221.31
482.061	2256.31
482.28	2360.31
482.498	2376.31
482.717	2319.31
482.935	2243.31
483.153	2244.31
483.372	2238.31
483.59	2211.31
483.808	2240.31
484.027	2263.31
484.245	2446.31
484.463	2806.31
484.681	3111.31
484.9	2428.31
485.118	2317.31
485.336	2284.31
485.554	2351.31
485.772	2429.31
485.99	2448.31
486.209	2433.31
486.427	2390.31
486.645	2382.31
486.863	2324.31
487.081	2412.31
487.299	2504.31
487.517	2457.31
487.735	2344.31
487.953	2324.31
488.171	2304.31
488.389	2291.31
488.607	2372.31
488.825	2528.31
489.043	2652.31
489.261	2381.31
489.479	2492.31
489.696	2498.31
489.914	2468.31
490.132	2445.31
490.35	2325.31
490.568	2465.31
490.786	2407.31
491.003	2300.31
491.221	2344.31
491.439	2454.31
491.657	2429.31
491.874	2410.31
492.092	2460.31
492.31	2461.31
492.527	2416.31
492.745	2378.31
492.963	2375.31
493.18	2497.31
493.398	2616.31
493.615	2717.31
493.833	2495.31
494.05	2408.31
494.268	2423.31
494.485	2518.31
494.703	2451.31
494.92	2406.31
495.138	2380.31
495.355	2474.31
495.573	2558.31
495.79	2701.31
496.008	2734.31
496.225	2566.31
496.442	2601.31
496.66	2630.31
496.877	2552.31
497.094	2692.31
497.312	2687.31
497.529	2645.31
497.746	2728.31
497.963	3139.31
498.181	3591.31
498.398	3288.31
498.615	3173.31
498.832	3177.31
499.049	3110.31
499.267	3150.31
499.484	3338.31
499.701	3567.31
499.918	3581.31
500.135	3900.31
500.352	4188.31
500.569	4092.31
500.786	4342.31
501.003	4081.31
501.22	3704.31
501.437	3630.31
501.654	3610.31
501.871	3513.31
502.088	3104.31
502.305	3100.31
502.522	3027.31
502.739	2781.31
502.956	2753.31
503.172	2697.31
503.389	2623.31
503.606	2608.31
503.823	2580.31
504.04	2609.31
504.256	2630.31
504.473	2588.31
504.69	2714.31
504.907	2602.31
505.123	2403.31
505.34	2523.31
505.557	3272.31
505.773	2813.31
505.99	2336.31
506.207	2213.31
506.423	2204.31
506.64	2168.31
506.856	2231.31
507.073	2508.31
507.289	2679.31
507.506	2547.31
507.722	2198.31
507.939	2116.31
508.155	2112.31
508.372	2167.31
508.588	2102.31
508.805	2062.31
509.021	2000.31
509.238	2029.31
509.454	1986.31
509.67	2016.31
509.887	2004.31
510.103	2000.31
510.319	2020.31
510.536	2072.31
510.752	2152.31
510.968	2157.31
511.184	2292.31
511.401	2339.31
511.617	2002.31
511.833	1914.31
512.049	1939.31
512.265	1964.31
512.481	1945.31
512.698	1993.31
512.914	2150.31
513.13	2084.31
513.346	1930.31
513.562	1934.31
513.778	1933.31
513.994	2066.31
514.21	2108.31
514.426	2178.31
514.642	2400.31
514.858	2240.31
515.074	2010.31
515.29	1951.31
515.506	2021.31
515.721	2099.31
515.937	2074.31
516.153	2383.31
516.369	2324.31
516.585	2153.31
516.801	2040.31
517.016	2007.31
517.232	2104.31
517.448	2199.31
517.664	2144.31
517.879	2167.31
518.095	2273.31
518.311	2184.31
518.527	2031.31
518.742	2074.31
518.958	1988.31
519.173	1999.31
519.389	1994.31
519.605	1984.31
519.82	2028.31
520.036	2079.31
520.251	1977.31
520.467	1993.31
520.682	2130.31
520.898	2213.31
521.113	1969.31
521.329	1968.31
521.544	2111.31
521.76	2011.31
521.975	1914.31
522.19	1858.31
522.406	1831.31
522.621	2202.31
522.836	2236.31
523.052	1851.31
523.267	1873.31
523.482	1882.31
523.698	1808.31
523.913	1749.31
524.128	1824.31
524.343	1928.31
524.559	1931.31
524.774	1818.31
524.989	1825.31
525.204	1779.31
525.419	1752.31
525.634	1747.31
525.849	1758.31
526.064	1787.31
526.28	1800.31
526.495	1734.31
526.71	1689.31
526.925	1745.31
527.14	1744.31
527.355	1664.31
527.57	1688.31
527.785	1748.31
527.999	1720.31
528.214	1680.31
528.429	1636.31
528.644	1678.31
528.859	1725.31
529.074	1675.31
529.289	1705.31
529.503	1768.31
529.718	1760.31
529.933	1703.31
530.148	1646.31
530.363	1649.31
530.577	1669.31
530.792	1752.31
531.007	1723.31
531.221	1722.31
531.436	1749.31
531.651	1783.31
531.865	1873.31
532.08	1739.31
532.295	1661.31
532.509	1622.31
532.724	1688.31
532.938	1722.31
533.153	1788.31
533.367	1770.31
533.582	1721.31
533.796	1660.31
534.011	1674.31
534.225	1720.31
534.44	1707.31
534.654	1644.31
534.868	1638.31
535.083	1714.31
535.297	1714.31
535.511	1678.31
535.726	1692.31
535.94	1690.31
536.154	1658.31
536.369	1622.31
536.583	1658.31
536.797	1631.31
537.011	1680.31
537.225	1625.31
537.44	1552.31
537.654	1657.31
537.868	1614.31
538.082	1538.31
538.296	1545.31
538.51	1530.31
538.724	1540.31
538.938	1524.31
539.153	1572.31
539.367	1602.31
539.581	1568.31
539.795	1710.31
540.009	1632.31
540.222	1607.31
540.436	1624.31
540.65	1756.31
540.864	1829.31
541.078	1678.31
541.292	1557.31
541.506	1552.31
541.72	1586.31
541.934	1586.31
542.147	1631.31
542.361	1589.31
542.575	1561.31
542.789	1580.31
543.002	1510.31
543.216	1524.31
543.43	1615.31
543.644	1652.31
543.857	1722.31
544.071	1631.31
544.285	1585.31
544.498	1546.31
544.712	1566.31
544.925	1598.31
545.139	1625.31
545.352	1581.31
545.566	1514.31
545.779	1469.31
545.993	1512.31
546.206	1538.31
546.42	1502.31
546.633	1464.31
546.847	1455.31
547.06	1485.31
547.274	1476.31
547.487	1475.31
547.7	1461.31
547.914	1504.31
548.127	1521.31
548.34	1550.31
548.554	1562.31
548.767	1507.31
548.98	1520.31
549.193	1492.31
549.407	1555.31
549.62	1575.31
549.833	1520.31
550.046	1491.31
550.259	1528.31
550.473	1445.31
550.686	1480.31
550.899	1452.31
551.112	1454.31
551.325	1377.31
551.538	1504.31
551.751	1736.31
551.964	1448.31
552.177	1407.31
552.39	1414.31
552.603	1480.31
552.816	1472.31
553.029	1540.31
553.242	1626.31
553.455	1489.31
553.667	1456.31
553.88	1498.31
554.093	1471.31
554.306	1441.31
554.519	1392.31
554.732	1370.31
554.944	1406.31
555.157	1444.31
555.37	1367.31
555.583	1385.31
555.795	1336.31
556.008	1354.31
556.221	1296.31
556.433	1316.31
556.646	1291.31
556.859	1294.31
557.071	1304.31
557.284	1291.31
557.496	1247.31
557.709	1236.31
557.921	1225.31
558.134	1194.31
558.346	1223.31
558.559	1230.31
558.771	1224.31
558.984	1184.31
559.196	1171.31
559.409	1187.31
559.621	1182.31
559.833	1234.31
560.046	1265.31
560.258	1227.31
560.47	1223.31
560.683	1200.31
560.895	1177.31
561.107	1202.31
561.32	1214.31
561.532	1213.31
561.744	1209.31
561.956	1235.31
562.168	1217.31
562.381	1160.31
562.593	1212.31
562.805	1225.31
563.017	1173.31
563.229	1203.31
563.441	1201.31
563.653	1179.31
563.865	1184.31
564.077	1189.31
564.289	1180.31
564.501	1200.31
564.713	1223.31
564.925	1274.31
565.137	1368.31
565.349	1250.31
565.561	1254.31
565.773	1268.31
565.985	1276.31
566.197	1356.31
566.408	1452.31
566.62	1488.31
566.832	1439.31
567.044	1417.31
567.255	1449.31
567.467	1441.31
567.679	1505.31
567.891	1548.31
568.102	1487.31
568.314	1481.31
568.526	1383.31
568.737	1320.31
568.949	1276.31
569.161	1226.31
569.372	1208.31
569.584	1141.31
569.795	1155.31
570.007	1152.31
570.218	1118.31
570.43	1051.31
570.641	1070.31
570.853	1088.31
571.064	1063.31
571.276	1093.31
571.487	1055.31
571.698	1024.31
571.91	1030.31
572.121	1017.31
572.333	1018.31
572.544	1007.31
572.755	965.31
572.966	960.31
573.178	943.31
573.389	992.31
573.6	984.31
573.811	1052.31
574.023	969.31
574.234	950.31
574.445	912.31
574.656	920.31
574.867	906.31
575.078	952.31
575.289	935.31
575.501	873.31
575.712	896.31
575.923	911.31
576.134	937.31
576.345	888.31
576.556	874.31
576.767	862.31
576.978	832.31
577.188	856.31
577.399	856.31
577.61	861.31
577.821	839.31
578.032	835.31
578.243	835.31
578.454	850.31
578.665	831.31
578.875	806.31
579.086	800.31
579.297	803.31
579.508	867.31
579.718	845.31
579.929	827.31
580.14	830.31
580.35	804.31
580.561	814.31
580.772	901.31
580.982	856.31
581.193	801.31
581.403	784.31
581.614	778.31
581.825	745.31
582.035	781.31
582.246	806.31
582.456	803.31
582.667	800.31
582.877	785.31
583.087	752.31
583.298	760.31
583.508	749.31
583.719	774.31
583.929	774.31
584.139	753.31
584.35	748.31
584.56	761.31
584.77	792.31
584.981	782.31
585.191	768.31
585.401	770.31
585.611	739.31
585.821	745.31
586.032	740.31
586.242	722.31
586.452	748.31
586.662	723.31
586.872	732.31
587.082	700.31
587.292	734.31
587.502	784.31
587.713	750.31
587.923	748.31
588.133	739.31
588.343	770.31
588.553	737.31
588.762	737.31
588.972	733.31
589.182	758.31
589.392	756.31
589.602	739.31
589.812	743.31
590.022	700.31
590.232	684.31
590.441	704.31
590.651	734.31
590.861	719.31
591.071	708.31
591.281	721.31
591.49	680.31
591.7	730.31
591.91	706.31
592.119	708.31
592.329	725.31
592.539	753.31
592.748	745.31
592.958	737.31
593.167	771.31
593.377	788.31
593.587	762.31
593.796	758.31
594.006	760.31
594.215	769.31
594.424	750.31
594.634	768.31
594.843	762.31
595.053	756.31
595.262	713.31
595.472	712.31
595.681	729.31
595.89	709.31
596.1	692.31
596.309	723.31
596.518	659.31
596.727	702.31
596.937	661.31
597.146	652.31
597.355	630.31
597.564	658.31
597.774	622.31
597.983	614.31
598.192	633.31
598.401	625.31
598.61	633.31
598.819	598.31
599.028	648.31
599.237	619.31
599.446	585.31
599.655	592.31
599.864	593.31
600.073	607.31
600.282	589.31
600.491	589.31
600.7	593.31
600.909	580.31
601.118	592.31
601.327	583.31
601.536	593.31
601.745	602.31
601.953	570.31
602.162	576.31
602.371	591.31
602.58	586.31
602.789	599.31
602.997	585.31
603.206	593.31
603.415	545.31
603.623	601.31
603.832	585.31
604.041	594.31
604.249	563.31
604.458	560.31
604.666	562.31
604.875	561.31
605.084	566.31
605.292	564.31
605.501	565.31
605.709	549.31
605.918	567.31
606.126	523.31
606.334	521.31
606.543	546.31
606.751	556.31
606.96	562.31
607.168	529.31
607.376	530.31
607.585	537.31
607.793	544.31
608.001	507.31
608.21	550.31
608.418	546.31
608.626	534.31
608.834	533.31
609.043	530.31
609.251	521.31
609.459	524.31
609.667	543.31
609.875	532.31
610.083	570.31
610.291	565.31
610.499	529.31
610.707	535.31
610.916	514.31
611.124	529.31
611.332	530.31
611.54	512.31
611.748	543.31
611.955	516.31
612.163	506.31
612.371	526.31
612.579	521.31
612.787	514.31
612.995	520.31
613.203	523.31
613.411	512.31
613.618	512.31
613.826	521.31
614.034	515.31
614.242	496.31
614.449	493.31
614.657	489.31
614.865	505.31
615.072	487.31
615.28	517.31
615.488	510.31
615.695	550.31
615.903	528.31
616.111	506.31
616.318	510.31
616.526	487.31
616.733	486.31
616.941	479.31
617.148	518.31
617.356	504.31
617.563	478.31
617.771	478.31
617.978	496.31
618.185	478.31
618.393	487.31
618.6	516.31
618.807	502.31
619.015	482.31
619.222	485.31
619.429	476.31
619.637	489.31
619.844	456.31
620.051	473.31
620.258	469.31
620.466	456.31
620.673	450.31
620.88	435.31
621.087	434.31
621.294	448.31
621.501	444.31
621.708	465.31
621.915	457.31
622.122	444.31
622.329	445.31
622.536	462.31
622.743	436.31
622.95	453.31
623.157	430.31
623.364	452.31
623.571	450.31
623.778	461.31
623.985	433.31
624.192	455.31
624.399	435.31
624.606	449.31
624.812	428.31
625.019	434.31
625.226	427.31
625.433	444.31
625.639	428.31
625.846	433.31
626.053	427.31
626.259	417.31
626.466	420.31
626.673	414.31
626.879	404.31
627.086	400.31
627.293	410.31
627.499	394.31
627.706	416.31
627.912	402.31
628.119	389.31
628.325	420.31
628.532	423.31
628.738	395.31
628.945	399.31
629.151	390.31
629.357	394.31
629.564	399.31
629.77	388.31
629.976	382.31
630.183	380.31
630.389	383.31
630.595	391.31
630.802	401.31
631.008	385.31
631.214	377.31
631.42	382.31
631.627	362.31
631.833	358.31
632.039	363.31
632.245	362.31
632.451	371.31
632.657	361.31
632.863	361.31
633.069	371.31
633.275	370.31
633.481	364.31
633.688	364.31
633.893	347.31
634.099	348.31
634.305	350.31
634.511	368.31
634.717	360.31
634.923	333.31
635.129	325.31
635.335	334.31
635.541	354.31
635.747	339.31
635.952	353.31
636.158	361.31
636.364	337.31
636.57	343.31
636.775	342.31
636.981	337.31
637.187	351.31
637.392	341.31
637.598	339.31
637.804	355.31
638.009	341.31
638.215	323.31
638.421	325.31
638.626	345.31
638.832	329.31
639.037	321.31
639.243	328.31
639.448	321.31
639.654	321.31
639.859	314.31
640.065	310.31
640.27	311.31
640.475	309.31
640.681	323.31
640.886	323.31
641.091	314.31
641.297	329.31
641.502	324.31
641.707	343.31
641.913	316.31
642.118	322.31
642.323	305.31
642.528	324.31
642.733	308.31
642.939	315.31
643.144	318.31
643.349	337.31
643.554	307.31
643.759	322.31
643.964	311.31
644.169	296.31
644.374	313.31
644.579	320.31
644.784	328.31
644.989	307.31
645.194	294.31
645.399	310.31
645.604	286.31
645.809	306.31
646.014	298.31
646.219	300.31
646.423	312.31
646.628	319.31
646.833	297.31
647.038	326.31
647.243	321.31
647.447	304.31
647.652	319.31
647.857	314.31
648.062	291.31
648.266	300.31
648.471	313.31
648.676	308.31
648.88	310.31
649.085	294.31
649.289	298.31
649.494	309.31
649.698	294.31
649.903	306.31
650.107	285.31
650.312	281.31
650.516	282.31
650.721	295.31
650.925	289.31
651.13	289.31
651.334	293.31
651.539	276.31
651.743	289.31
651.947	281.31
652.152	264.31
652.356	256.31
652.56	260.31
652.764	254.31
652.969	251.31
653.173	264.31
653.377	240.31
653.581	248.31
653.785	244.31
653.99	236.31
654.194	241.31
654.398	237.31
654.602	227.31
654.806	238.31
655.01	247.31
655.214	248.31
655.418	232.31
655.622	238.31
655.826	261.31
656.03	256.31
656.234	253.31
656.438	260.31
656.642	293.31
656.846	258.31
657.049	228.31
657.253	225.31
657.457	202.31
657.661	176.31
657.865	185.31
658.068	182.31
658.272	152.31
658.476	173.31
658.68	164.31
658.883	148.31
659.087	124.31
659.291	154.31
659.494	139.31
659.698	140.31
659.901	120.31
660.105	110.31
660.309	123.31
660.512	106.31
660.716	103.31
660.919	101.31
661.123	100.31
661.326	121.31
661.53	103.31
661.733	104.31
661.936	97.31
662.14	105.31
662.343	86.31
662.546	85.31
662.75	93.31
662.953	85.31
663.156	82.31
663.36	84.31
663.563	81.31
663.766	93.31
663.969	87.31
664.173	87.31
664.376	80.31
664.579	67.31
664.782	83.31
664.985	85.31
665.188	78.31
665.391	84.31
665.594	69.31
665.797	98.31
666	69.31
666.203	78.31
666.406	79.31
666.609	73.31
666.812	78.31
667.015	83.31
667.218	86.31
667.421	81.31
667.624	86.31
667.827	99.31
668.03	84.31
668.232	80.31
668.435	80.31
668.638	84.31
668.841	83.31
669.043	90.31
669.246	83.31
669.449	76.31
669.651	79.31
669.854	71.31
670.057	78.31
670.259	92.31
670.462	67.31
670.665	73.31
670.867	80.31
671.07	66.31
671.272	90.31
671.475	82.31
671.677	76.31
671.88	78.31
672.082	71.31
672.284	95.31
672.487	81.31
672.689	97.31
672.892	79.31
