Data from WStandard_LampEnergy10_LIBS07252019.E.O._I.C._HRD10591_15-55-39-928.txt Node
Date: Thu Jul 25 15:55:39 EDT 2019
User: cochatt
Spectrometer: HR+D1059
Trigger mode: 1
Integration Time (sec): 1.000000E-1
Scans to average: 1
Electric dark correction enabled: true
Nonlinearity correction enabled: false
Boxcar width: 0
XAxis mode: Wavelengths
Number of Pixels in Spectrum: 2048
>>>>>Begin Spectral Data<<<<<
223.165	-12.62
223.4	-12.62
223.635	-12.62
223.869	-22.62
224.104	-7.62
224.338	-16.62
224.573	-14.62
224.808	-20.62
225.042	-5.62
225.277	-12.62
225.511	11.38
225.746	10.38
225.98	11.38
226.215	10.38
226.449	19.38
226.683	18.38
226.918	12.38
227.152	19.38
227.387	27.38
227.621	45.38
227.856	52.38
228.09	58.38
228.324	56.38
228.559	44.38
228.793	86.38
229.027	120.38
229.262	121.38
229.496	138.38
229.73	162.38
229.964	166.38
230.199	176.38
230.433	161.38
230.667	196.38
230.901	170.38
231.136	166.38
231.37	171.38
231.604	154.38
231.838	165.38
232.072	179.38
232.306	172.38
232.541	190.38
232.775	197.38
233.009	201.38
233.243	198.38
233.477	181.38
233.711	193.38
233.945	186.38
234.179	201.38
234.413	202.38
234.647	209.38
234.881	201.38
235.115	196.38
235.349	197.38
235.583	193.38
235.817	204.38
236.051	193.38
236.285	196.38
236.519	195.38
236.753	207.38
236.987	202.38
237.221	221.38
237.455	228.38
237.689	252.38
237.922	225.38
238.156	219.38
238.39	223.38
238.624	228.38
238.858	228.38
239.091	232.38
239.325	262.38
239.559	273.38
239.793	287.38
240.027	317.38
240.26	303.38
240.494	242.38
240.728	234.38
240.961	231.38
241.195	233.38
241.429	256.38
241.662	236.38
241.896	259.38
242.13	241.38
242.363	274.38
242.597	271.38
242.83	275.38
243.064	275.38
243.298	278.38
243.531	285.38
243.765	264.38
243.998	289.38
244.232	274.38
244.465	256.38
244.699	244.38
244.932	287.38
245.166	302.38
245.399	285.38
245.633	277.38
245.866	275.38
246.099	286.38
246.333	282.38
246.566	305.38
246.8	330.38
247.033	342.38
247.266	314.38
247.5	310.38
247.733	328.38
247.966	340.38
248.2	359.38
248.433	352.38
248.666	381.38
248.899	390.38
249.133	426.38
249.366	447.38
249.599	399.38
249.832	342.38
250.066	367.38
250.299	378.38
250.532	350.38
250.765	324.38
250.998	331.38
251.231	349.38
251.465	349.38
251.698	322.38
251.931	355.38
252.164	366.38
252.397	373.38
252.63	370.38
252.863	333.38
253.096	342.38
253.329	349.38
253.562	353.38
253.795	365.38
254.028	349.38
254.261	339.38
254.494	326.38
254.727	319.38
254.96	360.38
255.193	384.38
255.426	429.38
255.659	462.38
255.892	472.38
256.124	390.38
256.357	395.38
256.59	394.38
256.823	401.38
257.056	419.38
257.289	497.38
257.521	519.38
257.754	464.38
257.987	443.38
258.22	473.38
258.452	451.38
258.685	377.38
258.918	376.38
259.151	399.38
259.383	383.38
259.616	351.38
259.849	355.38
260.081	409.38
260.314	461.38
260.547	481.38
260.779	469.38
261.012	422.38
261.244	401.38
261.477	406.38
261.71	416.38
261.942	404.38
262.175	377.38
262.407	396.38
262.64	391.38
262.872	398.38
263.105	370.38
263.337	386.38
263.57	389.38
263.802	371.38
264.035	365.38
264.267	353.38
264.499	341.38
264.732	365.38
264.964	389.38
265.197	406.38
265.429	413.38
265.661	460.38
265.894	493.38
266.126	490.38
266.358	471.38
266.591	468.38
266.823	496.38
267.055	465.38
267.287	461.38
267.52	437.38
267.752	431.38
267.984	445.38
268.216	481.38
268.448	475.38
268.681	450.38
268.913	411.38
269.145	410.38
269.377	415.38
269.609	465.38
269.841	517.38
270.073	578.38
270.306	638.38
270.538	627.38
270.77	548.38
271.002	485.38
271.234	470.38
271.466	484.38
271.698	530.38
271.93	602.38
272.162	587.38
272.394	545.38
272.626	499.38
272.858	446.38
273.09	410.38
273.322	395.38
273.553	402.38
273.785	405.38
274.017	395.38
274.249	440.38
274.481	429.38
274.713	413.38
274.945	419.38
275.176	410.38
275.408	415.38
275.64	407.38
275.872	418.38
276.104	457.38
276.335	511.38
276.567	522.38
276.799	523.38
277.031	490.38
277.262	486.38
277.494	514.38
277.726	521.38
277.957	503.38
278.189	442.38
278.421	447.38
278.652	435.38
278.884	441.38
279.115	422.38
279.347	429.38
279.579	416.38
279.81	433.38
280.042	485.38
280.273	498.38
280.505	510.38
280.736	493.38
280.968	472.38
281.199	421.38
281.431	429.38
281.662	411.38
281.894	452.38
282.125	448.38
282.356	470.38
282.588	453.38
282.819	456.38
283.051	501.38
283.282	535.38
283.513	488.38
283.745	435.38
283.976	429.38
284.207	440.38
284.439	436.38
284.67	442.38
284.901	443.38
285.132	471.38
285.364	437.38
285.595	453.38
285.826	434.38
286.057	443.38
286.288	446.38
286.52	481.38
286.751	499.38
286.982	507.38
287.213	455.38
287.444	433.38
287.675	441.38
287.906	477.38
288.138	511.38
288.369	463.38
288.6	465.38
288.831	436.38
289.062	462.38
289.293	458.38
289.524	478.38
289.755	467.38
289.986	479.38
290.217	451.38
290.448	437.38
290.679	446.38
290.91	490.38
291.141	469.38
291.371	488.38
291.602	487.38
291.833	467.38
292.064	509.38
292.295	497.38
292.526	502.38
292.757	500.38
292.987	470.38
293.218	474.38
293.449	521.38
293.68	582.38
293.91	567.38
294.141	553.38
294.372	539.38
294.603	550.38
294.833	564.38
295.064	527.38
295.295	496.38
295.525	481.38
295.756	426.38
295.987	427.38
296.217	455.38
296.448	459.38
296.679	465.38
296.909	451.38
297.14	452.38
297.37	478.38
297.601	507.38
297.831	522.38
298.062	520.38
298.292	489.38
298.523	473.38
298.753	466.38
298.984	455.38
299.214	481.38
299.445	509.38
299.675	475.38
299.905	515.38
300.136	470.38
300.366	476.38
300.597	465.38
300.827	470.38
301.057	490.38
301.288	509.38
301.518	519.38
301.748	532.38
301.979	563.38
302.209	573.38
302.439	596.38
302.669	582.38
302.9	565.38
303.13	499.38
303.36	500.38
303.59	516.38
303.82	498.38
304.051	531.38
304.281	505.38
304.511	536.38
304.741	576.38
304.971	598.38
305.201	610.38
305.431	555.38
305.661	484.38
305.891	459.38
306.121	454.38
306.352	488.38
306.582	535.38
306.812	545.38
307.042	578.38
307.272	574.38
307.502	581.38
307.731	603.38
307.961	659.38
308.191	576.38
308.421	521.38
308.651	512.38
308.881	489.38
309.111	507.38
309.341	488.38
309.571	517.38
309.8	497.38
310.03	479.38
310.26	499.38
310.49	505.38
310.72	514.38
310.949	511.38
311.179	542.38
311.409	531.38
311.639	527.38
311.868	511.38
312.098	506.38
312.328	510.38
312.557	497.38
312.787	528.38
313.017	538.38
313.246	518.38
313.476	526.38
313.706	530.38
313.935	519.38
314.165	547.38
314.394	576.38
314.624	613.38
314.853	612.38
315.083	629.38
315.312	603.38
315.542	585.38
315.771	553.38
316.001	570.38
316.23	601.38
316.46	572.38
316.689	561.38
316.919	521.38
317.148	550.38
317.377	527.38
317.607	596.38
317.836	627.38
318.065	659.38
318.295	611.38
318.524	606.38
318.753	559.38
318.983	549.38
319.212	563.38
319.441	545.38
319.67	552.38
319.9	595.38
320.129	613.38
320.358	624.38
320.587	636.38
320.816	612.38
321.046	573.38
321.275	586.38
321.504	616.38
321.733	630.38
321.962	609.38
322.191	561.38
322.42	552.38
322.649	529.38
322.878	559.38
323.108	580.38
323.337	568.38
323.566	578.38
323.795	571.38
324.024	565.38
324.253	593.38
324.482	561.38
324.71	524.38
324.939	537.38
325.168	537.38
325.397	566.38
325.626	574.38
325.855	581.38
326.084	563.38
326.313	563.38
326.542	604.38
326.77	586.38
326.999	591.38
327.228	561.38
327.457	537.38
327.686	541.38
327.914	574.38
328.143	565.38
328.372	569.38
328.6	559.38
328.829	569.38
329.058	576.38
329.287	569.38
329.515	580.38
329.744	593.38
329.972	626.38
330.201	621.38
330.43	613.38
330.658	608.38
330.887	591.38
331.115	607.38
331.344	592.38
331.572	601.38
331.801	578.38
332.03	592.38
332.258	621.38
332.486	616.38
332.715	606.38
332.943	598.38
333.172	591.38
333.4	615.38
333.629	606.38
333.857	660.38
334.085	767.38
334.314	819.38
334.542	838.38
334.771	773.38
334.999	668.38
335.227	666.38
335.455	644.38
335.684	630.38
335.912	642.38
336.14	669.38
336.369	627.38
336.597	613.38
336.825	612.38
337.053	633.38
337.281	677.38
337.51	674.38
337.738	688.38
337.966	660.38
338.194	609.38
338.422	587.38
338.65	600.38
338.878	575.38
339.106	564.38
339.334	575.38
339.562	575.38
339.79	592.38
340.018	598.38
340.246	621.38
340.474	659.38
340.702	606.38
340.93	618.38
341.158	625.38
341.386	601.38
341.614	613.38
341.842	598.38
342.07	615.38
342.298	599.38
342.526	602.38
342.754	615.38
342.981	580.38
343.209	583.38
343.437	605.38
343.665	607.38
343.893	632.38
344.12	637.38
344.348	633.38
344.576	588.38
344.804	602.38
345.031	605.38
345.259	604.38
345.487	579.38
345.714	549.38
345.942	555.38
346.17	572.38
346.397	583.38
346.625	556.38
346.853	548.38
347.08	579.38
347.308	552.38
347.535	554.38
347.763	598.38
347.99	557.38
348.218	529.38
348.445	553.38
348.673	570.38
348.9	619.38
349.128	603.38
349.355	602.38
349.583	590.38
349.81	574.38
350.037	524.38
350.265	536.38
350.492	533.38
350.72	567.38
350.947	590.38
351.174	582.38
351.402	543.38
351.629	523.38
351.856	529.38
352.083	509.38
352.311	527.38
352.538	571.38
352.765	572.38
352.992	597.38
353.22	553.38
353.447	533.38
353.674	562.38
353.901	553.38
354.128	570.38
354.355	561.38
354.583	582.38
354.81	575.38
355.037	597.38
355.264	560.38
355.491	579.38
355.718	594.38
355.945	553.38
356.172	563.38
356.399	581.38
356.626	557.38
356.853	587.38
357.08	654.38
357.307	689.38
357.534	653.38
357.761	599.38
357.988	555.38
358.215	538.38
358.441	566.38
358.668	565.38
358.895	569.38
359.122	630.38
359.349	639.38
359.576	590.38
359.802	555.38
360.029	546.38
360.256	538.38
360.483	580.38
360.709	582.38
360.936	634.38
361.163	644.38
361.39	695.38
361.616	734.38
361.843	691.38
362.07	639.38
362.296	575.38
362.523	567.38
362.749	564.38
362.976	576.38
363.203	608.38
363.429	555.38
363.656	564.38
363.882	592.38
364.109	633.38
364.335	665.38
364.562	641.38
364.788	602.38
365.015	572.38
365.241	549.38
365.468	589.38
365.694	632.38
365.92	628.38
366.147	587.38
366.373	552.38
366.599	550.38
366.826	539.38
367.052	573.38
367.278	576.38
367.505	607.38
367.731	599.38
367.957	625.38
368.184	647.38
368.41	655.38
368.636	659.38
368.862	671.38
369.089	671.38
369.315	618.38
369.541	615.38
369.767	607.38
369.993	553.38
370.219	588.38
370.445	641.38
370.672	666.38
370.898	687.38
371.124	642.38
371.35	633.38
371.576	663.38
371.802	678.38
372.028	628.38
372.254	609.38
372.48	593.38
372.706	612.38
372.932	602.38
373.158	630.38
373.384	625.38
373.61	658.38
373.835	665.38
374.061	619.38
374.287	609.38
374.513	643.38
374.739	653.38
374.965	635.38
375.191	640.38
375.416	639.38
375.642	661.38
375.868	701.38
376.094	696.38
376.319	670.38
376.545	647.38
376.771	651.38
376.997	729.38
377.222	705.38
377.448	666.38
377.674	659.38
377.899	665.38
378.125	696.38
378.35	690.38
378.576	640.38
378.802	630.38
379.027	621.38
379.253	659.38
379.478	631.38
379.704	615.38
379.929	635.38
380.155	645.38
380.38	643.38
380.606	642.38
380.831	690.38
381.057	710.38
381.282	696.38
381.507	688.38
381.733	743.38
381.958	747.38
382.184	691.38
382.409	693.38
382.634	678.38
382.86	667.38
383.085	678.38
383.31	726.38
383.535	760.38
383.761	818.38
383.986	747.38
384.211	706.38
384.436	768.38
384.662	789.38
384.887	783.38
385.112	739.38
385.337	730.38
385.562	735.38
385.787	752.38
386.013	743.38
386.238	735.38
386.463	753.38
386.688	816.38
386.913	883.38
387.138	829.38
387.363	795.38
387.588	781.38
387.813	752.38
388.038	797.38
388.263	798.38
388.488	757.38
388.713	723.38
388.938	736.38
389.163	741.38
389.387	753.38
389.612	737.38
389.837	755.38
390.062	762.38
390.287	728.38
390.512	749.38
390.736	730.38
390.961	728.38
391.186	720.38
391.411	754.38
391.636	754.38
391.86	731.38
392.085	767.38
392.31	758.38
392.534	780.38
392.759	769.38
392.984	771.38
393.208	767.38
393.433	802.38
393.658	839.38
393.882	808.38
394.107	793.38
394.331	781.38
394.556	747.38
394.78	793.38
395.005	816.38
395.229	827.38
395.454	887.38
395.678	884.38
395.903	844.38
396.127	803.38
396.352	807.38
396.576	845.38
396.801	864.38
397.025	828.38
397.249	841.38
397.474	843.38
397.698	843.38
397.922	853.38
398.147	909.38
398.371	919.38
398.595	883.38
398.82	878.38
399.044	896.38
399.268	934.38
399.492	959.38
399.717	972.38
399.941	992.38
400.165	984.38
400.389	991.38
400.613	991.38
400.837	1097.38
401.062	1189.38
401.286	1043.38
401.51	989.38
401.734	1000.38
401.958	947.38
402.182	926.38
402.406	871.38
402.63	864.38
402.854	860.38
403.078	899.38
403.302	905.38
403.526	926.38
403.75	925.38
403.974	937.38
404.198	933.38
404.422	974.38
404.645	1007.38
404.869	945.38
405.093	916.38
405.317	893.38
405.541	925.38
405.765	952.38
405.988	940.38
406.212	953.38
406.436	973.38
406.66	1018.38
406.883	1033.38
407.107	1158.38
407.331	1228.38
407.555	1317.38
407.778	1120.38
408.002	971.38
408.226	973.38
408.449	971.38
408.673	937.38
408.896	944.38
409.12	965.38
409.344	944.38
409.567	937.38
409.791	930.38
410.014	979.38
410.238	1026.38
410.461	1073.38
410.685	963.38
410.908	931.38
411.132	948.38
411.355	927.38
411.578	925.38
411.802	927.38
412.025	967.38
412.249	922.38
412.472	924.38
412.695	893.38
412.919	914.38
413.142	909.38
413.365	948.38
413.589	967.38
413.812	979.38
414.035	999.38
414.258	930.38
414.482	904.38
414.705	922.38
414.928	916.38
415.151	923.38
415.374	938.38
415.597	929.38
415.821	931.38
416.044	934.38
416.267	964.38
416.49	889.38
416.713	911.38
416.936	973.38
417.159	1006.38
417.382	937.38
417.605	917.38
417.828	933.38
418.051	936.38
418.274	922.38
418.497	935.38
418.72	953.38
418.943	933.38
419.166	973.38
419.389	982.38
419.611	950.38
419.834	936.38
420.057	968.38
420.28	951.38
420.503	933.38
420.726	960.38
420.948	969.38
421.171	923.38
421.394	966.38
421.617	977.38
421.839	991.38
422.062	963.38
422.285	938.38
422.507	959.38
422.73	903.38
422.953	886.38
423.175	883.38
423.398	895.38
423.621	905.38
423.843	953.38
424.066	962.38
424.288	1027.38
424.511	1039.38
424.733	989.38
424.956	907.38
425.178	941.38
425.401	925.38
425.623	936.38
425.846	908.38
426.068	1005.38
426.291	985.38
426.513	952.38
426.735	977.38
426.958	1033.38
427.18	1058.38
427.402	982.38
427.625	1023.38
427.847	993.38
428.069	927.38
428.292	891.38
428.514	880.38
428.736	906.38
428.958	906.38
429.181	931.38
429.403	1082.38
429.625	1246.38
429.847	1064.38
430.069	957.38
430.292	1085.38
430.514	1030.38
430.736	985.38
430.958	945.38
431.18	918.38
431.402	872.38
431.624	853.38
431.846	784.38
432.068	736.38
432.29	752.38
432.512	786.38
432.734	895.38
432.956	933.38
433.178	973.38
433.4	953.38
433.622	964.38
433.844	891.38
434.066	842.38
434.287	790.38
434.509	775.38
434.731	821.38
434.953	915.38
435.175	927.38
435.397	908.38
435.618	904.38
435.84	841.38
436.062	866.38
436.284	914.38
436.505	907.38
436.727	939.38
436.949	932.38
437.17	893.38
437.392	897.38
437.614	857.38
437.835	804.38
438.057	832.38
438.278	850.38
438.5	841.38
438.721	902.38
438.943	941.38
439.165	916.38
439.386	879.38
439.608	935.38
439.829	946.38
440.05	938.38
440.272	938.38
440.493	939.38
440.715	990.38
440.936	1052.38
441.158	1056.38
441.379	1028.38
441.6	1031.38
441.822	1028.38
442.043	1011.38
442.264	984.38
442.486	975.38
442.707	961.38
442.928	923.38
443.149	984.38
443.371	976.38
443.592	1035.38
443.813	1023.38
444.034	998.38
444.255	1007.38
444.476	1033.38
444.698	1050.38
444.919	1026.38
445.14	1095.38
445.361	1082.38
445.582	1105.38
445.803	1055.38
446.024	1058.38
446.245	1073.38
446.466	1068.38
446.687	1042.38
446.908	1076.38
447.129	1013.38
447.35	1022.38
447.571	995.38
447.792	973.38
448.013	981.38
448.234	942.38
448.455	1021.38
448.675	1000.38
448.896	907.38
449.117	889.38
449.338	904.38
449.559	951.38
449.779	973.38
450	1031.38
450.221	1035.38
450.442	1016.38
450.662	932.38
450.883	862.38
451.104	861.38
451.324	864.38
451.545	904.38
451.766	868.38
451.986	833.38
452.207	862.38
452.428	793.38
452.648	791.38
452.869	782.38
453.089	809.38
453.31	792.38
453.53	779.38
453.751	735.38
453.971	701.38
454.192	735.38
454.412	800.38
454.633	800.38
454.853	782.38
455.073	773.38
455.294	787.38
455.514	771.38
455.734	774.38
455.955	782.38
456.175	758.38
456.395	723.38
456.616	710.38
456.836	765.38
457.056	734.38
457.276	705.38
457.497	711.38
457.717	698.38
457.937	714.38
458.157	719.38
458.377	687.38
458.598	688.38
458.818	667.38
459.038	721.38
459.258	695.38
459.478	703.38
459.698	688.38
459.918	736.38
460.138	825.38
460.358	842.38
460.578	820.38
460.798	854.38
461.018	892.38
461.238	883.38
461.458	881.38
461.678	868.38
461.898	803.38
462.118	802.38
462.338	846.38
462.558	837.38
462.777	821.38
462.997	857.38
463.217	890.38
463.437	871.38
463.657	853.38
463.876	847.38
464.096	837.38
464.316	862.38
464.536	869.38
464.755	884.38
464.975	879.38
465.195	865.38
465.414	898.38
465.634	870.38
465.854	893.38
466.073	984.38
466.293	938.38
466.512	871.38
466.732	855.38
466.951	917.38
467.171	925.38
467.391	847.38
467.61	882.38
467.829	936.38
468.049	979.38
468.268	1057.38
468.488	980.38
468.707	936.38
468.927	928.38
469.146	919.38
469.365	883.38
469.585	913.38
469.804	960.38
470.023	923.38
470.243	929.38
470.462	967.38
470.681	913.38
470.901	951.38
471.12	930.38
471.339	951.38
471.558	927.38
471.777	891.38
471.997	894.38
472.216	849.38
472.435	757.38
472.654	738.38
472.873	791.38
473.092	865.38
473.311	843.38
473.53	824.38
473.749	809.38
473.968	858.38
474.187	855.38
474.406	862.38
474.625	857.38
474.844	857.38
475.063	894.38
475.282	879.38
475.501	850.38
475.72	828.38
475.939	914.38
476.158	878.38
476.377	893.38
476.596	855.38
476.814	825.38
477.033	817.38
477.252	855.38
477.471	905.38
477.69	941.38
477.908	930.38
478.127	985.38
478.346	1008.38
478.564	1025.38
478.783	1007.38
479.002	1020.38
479.22	1011.38
479.439	1010.38
479.658	1048.38
479.876	967.38
480.095	899.38
480.313	906.38
480.532	891.38
480.751	874.38
480.969	866.38
481.188	800.38
481.406	806.38
481.624	783.38
481.843	807.38
482.061	821.38
482.28	894.38
482.498	886.38
482.717	851.38
482.935	890.38
483.153	1002.38
483.372	1023.38
483.59	1003.38
483.808	965.38
484.027	953.38
484.245	1015.38
484.463	1246.38
484.681	1306.38
484.9	1051.38
485.118	966.38
485.336	949.38
485.554	916.38
485.772	892.38
485.99	879.38
486.209	909.38
486.427	901.38
486.645	966.38
486.863	1011.38
487.081	1045.38
487.299	1023.38
487.517	1031.38
487.735	1133.38
487.953	1217.38
488.171	1211.38
488.389	1141.38
488.607	1096.38
488.825	1175.38
489.043	1069.38
489.261	1010.38
489.479	1011.38
489.696	1028.38
489.914	1061.38
490.132	1049.38
490.35	1062.38
490.568	1183.38
490.786	1203.38
491.003	1192.38
491.221	1225.38
491.439	1274.38
491.657	1306.38
491.874	1386.38
492.092	1429.38
492.31	1469.38
492.527	1443.38
492.745	1366.38
492.963	1318.38
493.18	1332.38
493.398	1362.38
493.615	1331.38
493.833	1257.38
494.05	1229.38
494.268	1245.38
494.485	1258.38
494.703	1200.38
494.92	1225.38
495.138	1224.38
495.355	1234.38
495.573	1263.38
495.79	1281.38
496.008	1269.38
496.225	1241.38
496.442	1220.38
496.66	1238.38
496.877	1188.38
497.094	1214.38
497.312	1234.38
497.529	1178.38
497.746	1163.38
497.963	1279.38
498.181	1309.38
498.398	1250.38
498.615	1209.38
498.832	1183.38
499.049	1147.38
499.267	1180.38
499.484	1278.38
499.701	1359.38
499.918	1397.38
500.135	1496.38
500.352	1531.38
500.569	1577.38
500.786	1688.38
501.003	1541.38
501.22	1439.38
501.437	1407.38
501.654	1442.38
501.871	1360.38
502.088	1205.38
502.305	1217.38
502.522	1151.38
502.739	1088.38
502.956	1078.38
503.172	1032.38
503.389	1017.38
503.606	1001.38
503.823	990.38
504.04	984.38
504.256	1019.38
504.473	1003.38
504.69	1024.38
504.907	987.38
505.123	967.38
505.34	1089.38
505.557	1330.38
505.773	1121.38
505.99	979.38
506.207	902.38
506.423	917.38
506.64	890.38
506.856	924.38
507.073	1041.38
507.289	1075.38
507.506	1026.38
507.722	888.38
507.939	852.38
508.155	852.38
508.372	857.38
508.588	810.38
508.805	789.38
509.021	773.38
509.238	799.38
509.454	770.38
509.67	753.38
509.887	732.38
510.103	745.38
510.319	767.38
510.536	777.38
510.752	784.38
510.968	785.38
511.184	821.38
511.401	771.38
511.617	711.38
511.833	731.38
512.049	720.38
512.265	712.38
512.481	715.38
512.698	762.38
512.914	753.38
513.13	760.38
513.346	717.38
513.562	714.38
513.778	711.38
513.994	756.38
514.21	765.38
514.426	775.38
514.642	808.38
514.858	770.38
515.074	713.38
515.29	713.38
515.506	757.38
515.721	753.38
515.937	744.38
516.153	818.38
516.369	781.38
516.585	766.38
516.801	737.38
517.016	733.38
517.232	728.38
517.448	766.38
517.664	783.38
517.879	805.38
518.095	794.38
518.311	789.38
518.527	775.38
518.742	766.38
518.958	765.38
519.173	771.38
519.389	792.38
519.605	794.38
519.82	822.38
520.036	786.38
520.251	776.38
520.467	800.38
520.682	828.38
520.898	813.38
521.113	744.38
521.329	733.38
521.544	759.38
521.76	745.38
521.975	717.38
522.19	716.38
522.406	740.38
522.621	941.38
522.836	841.38
523.052	741.38
523.267	779.38
523.482	787.38
523.698	751.38
523.913	787.38
524.128	769.38
524.343	787.38
524.559	842.38
524.774	801.38
524.989	777.38
525.204	740.38
525.419	738.38
525.634	755.38
525.849	753.38
526.064	734.38
526.28	711.38
526.495	661.38
526.71	652.38
526.925	639.38
527.14	641.38
527.355	638.38
527.57	665.38
527.785	670.38
527.999	685.38
528.214	691.38
528.429	702.38
528.644	711.38
528.859	779.38
529.074	834.38
529.289	889.38
529.503	884.38
529.718	794.38
529.933	725.38
530.148	672.38
530.363	639.38
530.577	637.38
530.792	648.38
531.007	631.38
531.221	642.38
531.436	662.38
531.651	687.38
531.865	681.38
532.08	662.38
532.295	649.38
532.509	621.38
532.724	600.38
532.938	658.38
533.153	681.38
533.367	717.38
533.582	740.38
533.796	740.38
534.011	715.38
534.225	683.38
534.44	629.38
534.654	639.38
534.868	663.38
535.083	683.38
535.297	698.38
535.511	698.38
535.726	669.38
535.94	666.38
536.154	666.38
536.369	640.38
536.583	629.38
536.797	597.38
537.011	608.38
537.225	618.38
537.44	610.38
537.654	645.38
537.868	627.38
538.082	611.38
538.296	614.38
538.51	627.38
538.724	680.38
538.938	677.38
539.153	731.38
539.367	716.38
539.581	693.38
539.795	691.38
540.009	653.38
540.222	652.38
540.436	670.38
540.65	716.38
540.864	809.38
541.078	819.38
541.292	845.38
541.506	872.38
541.72	963.38
541.934	1027.38
542.147	1051.38
542.361	964.38
542.575	888.38
542.789	816.38
543.002	771.38
543.216	736.38
543.43	732.38
543.644	787.38
543.857	872.38
544.071	903.38
544.285	922.38
544.498	899.38
544.712	913.38
544.925	963.38
545.139	957.38
545.352	937.38
545.566	923.38
545.779	936.38
545.993	980.38
546.206	961.38
546.42	981.38
546.633	946.38
546.847	939.38
547.06	925.38
547.274	958.38
547.487	990.38
547.7	1017.38
547.914	971.38
548.127	963.38
548.34	921.38
548.554	941.38
548.767	922.38
548.98	937.38
549.193	927.38
549.407	958.38
549.62	937.38
549.833	906.38
550.046	918.38
550.259	922.38
550.473	873.38
550.686	854.38
550.899	861.38
551.112	847.38
551.325	809.38
551.538	832.38
551.751	870.38
551.964	723.38
552.177	727.38
552.39	805.38
552.603	850.38
552.816	860.38
553.029	886.38
553.242	955.38
553.455	902.38
553.667	905.38
553.88	885.38
554.093	854.38
554.306	857.38
554.519	848.38
554.732	804.38
554.944	814.38
555.157	844.38
555.37	792.38
555.583	821.38
555.795	769.38
556.008	738.38
556.221	725.38
556.433	720.38
556.646	728.38
556.859	780.38
557.071	743.38
557.284	763.38
557.496	772.38
557.709	736.38
557.921	726.38
558.134	716.38
558.346	719.38
558.559	723.38
558.771	718.38
558.984	696.38
559.196	673.38
559.409	662.38
559.621	680.38
559.833	637.38
560.046	662.38
560.258	663.38
560.47	666.38
560.683	677.38
560.895	679.38
561.107	655.38
561.32	674.38
561.532	662.38
561.744	690.38
561.956	675.38
562.168	681.38
562.381	645.38
562.593	665.38
562.805	634.38
563.017	637.38
563.229	634.38
563.441	636.38
563.653	625.38
563.865	627.38
564.077	615.38
564.289	613.38
564.501	625.38
564.713	637.38
564.925	641.38
565.137	688.38
565.349	609.38
565.561	594.38
565.773	609.38
565.985	621.38
566.197	651.38
566.408	691.38
566.62	684.38
566.832	695.38
567.044	682.38
567.255	672.38
567.467	642.38
567.679	677.38
567.891	641.38
568.102	631.38
568.314	578.38
568.526	547.38
568.737	520.38
568.949	476.38
569.161	478.38
569.372	450.38
569.584	445.38
569.795	476.38
570.007	454.38
570.218	449.38
570.43	421.38
570.641	426.38
570.853	483.38
571.064	501.38
571.276	485.38
571.487	483.38
571.698	469.38
571.91	478.38
572.121	465.38
572.333	430.38
572.544	438.38
572.755	416.38
572.966	397.38
573.178	375.38
573.389	397.38
573.6	405.38
573.811	439.38
574.023	406.38
574.234	390.38
574.445	386.38
574.656	369.38
574.867	391.38
575.078	400.38
575.289	412.38
575.501	394.38
575.712	385.38
575.923	375.38
576.134	400.38
576.345	391.38
576.556	403.38
576.767	417.38
576.978	412.38
577.188	383.38
577.399	379.38
577.61	353.38
577.821	381.38
578.032	365.38
578.243	360.38
578.454	373.38
578.665	365.38
578.875	348.38
579.086	333.38
579.297	341.38
579.508	374.38
579.718	344.38
579.929	346.38
580.14	319.38
580.35	346.38
580.561	355.38
580.772	381.38
580.982	353.38
581.193	342.38
581.403	349.38
581.614	355.38
581.825	358.38
582.035	344.38
582.246	334.38
582.456	362.38
582.667	341.38
582.877	342.38
583.087	338.38
583.298	329.38
583.508	325.38
583.719	339.38
583.929	337.38
584.139	323.38
584.35	320.38
584.56	329.38
584.77	309.38
584.981	318.38
585.191	337.38
585.401	349.38
585.611	331.38
585.821	311.38
586.032	319.38
586.242	293.38
586.452	297.38
586.662	325.38
586.872	299.38
587.082	315.38
587.292	318.38
587.502	320.38
587.713	317.38
587.923	330.38
588.133	318.38
588.343	313.38
588.553	307.38
588.762	286.38
588.972	323.38
589.182	325.38
589.392	327.38
589.602	322.38
589.812	319.38
590.022	339.38
590.232	306.38
590.441	298.38
590.651	303.38
590.861	307.38
591.071	293.38
591.281	299.38
591.49	314.38
591.7	290.38
591.91	325.38
592.119	313.38
592.329	311.38
592.539	314.38
592.748	311.38
592.958	324.38
593.167	316.38
593.377	319.38
593.587	336.38
593.796	321.38
594.006	318.38
594.215	317.38
594.424	326.38
594.634	329.38
594.843	358.38
595.053	359.38
595.262	320.38
595.472	319.38
595.681	327.38
595.89	313.38
596.1	330.38
596.309	333.38
596.518	311.38
596.727	346.38
596.937	338.38
597.146	309.38
597.355	315.38
597.564	326.38
597.774	291.38
597.983	285.38
598.192	288.38
598.401	287.38
598.61	281.38
598.819	281.38
599.028	293.38
599.237	305.38
599.446	292.38
599.655	289.38
599.864	278.38
600.073	303.38
600.282	289.38
600.491	287.38
600.7	298.38
600.909	322.38
601.118	312.38
601.327	320.38
601.536	355.38
601.745	326.38
601.953	323.38
602.162	333.38
602.371	354.38
602.58	367.38
602.789	355.38
602.997	355.38
603.206	332.38
603.415	335.38
603.623	329.38
603.832	333.38
604.041	355.38
604.249	320.38
604.458	318.38
604.666	291.38
604.875	302.38
605.084	330.38
605.292	325.38
605.501	344.38
605.709	361.38
605.918	352.38
606.126	373.38
606.334	349.38
606.543	375.38
606.751	360.38
606.96	351.38
607.168	345.38
607.376	354.38
607.585	330.38
607.793	341.38
608.001	349.38
608.21	344.38
608.418	377.38
608.626	344.38
608.834	351.38
609.043	347.38
609.251	352.38
609.459	357.38
609.667	354.38
609.875	379.38
610.083	369.38
610.291	369.38
610.499	353.38
610.707	349.38
610.916	341.38
611.124	378.38
611.332	385.38
611.54	392.38
611.748	349.38
611.955	364.38
612.163	361.38
612.371	376.38
612.579	355.38
612.787	371.38
612.995	380.38
613.203	381.38
613.411	360.38
613.618	351.38
613.826	357.38
614.034	359.38
614.242	344.38
614.449	358.38
614.657	366.38
614.865	361.38
615.072	368.38
615.28	357.38
615.488	359.38
615.695	362.38
615.903	368.38
616.111	353.38
616.318	359.38
616.526	352.38
616.733	329.38
616.941	350.38
617.148	355.38
617.356	342.38
617.563	335.38
617.771	321.38
617.978	314.38
618.185	322.38
618.393	358.38
618.6	349.38
618.807	343.38
619.015	349.38
619.222	315.38
619.429	324.38
619.637	317.38
619.844	282.38
620.051	323.38
620.258	308.38
620.466	319.38
620.673	340.38
620.88	307.38
621.087	300.38
621.294	294.38
621.501	311.38
621.708	296.38
621.915	316.38
622.122	331.38
622.329	330.38
622.536	325.38
622.743	337.38
622.95	328.38
623.157	319.38
623.364	327.38
623.571	317.38
623.778	316.38
623.985	330.38
624.192	308.38
624.399	315.38
624.606	310.38
624.812	324.38
625.019	302.38
625.226	290.38
625.433	303.38
625.639	282.38
625.846	264.38
626.053	257.38
626.259	251.38
626.466	236.38
626.673	228.38
626.879	227.38
627.086	247.38
627.293	282.38
627.499	272.38
627.706	285.38
627.912	300.38
628.119	313.38
628.325	302.38
628.532	308.38
628.738	297.38
628.945	298.38
629.151	267.38
629.357	300.38
629.564	279.38
629.77	272.38
629.976	264.38
630.183	277.38
630.389	254.38
630.595	277.38
630.802	291.38
631.008	292.38
631.214	273.38
631.42	265.38
631.627	262.38
631.833	245.38
632.039	283.38
632.245	264.38
632.451	267.38
632.657	262.38
632.863	270.38
633.069	258.38
633.275	261.38
633.481	247.38
633.688	242.38
633.893	252.38
634.099	258.38
634.305	248.38
634.511	248.38
634.717	253.38
634.923	227.38
635.129	231.38
635.335	239.38
635.541	223.38
635.747	244.38
635.952	223.38
636.158	249.38
636.364	269.38
636.57	256.38
636.775	270.38
636.981	270.38
637.187	267.38
637.392	268.38
637.598	272.38
637.804	270.38
638.009	245.38
638.215	240.38
638.421	250.38
638.626	239.38
638.832	246.38
639.037	256.38
639.243	253.38
639.448	237.38
639.654	250.38
639.859	240.38
640.065	243.38
640.27	244.38
640.475	255.38
640.681	249.38
640.886	262.38
641.091	240.38
641.297	265.38
641.502	240.38
641.707	261.38
641.913	263.38
642.118	259.38
642.323	224.38
642.528	243.38
642.733	219.38
642.939	240.38
643.144	248.38
643.349	246.38
643.554	225.38
643.759	237.38
643.964	261.38
644.169	230.38
644.374	232.38
644.579	240.38
644.784	240.38
644.989	228.38
645.194	230.38
645.399	226.38
645.604	250.38
645.809	226.38
646.014	241.38
646.219	245.38
646.423	241.38
646.628	237.38
646.833	254.38
647.038	231.38
647.243	232.38
647.447	237.38
647.652	235.38
647.857	226.38
648.062	247.38
648.266	232.38
648.471	237.38
648.676	245.38
648.88	248.38
649.085	244.38
649.289	231.38
649.494	234.38
649.698	244.38
649.903	223.38
650.107	231.38
650.312	233.38
650.516	221.38
650.721	225.38
650.925	229.38
651.13	211.38
651.334	216.38
651.539	209.38
651.743	213.38
651.947	226.38
652.152	221.38
652.356	214.38
652.56	221.38
652.764	203.38
652.969	212.38
653.173	219.38
653.377	203.38
653.581	197.38
653.785	197.38
653.99	216.38
654.194	215.38
654.398	209.38
654.602	204.38
654.806	195.38
655.01	215.38
655.214	210.38
655.418	197.38
655.622	225.38
655.826	208.38
656.03	215.38
656.234	204.38
656.438	218.38
656.642	237.38
656.846	231.38
657.049	217.38
657.253	206.38
657.457	197.38
657.661	173.38
657.865	170.38
658.068	173.38
658.272	146.38
658.476	149.38
658.68	148.38
658.883	134.38
659.087	137.38
659.291	136.38
659.494	143.38
659.698	122.38
659.901	129.38
660.105	123.38
660.309	113.38
660.512	132.38
660.716	113.38
660.919	111.38
661.123	114.38
661.326	117.38
661.53	102.38
661.733	100.38
661.936	109.38
662.14	89.38
662.343	96.38
662.546	97.38
662.75	97.38
662.953	91.38
663.156	97.38
663.36	87.38
663.563	97.38
663.766	92.38
663.969	89.38
664.173	77.38
664.376	75.38
664.579	99.38
664.782	88.38
664.985	90.38
665.188	96.38
665.391	76.38
665.594	81.38
665.797	94.38
666	87.38
666.203	105.38
666.406	86.38
666.609	75.38
666.812	80.38
667.015	85.38
667.218	79.38
667.421	79.38
667.624	82.38
667.827	78.38
668.03	63.38
668.232	79.38
668.435	80.38
668.638	74.38
668.841	95.38
669.043	87.38
669.246	85.38
669.449	84.38
669.651	90.38
669.854	81.38
670.057	69.38
670.259	84.38
670.462	83.38
670.665	77.38
670.867	71.38
671.07	69.38
671.272	70.38
671.475	87.38
671.677	73.38
671.88	83.38
672.082	88.38
672.284	81.38
672.487	67.38
672.689	82.38
672.892	92.38
