Data from WStandard_LampEnergy8_LIBS07252019.E.O._I.C._HRD10591_15-57-53-929.txt Node
Date: Thu Jul 25 15:57:53 EDT 2019
User: cochatt
Spectrometer: HR+D1059
Trigger mode: 1
Integration Time (sec): 1.000000E-1
Scans to average: 1
Electric dark correction enabled: true
Nonlinearity correction enabled: false
Boxcar width: 0
XAxis mode: Wavelengths
Number of Pixels in Spectrum: 2048
>>>>>Begin Spectral Data<<<<<
223.165	-22.06
223.4	-22.06
223.635	-22.06
223.869	-16.06
224.104	-11.06
224.338	-7.06
224.573	-10.06
224.808	-9.06
225.042	-12.06
225.277	-19.06
225.511	12.94
225.746	-4.06
225.98	4.94
226.215	4.94
226.449	15.94
226.683	18.94
226.918	23.94
227.152	28.94
227.387	37.94
227.621	44.94
227.856	34.94
228.09	30.94
228.324	49.94
228.559	44.94
228.793	96.94
229.027	183.94
229.262	198.94
229.496	200.94
229.73	231.94
229.964	244.94
230.199	250.94
230.433	264.94
230.667	281.94
230.901	304.94
231.136	265.94
231.37	272.94
231.604	246.94
231.838	272.94
232.072	274.94
232.306	272.94
232.541	272.94
232.775	322.94
233.009	335.94
233.243	312.94
233.477	294.94
233.711	315.94
233.945	306.94
234.179	312.94
234.413	342.94
234.647	345.94
234.881	324.94
235.115	296.94
235.349	299.94
235.583	319.94
235.817	315.94
236.051	309.94
236.285	307.94
236.519	320.94
236.753	359.94
236.987	377.94
237.221	370.94
237.455	389.94
237.689	370.94
237.922	366.94
238.156	344.94
238.39	357.94
238.624	384.94
238.858	395.94
239.091	409.94
239.325	448.94
239.559	500.94
239.793	506.94
240.027	533.94
240.26	513.94
240.494	407.94
240.728	380.94
240.961	396.94
241.195	382.94
241.429	419.94
241.662	432.94
241.896	403.94
242.13	415.94
242.363	445.94
242.597	466.94
242.83	465.94
243.064	460.94
243.298	504.94
243.531	497.94
243.765	475.94
243.998	473.94
244.232	427.94
244.465	418.94
244.699	423.94
244.932	452.94
245.166	519.94
245.399	492.94
245.633	481.94
245.866	491.94
246.099	499.94
246.333	512.94
246.566	511.94
246.8	541.94
247.033	594.94
247.266	546.94
247.5	558.94
247.733	576.94
247.966	584.94
248.2	630.94
248.433	640.94
248.666	663.94
248.899	697.94
249.133	774.94
249.366	853.94
249.599	711.94
249.832	644.94
250.066	656.94
250.299	661.94
250.532	609.94
250.765	562.94
250.998	582.94
251.231	600.94
251.465	624.94
251.698	620.94
251.931	590.94
252.164	617.94
252.397	618.94
252.63	651.94
252.863	590.94
253.096	573.94
253.329	613.94
253.562	609.94
253.795	635.94
254.028	637.94
254.261	611.94
254.494	610.94
254.727	572.94
254.96	596.94
255.193	667.94
255.426	735.94
255.659	825.94
255.892	804.94
256.124	704.94
256.357	675.94
256.59	748.94
256.823	753.94
257.056	760.94
257.289	857.94
257.521	931.94
257.754	869.94
257.987	838.94
258.22	861.94
258.452	816.94
258.685	705.94
258.918	684.94
259.151	686.94
259.383	650.94
259.616	615.94
259.849	642.94
260.081	732.94
260.314	795.94
260.547	852.94
260.779	844.94
261.012	786.94
261.244	723.94
261.477	711.94
261.71	721.94
261.942	723.94
262.175	691.94
262.407	737.94
262.64	684.94
262.872	677.94
263.105	642.94
263.337	647.94
263.57	626.94
263.802	651.94
264.035	627.94
264.267	590.94
264.499	611.94
264.732	629.94
264.964	686.94
265.197	696.94
265.429	726.94
265.661	808.94
265.894	898.94
266.126	905.94
266.358	834.94
266.591	849.94
266.823	878.94
267.055	807.94
267.287	788.94
267.52	789.94
267.752	777.94
267.984	801.94
268.216	819.94
268.448	824.94
268.681	827.94
268.913	762.94
269.145	733.94
269.377	704.94
269.609	789.94
269.841	946.94
270.073	1063.94
270.306	1152.94
270.538	1169.94
270.77	1000.94
271.002	885.94
271.234	853.94
271.466	859.94
271.698	947.94
271.93	1099.94
272.162	1087.94
272.394	977.94
272.626	934.94
272.858	827.94
273.09	727.94
273.322	732.94
273.553	701.94
273.785	722.94
274.017	725.94
274.249	772.94
274.481	780.94
274.713	740.94
274.945	721.94
275.176	698.94
275.408	694.94
275.64	703.94
275.872	698.94
276.104	769.94
276.335	856.94
276.567	955.94
276.799	926.94
277.031	871.94
277.262	836.94
277.494	884.94
277.726	953.94
277.957	905.94
278.189	849.94
278.421	784.94
278.652	768.94
278.884	776.94
279.115	802.94
279.347	774.94
279.579	757.94
279.81	777.94
280.042	864.94
280.273	926.94
280.505	914.94
280.736	925.94
280.968	853.94
281.199	751.94
281.431	742.94
281.662	750.94
281.894	747.94
282.125	778.94
282.356	792.94
282.588	811.94
282.819	791.94
283.051	859.94
283.282	893.94
283.513	902.94
283.745	786.94
283.976	748.94
284.207	731.94
284.439	777.94
284.67	782.94
284.901	810.94
285.132	816.94
285.364	802.94
285.595	807.94
285.826	779.94
286.057	799.94
286.288	798.94
286.52	815.94
286.751	872.94
286.982	907.94
287.213	820.94
287.444	751.94
287.675	776.94
287.906	816.94
288.138	848.94
288.369	835.94
288.6	798.94
288.831	782.94
289.062	772.94
289.293	791.94
289.524	784.94
289.755	819.94
289.986	781.94
290.217	743.94
290.448	788.94
290.679	819.94
290.91	812.94
291.141	818.94
291.371	864.94
291.602	847.94
291.833	845.94
292.064	881.94
292.295	869.94
292.526	899.94
292.757	920.94
292.987	884.94
293.218	828.94
293.449	895.94
293.68	1032.94
293.91	1058.94
294.141	989.94
294.372	950.94
294.603	954.94
294.833	1009.94
295.064	962.94
295.295	863.94
295.525	844.94
295.756	773.94
295.987	755.94
296.217	775.94
296.448	806.94
296.679	791.94
296.909	802.94
297.14	800.94
297.37	844.94
297.601	878.94
297.831	936.94
298.062	911.94
298.292	832.94
298.523	817.94
298.753	824.94
298.984	822.94
299.214	848.94
299.445	850.94
299.675	884.94
299.905	853.94
300.136	844.94
300.366	820.94
300.597	771.94
300.827	794.94
301.057	869.94
301.288	882.94
301.518	874.94
301.748	915.94
301.979	931.94
302.209	960.94
302.439	1019.94
302.669	1033.94
302.9	947.94
303.13	879.94
303.36	897.94
303.59	907.94
303.82	909.94
304.051	875.94
304.281	886.94
304.511	916.94
304.741	1003.94
304.971	1056.94
305.201	1096.94
305.431	1000.94
305.661	833.94
305.891	774.94
306.121	804.94
306.352	837.94
306.582	884.94
306.812	954.94
307.042	986.94
307.272	997.94
307.502	1017.94
307.731	1076.94
307.961	1164.94
308.191	1030.94
308.421	911.94
308.651	845.94
308.881	847.94
309.111	850.94
309.341	867.94
309.571	844.94
309.8	851.94
310.03	850.94
310.26	835.94
310.49	862.94
310.72	878.94
310.949	934.94
311.179	921.94
311.409	883.94
311.639	867.94
311.868	871.94
312.098	884.94
312.328	872.94
312.557	868.94
312.787	887.94
313.017	902.94
313.246	899.94
313.476	890.94
313.706	912.94
313.935	931.94
314.165	910.94
314.394	970.94
314.624	1030.94
314.853	1050.94
315.083	1104.94
315.312	1122.94
315.542	997.94
315.771	939.94
316.001	944.94
316.23	964.94
316.46	994.94
316.689	948.94
316.919	924.94
317.148	898.94
317.377	905.94
317.607	1013.94
317.836	1105.94
318.065	1094.94
318.295	1074.94
318.524	1010.94
318.753	988.94
318.983	962.94
319.212	929.94
319.441	952.94
319.67	965.94
319.9	983.94
320.129	1006.94
320.358	1090.94
320.587	1084.94
320.816	1059.94
321.046	1022.94
321.275	1002.94
321.504	1038.94
321.733	1092.94
321.962	1043.94
322.191	972.94
322.42	966.94
322.649	919.94
322.878	938.94
323.108	947.94
323.337	991.94
323.566	1008.94
323.795	1014.94
324.024	991.94
324.253	970.94
324.482	963.94
324.71	958.94
324.939	881.94
325.168	930.94
325.397	961.94
325.626	984.94
325.855	981.94
326.084	977.94
326.313	980.94
326.542	967.94
326.77	1000.94
326.999	1001.94
327.228	933.94
327.457	907.94
327.686	892.94
327.914	927.94
328.143	936.94
328.372	946.94
328.6	952.94
328.829	978.94
329.058	932.94
329.287	922.94
329.515	987.94
329.744	998.94
329.972	1044.94
330.201	1061.94
330.43	1032.94
330.658	1011.94
330.887	999.94
331.115	1006.94
331.344	1014.94
331.572	1011.94
331.801	993.94
332.03	991.94
332.258	1020.94
332.486	1025.94
332.715	1042.94
332.943	1009.94
333.172	1028.94
333.4	1057.94
333.629	1068.94
333.857	1160.94
334.085	1310.94
334.314	1423.94
334.542	1510.94
334.771	1346.94
334.999	1200.94
335.227	1110.94
335.455	1097.94
335.684	1081.94
335.912	1153.94
336.14	1150.94
336.369	1068.94
336.597	1056.94
336.825	1037.94
337.053	1064.94
337.281	1146.94
337.51	1191.94
337.738	1200.94
337.966	1143.94
338.194	1051.94
338.422	1039.94
338.65	999.94
338.878	998.94
339.106	967.94
339.334	968.94
339.562	952.94
339.79	1013.94
340.018	1050.94
340.246	1058.94
340.474	1074.94
340.702	1086.94
340.93	1059.94
341.158	1050.94
341.386	1034.94
341.614	1049.94
341.842	994.94
342.07	1023.94
342.298	1031.94
342.526	1019.94
342.754	1018.94
342.981	995.94
343.209	996.94
343.437	985.94
343.665	1020.94
343.893	1030.94
344.12	1087.94
344.348	1083.94
344.576	1051.94
344.804	1015.94
345.031	991.94
345.259	1012.94
345.487	988.94
345.714	927.94
345.942	939.94
346.17	935.94
346.397	972.94
346.625	985.94
346.853	907.94
347.08	922.94
347.308	903.94
347.535	939.94
347.763	997.94
347.99	914.94
348.218	945.94
348.445	948.94
348.673	952.94
348.9	978.94
349.128	1026.94
349.355	1003.94
349.583	975.94
349.81	965.94
350.037	885.94
350.265	888.94
350.492	903.94
350.72	954.94
350.947	968.94
351.174	956.94
351.402	917.94
351.629	883.94
351.856	883.94
352.083	888.94
352.311	902.94
352.538	935.94
352.765	931.94
352.992	976.94
353.22	922.94
353.447	922.94
353.674	943.94
353.901	958.94
354.128	917.94
354.355	922.94
354.583	1000.94
354.81	987.94
355.037	963.94
355.264	975.94
355.491	940.94
355.718	950.94
355.945	983.94
356.172	937.94
356.399	907.94
356.626	936.94
356.853	992.94
357.08	1051.94
357.307	1164.94
357.534	1090.94
357.761	966.94
357.988	935.94
358.215	889.94
358.441	905.94
358.668	888.94
358.895	946.94
359.122	1020.94
359.349	1086.94
359.576	1020.94
359.802	961.94
360.029	907.94
360.256	928.94
360.483	942.94
360.709	952.94
360.936	999.94
361.163	1029.94
361.39	1151.94
361.616	1221.94
361.843	1190.94
362.07	1091.94
362.296	965.94
362.523	957.94
362.749	953.94
362.976	958.94
363.203	979.94
363.429	943.94
363.656	908.94
363.882	995.94
364.109	1114.94
364.335	1127.94
364.562	1063.94
364.788	986.94
365.015	980.94
365.241	918.94
365.468	964.94
365.694	1018.94
365.92	1020.94
366.147	972.94
366.373	924.94
366.599	908.94
366.826	915.94
367.052	923.94
367.278	946.94
367.505	956.94
367.731	970.94
367.957	972.94
368.184	1031.94
368.41	1088.94
368.636	1092.94
368.862	1075.94
369.089	1091.94
369.315	1041.94
369.541	978.94
369.767	961.94
369.993	924.94
370.219	954.94
370.445	1028.94
370.672	1062.94
370.898	1088.94
371.124	1058.94
371.35	999.94
371.576	1066.94
371.802	1087.94
372.028	1036.94
372.254	976.94
372.48	957.94
372.706	983.94
372.932	967.94
373.158	952.94
373.384	1008.94
373.61	1048.94
373.835	1031.94
374.061	1011.94
374.287	1010.94
374.513	999.94
374.739	1026.94
374.965	1003.94
375.191	1025.94
375.416	1063.94
375.642	1026.94
375.868	1114.94
376.094	1145.94
376.319	1086.94
376.545	1016.94
376.771	1045.94
376.997	1120.94
377.222	1103.94
377.448	1081.94
377.674	1060.94
377.899	1076.94
378.125	1120.94
378.35	1115.94
378.576	1027.94
378.802	963.94
379.027	962.94
379.253	1016.94
379.478	1011.94
379.704	1000.94
379.929	1009.94
380.155	1018.94
380.38	1035.94
380.606	1021.94
380.831	1065.94
381.057	1120.94
381.282	1096.94
381.507	1049.94
381.733	1166.94
381.958	1162.94
382.184	1088.94
382.409	1042.94
382.634	1052.94
382.86	1057.94
383.085	1079.94
383.31	1104.94
383.535	1192.94
383.761	1250.94
383.986	1197.94
384.211	1138.94
384.436	1128.94
384.662	1212.94
384.887	1237.94
385.112	1160.94
385.337	1163.94
385.562	1157.94
385.787	1158.94
386.013	1172.94
386.238	1173.94
386.463	1165.94
386.688	1275.94
386.913	1379.94
387.138	1305.94
387.363	1207.94
387.588	1165.94
387.813	1154.94
388.038	1200.94
388.263	1249.94
388.488	1166.94
388.713	1114.94
388.938	1091.94
389.163	1117.94
389.387	1135.94
389.612	1128.94
389.837	1162.94
390.062	1154.94
390.287	1164.94
390.512	1130.94
390.736	1147.94
390.961	1104.94
391.186	1097.94
391.411	1091.94
391.636	1142.94
391.86	1137.94
392.085	1147.94
392.31	1129.94
392.534	1152.94
392.759	1160.94
392.984	1157.94
393.208	1141.94
393.433	1190.94
393.658	1273.94
393.882	1269.94
394.107	1120.94
394.331	1147.94
394.556	1174.94
394.78	1202.94
395.005	1210.94
395.229	1273.94
395.454	1361.94
395.678	1360.94
395.903	1264.94
396.127	1204.94
396.352	1228.94
396.576	1287.94
396.801	1322.94
397.025	1277.94
397.249	1264.94
397.474	1286.94
397.698	1238.94
397.922	1312.94
398.147	1354.94
398.371	1412.94
398.595	1410.94
398.82	1332.94
399.044	1353.94
399.268	1389.94
399.492	1488.94
399.717	1543.94
399.941	1570.94
400.165	1548.94
400.389	1473.94
400.613	1494.94
400.837	1695.94
401.062	1862.94
401.286	1549.94
401.51	1475.94
401.734	1505.94
401.958	1462.94
402.182	1331.94
402.406	1286.94
402.63	1313.94
402.854	1272.94
403.078	1345.94
403.302	1366.94
403.526	1377.94
403.75	1367.94
403.974	1403.94
404.198	1417.94
404.422	1473.94
404.645	1538.94
404.869	1466.94
405.093	1374.94
405.317	1330.94
405.541	1379.94
405.765	1387.94
405.988	1395.94
406.212	1396.94
406.436	1446.94
406.66	1486.94
406.883	1502.94
407.107	1697.94
407.331	1858.94
407.555	2000.94
407.778	1736.94
408.002	1478.94
408.226	1419.94
408.449	1438.94
408.673	1420.94
408.896	1437.94
409.12	1418.94
409.344	1385.94
409.567	1377.94
409.791	1372.94
410.014	1426.94
410.238	1502.94
410.461	1573.94
410.685	1393.94
410.908	1352.94
411.132	1392.94
411.355	1359.94
411.578	1370.94
411.802	1346.94
412.025	1370.94
412.249	1379.94
412.472	1349.94
412.695	1315.94
412.919	1300.94
413.142	1327.94
413.365	1340.94
413.589	1408.94
413.812	1465.94
414.035	1495.94
414.258	1360.94
414.482	1320.94
414.705	1377.94
414.928	1335.94
415.151	1319.94
415.374	1360.94
415.597	1333.94
415.821	1310.94
416.044	1400.94
416.267	1370.94
416.49	1298.94
416.713	1290.94
416.936	1355.94
417.159	1424.94
417.382	1390.94
417.605	1312.94
417.828	1313.94
418.051	1359.94
418.274	1342.94
418.497	1286.94
418.72	1280.94
418.943	1312.94
419.166	1357.94
419.389	1393.94
419.611	1314.94
419.834	1321.94
420.057	1323.94
420.28	1312.94
420.503	1335.94
420.726	1367.94
420.948	1333.94
421.171	1286.94
421.394	1310.94
421.617	1375.94
421.839	1373.94
422.062	1344.94
422.285	1321.94
422.507	1305.94
422.73	1247.94
422.953	1228.94
423.175	1230.94
423.398	1292.94
423.621	1294.94
423.843	1305.94
424.066	1371.94
424.288	1414.94
424.511	1471.94
424.733	1376.94
424.956	1298.94
425.178	1276.94
425.401	1266.94
425.623	1275.94
425.846	1311.94
426.068	1409.94
426.291	1366.94
426.513	1366.94
426.735	1339.94
426.958	1472.94
427.18	1565.94
427.402	1398.94
427.625	1443.94
427.847	1433.94
428.069	1321.94
428.292	1269.94
428.514	1277.94
428.736	1286.94
428.958	1272.94
429.181	1287.94
429.403	1503.94
429.625	1790.94
429.847	1520.94
430.069	1311.94
430.292	1484.94
430.514	1509.94
430.736	1395.94
430.958	1398.94
431.18	1322.94
431.402	1249.94
431.624	1208.94
431.846	1202.94
432.068	1162.94
432.29	1193.94
432.512	1217.94
432.734	1289.94
432.956	1320.94
433.178	1394.94
433.4	1347.94
433.622	1369.94
433.844	1298.94
434.066	1244.94
434.287	1180.94
434.509	1242.94
434.731	1292.94
434.953	1371.94
435.175	1374.94
435.397	1330.94
435.618	1295.94
435.84	1292.94
436.062	1232.94
436.284	1295.94
436.505	1338.94
436.727	1365.94
436.949	1312.94
437.17	1287.94
437.392	1273.94
437.614	1248.94
437.835	1228.94
438.057	1239.94
438.278	1299.94
438.5	1215.94
438.721	1274.94
438.943	1268.94
439.165	1246.94
439.386	1257.94
439.608	1264.94
439.829	1278.94
440.05	1284.94
440.272	1257.94
440.493	1288.94
440.715	1330.94
440.936	1357.94
441.158	1461.94
441.379	1410.94
441.6	1427.94
441.822	1394.94
442.043	1354.94
442.264	1329.94
442.486	1283.94
442.707	1284.94
442.928	1289.94
443.149	1337.94
443.371	1362.94
443.592	1408.94
443.813	1397.94
444.034	1399.94
444.255	1399.94
444.476	1423.94
444.698	1418.94
444.919	1426.94
445.14	1484.94
445.361	1463.94
445.582	1502.94
445.803	1424.94
446.024	1401.94
446.245	1452.94
446.466	1374.94
446.687	1346.94
446.908	1412.94
447.129	1320.94
447.35	1312.94
447.571	1307.94
447.792	1257.94
448.013	1281.94
448.234	1303.94
448.455	1323.94
448.675	1328.94
448.896	1283.94
449.117	1210.94
449.338	1237.94
449.559	1306.94
449.779	1356.94
450	1431.94
450.221	1497.94
450.442	1447.94
450.662	1299.94
450.883	1207.94
451.104	1169.94
451.324	1217.94
451.545	1267.94
451.766	1185.94
451.986	1200.94
452.207	1157.94
452.428	1138.94
452.648	1084.94
452.869	1112.94
453.089	1176.94
453.31	1169.94
453.53	1189.94
453.751	1152.94
453.971	1104.94
454.192	1107.94
454.412	1165.94
454.633	1151.94
454.853	1162.94
455.073	1076.94
455.294	1086.94
455.514	1089.94
455.734	1079.94
455.955	1108.94
456.175	1070.94
456.395	1072.94
456.616	1107.94
456.836	1096.94
457.056	1115.94
457.276	1103.94
457.497	1097.94
457.717	1029.94
457.937	1048.94
458.157	1063.94
458.377	1036.94
458.598	1053.94
458.818	1048.94
459.038	1123.94
459.258	1189.94
459.478	1165.94
459.698	1103.94
459.918	1202.94
460.138	1218.94
460.358	1282.94
460.578	1272.94
460.798	1299.94
461.018	1386.94
461.238	1338.94
461.458	1314.94
461.678	1324.94
461.898	1269.94
462.118	1250.94
462.338	1290.94
462.558	1329.94
462.777	1287.94
462.997	1324.94
463.217	1401.94
463.437	1379.94
463.657	1307.94
463.876	1305.94
464.096	1276.94
464.316	1299.94
464.536	1321.94
464.755	1332.94
464.975	1346.94
465.195	1329.94
465.414	1286.94
465.634	1343.94
465.854	1312.94
466.073	1452.94
466.293	1367.94
466.512	1251.94
466.732	1231.94
466.951	1280.94
467.171	1285.94
467.391	1225.94
467.61	1209.94
467.829	1224.94
468.049	1339.94
468.268	1511.94
468.488	1345.94
468.707	1318.94
468.927	1220.94
469.146	1242.94
469.365	1257.94
469.585	1280.94
469.804	1283.94
470.023	1262.94
470.243	1289.94
470.462	1274.94
470.681	1228.94
470.901	1250.94
471.12	1265.94
471.339	1245.94
471.558	1211.94
471.777	1216.94
471.997	1244.94
472.216	1217.94
472.435	1139.94
472.654	1148.94
472.873	1186.94
473.092	1207.94
473.311	1226.94
473.53	1161.94
473.749	1172.94
473.968	1228.94
474.187	1214.94
474.406	1259.94
474.625	1256.94
474.844	1229.94
475.063	1214.94
475.282	1267.94
475.501	1245.94
475.72	1231.94
475.939	1310.94
476.158	1264.94
476.377	1206.94
476.596	1236.94
476.814	1234.94
477.033	1246.94
477.252	1319.94
477.471	1307.94
477.69	1278.94
477.908	1329.94
478.127	1389.94
478.346	1468.94
478.564	1444.94
478.783	1420.94
479.002	1451.94
479.22	1447.94
479.439	1503.94
479.658	1612.94
479.876	1551.94
480.095	1411.94
480.313	1366.94
480.532	1332.94
480.751	1343.94
480.969	1364.94
481.188	1282.94
481.406	1264.94
481.624	1240.94
481.843	1314.94
482.061	1321.94
482.28	1361.94
482.498	1357.94
482.717	1329.94
482.935	1306.94
483.153	1351.94
483.372	1371.94
483.59	1390.94
483.808	1397.94
484.027	1377.94
484.245	1472.94
484.463	1771.94
484.681	1972.94
484.9	1481.94
485.118	1387.94
485.336	1379.94
485.554	1418.94
485.772	1414.94
485.99	1398.94
486.209	1427.94
486.427	1400.94
486.645	1406.94
486.863	1458.94
487.081	1490.94
487.299	1505.94
487.517	1455.94
487.735	1477.94
487.953	1520.94
488.171	1493.94
488.389	1490.94
488.607	1502.94
488.825	1632.94
489.043	1581.94
489.261	1449.94
489.479	1514.94
489.696	1521.94
489.914	1478.94
490.132	1446.94
490.35	1483.94
490.568	1568.94
490.786	1515.94
491.003	1494.94
491.221	1587.94
491.439	1616.94
491.657	1620.94
491.874	1668.94
492.092	1696.94
492.31	1659.94
492.527	1687.94
492.745	1607.94
492.963	1626.94
493.18	1646.94
493.398	1728.94
493.615	1696.94
493.833	1643.94
494.05	1564.94
494.268	1586.94
494.485	1589.94
494.703	1595.94
494.92	1565.94
495.138	1545.94
495.355	1616.94
495.573	1638.94
495.79	1730.94
496.008	1712.94
496.225	1618.94
496.442	1627.94
496.66	1641.94
496.877	1624.94
497.094	1674.94
497.312	1658.94
497.529	1653.94
497.746	1666.94
497.963	1883.94
498.181	1991.94
498.398	1928.94
498.615	1906.94
498.832	1819.94
499.049	1802.94
499.267	1792.94
499.484	1935.94
499.701	2027.94
499.918	2137.94
500.135	2206.94
500.352	2352.94
500.569	2398.94
500.786	2607.94
501.003	2342.94
501.22	2135.94
501.437	2102.94
501.654	2105.94
501.871	2025.94
502.088	1796.94
502.305	1812.94
502.522	1692.94
502.739	1622.94
502.956	1591.94
503.172	1594.94
503.389	1553.94
503.606	1527.94
503.823	1532.94
504.04	1540.94
504.256	1539.94
504.473	1519.94
504.69	1616.94
504.907	1500.94
505.123	1445.94
505.34	1571.94
505.557	2095.94
505.773	1669.94
505.99	1426.94
506.207	1322.94
506.423	1289.94
506.64	1315.94
506.856	1363.94
507.073	1551.94
507.289	1696.94
507.506	1542.94
507.722	1321.94
507.939	1242.94
508.155	1282.94
508.372	1250.94
508.588	1225.94
508.805	1200.94
509.021	1194.94
509.238	1203.94
509.454	1171.94
509.67	1205.94
509.887	1163.94
510.103	1145.94
510.319	1142.94
510.536	1223.94
510.752	1245.94
510.968	1251.94
511.184	1342.94
511.401	1268.94
511.617	1146.94
511.833	1132.94
512.049	1136.94
512.265	1099.94
512.481	1114.94
512.698	1170.94
512.914	1251.94
513.13	1178.94
513.346	1182.94
513.562	1128.94
513.778	1127.94
513.994	1175.94
514.21	1200.94
514.426	1227.94
514.642	1346.94
514.858	1228.94
515.074	1153.94
515.29	1158.94
515.506	1187.94
515.721	1182.94
515.937	1195.94
516.153	1319.94
516.369	1262.94
516.585	1215.94
516.801	1190.94
517.016	1164.94
517.232	1226.94
517.448	1241.94
517.664	1250.94
517.879	1233.94
518.095	1281.94
518.311	1264.94
518.527	1200.94
518.742	1162.94
518.958	1100.94
519.173	1172.94
519.389	1206.94
519.605	1202.94
519.82	1208.94
520.036	1226.94
520.251	1186.94
520.467	1180.94
520.682	1275.94
520.898	1297.94
521.113	1152.94
521.329	1173.94
521.544	1226.94
521.76	1186.94
521.975	1119.94
522.19	1099.94
522.406	1182.94
522.621	1444.94
522.836	1350.94
523.052	1122.94
523.267	1100.94
523.482	1137.94
523.698	1083.94
523.913	1061.94
524.128	1112.94
524.343	1165.94
524.559	1179.94
524.774	1135.94
524.989	1131.94
525.204	1105.94
525.419	1038.94
525.634	1080.94
525.849	1088.94
526.064	1083.94
526.28	1084.94
526.495	1035.94
526.71	1009.94
526.925	1003.94
527.14	996.94
527.355	1007.94
527.57	994.94
527.785	1052.94
527.999	1012.94
528.214	1022.94
528.429	985.94
528.644	1038.94
528.859	1080.94
529.074	1098.94
529.289	1150.94
529.503	1130.94
529.718	1095.94
529.933	1033.94
530.148	991.94
530.363	1008.94
530.577	967.94
530.792	1008.94
531.007	995.94
531.221	1008.94
531.436	1022.94
531.651	1039.94
531.865	1068.94
532.08	1035.94
532.295	972.94
532.509	956.94
532.724	963.94
532.938	1038.94
533.153	1074.94
533.367	1043.94
533.582	1034.94
533.796	1016.94
534.011	1030.94
534.225	1001.94
534.44	1008.94
534.654	986.94
534.868	984.94
535.083	1053.94
535.297	1082.94
535.511	1010.94
535.726	1017.94
535.94	983.94
536.154	991.94
536.369	982.94
536.583	958.94
536.797	948.94
537.011	974.94
537.225	942.94
537.44	943.94
537.654	1011.94
537.868	938.94
538.082	933.94
538.296	938.94
538.51	950.94
538.724	945.94
538.938	975.94
539.153	1015.94
539.367	1008.94
539.581	1006.94
539.795	1028.94
540.009	990.94
540.222	972.94
540.436	1008.94
540.65	1092.94
540.864	1094.94
541.078	1048.94
541.292	1090.94
541.506	1073.94
541.72	1134.94
541.934	1170.94
542.147	1193.94
542.361	1139.94
542.575	1080.94
542.789	1019.94
543.002	1001.94
543.216	1024.94
543.43	1038.94
543.644	1072.94
543.857	1155.94
544.071	1152.94
544.285	1110.94
544.498	1084.94
544.712	1077.94
544.925	1143.94
545.139	1117.94
545.352	1116.94
545.566	1073.94
545.779	1057.94
545.993	1107.94
546.206	1125.94
546.42	1079.94
546.633	1096.94
546.847	1081.94
547.06	1074.94
547.274	1089.94
547.487	1097.94
547.7	1117.94
547.914	1098.94
548.127	1131.94
548.34	1132.94
548.554	1098.94
548.767	1075.94
548.98	1052.94
549.193	1079.94
549.407	1134.94
549.62	1140.94
549.833	1087.94
550.046	1057.94
550.259	1045.94
550.473	1044.94
550.686	1030.94
550.899	1036.94
551.112	984.94
551.325	1004.94
551.538	1092.94
551.751	1176.94
551.964	931.94
552.177	936.94
552.39	978.94
552.603	1002.94
552.816	1042.94
553.029	1049.94
553.242	1104.94
553.455	1082.94
553.667	1080.94
553.88	1063.94
554.093	1024.94
554.306	994.94
554.519	1003.94
554.732	1006.94
554.944	992.94
555.157	993.94
555.37	983.94
555.583	953.94
555.795	914.94
556.008	918.94
556.221	880.94
556.433	892.94
556.646	879.94
556.859	870.94
557.071	878.94
557.284	880.94
557.496	883.94
557.709	865.94
557.921	869.94
558.134	848.94
558.346	898.94
558.559	870.94
558.771	879.94
558.984	822.94
559.196	811.94
559.409	820.94
559.621	811.94
559.833	799.94
560.046	863.94
560.258	872.94
560.47	849.94
560.683	856.94
560.895	826.94
561.107	836.94
561.32	836.94
561.532	846.94
561.744	833.94
561.956	814.94
562.168	807.94
562.381	810.94
562.593	817.94
562.805	808.94
563.017	752.94
563.229	768.94
563.441	832.94
563.653	788.94
563.865	786.94
564.077	779.94
564.289	785.94
564.501	797.94
564.713	807.94
564.925	824.94
565.137	928.94
565.349	823.94
565.561	807.94
565.773	831.94
565.985	832.94
566.197	880.94
566.408	946.94
566.62	918.94
566.832	903.94
567.044	891.94
567.255	923.94
567.467	924.94
567.679	913.94
567.891	944.94
568.102	905.94
568.314	874.94
568.526	818.94
568.737	787.94
568.949	743.94
569.161	738.94
569.372	720.94
569.584	702.94
569.795	696.94
570.007	696.94
570.218	653.94
570.43	657.94
570.641	649.94
570.853	655.94
571.064	678.94
571.276	688.94
571.487	692.94
571.698	687.94
571.91	624.94
572.121	634.94
572.333	645.94
572.544	639.94
572.755	599.94
572.966	578.94
573.178	562.94
573.389	579.94
573.6	638.94
573.811	660.94
574.023	599.94
574.234	577.94
574.445	577.94
574.656	568.94
574.867	590.94
575.078	574.94
575.289	574.94
575.501	586.94
575.712	554.94
575.923	582.94
576.134	581.94
576.345	563.94
576.556	565.94
576.767	546.94
576.978	542.94
577.188	532.94
577.399	533.94
577.61	526.94
577.821	530.94
578.032	547.94
578.243	523.94
578.454	536.94
578.665	525.94
578.875	519.94
579.086	484.94
579.297	522.94
579.508	523.94
579.718	536.94
579.929	504.94
580.14	494.94
580.35	470.94
580.561	508.94
580.772	578.94
580.982	513.94
581.193	486.94
581.403	508.94
581.614	470.94
581.825	474.94
582.035	494.94
582.246	492.94
582.456	523.94
582.667	512.94
582.877	482.94
583.087	480.94
583.298	472.94
583.508	484.94
583.719	480.94
583.929	496.94
584.139	481.94
584.35	480.94
584.56	469.94
584.77	465.94
584.981	470.94
585.191	465.94
585.401	482.94
585.611	473.94
585.821	435.94
586.032	461.94
586.242	452.94
586.452	423.94
586.662	462.94
586.872	468.94
587.082	443.94
587.292	466.94
587.502	477.94
587.713	462.94
587.923	457.94
588.133	454.94
588.343	474.94
588.553	442.94
588.762	457.94
588.972	438.94
589.182	450.94
589.392	439.94
589.602	484.94
589.812	452.94
590.022	461.94
590.232	446.94
590.441	458.94
590.651	466.94
590.861	432.94
591.071	432.94
591.281	442.94
591.49	435.94
591.7	439.94
591.91	433.94
592.119	451.94
592.329	448.94
592.539	455.94
592.748	472.94
592.958	459.94
593.167	478.94
593.377	454.94
593.587	451.94
593.796	474.94
594.006	464.94
594.215	479.94
594.424	473.94
594.634	456.94
594.843	459.94
595.053	458.94
595.262	465.94
595.472	459.94
595.681	460.94
595.89	431.94
596.1	437.94
596.309	465.94
596.518	449.94
596.727	463.94
596.937	433.94
597.146	415.94
597.355	441.94
597.564	395.94
597.774	398.94
597.983	411.94
598.192	379.94
598.401	402.94
598.61	410.94
598.819	390.94
599.028	407.94
599.237	403.94
599.446	396.94
599.655	380.94
599.864	374.94
600.073	414.94
600.282	373.94
600.491	387.94
600.7	384.94
600.909	373.94
601.118	387.94
601.327	414.94
601.536	435.94
601.745	400.94
601.953	398.94
602.162	435.94
602.371	428.94
602.58	427.94
602.789	423.94
602.997	410.94
603.206	419.94
603.415	416.94
603.623	418.94
603.832	399.94
604.041	405.94
604.249	383.94
604.458	382.94
604.666	396.94
604.875	372.94
605.084	391.94
605.292	396.94
605.501	421.94
605.709	426.94
605.918	414.94
606.126	426.94
606.334	414.94
606.543	427.94
606.751	406.94
606.96	417.94
607.168	415.94
607.376	376.94
607.585	408.94
607.793	403.94
608.001	391.94
608.21	401.94
608.418	404.94
608.626	402.94
608.834	425.94
609.043	405.94
609.251	393.94
609.459	394.94
609.667	419.94
609.875	403.94
610.083	428.94
610.291	418.94
610.499	411.94
610.707	399.94
610.916	406.94
611.124	399.94
611.332	407.94
611.54	408.94
611.748	417.94
611.955	410.94
612.163	413.94
612.371	382.94
612.579	393.94
612.787	409.94
612.995	407.94
613.203	422.94
613.411	402.94
613.618	409.94
613.826	387.94
614.034	389.94
614.242	407.94
614.449	386.94
614.657	395.94
614.865	402.94
615.072	402.94
615.28	386.94
615.488	397.94
615.695	412.94
615.903	393.94
616.111	409.94
616.318	376.94
616.526	382.94
616.733	388.94
616.941	384.94
617.148	385.94
617.356	381.94
617.563	380.94
617.771	383.94
617.978	362.94
618.185	377.94
618.393	378.94
618.6	387.94
618.807	391.94
619.015	385.94
619.222	374.94
619.429	365.94
619.637	340.94
619.844	359.94
620.051	347.94
620.258	356.94
620.466	354.94
620.673	354.94
620.88	327.94
621.087	335.94
621.294	331.94
621.501	316.94
621.708	338.94
621.915	364.94
622.122	357.94
622.329	382.94
622.536	359.94
622.743	357.94
622.95	343.94
623.157	340.94
623.364	329.94
623.571	370.94
623.778	344.94
623.985	347.94
624.192	357.94
624.399	337.94
624.606	342.94
624.812	340.94
625.019	332.94
625.226	333.94
625.433	331.94
625.639	339.94
625.846	307.94
626.053	295.94
626.259	315.94
626.466	307.94
626.673	304.94
626.879	298.94
627.086	306.94
627.293	321.94
627.499	319.94
627.706	326.94
627.912	328.94
628.119	323.94
628.325	338.94
628.532	303.94
628.738	330.94
628.945	318.94
629.151	324.94
629.357	310.94
629.564	318.94
629.77	306.94
629.976	321.94
630.183	303.94
630.389	320.94
630.595	298.94
630.802	309.94
631.008	290.94
631.214	307.94
631.42	291.94
631.627	307.94
631.833	282.94
632.039	295.94
632.245	321.94
632.451	288.94
632.657	292.94
632.863	302.94
633.069	295.94
633.275	286.94
633.481	278.94
633.688	287.94
633.893	292.94
634.099	286.94
634.305	267.94
634.511	279.94
634.717	280.94
634.923	275.94
635.129	266.94
635.335	273.94
635.541	272.94
635.747	261.94
635.952	296.94
636.158	295.94
636.364	287.94
636.57	293.94
636.775	294.94
636.981	286.94
637.187	280.94
637.392	299.94
637.598	290.94
637.804	286.94
638.009	297.94
638.215	286.94
638.421	288.94
638.626	273.94
638.832	281.94
639.037	278.94
639.243	294.94
639.448	251.94
639.654	242.94
639.859	259.94
640.065	274.94
640.27	261.94
640.475	266.94
640.681	283.94
640.886	274.94
641.091	265.94
641.297	263.94
641.502	267.94
641.707	271.94
641.913	263.94
642.118	270.94
642.323	259.94
642.528	253.94
642.733	255.94
642.939	258.94
643.144	254.94
643.349	258.94
643.554	260.94
643.759	259.94
643.964	258.94
644.169	261.94
644.374	260.94
644.579	258.94
644.784	258.94
644.989	255.94
645.194	261.94
645.399	256.94
645.604	256.94
645.809	266.94
646.014	260.94
646.219	258.94
646.423	244.94
646.628	259.94
646.833	256.94
647.038	248.94
647.243	243.94
647.447	260.94
647.652	279.94
647.857	264.94
648.062	265.94
648.266	264.94
648.471	262.94
648.676	262.94
648.88	246.94
649.085	263.94
649.289	263.94
649.494	259.94
649.698	249.94
649.903	260.94
650.107	266.94
650.312	273.94
650.516	254.94
650.721	245.94
650.925	243.94
651.13	251.94
651.334	264.94
651.539	241.94
651.743	226.94
651.947	232.94
652.152	220.94
652.356	215.94
652.56	219.94
652.764	228.94
652.969	221.94
653.173	211.94
653.377	222.94
653.581	209.94
653.785	216.94
653.99	204.94
654.194	212.94
654.398	225.94
654.602	215.94
654.806	215.94
655.01	199.94
655.214	236.94
655.418	223.94
655.622	226.94
655.826	227.94
656.03	235.94
656.234	216.94
656.438	245.94
656.642	246.94
656.846	254.94
657.049	233.94
657.253	219.94
657.457	191.94
657.661	195.94
657.865	184.94
658.068	182.94
658.272	165.94
658.476	154.94
658.68	151.94
658.883	139.94
659.087	152.94
659.291	139.94
659.494	142.94
659.698	118.94
659.901	140.94
660.105	150.94
660.309	132.94
660.512	122.94
660.716	130.94
660.919	136.94
661.123	122.94
661.326	119.94
661.53	107.94
661.733	110.94
661.936	102.94
662.14	109.94
662.343	87.94
662.546	99.94
662.75	100.94
662.953	98.94
663.156	103.94
663.36	108.94
663.563	94.94
663.766	79.94
663.969	79.94
664.173	75.94
664.376	75.94
664.579	79.94
664.782	88.94
664.985	80.94
665.188	83.94
665.391	88.94
665.594	85.94
665.797	95.94
666	75.94
666.203	79.94
666.406	69.94
666.609	84.94
666.812	87.94
667.015	80.94
667.218	80.94
667.421	78.94
667.624	76.94
667.827	76.94
668.03	82.94
668.232	83.94
668.435	87.94
668.638	81.94
668.841	76.94
669.043	93.94
669.246	88.94
669.449	92.94
669.651	86.94
669.854	87.94
670.057	78.94
670.259	85.94
670.462	81.94
670.665	84.94
670.867	86.94
671.07	70.94
671.272	84.94
671.475	81.94
671.677	81.94
671.88	87.94
672.082	83.94
672.284	78.94
672.487	92.94
672.689	95.94
672.892	80.94
