Data from WStandard_LampEnergy5.5LIBS07252019.E.O._I.C._HRD10591_16-07-06-920.txt Node
Date: Thu Jul 25 16:07:06 EDT 2019
User: cochatt
Spectrometer: HR+D1059
Trigger mode: 1
Integration Time (sec): 1.000000E-1
Scans to average: 1
Electric dark correction enabled: true
Nonlinearity correction enabled: false
Boxcar width: 0
XAxis mode: Wavelengths
Number of Pixels in Spectrum: 2048
>>>>>Begin Spectral Data<<<<<
223.165	-22.12
223.4	-22.12
223.635	-22.12
223.869	-13.12
224.104	-25.12
224.338	-3.12
224.573	-15.12
224.808	-16.12
225.042	-14.12
225.277	-13.12
225.511	-0.12
225.746	-0.12
225.98	11.88
226.215	4.88
226.449	16.88
226.683	19.88
226.918	38.88
227.152	29.88
227.387	39.88
227.621	29.88
227.856	51.88
228.09	30.88
228.324	36.88
228.559	51.88
228.793	156.88
229.027	366.88
229.262	375.88
229.496	380.88
229.73	419.88
229.964	450.88
230.199	481.88
230.433	463.88
230.667	523.88
230.901	550.88
231.136	518.88
231.37	489.88
231.604	486.88
231.838	475.88
232.072	464.88
232.306	453.88
232.541	480.88
232.775	578.88
233.009	631.88
233.243	604.88
233.477	540.88
233.711	525.88
233.945	586.88
234.179	563.88
234.413	615.88
234.647	643.88
234.881	616.88
235.115	577.88
235.349	576.88
235.583	606.88
235.817	572.88
236.051	554.88
236.285	578.88
236.519	623.88
236.753	703.88
236.987	730.88
237.221	700.88
237.455	769.88
237.689	754.88
237.922	710.88
238.156	665.88
238.39	703.88
238.624	731.88
238.858	781.88
239.091	811.88
239.325	816.88
239.559	975.88
239.793	1000.88
240.027	1099.88
240.26	1089.88
240.494	806.88
240.728	757.88
240.961	770.88
241.195	744.88
241.429	850.88
241.662	868.88
241.896	784.88
242.13	756.88
242.363	865.88
242.597	952.88
242.83	925.88
243.064	911.88
243.298	986.88
243.531	988.88
243.765	959.88
243.998	955.88
244.232	858.88
244.465	795.88
244.699	800.88
244.932	923.88
245.166	1098.88
245.399	1036.88
245.633	970.88
245.866	925.88
246.099	971.88
246.333	991.88
246.566	1020.88
246.8	1091.88
247.033	1226.88
247.266	1128.88
247.5	1107.88
247.733	1077.88
247.966	1148.88
248.2	1291.88
248.433	1272.88
248.666	1268.88
248.899	1405.88
249.133	1593.88
249.366	1814.88
249.599	1463.88
249.832	1303.88
250.066	1329.88
250.299	1346.88
250.532	1253.88
250.765	1122.88
250.998	1198.88
251.231	1251.88
251.465	1310.88
251.698	1226.88
251.931	1247.88
252.164	1272.88
252.397	1307.88
252.63	1300.88
252.863	1144.88
253.096	1109.88
253.329	1190.88
253.562	1229.88
253.795	1365.88
254.028	1331.88
254.261	1204.88
254.494	1221.88
254.727	1179.88
254.96	1193.88
255.193	1318.88
255.426	1463.88
255.659	1688.88
255.892	1721.88
256.124	1454.88
256.357	1368.88
256.59	1507.88
256.823	1478.88
257.056	1445.88
257.289	1787.88
257.521	1996.88
257.754	1780.88
257.987	1666.88
258.22	1822.88
258.452	1813.88
258.685	1471.88
258.918	1397.88
259.151	1457.88
259.383	1369.88
259.616	1208.88
259.849	1288.88
260.081	1501.88
260.314	1630.88
260.547	1770.88
260.779	1815.88
261.012	1681.88
261.244	1505.88
261.477	1417.88
261.71	1456.88
261.942	1462.88
262.175	1423.88
262.407	1524.88
262.64	1417.88
262.872	1314.88
263.105	1291.88
263.337	1328.88
263.57	1315.88
263.802	1397.88
264.035	1282.88
264.267	1202.88
264.499	1164.88
264.732	1252.88
264.964	1357.88
265.197	1413.88
265.429	1446.88
265.661	1640.88
265.894	1825.88
266.126	1863.88
266.358	1670.88
266.591	1712.88
266.823	1857.88
267.055	1725.88
267.287	1649.88
267.52	1636.88
267.752	1600.88
267.984	1595.88
268.216	1705.88
268.448	1723.88
268.681	1761.88
268.913	1611.88
269.145	1488.88
269.377	1450.88
269.609	1573.88
269.841	1782.88
270.073	2119.88
270.306	2328.88
270.538	2565.88
270.77	2143.88
271.002	1812.88
271.234	1732.88
271.466	1686.88
271.698	1887.88
271.93	2313.88
272.162	2313.88
272.394	2076.88
272.626	1953.88
272.858	1751.88
273.09	1511.88
273.322	1498.88
273.553	1385.88
273.785	1430.88
274.017	1510.88
274.249	1667.88
274.481	1684.88
274.713	1475.88
274.945	1467.88
275.176	1458.88
275.408	1446.88
275.64	1433.88
275.872	1395.88
276.104	1469.88
276.335	1710.88
276.567	1972.88
276.799	2017.88
277.031	1806.88
277.262	1662.88
277.494	1728.88
277.726	1938.88
277.957	1915.88
278.189	1738.88
278.421	1632.88
278.652	1528.88
278.884	1515.88
279.115	1506.88
279.347	1573.88
279.579	1514.88
279.81	1497.88
280.042	1671.88
280.273	1849.88
280.505	1842.88
280.736	1915.88
280.968	1769.88
281.199	1553.88
281.431	1458.88
281.662	1473.88
281.894	1472.88
282.125	1542.88
282.356	1587.88
282.588	1601.88
282.819	1568.88
283.051	1690.88
283.282	1852.88
283.513	1794.88
283.745	1575.88
283.976	1456.88
284.207	1464.88
284.439	1547.88
284.67	1549.88
284.901	1564.88
285.132	1605.88
285.364	1566.88
285.595	1589.88
285.826	1550.88
286.057	1544.88
286.288	1532.88
286.52	1589.88
286.751	1754.88
286.982	1781.88
287.213	1664.88
287.444	1479.88
287.675	1449.88
287.906	1565.88
288.138	1652.88
288.369	1640.88
288.6	1554.88
288.831	1510.88
289.062	1495.88
289.293	1560.88
289.524	1545.88
289.755	1628.88
289.986	1595.88
290.217	1502.88
290.448	1478.88
290.679	1610.88
290.91	1531.88
291.141	1656.88
291.371	1675.88
291.602	1656.88
291.833	1649.88
292.064	1732.88
292.295	1669.88
292.526	1718.88
292.757	1835.88
292.987	1707.88
293.218	1563.88
293.449	1714.88
293.68	1932.88
293.91	2162.88
294.141	1978.88
294.372	1823.88
294.603	1848.88
294.833	1994.88
295.064	1883.88
295.295	1700.88
295.525	1631.88
295.756	1539.88
295.987	1455.88
296.217	1478.88
296.448	1551.88
296.679	1567.88
296.909	1557.88
297.14	1518.88
297.37	1536.88
297.601	1659.88
297.831	1804.88
298.062	1801.88
298.292	1630.88
298.523	1548.88
298.753	1564.88
298.984	1598.88
299.214	1599.88
299.445	1586.88
299.675	1689.88
299.905	1666.88
300.136	1600.88
300.366	1561.88
300.597	1510.88
300.827	1491.88
301.057	1570.88
301.288	1678.88
301.518	1666.88
301.748	1673.88
301.979	1762.88
302.209	1758.88
302.439	1946.88
302.669	2021.88
302.9	1916.88
303.13	1664.88
303.36	1668.88
303.59	1737.88
303.82	1707.88
304.051	1664.88
304.281	1656.88
304.511	1704.88
304.741	1711.88
304.971	1987.88
305.201	2148.88
305.431	2030.88
305.661	1610.88
305.891	1471.88
306.121	1436.88
306.352	1541.88
306.582	1614.88
306.812	1714.88
307.042	1860.88
307.272	1874.88
307.502	1932.88
307.731	2055.88
307.961	2192.88
308.191	2059.88
308.421	1723.88
308.651	1660.88
308.881	1623.88
309.111	1655.88
309.341	1597.88
309.571	1632.88
309.8	1664.88
310.03	1583.88
310.26	1602.88
310.49	1582.88
310.72	1620.88
310.949	1695.88
311.179	1728.88
311.409	1686.88
311.639	1673.88
311.868	1634.88
312.098	1651.88
312.328	1652.88
312.557	1607.88
312.787	1664.88
313.017	1680.88
313.246	1640.88
313.476	1662.88
313.706	1720.88
313.935	1746.88
314.165	1708.88
314.394	1786.88
314.624	1840.88
314.853	1992.88
315.083	2058.88
315.312	2154.88
315.542	1995.88
315.771	1758.88
316.001	1776.88
316.23	1852.88
316.46	1830.88
316.689	1810.88
316.919	1695.88
317.148	1672.88
317.377	1655.88
317.607	1782.88
317.836	2030.88
318.065	2072.88
318.295	2003.88
318.524	1952.88
318.753	1835.88
318.983	1800.88
319.212	1802.88
319.441	1792.88
319.67	1724.88
319.9	1773.88
320.129	1851.88
320.358	1902.88
320.587	2015.88
320.816	1986.88
321.046	1945.88
321.275	1807.88
321.504	1853.88
321.733	1977.88
321.962	1928.88
322.191	1800.88
322.42	1776.88
322.649	1759.88
322.878	1737.88
323.108	1779.88
323.337	1848.88
323.566	1826.88
323.795	1796.88
324.024	1802.88
324.253	1777.88
324.482	1832.88
324.71	1747.88
324.939	1677.88
325.168	1704.88
325.397	1766.88
325.626	1829.88
325.855	1825.88
326.084	1768.88
326.313	1806.88
326.542	1780.88
326.77	1849.88
326.999	1897.88
327.228	1780.88
327.457	1664.88
327.686	1675.88
327.914	1655.88
328.143	1779.88
328.372	1769.88
328.6	1762.88
328.829	1775.88
329.058	1753.88
329.287	1706.88
329.515	1775.88
329.744	1809.88
329.972	1866.88
330.201	1959.88
330.43	1932.88
330.658	1839.88
330.887	1851.88
331.115	1893.88
331.344	1897.88
331.572	1856.88
331.801	1860.88
332.03	1810.88
332.258	1842.88
332.486	1896.88
332.715	1910.88
332.943	1896.88
333.172	1854.88
333.4	1851.88
333.629	1926.88
333.857	2040.88
334.085	2202.88
334.314	2500.88
334.542	2830.88
334.771	2610.88
334.999	2268.88
335.227	2128.88
335.455	2014.88
335.684	1989.88
335.912	2028.88
336.14	2169.88
336.369	2051.88
336.597	1951.88
336.825	1842.88
337.053	1915.88
337.281	2011.88
337.51	2114.88
337.738	2210.88
337.966	2147.88
338.194	1942.88
338.422	1842.88
338.65	1848.88
338.878	1814.88
339.106	1769.88
339.334	1763.88
339.562	1747.88
339.79	1752.88
340.018	1904.88
340.246	1953.88
340.474	1980.88
340.702	1943.88
340.93	1940.88
341.158	1895.88
341.386	1871.88
341.614	1878.88
341.842	1832.88
342.07	1840.88
342.298	1858.88
342.526	1891.88
342.754	1854.88
342.981	1808.88
343.209	1791.88
343.437	1763.88
343.665	1808.88
343.893	1870.88
344.12	1966.88
344.348	2014.88
344.576	1937.88
344.804	1817.88
345.031	1827.88
345.259	1844.88
345.487	1810.88
345.714	1704.88
345.942	1671.88
346.17	1680.88
346.397	1740.88
346.625	1754.88
346.853	1663.88
347.08	1654.88
347.308	1616.88
347.535	1675.88
347.763	1749.88
347.99	1712.88
348.218	1651.88
348.445	1670.88
348.673	1704.88
348.9	1747.88
349.128	1826.88
349.355	1866.88
349.583	1802.88
349.81	1781.88
350.037	1603.88
350.265	1604.88
350.492	1611.88
350.72	1629.88
350.947	1682.88
351.174	1757.88
351.402	1655.88
351.629	1574.88
351.856	1609.88
352.083	1524.88
352.311	1593.88
352.538	1644.88
352.765	1731.88
352.992	1769.88
353.22	1716.88
353.447	1629.88
353.674	1645.88
353.901	1724.88
354.128	1663.88
354.355	1654.88
354.583	1716.88
354.81	1751.88
355.037	1748.88
355.264	1733.88
355.491	1683.88
355.718	1707.88
355.945	1715.88
356.172	1660.88
356.399	1628.88
356.626	1638.88
356.853	1694.88
357.08	1828.88
357.307	1994.88
357.534	2033.88
357.761	1784.88
357.988	1687.88
358.215	1594.88
358.441	1623.88
358.668	1603.88
358.895	1600.88
359.122	1717.88
359.349	1924.88
359.576	1886.88
359.802	1714.88
360.029	1627.88
360.256	1560.88
360.483	1624.88
360.709	1678.88
360.936	1754.88
361.163	1830.88
361.39	1928.88
361.616	2130.88
361.843	2068.88
362.07	1961.88
362.296	1707.88
362.523	1675.88
362.749	1616.88
362.976	1700.88
363.203	1724.88
363.429	1660.88
363.656	1610.88
363.882	1688.88
364.109	1827.88
364.335	2009.88
364.562	1915.88
364.788	1806.88
365.015	1737.88
365.241	1637.88
365.468	1693.88
365.694	1758.88
365.92	1834.88
366.147	1794.88
366.373	1656.88
366.599	1595.88
366.826	1605.88
367.052	1627.88
367.278	1623.88
367.505	1658.88
367.731	1702.88
367.957	1731.88
368.184	1770.88
368.41	1817.88
368.636	1890.88
368.862	1889.88
369.089	1903.88
369.315	1831.88
369.541	1769.88
369.767	1687.88
369.993	1655.88
370.219	1654.88
370.445	1692.88
370.672	1762.88
370.898	1873.88
371.124	1893.88
371.35	1780.88
371.576	1794.88
371.802	1902.88
372.028	1819.88
372.254	1724.88
372.48	1717.88
372.706	1679.88
372.932	1672.88
373.158	1668.88
373.384	1692.88
373.61	1752.88
373.835	1896.88
374.061	1793.88
374.287	1784.88
374.513	1746.88
374.739	1716.88
374.965	1723.88
375.191	1814.88
375.416	1796.88
375.642	1806.88
375.868	1940.88
376.094	1988.88
376.319	1873.88
376.545	1772.88
376.771	1764.88
376.997	1885.88
377.222	1855.88
377.448	1774.88
377.674	1828.88
377.899	1814.88
378.125	1933.88
378.35	1911.88
378.576	1758.88
378.802	1683.88
379.027	1706.88
379.253	1757.88
379.478	1733.88
379.704	1726.88
379.929	1695.88
380.155	1740.88
380.38	1753.88
380.606	1753.88
380.831	1768.88
381.057	1842.88
381.282	1909.88
381.507	1829.88
381.733	1922.88
381.958	2036.88
382.184	1859.88
382.409	1765.88
382.634	1863.88
382.86	1800.88
383.085	1794.88
383.31	1841.88
383.535	2000.88
383.761	2138.88
383.986	2028.88
384.211	1976.88
384.436	1902.88
384.662	2018.88
384.887	2117.88
385.112	2037.88
385.337	2052.88
385.562	1986.88
385.787	2054.88
386.013	2074.88
386.238	2048.88
386.463	2030.88
386.688	2158.88
386.913	2305.88
387.138	2275.88
387.363	2085.88
387.588	2070.88
387.813	2054.88
388.038	2062.88
388.263	2127.88
388.488	2085.88
388.713	1895.88
388.938	1899.88
389.163	1939.88
389.387	1989.88
389.612	1974.88
389.837	1976.88
390.062	2032.88
390.287	1977.88
390.512	1980.88
390.736	1969.88
390.961	1939.88
391.186	1898.88
391.411	1943.88
391.636	1976.88
391.86	1988.88
392.085	1978.88
392.31	1953.88
392.534	2000.88
392.759	2019.88
392.984	2003.88
393.208	2008.88
393.433	2097.88
393.658	2159.88
393.882	2177.88
394.107	2023.88
394.331	1969.88
394.556	1992.88
394.78	2002.88
395.005	2102.88
395.229	2150.88
395.454	2279.88
395.678	2336.88
395.903	2171.88
396.127	2110.88
396.352	2114.88
396.576	2195.88
396.801	2230.88
397.025	2197.88
397.249	2208.88
397.474	2204.88
397.698	2148.88
397.922	2172.88
398.147	2289.88
398.371	2404.88
398.595	2384.88
398.82	2293.88
399.044	2322.88
399.268	2423.88
399.492	2616.88
399.717	2678.88
399.941	2679.88
400.165	2615.88
400.389	2591.88
400.613	2547.88
400.837	2748.88
401.062	3216.88
401.286	2756.88
401.51	2520.88
401.734	2606.88
401.958	2555.88
402.182	2371.88
402.406	2269.88
402.63	2256.88
402.854	2293.88
403.078	2282.88
403.302	2326.88
403.526	2372.88
403.75	2396.88
403.974	2426.88
404.198	2384.88
404.422	2453.88
404.645	2553.88
404.869	2531.88
405.093	2311.88
405.317	2296.88
405.541	2392.88
405.765	2419.88
405.988	2390.88
406.212	2399.88
406.436	2487.88
406.66	2537.88
406.883	2585.88
407.107	2833.88
407.331	3079.88
407.555	3313.88
407.778	3108.88
408.002	2560.88
408.226	2483.88
408.449	2499.88
408.673	2391.88
408.896	2434.88
409.12	2514.88
409.344	2426.88
409.567	2332.88
409.791	2450.88
410.014	2396.88
410.238	2538.88
410.461	2698.88
410.685	2451.88
410.908	2301.88
411.132	2339.88
411.355	2418.88
411.578	2326.88
411.802	2356.88
412.025	2409.88
412.249	2327.88
412.472	2232.88
412.695	2258.88
412.919	2278.88
413.142	2238.88
413.365	2260.88
413.589	2334.88
413.812	2423.88
414.035	2542.88
414.258	2321.88
414.482	2281.88
414.705	2267.88
414.928	2287.88
415.151	2253.88
415.374	2262.88
415.597	2272.88
415.821	2313.88
416.044	2398.88
416.267	2405.88
416.49	2201.88
416.713	2114.88
416.936	2265.88
417.159	2346.88
417.382	2399.88
417.605	2209.88
417.828	2242.88
418.051	2304.88
418.274	2257.88
418.497	2162.88
418.72	2211.88
418.943	2188.88
419.166	2342.88
419.389	2461.88
419.611	2228.88
419.834	2258.88
420.057	2270.88
420.28	2173.88
420.503	2177.88
420.726	2232.88
420.948	2226.88
421.171	2176.88
421.394	2161.88
421.617	2234.88
421.839	2233.88
422.062	2274.88
422.285	2122.88
422.507	2169.88
422.73	2139.88
422.953	2078.88
423.175	2084.88
423.398	2185.88
423.621	2174.88
423.843	2207.88
424.066	2203.88
424.288	2292.88
424.511	2348.88
424.733	2268.88
424.956	2081.88
425.178	2072.88
425.401	2130.88
425.623	2146.88
425.846	2127.88
426.068	2235.88
426.291	2307.88
426.513	2260.88
426.735	2213.88
426.958	2340.88
427.18	2523.88
427.402	2291.88
427.625	2358.88
427.847	2411.88
428.069	2237.88
428.292	2143.88
428.514	2079.88
428.736	2068.88
428.958	2149.88
429.181	2137.88
429.403	2359.88
429.625	2992.88
429.847	2655.88
430.069	2131.88
430.292	2409.88
430.514	2564.88
430.736	2272.88
430.958	2399.88
431.18	2305.88
431.402	2124.88
431.624	2100.88
431.846	2109.88
432.068	2071.88
432.29	2090.88
432.512	2110.88
432.734	2188.88
432.956	2237.88
433.178	2309.88
433.4	2290.88
433.622	2277.88
433.844	2182.88
434.066	2103.88
434.287	2082.88
434.509	2174.88
434.731	2296.88
434.953	2431.88
435.175	2409.88
435.397	2214.88
435.618	2276.88
435.84	2271.88
436.062	2202.88
436.284	2210.88
436.505	2274.88
436.727	2295.88
436.949	2245.88
437.17	2137.88
437.392	2119.88
437.614	2118.88
437.835	2119.88
438.057	2240.88
438.278	2271.88
438.5	2172.88
438.721	2164.88
438.943	2084.88
439.165	2136.88
439.386	2050.88
439.608	2095.88
439.829	2100.88
440.05	2128.88
440.272	2047.88
440.493	2050.88
440.715	2110.88
440.936	2278.88
441.158	2526.88
441.379	2478.88
441.6	2335.88
441.822	2330.88
442.043	2302.88
442.264	2230.88
442.486	2131.88
442.707	2105.88
442.928	2120.88
443.149	2195.88
443.371	2311.88
443.592	2408.88
443.813	2323.88
444.034	2325.88
444.255	2327.88
444.476	2362.88
444.698	2400.88
444.919	2348.88
445.14	2492.88
445.361	2486.88
445.582	2550.88
445.803	2434.88
446.024	2307.88
446.245	2423.88
446.466	2338.88
446.687	2185.88
446.908	2177.88
447.129	2139.88
447.35	2164.88
447.571	2146.88
447.792	2065.88
448.013	2037.88
448.234	2112.88
448.455	2202.88
448.675	2243.88
448.896	2055.88
449.117	2008.88
449.338	2086.88
449.559	2190.88
449.779	2308.88
450	2529.88
450.221	2747.88
450.442	2616.88
450.662	2300.88
450.883	2022.88
451.104	1963.88
451.324	2046.88
451.545	2106.88
451.766	2092.88
451.986	1982.88
452.207	1987.88
452.428	1900.88
452.648	1851.88
452.869	1931.88
453.089	2043.88
453.31	2076.88
453.53	2126.88
453.751	2066.88
453.971	1940.88
454.192	1955.88
454.412	2122.88
454.633	2057.88
454.853	1982.88
455.073	1883.88
455.294	1828.88
455.514	1854.88
455.734	1879.88
455.955	1942.88
456.175	1859.88
456.395	1866.88
456.616	1965.88
456.836	1992.88
457.056	1962.88
457.276	1947.88
457.497	1931.88
457.717	1813.88
457.937	1870.88
458.157	1883.88
458.377	1881.88
458.598	1909.88
458.818	1871.88
459.038	2015.88
459.258	2169.88
459.478	2148.88
459.698	2078.88
459.918	2132.88
460.138	2214.88
460.358	2226.88
460.578	2233.88
460.798	2359.88
461.018	2515.88
461.238	2395.88
461.458	2261.88
461.678	2304.88
461.898	2238.88
462.118	2130.88
462.338	2276.88
462.558	2246.88
462.777	2263.88
462.997	2374.88
463.217	2481.88
463.437	2496.88
463.657	2342.88
463.876	2297.88
464.096	2258.88
464.316	2245.88
464.536	2382.88
464.755	2383.88
464.975	2386.88
465.195	2283.88
465.414	2430.88
465.634	2398.88
465.854	2255.88
466.073	2429.88
466.293	2375.88
466.512	2062.88
466.732	2058.88
466.951	2158.88
467.171	2177.88
467.391	2074.88
467.61	2047.88
467.829	2016.88
468.049	2188.88
468.268	2530.88
468.488	2347.88
468.707	2203.88
468.927	2149.88
469.146	2088.88
469.365	2055.88
469.585	2063.88
469.804	2048.88
470.023	2035.88
470.243	2100.88
470.462	2083.88
470.681	2016.88
470.901	2103.88
471.12	2098.88
471.339	2059.88
471.558	1981.88
471.777	1979.88
471.997	2013.88
472.216	2008.88
472.435	1967.88
472.654	1993.88
472.873	2101.88
473.092	2228.88
473.311	2119.88
473.53	1978.88
473.749	1939.88
473.968	2034.88
474.187	2125.88
474.406	2243.88
474.625	2100.88
474.844	2071.88
475.063	2084.88
475.282	2162.88
475.501	2081.88
475.72	2107.88
475.939	2215.88
476.158	2190.88
476.377	2121.88
476.596	2130.88
476.814	2170.88
477.033	2184.88
477.252	2275.88
477.471	2312.88
477.69	2238.88
477.908	2179.88
478.127	2327.88
478.346	2501.88
478.564	2518.88
478.783	2487.88
479.002	2537.88
479.22	2423.88
479.439	2523.88
479.658	2943.88
479.876	2902.88
480.095	2534.88
480.313	2416.88
480.532	2246.88
480.751	2328.88
480.969	2419.88
481.188	2339.88
481.406	2304.88
481.624	2233.88
481.843	2275.88
482.061	2351.88
482.28	2404.88
482.498	2459.88
482.717	2433.88
482.935	2316.88
483.153	2300.88
483.372	2326.88
483.59	2241.88
483.808	2328.88
484.027	2354.88
484.245	2526.88
484.463	2860.88
484.681	3358.88
484.9	2515.88
485.118	2373.88
485.336	2295.88
485.554	2383.88
485.772	2495.88
485.99	2504.88
486.209	2503.88
486.427	2455.88
486.645	2478.88
486.863	2471.88
487.081	2534.88
487.299	2547.88
487.517	2525.88
487.735	2411.88
487.953	2394.88
488.171	2430.88
488.389	2376.88
488.607	2402.88
488.825	2649.88
489.043	2687.88
489.261	2397.88
489.479	2571.88
489.696	2578.88
489.914	2554.88
490.132	2484.88
490.35	2455.88
490.568	2565.88
490.786	2452.88
491.003	2350.88
491.221	2361.88
491.439	2545.88
491.657	2513.88
491.874	2522.88
492.092	2519.88
492.31	2516.88
492.527	2475.88
492.745	2438.88
492.963	2506.88
493.18	2558.88
493.398	2764.88
493.615	2804.88
493.833	2562.88
494.05	2478.88
494.268	2497.88
494.485	2627.88
494.703	2561.88
494.92	2439.88
495.138	2466.88
495.355	2532.88
495.573	2643.88
495.79	2776.88
496.008	2824.88
496.225	2663.88
496.442	2630.88
496.66	2695.88
496.877	2655.88
497.094	2754.88
497.312	2795.88
497.529	2742.88
497.746	2810.88
497.963	3218.88
498.181	3711.88
498.398	3399.88
498.615	3317.88
498.832	3302.88
499.049	3209.88
499.267	3195.88
499.484	3381.88
499.701	3744.88
499.918	3723.88
500.135	3924.88
500.352	4299.88
500.569	4178.88
500.786	4536.88
501.003	4246.88
501.22	3816.88
501.437	3713.88
501.654	3750.88
501.871	3715.88
502.088	3211.88
502.305	3215.88
502.522	3102.88
502.739	2888.88
502.956	2760.88
503.172	2817.88
503.389	2741.88
503.606	2691.88
503.823	2651.88
504.04	2698.88
504.256	2651.88
504.473	2639.88
504.69	2818.88
504.907	2619.88
505.123	2524.88
505.34	2593.88
505.557	3483.88
505.773	2917.88
505.99	2435.88
506.207	2336.88
506.423	2243.88
506.64	2250.88
506.856	2301.88
507.073	2592.88
507.289	2787.88
507.506	2713.88
507.722	2310.88
507.939	2201.88
508.155	2197.88
508.372	2200.88
508.588	2163.88
508.805	2138.88
509.021	2067.88
509.238	2078.88
509.454	2033.88
509.67	2079.88
509.887	2009.88
510.103	2030.88
510.319	2043.88
510.536	2161.88
510.752	2234.88
510.968	2279.88
511.184	2387.88
511.401	2379.88
511.617	2065.88
511.833	2011.88
512.049	2051.88
512.265	2009.88
512.481	2037.88
512.698	2107.88
512.914	2218.88
513.13	2184.88
513.346	2052.88
513.562	1994.88
513.778	2002.88
513.994	2118.88
514.21	2171.88
514.426	2276.88
514.642	2471.88
514.858	2340.88
515.074	2117.88
515.29	2066.88
515.506	2079.88
515.721	2124.88
515.937	2124.88
516.153	2462.88
516.369	2358.88
516.585	2202.88
516.801	2097.88
517.016	2106.88
517.232	2105.88
517.448	2169.88
517.664	2234.88
517.879	2272.88
518.095	2362.88
518.311	2203.88
518.527	2078.88
518.742	2082.88
518.958	2015.88
519.173	2042.88
519.389	2089.88
519.605	2066.88
519.82	2087.88
520.036	2132.88
520.251	2035.88
520.467	2077.88
520.682	2206.88
520.898	2340.88
521.113	2059.88
521.329	2017.88
521.544	2203.88
521.76	2094.88
521.975	1980.88
522.19	1936.88
522.406	1947.88
522.621	2351.88
522.836	2417.88
523.052	1874.88
523.267	1910.88
523.482	1944.88
523.698	1842.88
523.913	1802.88
524.128	1858.88
524.343	1985.88
524.559	2015.88
524.774	1899.88
524.989	1812.88
525.204	1856.88
525.419	1783.88
525.634	1822.88
525.849	1830.88
526.064	1834.88
526.28	1878.88
526.495	1784.88
526.71	1834.88
526.925	1794.88
527.14	1776.88
527.355	1745.88
527.57	1734.88
527.785	1818.88
527.999	1763.88
528.214	1711.88
528.429	1691.88
528.644	1752.88
528.859	1768.88
529.074	1739.88
529.289	1752.88
529.503	1780.88
529.718	1789.88
529.933	1766.88
530.148	1682.88
530.363	1694.88
530.577	1718.88
530.792	1756.88
531.007	1775.88
531.221	1724.88
531.436	1738.88
531.651	1839.88
531.865	1933.88
532.08	1832.88
532.295	1692.88
532.509	1645.88
532.724	1672.88
532.938	1768.88
533.153	1889.88
533.367	1781.88
533.582	1766.88
533.796	1714.88
534.011	1737.88
534.225	1786.88
534.44	1707.88
534.654	1664.88
534.868	1680.88
535.083	1799.88
535.297	1810.88
535.511	1702.88
535.726	1712.88
535.94	1746.88
536.154	1689.88
536.369	1710.88
536.583	1664.88
536.797	1659.88
537.011	1718.88
537.225	1660.88
537.44	1631.88
537.654	1726.88
537.868	1673.88
538.082	1563.88
538.296	1566.88
538.51	1561.88
538.724	1578.88
538.938	1584.88
539.153	1623.88
539.367	1598.88
539.581	1629.88
539.795	1763.88
540.009	1701.88
540.222	1655.88
540.436	1715.88
540.65	1846.88
540.864	1848.88
541.078	1754.88
541.292	1612.88
541.506	1642.88
541.72	1645.88
541.934	1632.88
542.147	1682.88
542.361	1660.88
542.575	1584.88
542.789	1544.88
543.002	1504.88
543.216	1574.88
543.43	1687.88
543.644	1739.88
543.857	1765.88
544.071	1688.88
544.285	1649.88
544.498	1633.88
544.712	1621.88
544.925	1634.88
545.139	1673.88
545.352	1567.88
545.566	1536.88
545.779	1544.88
545.993	1542.88
546.206	1595.88
546.42	1531.88
546.633	1559.88
546.847	1499.88
547.06	1493.88
547.274	1532.88
547.487	1533.88
547.7	1538.88
547.914	1556.88
548.127	1608.88
548.34	1591.88
548.554	1554.88
548.767	1568.88
548.98	1529.88
549.193	1571.88
549.407	1638.88
549.62	1637.88
549.833	1549.88
550.046	1545.88
550.259	1529.88
550.473	1530.88
550.686	1504.88
550.899	1448.88
551.112	1435.88
551.325	1470.88
551.538	1570.88
551.751	1897.88
551.964	1507.88
552.177	1419.88
552.39	1461.88
552.603	1506.88
552.816	1531.88
553.029	1555.88
553.242	1632.88
553.455	1526.88
553.667	1485.88
553.88	1499.88
554.093	1506.88
554.306	1440.88
554.519	1438.88
554.732	1382.88
554.944	1414.88
555.157	1486.88
555.37	1440.88
555.583	1450.88
555.795	1375.88
556.008	1358.88
556.221	1332.88
556.433	1335.88
556.646	1306.88
556.859	1333.88
557.071	1290.88
557.284	1298.88
557.496	1293.88
557.709	1258.88
557.921	1293.88
558.134	1276.88
558.346	1254.88
558.559	1256.88
558.771	1266.88
558.984	1251.88
559.196	1187.88
559.409	1226.88
559.621	1226.88
559.833	1267.88
560.046	1287.88
560.258	1264.88
560.47	1225.88
560.683	1270.88
560.895	1268.88
561.107	1279.88
561.32	1270.88
561.532	1294.88
561.744	1246.88
561.956	1256.88
562.168	1185.88
562.381	1191.88
562.593	1223.88
562.805	1198.88
563.017	1185.88
563.229	1232.88
563.441	1253.88
563.653	1194.88
563.865	1225.88
564.077	1219.88
564.289	1201.88
564.501	1251.88
564.713	1291.88
564.925	1322.88
565.137	1392.88
565.349	1294.88
565.561	1285.88
565.773	1316.88
565.985	1340.88
566.197	1339.88
566.408	1454.88
566.62	1486.88
566.832	1461.88
567.044	1513.88
567.255	1476.88
567.467	1472.88
567.679	1527.88
567.891	1576.88
568.102	1500.88
568.314	1486.88
568.526	1394.88
568.737	1348.88
568.949	1274.88
569.161	1254.88
569.372	1204.88
569.584	1163.88
569.795	1182.88
570.007	1179.88
570.218	1141.88
570.43	1121.88
570.641	1126.88
570.853	1097.88
571.064	1122.88
571.276	1109.88
571.487	1054.88
571.698	1072.88
571.91	1046.88
572.121	1081.88
572.333	1034.88
572.544	1030.88
572.755	981.88
572.966	954.88
573.178	967.88
573.389	1028.88
573.6	1058.88
573.811	1112.88
574.023	1018.88
574.234	970.88
574.445	942.88
574.656	936.88
574.867	934.88
575.078	948.88
575.289	918.88
575.501	930.88
575.712	938.88
575.923	930.88
576.134	950.88
576.345	910.88
576.556	881.88
576.767	894.88
576.978	867.88
577.188	889.88
577.399	872.88
577.61	851.88
577.821	875.88
578.032	869.88
578.243	869.88
578.454	849.88
578.665	870.88
578.875	836.88
579.086	839.88
579.297	835.88
579.508	880.88
579.718	840.88
579.929	829.88
580.14	803.88
580.35	822.88
580.561	844.88
580.772	911.88
580.982	884.88
581.193	829.88
581.403	827.88
581.614	793.88
581.825	793.88
582.035	802.88
582.246	801.88
582.456	841.88
582.667	805.88
582.877	786.88
583.087	801.88
583.298	760.88
583.508	779.88
583.719	799.88
583.929	794.88
584.139	790.88
584.35	779.88
584.56	750.88
584.77	763.88
584.981	815.88
585.191	801.88
585.401	789.88
585.611	777.88
585.821	778.88
586.032	786.88
586.242	725.88
586.452	772.88
586.662	764.88
586.872	740.88
587.082	768.88
587.292	774.88
587.502	795.88
587.713	792.88
587.923	785.88
588.133	768.88
588.343	739.88
588.553	747.88
588.762	746.88
588.972	721.88
589.182	767.88
589.392	739.88
589.602	796.88
589.812	772.88
590.022	734.88
590.232	726.88
590.441	742.88
590.651	747.88
590.861	771.88
591.071	727.88
591.281	740.88
591.49	698.88
591.7	737.88
591.91	728.88
592.119	735.88
592.329	761.88
592.539	770.88
592.748	769.88
592.958	751.88
593.167	768.88
593.377	761.88
593.587	794.88
593.796	790.88
594.006	780.88
594.215	756.88
594.424	780.88
594.634	780.88
594.843	783.88
595.053	790.88
595.262	748.88
595.472	719.88
595.681	728.88
595.89	745.88
596.1	700.88
596.309	688.88
596.518	698.88
596.727	697.88
596.937	679.88
597.146	658.88
597.355	646.88
597.564	654.88
597.774	637.88
597.983	630.88
598.192	625.88
598.401	617.88
598.61	638.88
598.819	628.88
599.028	617.88
599.237	622.88
599.446	635.88
599.655	610.88
599.864	590.88
600.073	599.88
600.282	616.88
600.491	598.88
600.7	594.88
600.909	608.88
601.118	586.88
601.327	602.88
601.536	644.88
601.745	618.88
601.953	603.88
602.162	622.88
602.371	613.88
602.58	600.88
602.789	606.88
602.997	607.88
603.206	630.88
603.415	594.88
603.623	581.88
603.832	582.88
604.041	581.88
604.249	564.88
604.458	571.88
604.666	594.88
604.875	594.88
605.084	604.88
605.292	602.88
605.501	578.88
605.709	562.88
605.918	578.88
606.126	568.88
606.334	571.88
606.543	574.88
606.751	572.88
606.96	573.88
607.168	562.88
607.376	548.88
607.585	540.88
607.793	560.88
608.001	567.88
608.21	547.88
608.418	543.88
608.626	564.88
608.834	547.88
609.043	550.88
609.251	560.88
609.459	553.88
609.667	553.88
609.875	553.88
610.083	546.88
610.291	568.88
610.499	568.88
610.707	540.88
610.916	532.88
611.124	513.88
611.332	549.88
611.54	536.88
611.748	518.88
611.955	514.88
612.163	523.88
612.371	538.88
612.579	516.88
612.787	507.88
612.995	531.88
613.203	536.88
613.411	524.88
613.618	531.88
613.826	542.88
614.034	551.88
614.242	518.88
614.449	520.88
614.657	522.88
614.865	522.88
615.072	503.88
615.28	499.88
615.488	514.88
615.695	547.88
615.903	538.88
616.111	518.88
616.318	512.88
616.526	504.88
616.733	499.88
616.941	531.88
617.148	508.88
617.356	492.88
617.563	504.88
617.771	514.88
617.978	488.88
618.185	483.88
618.393	494.88
618.6	498.88
618.807	494.88
619.015	512.88
619.222	499.88
619.429	498.88
619.637	478.88
619.844	482.88
620.051	491.88
620.258	465.88
620.466	470.88
620.673	458.88
620.88	458.88
621.087	460.88
621.294	475.88
621.501	468.88
621.708	460.88
621.915	460.88
622.122	458.88
622.329	483.88
622.536	463.88
622.743	468.88
622.95	465.88
623.157	452.88
623.364	439.88
623.571	455.88
623.778	447.88
623.985	459.88
624.192	474.88
624.399	426.88
624.606	462.88
624.812	417.88
625.019	430.88
625.226	430.88
625.433	448.88
625.639	443.88
625.846	430.88
626.053	427.88
626.259	432.88
626.466	406.88
626.673	410.88
626.879	418.88
627.086	412.88
627.293	438.88
627.499	391.88
627.706	438.88
627.912	416.88
628.119	428.88
628.325	413.88
628.532	412.88
628.738	414.88
628.945	404.88
629.151	409.88
629.357	414.88
629.564	403.88
629.77	407.88
629.976	386.88
630.183	382.88
630.389	405.88
630.595	408.88
630.802	392.88
631.008	390.88
631.214	386.88
631.42	368.88
631.627	389.88
631.833	371.88
632.039	361.88
632.245	380.88
632.451	364.88
632.657	371.88
632.863	384.88
633.069	399.88
633.275	360.88
633.481	357.88
633.688	367.88
633.893	362.88
634.099	348.88
634.305	362.88
634.511	369.88
634.717	355.88
634.923	359.88
635.129	334.88
635.335	363.88
635.541	361.88
635.747	348.88
635.952	358.88
636.158	346.88
636.364	367.88
636.57	350.88
636.775	376.88
636.981	352.88
637.187	348.88
637.392	335.88
637.598	345.88
637.804	366.88
638.009	354.88
638.215	346.88
638.421	344.88
638.626	331.88
638.832	324.88
639.037	357.88
639.243	350.88
639.448	331.88
639.654	335.88
639.859	335.88
640.065	321.88
640.27	347.88
640.475	345.88
640.681	339.88
640.886	340.88
641.091	338.88
641.297	320.88
641.502	331.88
641.707	332.88
641.913	325.88
642.118	325.88
642.323	338.88
642.528	324.88
642.733	315.88
642.939	322.88
643.144	323.88
643.349	335.88
643.554	327.88
643.759	323.88
643.964	327.88
644.169	337.88
644.374	319.88
644.579	308.88
644.784	326.88
644.989	313.88
645.194	318.88
645.399	321.88
645.604	308.88
645.809	314.88
646.014	320.88
646.219	330.88
646.423	315.88
646.628	330.88
646.833	319.88
647.038	316.88
647.243	331.88
647.447	315.88
647.652	314.88
647.857	312.88
648.062	319.88
648.266	320.88
648.471	316.88
648.676	324.88
648.88	318.88
649.085	325.88
649.289	309.88
649.494	297.88
649.698	311.88
649.903	299.88
650.107	314.88
650.312	296.88
650.516	297.88
650.721	284.88
650.925	287.88
651.13	287.88
651.334	283.88
651.539	290.88
651.743	280.88
651.947	269.88
652.152	265.88
652.356	276.88
652.56	268.88
652.764	275.88
652.969	240.88
653.173	245.88
653.377	246.88
653.581	258.88
653.785	247.88
653.99	235.88
654.194	238.88
654.398	248.88
654.602	234.88
654.806	246.88
655.01	237.88
655.214	238.88
655.418	243.88
655.622	263.88
655.826	233.88
656.03	258.88
656.234	252.88
656.438	269.88
656.642	266.88
656.846	244.88
657.049	229.88
657.253	235.88
657.457	212.88
657.661	193.88
657.865	167.88
658.068	173.88
658.272	162.88
658.476	174.88
658.68	140.88
658.883	140.88
659.087	142.88
659.291	135.88
659.494	138.88
659.698	136.88
659.901	152.88
660.105	140.88
660.309	121.88
660.512	110.88
660.716	112.88
660.919	99.88
661.123	116.88
661.326	114.88
661.53	122.88
661.733	115.88
661.936	105.88
662.14	94.88
662.343	96.88
662.546	96.88
662.75	95.88
662.953	99.88
663.156	92.88
663.36	93.88
663.563	78.88
663.766	85.88
663.969	60.88
664.173	85.88
664.376	89.88
664.579	81.88
664.782	89.88
664.985	82.88
665.188	89.88
665.391	73.88
665.594	74.88
665.797	87.88
666	76.88
666.203	83.88
666.406	76.88
666.609	76.88
666.812	89.88
667.015	80.88
667.218	82.88
667.421	81.88
667.624	81.88
667.827	86.88
668.03	69.88
668.232	73.88
668.435	74.88
668.638	91.88
668.841	93.88
669.043	82.88
669.246	73.88
669.449	74.88
669.651	80.88
669.854	81.88
670.057	90.88
670.259	73.88
670.462	83.88
670.665	83.88
670.867	90.88
671.07	86.88
671.272	76.88
671.475	95.88
671.677	89.88
671.88	77.88
672.082	83.88
672.284	86.88
672.487	83.88
672.689	78.88
672.892	72.88
