Data from WStandard_LampEnergy10_LIBS07252019.E.O._I.C._HRD10591_15-55-59-928.txt Node
Date: Thu Jul 25 15:55:59 EDT 2019
User: cochatt
Spectrometer: HR+D1059
Trigger mode: 1
Integration Time (sec): 1.000000E-1
Scans to average: 1
Electric dark correction enabled: true
Nonlinearity correction enabled: false
Boxcar width: 0
XAxis mode: Wavelengths
Number of Pixels in Spectrum: 2048
>>>>>Begin Spectral Data<<<<<
223.165	-13.75
223.4	-13.75
223.635	-13.75
223.869	-20.75
224.104	-21.75
224.338	-33.75
224.573	-1.75
224.808	-12.75
225.042	-10.75
225.277	-22.75
225.511	-3.75
225.746	-1.75
225.98	17.25
226.215	25.25
226.449	12.25
226.683	24.25
226.918	32.25
227.152	32.25
227.387	29.25
227.621	44.25
227.856	52.25
228.09	48.25
228.324	50.25
228.559	58.25
228.793	60.25
229.027	138.25
229.262	143.25
229.496	156.25
229.73	162.25
229.964	176.25
230.199	162.25
230.433	178.25
230.667	176.25
230.901	188.25
231.136	175.25
231.37	186.25
231.604	188.25
231.838	172.25
232.072	189.25
232.306	181.25
232.541	194.25
232.775	196.25
233.009	202.25
233.243	210.25
233.477	200.25
233.711	202.25
233.945	197.25
234.179	191.25
234.413	185.25
234.647	230.25
234.881	201.25
235.115	192.25
235.349	189.25
235.583	210.25
235.817	202.25
236.051	177.25
236.285	209.25
236.519	212.25
236.753	233.25
236.987	234.25
237.221	214.25
237.455	244.25
237.689	234.25
237.922	229.25
238.156	230.25
238.39	233.25
238.624	230.25
238.858	249.25
239.091	252.25
239.325	262.25
239.559	287.25
239.793	300.25
240.027	319.25
240.26	297.25
240.494	234.25
240.728	232.25
240.961	246.25
241.195	238.25
241.429	241.25
241.662	245.25
241.896	244.25
242.13	256.25
242.363	256.25
242.597	276.25
242.83	283.25
243.064	280.25
243.298	305.25
243.531	271.25
243.765	280.25
243.998	280.25
244.232	254.25
244.465	264.25
244.699	261.25
244.932	292.25
245.166	297.25
245.399	306.25
245.633	270.25
245.866	296.25
246.099	301.25
246.333	308.25
246.566	306.25
246.8	328.25
247.033	336.25
247.266	301.25
247.5	315.25
247.733	312.25
247.966	339.25
248.2	360.25
248.433	353.25
248.666	368.25
248.899	406.25
249.133	442.25
249.366	470.25
249.599	411.25
249.832	368.25
250.066	357.25
250.299	340.25
250.532	364.25
250.765	323.25
250.998	342.25
251.231	350.25
251.465	353.25
251.698	340.25
251.931	339.25
252.164	345.25
252.397	370.25
252.63	347.25
252.863	308.25
253.096	322.25
253.329	344.25
253.562	358.25
253.795	384.25
254.028	359.25
254.261	337.25
254.494	335.25
254.727	343.25
254.96	372.25
255.193	386.25
255.426	415.25
255.659	447.25
255.892	461.25
256.124	411.25
256.357	373.25
256.59	417.25
256.823	418.25
257.056	417.25
257.289	496.25
257.521	504.25
257.754	461.25
257.987	456.25
258.22	464.25
258.452	458.25
258.685	405.25
258.918	405.25
259.151	384.25
259.383	380.25
259.616	356.25
259.849	374.25
260.081	419.25
260.314	452.25
260.547	461.25
260.779	476.25
261.012	446.25
261.244	380.25
261.477	373.25
261.71	413.25
261.942	403.25
262.175	384.25
262.407	408.25
262.64	383.25
262.872	357.25
263.105	361.25
263.337	371.25
263.57	386.25
263.802	377.25
264.035	364.25
264.267	342.25
264.499	338.25
264.732	358.25
264.964	377.25
265.197	420.25
265.429	417.25
265.661	462.25
265.894	489.25
266.126	508.25
266.358	444.25
266.591	494.25
266.823	477.25
267.055	448.25
267.287	454.25
267.52	443.25
267.752	456.25
267.984	436.25
268.216	461.25
268.448	464.25
268.681	449.25
268.913	433.25
269.145	411.25
269.377	424.25
269.609	458.25
269.841	514.25
270.073	585.25
270.306	616.25
270.538	642.25
270.77	562.25
271.002	499.25
271.234	474.25
271.466	486.25
271.698	554.25
271.93	612.25
272.162	583.25
272.394	555.25
272.626	508.25
272.858	444.25
273.09	415.25
273.322	425.25
273.553	359.25
273.785	392.25
274.017	424.25
274.249	443.25
274.481	430.25
274.713	391.25
274.945	396.25
275.176	393.25
275.408	414.25
275.64	391.25
275.872	411.25
276.104	461.25
276.335	496.25
276.567	532.25
276.799	527.25
277.031	468.25
277.262	464.25
277.494	505.25
277.726	532.25
277.957	505.25
278.189	479.25
278.421	459.25
278.652	430.25
278.884	399.25
279.115	434.25
279.347	446.25
279.579	427.25
279.81	452.25
280.042	460.25
280.273	505.25
280.505	484.25
280.736	490.25
280.968	469.25
281.199	444.25
281.431	410.25
281.662	420.25
281.894	402.25
282.125	449.25
282.356	448.25
282.588	465.25
282.819	465.25
283.051	489.25
283.282	493.25
283.513	505.25
283.745	442.25
283.976	417.25
284.207	416.25
284.439	415.25
284.67	448.25
284.901	458.25
285.132	472.25
285.364	456.25
285.595	457.25
285.826	449.25
286.057	442.25
286.288	444.25
286.52	481.25
286.751	492.25
286.982	474.25
287.213	461.25
287.444	427.25
287.675	441.25
287.906	461.25
288.138	506.25
288.369	473.25
288.6	443.25
288.831	455.25
289.062	437.25
289.293	444.25
289.524	461.25
289.755	458.25
289.986	472.25
290.217	439.25
290.448	450.25
290.679	462.25
290.91	484.25
291.141	481.25
291.371	494.25
291.602	480.25
291.833	496.25
292.064	503.25
292.295	489.25
292.526	506.25
292.757	518.25
292.987	486.25
293.218	483.25
293.449	533.25
293.68	575.25
293.91	592.25
294.141	562.25
294.372	530.25
294.603	558.25
294.833	565.25
295.064	530.25
295.295	484.25
295.525	445.25
295.756	457.25
295.987	432.25
296.217	443.25
296.448	464.25
296.679	458.25
296.909	469.25
297.14	459.25
297.37	466.25
297.601	490.25
297.831	520.25
298.062	512.25
298.292	458.25
298.523	464.25
298.753	471.25
298.984	452.25
299.214	462.25
299.445	505.25
299.675	524.25
299.905	513.25
300.136	501.25
300.366	477.25
300.597	449.25
300.827	467.25
301.057	489.25
301.288	510.25
301.518	517.25
301.748	514.25
301.979	544.25
302.209	551.25
302.439	594.25
302.669	580.25
302.9	539.25
303.13	512.25
303.36	498.25
303.59	514.25
303.82	501.25
304.051	515.25
304.281	526.25
304.511	551.25
304.741	588.25
304.971	620.25
305.201	630.25
305.431	573.25
305.661	483.25
305.891	450.25
306.121	452.25
306.352	483.25
306.582	516.25
306.812	506.25
307.042	558.25
307.272	590.25
307.502	611.25
307.731	627.25
307.961	620.25
308.191	580.25
308.421	536.25
308.651	525.25
308.881	506.25
309.111	501.25
309.341	489.25
309.571	493.25
309.8	508.25
310.03	508.25
310.26	503.25
310.49	485.25
310.72	503.25
310.949	536.25
311.179	530.25
311.409	504.25
311.639	525.25
311.868	492.25
312.098	513.25
312.328	486.25
312.557	497.25
312.787	506.25
313.017	532.25
313.246	512.25
313.476	524.25
313.706	551.25
313.935	533.25
314.165	561.25
314.394	571.25
314.624	588.25
314.853	616.25
315.083	629.25
315.312	646.25
315.542	583.25
315.771	523.25
316.001	563.25
316.23	565.25
316.46	561.25
316.689	570.25
316.919	548.25
317.148	527.25
317.377	532.25
317.607	566.25
317.836	612.25
318.065	642.25
318.295	611.25
318.524	589.25
318.753	582.25
318.983	571.25
319.212	555.25
319.441	530.25
319.67	546.25
319.9	573.25
320.129	616.25
320.358	605.25
320.587	625.25
320.816	628.25
321.046	601.25
321.275	568.25
321.504	598.25
321.733	620.25
321.962	586.25
322.191	565.25
322.42	550.25
322.649	541.25
322.878	552.25
323.108	552.25
323.337	598.25
323.566	580.25
323.795	561.25
324.024	555.25
324.253	590.25
324.482	556.25
324.71	542.25
324.939	527.25
325.168	543.25
325.397	552.25
325.626	570.25
325.855	570.25
326.084	557.25
326.313	586.25
326.542	575.25
326.77	599.25
326.999	560.25
327.228	559.25
327.457	544.25
327.686	532.25
327.914	544.25
328.143	566.25
328.372	583.25
328.6	579.25
328.829	551.25
329.058	538.25
329.287	541.25
329.515	568.25
329.744	583.25
329.972	606.25
330.201	631.25
330.43	593.25
330.658	591.25
330.887	610.25
331.115	600.25
331.344	594.25
331.572	604.25
331.801	604.25
332.03	578.25
332.258	627.25
332.486	604.25
332.715	621.25
332.943	604.25
333.172	596.25
333.4	617.25
333.629	632.25
333.857	644.25
334.085	761.25
334.314	821.25
334.542	854.25
334.771	786.25
334.999	685.25
335.227	665.25
335.455	637.25
335.684	647.25
335.912	634.25
336.14	662.25
336.369	619.25
336.597	603.25
336.825	607.25
337.053	612.25
337.281	676.25
337.51	723.25
337.738	700.25
337.966	648.25
338.194	622.25
338.422	598.25
338.65	601.25
338.878	572.25
339.106	568.25
339.334	568.25
339.562	572.25
339.79	580.25
340.018	639.25
340.246	620.25
340.474	642.25
340.702	617.25
340.93	598.25
341.158	612.25
341.386	598.25
341.614	612.25
341.842	606.25
342.07	594.25
342.298	614.25
342.526	583.25
342.754	597.25
342.981	609.25
343.209	596.25
343.437	598.25
343.665	593.25
343.893	634.25
344.12	636.25
344.348	605.25
344.576	610.25
344.804	621.25
345.031	603.25
345.259	620.25
345.487	574.25
345.714	556.25
345.942	557.25
346.17	578.25
346.397	570.25
346.625	552.25
346.853	528.25
347.08	506.25
347.308	548.25
347.535	554.25
347.763	586.25
347.99	568.25
348.218	556.25
348.445	568.25
348.673	591.25
348.9	576.25
349.128	596.25
349.355	618.25
349.583	621.25
349.81	565.25
350.037	533.25
350.265	540.25
350.492	538.25
350.72	534.25
350.947	558.25
351.174	570.25
351.402	553.25
351.629	544.25
351.856	530.25
352.083	513.25
352.311	541.25
352.538	560.25
352.765	582.25
352.992	564.25
353.22	559.25
353.447	559.25
353.674	547.25
353.901	564.25
354.128	543.25
354.355	558.25
354.583	589.25
354.81	615.25
355.037	573.25
355.264	570.25
355.491	564.25
355.718	590.25
355.945	579.25
356.172	554.25
356.399	554.25
356.626	516.25
356.853	585.25
357.08	642.25
357.307	669.25
357.534	638.25
357.761	609.25
357.988	548.25
358.215	540.25
358.441	555.25
358.668	563.25
358.895	568.25
359.122	590.25
359.349	636.25
359.576	642.25
359.802	584.25
360.029	534.25
360.256	540.25
360.483	566.25
360.709	572.25
360.936	608.25
361.163	634.25
361.39	704.25
361.616	714.25
361.843	693.25
362.07	654.25
362.296	576.25
362.523	562.25
362.749	578.25
362.976	594.25
363.203	599.25
363.429	562.25
363.656	551.25
363.882	597.25
364.109	648.25
364.335	662.25
364.562	631.25
364.788	590.25
365.015	574.25
365.241	565.25
365.468	570.25
365.694	604.25
365.92	610.25
366.147	604.25
366.373	557.25
366.599	556.25
366.826	543.25
367.052	569.25
367.278	587.25
367.505	602.25
367.731	604.25
367.957	609.25
368.184	624.25
368.41	654.25
368.636	686.25
368.862	673.25
369.089	643.25
369.315	644.25
369.541	596.25
369.767	626.25
369.993	610.25
370.219	606.25
370.445	620.25
370.672	652.25
370.898	673.25
371.124	640.25
371.35	627.25
371.576	660.25
371.802	669.25
372.028	614.25
372.254	619.25
372.48	596.25
372.706	597.25
372.932	612.25
373.158	600.25
373.384	640.25
373.61	666.25
373.835	649.25
374.061	625.25
374.287	633.25
374.513	644.25
374.739	627.25
374.965	633.25
375.191	642.25
375.416	639.25
375.642	663.25
375.868	725.25
376.094	682.25
376.319	648.25
376.545	646.25
376.771	669.25
376.997	690.25
377.222	678.25
377.448	667.25
377.674	687.25
377.899	670.25
378.125	708.25
378.35	733.25
378.576	649.25
378.802	630.25
379.027	635.25
379.253	642.25
379.478	633.25
379.704	652.25
379.929	653.25
380.155	653.25
380.38	629.25
380.606	668.25
380.831	660.25
381.057	690.25
381.282	671.25
381.507	690.25
381.733	771.25
381.958	732.25
382.184	677.25
382.409	690.25
382.634	673.25
382.86	683.25
383.085	681.25
383.31	748.25
383.535	786.25
383.761	800.25
383.986	749.25
384.211	740.25
384.436	744.25
384.662	762.25
384.887	801.25
385.112	733.25
385.337	743.25
385.562	748.25
385.787	748.25
386.013	767.25
386.238	752.25
386.463	745.25
386.688	827.25
386.913	856.25
387.138	802.25
387.363	780.25
387.588	747.25
387.813	748.25
388.038	790.25
388.263	782.25
388.488	763.25
388.713	699.25
388.938	737.25
389.163	735.25
389.387	726.25
389.612	742.25
389.837	754.25
390.062	772.25
390.287	749.25
390.512	741.25
390.736	739.25
390.961	740.25
391.186	713.25
391.411	724.25
391.636	747.25
391.86	759.25
392.085	749.25
392.31	763.25
392.534	758.25
392.759	765.25
392.984	747.25
393.208	778.25
393.433	810.25
393.658	855.25
393.882	805.25
394.107	766.25
394.331	758.25
394.556	772.25
394.78	807.25
395.005	782.25
395.229	839.25
395.454	877.25
395.678	862.25
395.903	828.25
396.127	780.25
396.352	805.25
396.576	866.25
396.801	841.25
397.025	840.25
397.249	842.25
397.474	808.25
397.698	835.25
397.922	876.25
398.147	878.25
398.371	892.25
398.595	891.25
398.82	868.25
399.044	870.25
399.268	880.25
399.492	950.25
399.717	964.25
399.941	989.25
400.165	970.25
400.389	967.25
400.613	970.25
400.837	1117.25
401.062	1187.25
401.286	1005.25
401.51	972.25
401.734	962.25
401.958	922.25
402.182	906.25
402.406	892.25
402.63	873.25
402.854	867.25
403.078	904.25
403.302	892.25
403.526	908.25
403.75	931.25
403.974	902.25
404.198	953.25
404.422	955.25
404.645	1005.25
404.869	956.25
405.093	902.25
405.317	890.25
405.541	923.25
405.765	933.25
405.988	939.25
406.212	953.25
406.436	956.25
406.66	1000.25
406.883	1020.25
407.107	1131.25
407.331	1243.25
407.555	1274.25
407.778	1148.25
408.002	989.25
408.226	950.25
408.449	962.25
408.673	930.25
408.896	930.25
409.12	960.25
409.344	947.25
409.567	944.25
409.791	927.25
410.014	982.25
410.238	1067.25
410.461	1024.25
410.685	961.25
410.908	955.25
411.132	964.25
411.355	942.25
411.578	888.25
411.802	952.25
412.025	931.25
412.249	936.25
412.472	916.25
412.695	930.25
412.919	910.25
413.142	961.25
413.365	934.25
413.589	965.25
413.812	1021.25
414.035	1026.25
414.258	932.25
414.482	914.25
414.705	914.25
414.928	908.25
415.151	940.25
415.374	936.25
415.597	931.25
415.821	953.25
416.044	920.25
416.267	926.25
416.49	905.25
416.713	896.25
416.936	952.25
417.159	999.25
417.382	956.25
417.605	920.25
417.828	932.25
418.051	954.25
418.274	936.25
418.497	898.25
418.72	918.25
418.943	930.25
419.166	944.25
419.389	984.25
419.611	961.25
419.834	956.25
420.057	953.25
420.28	907.25
420.503	933.25
420.726	934.25
420.948	941.25
421.171	905.25
421.394	941.25
421.617	967.25
421.839	972.25
422.062	962.25
422.285	941.25
422.507	908.25
422.73	905.25
422.953	890.25
423.175	885.25
423.398	932.25
423.621	915.25
423.843	944.25
424.066	1002.25
424.288	1037.25
424.511	1011.25
424.733	989.25
424.956	922.25
425.178	906.25
425.401	911.25
425.623	939.25
425.846	933.25
426.068	1005.25
426.291	969.25
426.513	953.25
426.735	957.25
426.958	1034.25
427.18	1060.25
427.402	986.25
427.625	1019.25
427.847	988.25
428.069	942.25
428.292	946.25
428.514	894.25
428.736	902.25
428.958	912.25
429.181	931.25
429.403	1048.25
429.625	1233.25
429.847	1050.25
430.069	950.25
430.292	1046.25
430.514	1051.25
430.736	981.25
430.958	976.25
431.18	925.25
431.402	882.25
431.624	827.25
431.846	788.25
432.068	731.25
432.29	744.25
432.512	783.25
432.734	878.25
432.956	927.25
433.178	944.25
433.4	972.25
433.622	974.25
433.844	914.25
434.066	847.25
434.287	816.25
434.509	777.25
434.731	861.25
434.953	920.25
435.175	918.25
435.397	899.25
435.618	889.25
435.84	874.25
436.062	831.25
436.284	920.25
436.505	925.25
436.727	948.25
436.949	910.25
437.17	893.25
437.392	875.25
437.614	846.25
437.835	814.25
438.057	813.25
438.278	860.25
438.5	849.25
438.721	878.25
438.943	914.25
439.165	900.25
439.386	933.25
439.608	939.25
439.829	949.25
440.05	950.25
440.272	952.25
440.493	954.25
440.715	983.25
440.936	1024.25
441.158	1050.25
441.379	1039.25
441.6	1034.25
441.822	1009.25
442.043	1019.25
442.264	940.25
442.486	969.25
442.707	937.25
442.928	959.25
443.149	966.25
443.371	969.25
443.592	1018.25
443.813	1001.25
444.034	1017.25
444.255	1012.25
444.476	994.25
444.698	1028.25
444.919	1037.25
445.14	1159.25
445.361	1094.25
445.582	1076.25
445.803	1040.25
446.024	1037.25
446.245	1072.25
446.466	1048.25
446.687	1044.25
446.908	1058.25
447.129	1037.25
447.35	1005.25
447.571	999.25
447.792	952.25
448.013	953.25
448.234	982.25
448.455	996.25
448.675	976.25
448.896	890.25
449.117	914.25
449.338	910.25
449.559	947.25
449.779	973.25
450	1030.25
450.221	1082.25
450.442	1038.25
450.662	946.25
450.883	877.25
451.104	876.25
451.324	873.25
451.545	861.25
451.766	880.25
451.986	868.25
452.207	824.25
452.428	806.25
452.648	786.25
452.869	772.25
453.089	820.25
453.31	792.25
453.53	759.25
453.751	752.25
453.971	700.25
454.192	730.25
454.412	785.25
454.633	762.25
454.853	756.25
455.073	732.25
455.294	774.25
455.514	763.25
455.734	790.25
455.955	752.25
456.175	749.25
456.395	768.25
456.616	716.25
456.836	743.25
457.056	745.25
457.276	720.25
457.497	701.25
457.717	700.25
457.937	722.25
458.157	727.25
458.377	721.25
458.598	707.25
458.818	653.25
459.038	689.25
459.258	706.25
459.478	720.25
459.698	696.25
459.918	733.25
460.138	777.25
460.358	816.25
460.578	828.25
460.798	849.25
461.018	871.25
461.238	906.25
461.458	854.25
461.678	832.25
461.898	832.25
462.118	849.25
462.338	846.25
462.558	850.25
462.777	855.25
462.997	861.25
463.217	864.25
463.437	880.25
463.657	831.25
463.876	807.25
464.096	838.25
464.316	829.25
464.536	852.25
464.755	887.25
464.975	885.25
465.195	874.25
465.414	889.25
465.634	865.25
465.854	868.25
466.073	959.25
466.293	917.25
466.512	867.25
466.732	877.25
466.951	909.25
467.171	920.25
467.391	871.25
467.61	861.25
467.829	902.25
468.049	990.25
468.268	1043.25
468.488	948.25
468.707	925.25
468.927	906.25
469.146	916.25
469.365	917.25
469.585	927.25
469.804	908.25
470.023	955.25
470.243	923.25
470.462	937.25
470.681	905.25
470.901	893.25
471.12	953.25
471.339	968.25
471.558	911.25
471.777	898.25
471.997	901.25
472.216	867.25
472.435	804.25
472.654	772.25
472.873	790.25
473.092	848.25
473.311	825.25
473.53	813.25
473.749	800.25
473.968	832.25
474.187	844.25
474.406	865.25
474.625	875.25
474.844	851.25
475.063	892.25
475.282	863.25
475.501	838.25
475.72	854.25
475.939	914.25
476.158	892.25
476.377	852.25
476.596	835.25
476.814	861.25
477.033	805.25
477.252	856.25
477.471	900.25
477.69	914.25
477.908	919.25
478.127	1004.25
478.346	1002.25
478.564	1003.25
478.783	987.25
479.002	1009.25
479.22	1030.25
479.439	1018.25
479.658	1049.25
479.876	982.25
480.095	927.25
480.313	881.25
480.532	884.25
480.751	864.25
480.969	836.25
481.188	802.25
481.406	771.25
481.624	783.25
481.843	795.25
482.061	804.25
482.28	872.25
482.498	910.25
482.717	867.25
482.935	887.25
483.153	971.25
483.372	1032.25
483.59	1014.25
483.808	1006.25
484.027	936.25
484.245	1010.25
484.463	1180.25
484.681	1292.25
484.9	1038.25
485.118	959.25
485.336	925.25
485.554	898.25
485.772	889.25
485.99	873.25
486.209	922.25
486.427	902.25
486.645	932.25
486.863	971.25
487.081	1025.25
487.299	984.25
487.517	990.25
487.735	1113.25
487.953	1172.25
488.171	1181.25
488.389	1131.25
488.607	1068.25
488.825	1134.25
489.043	1044.25
489.261	976.25
489.479	1077.25
489.696	1041.25
489.914	1018.25
490.132	1026.25
490.35	1082.25
490.568	1161.25
490.786	1152.25
491.003	1193.25
491.221	1259.25
491.439	1274.25
491.657	1285.25
491.874	1331.25
492.092	1404.25
492.31	1497.25
492.527	1451.25
492.745	1350.25
492.963	1309.25
493.18	1304.25
493.398	1385.25
493.615	1356.25
493.833	1259.25
494.05	1228.25
494.268	1237.25
494.485	1226.25
494.703	1228.25
494.92	1203.25
495.138	1214.25
495.355	1202.25
495.573	1273.25
495.79	1277.25
496.008	1289.25
496.225	1230.25
496.442	1273.25
496.66	1212.25
496.877	1186.25
497.094	1252.25
497.312	1235.25
497.529	1220.25
497.746	1181.25
497.963	1268.25
498.181	1330.25
498.398	1290.25
498.615	1210.25
498.832	1174.25
499.049	1123.25
499.267	1156.25
499.484	1267.25
499.701	1316.25
499.918	1399.25
500.135	1476.25
500.352	1560.25
500.569	1575.25
500.786	1678.25
501.003	1586.25
501.22	1420.25
501.437	1414.25
501.654	1415.25
501.871	1307.25
502.088	1224.25
502.305	1202.25
502.522	1162.25
502.739	1113.25
502.956	1098.25
503.172	1068.25
503.389	1014.25
503.606	981.25
503.823	993.25
504.04	994.25
504.256	993.25
504.473	1007.25
504.69	1014.25
504.907	968.25
505.123	974.25
505.34	1056.25
505.557	1353.25
505.773	1095.25
505.99	939.25
506.207	891.25
506.423	898.25
506.64	884.25
506.856	902.25
507.073	1069.25
507.289	1106.25
507.506	1010.25
507.722	912.25
507.939	847.25
508.155	851.25
508.372	874.25
508.588	830.25
508.805	819.25
509.021	823.25
509.238	793.25
509.454	750.25
509.67	760.25
509.887	752.25
510.103	754.25
510.319	746.25
510.536	801.25
510.752	764.25
510.968	772.25
511.184	788.25
511.401	776.25
511.617	721.25
511.833	716.25
512.049	728.25
512.265	725.25
512.481	727.25
512.698	756.25
512.914	768.25
513.13	738.25
513.346	696.25
513.562	704.25
513.778	708.25
513.994	758.25
514.21	778.25
514.426	793.25
514.642	849.25
514.858	770.25
515.074	740.25
515.29	706.25
515.506	727.25
515.721	728.25
515.937	775.25
516.153	807.25
516.369	756.25
516.585	733.25
516.801	729.25
517.016	708.25
517.232	756.25
517.448	786.25
517.664	790.25
517.879	789.25
518.095	794.25
518.311	778.25
518.527	769.25
518.742	754.25
518.958	738.25
519.173	732.25
519.389	767.25
519.605	795.25
519.82	793.25
520.036	808.25
520.251	794.25
520.467	774.25
520.682	818.25
520.898	794.25
521.113	696.25
521.329	703.25
521.544	773.25
521.76	736.25
521.975	706.25
522.19	738.25
522.406	757.25
522.621	925.25
522.836	880.25
523.052	738.25
523.267	763.25
523.482	754.25
523.698	749.25
523.913	747.25
524.128	739.25
524.343	831.25
524.559	820.25
524.774	781.25
524.989	756.25
525.204	766.25
525.419	747.25
525.634	770.25
525.849	734.25
526.064	738.25
526.28	692.25
526.495	697.25
526.71	644.25
526.925	634.25
527.14	638.25
527.355	620.25
527.57	649.25
527.785	682.25
527.999	658.25
528.214	675.25
528.429	672.25
528.644	736.25
528.859	772.25
529.074	812.25
529.289	868.25
529.503	860.25
529.718	806.25
529.933	731.25
530.148	674.25
530.363	644.25
530.577	627.25
530.792	636.25
531.007	644.25
531.221	608.25
531.436	632.25
531.651	639.25
531.865	672.25
532.08	644.25
532.295	616.25
532.509	613.25
532.724	626.25
532.938	658.25
533.153	718.25
533.367	707.25
533.582	737.25
533.796	731.25
534.011	723.25
534.225	664.25
534.44	652.25
534.654	650.25
534.868	652.25
535.083	690.25
535.297	679.25
535.511	679.25
535.726	683.25
535.94	690.25
536.154	656.25
536.369	617.25
536.583	612.25
536.797	624.25
537.011	611.25
537.225	603.25
537.44	603.25
537.654	625.25
537.868	646.25
538.082	601.25
538.296	591.25
538.51	630.25
538.724	672.25
538.938	731.25
539.153	732.25
539.367	716.25
539.581	702.25
539.795	648.25
540.009	653.25
540.222	642.25
540.436	692.25
540.65	757.25
540.864	797.25
541.078	817.25
541.292	842.25
541.506	897.25
541.72	958.25
541.934	997.25
542.147	1042.25
542.361	994.25
542.575	904.25
542.789	844.25
543.002	770.25
543.216	719.25
543.43	749.25
543.644	810.25
543.857	893.25
544.071	898.25
544.285	928.25
544.498	932.25
544.712	936.25
544.925	954.25
545.139	959.25
545.352	905.25
545.566	902.25
545.779	903.25
545.993	938.25
546.206	948.25
546.42	955.25
546.633	947.25
546.847	934.25
547.06	968.25
547.274	947.25
547.487	978.25
547.7	988.25
547.914	988.25
548.127	969.25
548.34	955.25
548.554	938.25
548.767	923.25
548.98	935.25
549.193	932.25
549.407	958.25
549.62	936.25
549.833	885.25
550.046	888.25
550.259	889.25
550.473	884.25
550.686	889.25
550.899	875.25
551.112	810.25
551.325	816.25
551.538	821.25
551.751	838.25
551.964	700.25
552.177	725.25
552.39	796.25
552.603	824.25
552.816	841.25
553.029	907.25
553.242	923.25
553.455	911.25
553.667	896.25
553.88	874.25
554.093	860.25
554.306	838.25
554.519	845.25
554.732	834.25
554.944	830.25
555.157	827.25
555.37	795.25
555.583	791.25
555.795	769.25
556.008	732.25
556.221	726.25
556.433	694.25
556.646	742.25
556.859	711.25
557.071	763.25
557.284	745.25
557.496	754.25
557.709	752.25
557.921	713.25
558.134	735.25
558.346	733.25
558.559	707.25
558.771	718.25
558.984	722.25
559.196	677.25
559.409	674.25
559.621	675.25
559.833	647.25
560.046	668.25
560.258	676.25
560.47	676.25
560.683	668.25
560.895	652.25
561.107	662.25
561.32	670.25
561.532	679.25
561.744	688.25
561.956	674.25
562.168	664.25
562.381	639.25
562.593	623.25
562.805	635.25
563.017	624.25
563.229	633.25
563.441	658.25
563.653	611.25
563.865	614.25
564.077	614.25
564.289	623.25
564.501	640.25
564.713	636.25
564.925	614.25
565.137	654.25
565.349	637.25
565.561	617.25
565.773	596.25
565.985	633.25
566.197	632.25
566.408	669.25
566.62	688.25
566.832	678.25
567.044	690.25
567.255	670.25
567.467	614.25
567.679	658.25
567.891	639.25
568.102	611.25
568.314	557.25
568.526	531.25
568.737	501.25
568.949	485.25
569.161	466.25
569.372	438.25
569.584	458.25
569.795	467.25
570.007	473.25
570.218	438.25
570.43	432.25
570.641	457.25
570.853	469.25
571.064	483.25
571.276	482.25
571.487	460.25
571.698	474.25
571.91	462.25
572.121	451.25
572.333	446.25
572.544	433.25
572.755	396.25
572.966	406.25
573.178	404.25
573.389	405.25
573.6	412.25
573.811	432.25
574.023	398.25
574.234	388.25
574.445	384.25
574.656	394.25
574.867	395.25
575.078	413.25
575.289	411.25
575.501	410.25
575.712	398.25
575.923	390.25
576.134	379.25
576.345	400.25
576.556	408.25
576.767	391.25
576.978	381.25
577.188	393.25
577.399	377.25
577.61	376.25
577.821	373.25
578.032	374.25
578.243	374.25
578.454	352.25
578.665	361.25
578.875	371.25
579.086	332.25
579.297	320.25
579.508	354.25
579.718	349.25
579.929	354.25
580.14	325.25
580.35	335.25
580.561	344.25
580.772	401.25
580.982	358.25
581.193	355.25
581.403	347.25
581.614	359.25
581.825	350.25
582.035	352.25
582.246	337.25
582.456	348.25
582.667	337.25
582.877	338.25
583.087	337.25
583.298	326.25
583.508	355.25
583.719	328.25
583.929	313.25
584.139	317.25
584.35	314.25
584.56	325.25
584.77	340.25
584.981	328.25
585.191	341.25
585.401	338.25
585.611	341.25
585.821	335.25
586.032	321.25
586.242	321.25
586.452	310.25
586.662	331.25
586.872	322.25
587.082	312.25
587.292	316.25
587.502	306.25
587.713	301.25
587.923	326.25
588.133	321.25
588.343	301.25
588.553	299.25
588.762	307.25
588.972	291.25
589.182	313.25
589.392	306.25
589.602	321.25
589.812	324.25
590.022	293.25
590.232	319.25
590.441	312.25
590.651	323.25
590.861	308.25
591.071	308.25
591.281	310.25
591.49	302.25
591.7	293.25
591.91	313.25
592.119	322.25
592.329	314.25
592.539	334.25
592.748	331.25
592.958	317.25
593.167	318.25
593.377	315.25
593.587	332.25
593.796	337.25
594.006	326.25
594.215	335.25
594.424	326.25
594.634	343.25
594.843	339.25
595.053	345.25
595.262	320.25
595.472	319.25
595.681	323.25
595.89	317.25
596.1	327.25
596.309	337.25
596.518	333.25
596.727	324.25
596.937	312.25
597.146	302.25
597.355	316.25
597.564	325.25
597.774	286.25
597.983	291.25
598.192	292.25
598.401	293.25
598.61	302.25
598.819	300.25
599.028	287.25
599.237	297.25
599.446	297.25
599.655	300.25
599.864	289.25
600.073	269.25
600.282	288.25
600.491	282.25
600.7	283.25
600.909	304.25
601.118	313.25
601.327	330.25
601.536	328.25
601.745	336.25
601.953	338.25
602.162	337.25
602.371	351.25
602.58	362.25
602.789	334.25
602.997	337.25
603.206	368.25
603.415	351.25
603.623	331.25
603.832	363.25
604.041	322.25
604.249	327.25
604.458	318.25
604.666	301.25
604.875	297.25
605.084	337.25
605.292	338.25
605.501	340.25
605.709	374.25
605.918	349.25
606.126	358.25
606.334	354.25
606.543	374.25
606.751	360.25
606.96	343.25
607.168	356.25
607.376	322.25
607.585	339.25
607.793	347.25
608.001	360.25
608.21	373.25
608.418	372.25
608.626	369.25
608.834	364.25
609.043	352.25
609.251	345.25
609.459	347.25
609.667	361.25
609.875	374.25
610.083	370.25
610.291	375.25
610.499	372.25
610.707	377.25
610.916	355.25
611.124	370.25
611.332	346.25
611.54	353.25
611.748	354.25
611.955	354.25
612.163	361.25
612.371	374.25
612.579	380.25
612.787	365.25
612.995	376.25
613.203	343.25
613.411	352.25
613.618	371.25
613.826	365.25
614.034	375.25
614.242	352.25
614.449	333.25
614.657	354.25
614.865	360.25
615.072	366.25
615.28	353.25
615.488	358.25
615.695	356.25
615.903	351.25
616.111	345.25
616.318	370.25
616.526	344.25
616.733	361.25
616.941	364.25
617.148	347.25
617.356	341.25
617.563	362.25
617.771	336.25
617.978	343.25
618.185	327.25
618.393	336.25
618.6	338.25
618.807	369.25
619.015	352.25
619.222	349.25
619.429	328.25
619.637	291.25
619.844	297.25
620.051	306.25
620.258	308.25
620.466	320.25
620.673	299.25
620.88	325.25
621.087	319.25
621.294	316.25
621.501	291.25
621.708	281.25
621.915	289.25
622.122	325.25
622.329	317.25
622.536	306.25
622.743	315.25
622.95	328.25
623.157	304.25
623.364	326.25
623.571	336.25
623.778	298.25
623.985	305.25
624.192	321.25
624.399	307.25
624.606	321.25
624.812	317.25
625.019	308.25
625.226	283.25
625.433	288.25
625.639	290.25
625.846	268.25
626.053	248.25
626.259	256.25
626.466	233.25
626.673	244.25
626.879	246.25
627.086	237.25
627.293	278.25
627.499	296.25
627.706	286.25
627.912	301.25
628.119	312.25
628.325	292.25
628.532	310.25
628.738	283.25
628.945	291.25
629.151	287.25
629.357	296.25
629.564	272.25
629.77	280.25
629.976	281.25
630.183	251.25
630.389	252.25
630.595	280.25
630.802	287.25
631.008	275.25
631.214	275.25
631.42	260.25
631.627	247.25
631.833	245.25
632.039	232.25
632.245	268.25
632.451	280.25
632.657	258.25
632.863	262.25
633.069	251.25
633.275	280.25
633.481	235.25
633.688	280.25
633.893	245.25
634.099	256.25
634.305	258.25
634.511	248.25
634.717	241.25
634.923	230.25
635.129	252.25
635.335	221.25
635.541	245.25
635.747	253.25
635.952	249.25
636.158	261.25
636.364	275.25
636.57	256.25
636.775	261.25
636.981	260.25
637.187	260.25
637.392	262.25
637.598	245.25
637.804	250.25
638.009	261.25
638.215	270.25
638.421	266.25
638.626	259.25
638.832	264.25
639.037	247.25
639.243	258.25
639.448	251.25
639.654	244.25
639.859	263.25
640.065	239.25
640.27	251.25
640.475	253.25
640.681	249.25
640.886	240.25
641.091	260.25
641.297	268.25
641.502	246.25
641.707	240.25
641.913	267.25
642.118	262.25
642.323	221.25
642.528	252.25
642.733	242.25
642.939	252.25
643.144	227.25
643.349	242.25
643.554	236.25
643.759	252.25
643.964	256.25
644.169	257.25
644.374	235.25
644.579	248.25
644.784	244.25
644.989	246.25
645.194	216.25
645.399	222.25
645.604	231.25
645.809	230.25
646.014	236.25
646.219	252.25
646.423	242.25
646.628	249.25
646.833	235.25
647.038	226.25
647.243	236.25
647.447	234.25
647.652	235.25
647.857	237.25
648.062	254.25
648.266	244.25
648.471	233.25
648.676	242.25
648.88	237.25
649.085	242.25
649.289	238.25
649.494	251.25
649.698	244.25
649.903	222.25
650.107	264.25
650.312	246.25
650.516	228.25
650.721	225.25
650.925	228.25
651.13	252.25
651.334	235.25
651.539	224.25
651.743	216.25
651.947	204.25
652.152	222.25
652.356	213.25
652.56	218.25
652.764	204.25
652.969	215.25
653.173	220.25
653.377	206.25
653.581	205.25
653.785	213.25
653.99	208.25
654.194	217.25
654.398	194.25
654.602	204.25
654.806	217.25
655.01	206.25
655.214	200.25
655.418	209.25
655.622	204.25
655.826	210.25
656.03	221.25
656.234	220.25
656.438	232.25
656.642	222.25
656.846	254.25
657.049	212.25
657.253	194.25
657.457	184.25
657.661	180.25
657.865	167.25
658.068	168.25
658.272	160.25
658.476	146.25
658.68	169.25
658.883	149.25
659.087	134.25
659.291	156.25
659.494	136.25
659.698	135.25
659.901	121.25
660.105	122.25
660.309	110.25
660.512	130.25
660.716	131.25
660.919	112.25
661.123	122.25
661.326	131.25
661.53	109.25
661.733	107.25
661.936	81.25
662.14	89.25
662.343	101.25
662.546	93.25
662.75	99.25
662.953	95.25
663.156	85.25
663.36	91.25
663.563	84.25
663.766	81.25
663.969	85.25
664.173	94.25
664.376	84.25
664.579	84.25
664.782	83.25
664.985	93.25
665.188	78.25
665.391	91.25
665.594	90.25
665.797	78.25
666	98.25
666.203	78.25
666.406	83.25
666.609	86.25
666.812	83.25
667.015	89.25
667.218	94.25
667.421	82.25
667.624	95.25
667.827	93.25
668.03	93.25
668.232	91.25
668.435	89.25
668.638	90.25
668.841	74.25
669.043	83.25
669.246	85.25
669.449	78.25
669.651	92.25
669.854	94.25
670.057	90.25
670.259	85.25
670.462	100.25
670.665	88.25
670.867	88.25
671.07	76.25
671.272	70.25
671.475	77.25
671.677	80.25
671.88	88.25
672.082	76.25
672.284	81.25
672.487	88.25
672.689	78.25
672.892	83.25
