Data from WStandard_LampEnergy10_LIBS07252019.E.O._I.C._HRD10591_15-55-07-928.txt Node
Date: Thu Jul 25 15:55:07 EDT 2019
User: cochatt
Spectrometer: HR+D1059
Trigger mode: 1
Integration Time (sec): 1.000000E-1
Scans to average: 1
Electric dark correction enabled: true
Nonlinearity correction enabled: false
Boxcar width: 0
XAxis mode: Wavelengths
Number of Pixels in Spectrum: 2048
>>>>>Begin Spectral Data<<<<<
223.165	-14.06
223.4	-14.06
223.635	-14.06
223.869	3.94
224.104	-22.06
224.338	-27.06
224.573	-13.06
224.808	-14.06
225.042	-16.06
225.277	-14.06
225.511	-0.06
225.746	-8.06
225.98	4.94
226.215	22.94
226.449	14.94
226.683	18.94
226.918	28.94
227.152	33.94
227.387	37.94
227.621	44.94
227.856	41.94
228.09	46.94
228.324	52.94
228.559	47.94
228.793	76.94
229.027	144.94
229.262	155.94
229.496	145.94
229.73	154.94
229.964	156.94
230.199	163.94
230.433	174.94
230.667	160.94
230.901	177.94
231.136	177.94
231.37	159.94
231.604	176.94
231.838	166.94
232.072	178.94
232.306	165.94
232.541	173.94
232.775	202.94
233.009	199.94
233.243	196.94
233.477	187.94
233.711	192.94
233.945	208.94
234.179	193.94
234.413	195.94
234.647	208.94
234.881	195.94
235.115	192.94
235.349	189.94
235.583	185.94
235.817	194.94
236.051	195.94
236.285	203.94
236.519	210.94
236.753	193.94
236.987	224.94
237.221	227.94
237.455	258.94
237.689	253.94
237.922	214.94
238.156	221.94
238.39	220.94
238.624	223.94
238.858	225.94
239.091	257.94
239.325	255.94
239.559	287.94
239.793	298.94
240.027	290.94
240.26	301.94
240.494	242.94
240.728	228.94
240.961	225.94
241.195	222.94
241.429	244.94
241.662	241.94
241.896	232.94
242.13	235.94
242.363	252.94
242.597	272.94
242.83	259.94
243.064	267.94
243.298	270.94
243.531	271.94
243.765	266.94
243.998	268.94
244.232	256.94
244.465	250.94
244.699	252.94
244.932	268.94
245.166	303.94
245.399	281.94
245.633	281.94
245.866	281.94
246.099	285.94
246.333	294.94
246.566	290.94
246.8	307.94
247.033	315.94
247.266	327.94
247.5	302.94
247.733	325.94
247.966	338.94
248.2	356.94
248.433	335.94
248.666	354.94
248.899	363.94
249.133	417.94
249.366	473.94
249.599	391.94
249.832	337.94
250.066	361.94
250.299	368.94
250.532	335.94
250.765	321.94
250.998	323.94
251.231	351.94
251.465	340.94
251.698	333.94
251.931	337.94
252.164	346.94
252.397	355.94
252.63	338.94
252.863	318.94
253.096	314.94
253.329	326.94
253.562	351.94
253.795	350.94
254.028	325.94
254.261	346.94
254.494	326.94
254.727	338.94
254.96	343.94
255.193	374.94
255.426	417.94
255.659	444.94
255.892	426.94
256.124	376.94
256.357	379.94
256.59	400.94
256.823	400.94
257.056	415.94
257.289	485.94
257.521	514.94
257.754	465.94
257.987	445.94
258.22	467.94
258.452	448.94
258.685	387.94
258.918	378.94
259.151	393.94
259.383	361.94
259.616	338.94
259.849	375.94
260.081	395.94
260.314	422.94
260.547	450.94
260.779	464.94
261.012	451.94
261.244	387.94
261.477	388.94
261.71	385.94
261.942	394.94
262.175	394.94
262.407	402.94
262.64	375.94
262.872	366.94
263.105	358.94
263.337	366.94
263.57	369.94
263.802	373.94
264.035	337.94
264.267	328.94
264.499	349.94
264.732	352.94
264.964	377.94
265.197	375.94
265.429	426.94
265.661	453.94
265.894	477.94
266.126	486.94
266.358	456.94
266.591	470.94
266.823	485.94
267.055	438.94
267.287	439.94
267.52	437.94
267.752	462.94
267.984	459.94
268.216	447.94
268.448	476.94
268.681	449.94
268.913	418.94
269.145	404.94
269.377	403.94
269.609	432.94
269.841	509.94
270.073	577.94
270.306	602.94
270.538	608.94
270.77	520.94
271.002	482.94
271.234	468.94
271.466	474.94
271.698	516.94
271.93	577.94
272.162	579.94
272.394	554.94
272.626	519.94
272.858	449.94
273.09	399.94
273.322	414.94
273.553	385.94
273.785	387.94
274.017	422.94
274.249	410.94
274.481	432.94
274.713	416.94
274.945	415.94
275.176	398.94
275.408	393.94
275.64	410.94
275.872	392.94
276.104	438.94
276.335	473.94
276.567	527.94
276.799	498.94
277.031	485.94
277.262	470.94
277.494	473.94
277.726	514.94
277.957	474.94
278.189	439.94
278.421	424.94
278.652	413.94
278.884	420.94
279.115	417.94
279.347	419.94
279.579	414.94
279.81	427.94
280.042	458.94
280.273	497.94
280.505	483.94
280.736	502.94
280.968	467.94
281.199	413.94
281.431	407.94
281.662	400.94
281.894	427.94
282.125	425.94
282.356	445.94
282.588	421.94
282.819	468.94
283.051	516.94
283.282	493.94
283.513	467.94
283.745	449.94
283.976	410.94
284.207	447.94
284.439	443.94
284.67	451.94
284.901	434.94
285.132	454.94
285.364	429.94
285.595	450.94
285.826	433.94
286.057	438.94
286.288	443.94
286.52	453.94
286.751	484.94
286.982	494.94
287.213	477.94
287.444	427.94
287.675	431.94
287.906	475.94
288.138	455.94
288.369	461.94
288.6	435.94
288.831	415.94
289.062	435.94
289.293	422.94
289.524	450.94
289.755	454.94
289.986	471.94
290.217	441.94
290.448	443.94
290.679	446.94
290.91	453.94
291.141	464.94
291.371	477.94
291.602	462.94
291.833	471.94
292.064	486.94
292.295	471.94
292.526	493.94
292.757	474.94
292.987	479.94
293.218	464.94
293.449	501.94
293.68	555.94
293.91	581.94
294.141	546.94
294.372	531.94
294.603	544.94
294.833	567.94
295.064	529.94
295.295	481.94
295.525	472.94
295.756	437.94
295.987	421.94
296.217	430.94
296.448	446.94
296.679	456.94
296.909	461.94
297.14	442.94
297.37	465.94
297.601	496.94
297.831	517.94
298.062	511.94
298.292	467.94
298.523	467.94
298.753	465.94
298.984	470.94
299.214	478.94
299.445	476.94
299.675	496.94
299.905	480.94
300.136	471.94
300.366	458.94
300.597	467.94
300.827	447.94
301.057	467.94
301.288	495.94
301.518	490.94
301.748	509.94
301.979	548.94
302.209	543.94
302.439	575.94
302.669	570.94
302.9	539.94
303.13	487.94
303.36	495.94
303.59	504.94
303.82	502.94
304.051	526.94
304.281	527.94
304.511	528.94
304.741	536.94
304.971	605.94
305.201	631.94
305.431	534.94
305.661	460.94
305.891	441.94
306.121	471.94
306.352	459.94
306.582	471.94
306.812	548.94
307.042	555.94
307.272	561.94
307.502	576.94
307.731	635.94
307.961	630.94
308.191	560.94
308.421	532.94
308.651	477.94
308.881	485.94
309.111	484.94
309.341	476.94
309.571	475.94
309.8	486.94
310.03	486.94
310.26	476.94
310.49	482.94
310.72	525.94
310.949	522.94
311.179	531.94
311.409	509.94
311.639	481.94
311.868	483.94
312.098	493.94
312.328	470.94
312.557	461.94
312.787	498.94
313.017	491.94
313.246	507.94
313.476	497.94
313.706	531.94
313.935	533.94
314.165	544.94
314.394	537.94
314.624	585.94
314.853	624.94
315.083	617.94
315.312	591.94
315.542	582.94
315.771	551.94
316.001	542.94
316.23	559.94
316.46	554.94
316.689	551.94
316.919	537.94
317.148	528.94
317.377	548.94
317.607	577.94
317.836	610.94
318.065	594.94
318.295	600.94
318.524	581.94
318.753	551.94
318.983	562.94
319.212	523.94
319.441	564.94
319.67	537.94
319.9	539.94
320.129	575.94
320.358	615.94
320.587	624.94
320.816	616.94
321.046	582.94
321.275	573.94
321.504	568.94
321.733	618.94
321.962	595.94
322.191	548.94
322.42	540.94
322.649	535.94
322.878	540.94
323.108	543.94
323.337	552.94
323.566	552.94
323.795	561.94
324.024	545.94
324.253	552.94
324.482	540.94
324.71	535.94
324.939	512.94
325.168	523.94
325.397	565.94
325.626	557.94
325.855	559.94
326.084	559.94
326.313	572.94
326.542	549.94
326.77	569.94
326.999	566.94
327.228	550.94
327.457	524.94
327.686	528.94
327.914	543.94
328.143	559.94
328.372	560.94
328.6	546.94
328.829	543.94
329.058	543.94
329.287	563.94
329.515	566.94
329.744	593.94
329.972	592.94
330.201	616.94
330.43	588.94
330.658	596.94
330.887	568.94
331.115	582.94
331.344	595.94
331.572	575.94
331.801	557.94
332.03	567.94
332.258	582.94
332.486	581.94
332.715	567.94
332.943	588.94
333.172	568.94
333.4	571.94
333.629	598.94
333.857	626.94
334.085	742.94
334.314	802.94
334.542	829.94
334.771	737.94
334.999	685.94
335.227	623.94
335.455	622.94
335.684	639.94
335.912	638.94
336.14	637.94
336.369	603.94
336.597	611.94
336.825	593.94
337.053	601.94
337.281	647.94
337.51	686.94
337.738	672.94
337.966	638.94
338.194	608.94
338.422	586.94
338.65	587.94
338.878	569.94
339.106	565.94
339.334	581.94
339.562	570.94
339.79	567.94
340.018	613.94
340.246	629.94
340.474	599.94
340.702	604.94
340.93	600.94
341.158	590.94
341.386	591.94
341.614	594.94
341.842	584.94
342.07	606.94
342.298	602.94
342.526	592.94
342.754	592.94
342.981	578.94
343.209	559.94
343.437	575.94
343.665	591.94
343.893	605.94
344.12	624.94
344.348	635.94
344.576	604.94
344.804	578.94
345.031	579.94
345.259	572.94
345.487	564.94
345.714	546.94
345.942	545.94
346.17	551.94
346.397	564.94
346.625	531.94
346.853	514.94
347.08	535.94
347.308	543.94
347.535	558.94
347.763	567.94
347.99	548.94
348.218	533.94
348.445	538.94
348.673	563.94
348.9	597.94
349.128	612.94
349.355	622.94
349.583	585.94
349.81	551.94
350.037	530.94
350.265	536.94
350.492	545.94
350.72	529.94
350.947	558.94
351.174	563.94
351.402	527.94
351.629	532.94
351.856	520.94
352.083	531.94
352.311	520.94
352.538	519.94
352.765	552.94
352.992	553.94
353.22	555.94
353.447	523.94
353.674	549.94
353.901	534.94
354.128	521.94
354.355	570.94
354.583	571.94
354.81	572.94
355.037	570.94
355.264	573.94
355.491	581.94
355.718	561.94
355.945	566.94
356.172	548.94
356.399	544.94
356.626	547.94
356.853	583.94
357.08	621.94
357.307	670.94
357.534	660.94
357.761	573.94
357.988	528.94
358.215	531.94
358.441	523.94
358.668	515.94
358.895	545.94
359.122	579.94
359.349	616.94
359.576	598.94
359.802	542.94
360.029	532.94
360.256	542.94
360.483	543.94
360.709	575.94
360.936	576.94
361.163	619.94
361.39	701.94
361.616	700.94
361.843	683.94
362.07	628.94
362.296	562.94
362.523	541.94
362.749	554.94
362.976	583.94
363.203	586.94
363.429	580.94
363.656	557.94
363.882	589.94
364.109	646.94
364.335	639.94
364.562	635.94
364.788	565.94
365.015	545.94
365.241	559.94
365.468	578.94
365.694	604.94
365.92	591.94
366.147	557.94
366.373	557.94
366.599	554.94
366.826	540.94
367.052	553.94
367.278	582.94
367.505	574.94
367.731	581.94
367.957	586.94
368.184	632.94
368.41	647.94
368.636	683.94
368.862	674.94
369.089	640.94
369.315	632.94
369.541	593.94
369.767	586.94
369.993	566.94
370.219	573.94
370.445	604.94
370.672	633.94
370.898	651.94
371.124	622.94
371.35	613.94
371.576	645.94
371.802	666.94
372.028	615.94
372.254	614.94
372.48	582.94
372.706	606.94
372.932	581.94
373.158	599.94
373.384	616.94
373.61	627.94
373.835	646.94
374.061	633.94
374.287	609.94
374.513	625.94
374.739	625.94
374.965	613.94
375.191	647.94
375.416	643.94
375.642	629.94
375.868	675.94
376.094	682.94
376.319	645.94
376.545	639.94
376.771	677.94
376.997	688.94
377.222	637.94
377.448	657.94
377.674	649.94
377.899	665.94
378.125	702.94
378.35	699.94
378.576	611.94
378.802	625.94
379.027	636.94
379.253	635.94
379.478	638.94
379.704	651.94
379.929	631.94
380.155	653.94
380.38	640.94
380.606	642.94
380.831	662.94
381.057	671.94
381.282	690.94
381.507	681.94
381.733	729.94
381.958	725.94
382.184	694.94
382.409	658.94
382.634	664.94
382.86	671.94
383.085	658.94
383.31	725.94
383.535	746.94
383.761	782.94
383.986	742.94
384.211	722.94
384.436	710.94
384.662	750.94
384.887	747.94
385.112	721.94
385.337	712.94
385.562	690.94
385.787	740.94
386.013	741.94
386.238	741.94
386.463	738.94
386.688	812.94
386.913	843.94
387.138	799.94
387.363	732.94
387.588	758.94
387.813	751.94
388.038	798.94
388.263	793.94
388.488	746.94
388.713	712.94
388.938	696.94
389.163	711.94
389.387	739.94
389.612	736.94
389.837	749.94
390.062	745.94
390.287	742.94
390.512	740.94
390.736	735.94
390.961	743.94
391.186	705.94
391.411	704.94
391.636	729.94
391.86	734.94
392.085	733.94
392.31	744.94
392.534	743.94
392.759	771.94
392.984	755.94
393.208	745.94
393.433	790.94
393.658	831.94
393.882	833.94
394.107	752.94
394.331	750.94
394.556	752.94
394.78	811.94
395.005	796.94
395.229	833.94
395.454	845.94
395.678	818.94
395.903	806.94
396.127	793.94
396.352	801.94
396.576	816.94
396.801	833.94
397.025	831.94
397.249	829.94
397.474	799.94
397.698	818.94
397.922	858.94
398.147	897.94
398.371	909.94
398.595	892.94
398.82	870.94
399.044	893.94
399.268	921.94
399.492	957.94
399.717	937.94
399.941	985.94
400.165	945.94
400.389	927.94
400.613	980.94
400.837	1093.94
401.062	1163.94
401.286	1025.94
401.51	943.94
401.734	959.94
401.958	926.94
402.182	892.94
402.406	862.94
402.63	871.94
402.854	867.94
403.078	874.94
403.302	906.94
403.526	893.94
403.75	861.94
403.974	907.94
404.198	899.94
404.422	962.94
404.645	1001.94
404.869	956.94
405.093	886.94
405.317	882.94
405.541	919.94
405.765	893.94
405.988	934.94
406.212	944.94
406.436	945.94
406.66	1031.94
406.883	997.94
407.107	1114.94
407.331	1203.94
407.555	1281.94
407.778	1097.94
408.002	951.94
408.226	958.94
408.449	955.94
408.673	937.94
408.896	931.94
409.12	946.94
409.344	922.94
409.567	911.94
409.791	913.94
410.014	957.94
410.238	997.94
410.461	1034.94
410.685	933.94
410.908	933.94
411.132	937.94
411.355	929.94
411.578	942.94
411.802	893.94
412.025	937.94
412.249	921.94
412.472	900.94
412.695	920.94
412.919	884.94
413.142	873.94
413.365	917.94
413.589	954.94
413.812	977.94
414.035	964.94
414.258	901.94
414.482	930.94
414.705	928.94
414.928	938.94
415.151	931.94
415.374	918.94
415.597	905.94
415.821	921.94
416.044	914.94
416.267	905.94
416.49	885.94
416.713	901.94
416.936	945.94
417.159	949.94
417.382	944.94
417.605	913.94
417.828	926.94
418.051	919.94
418.274	938.94
418.497	929.94
418.72	917.94
418.943	921.94
419.166	938.94
419.389	977.94
419.611	927.94
419.834	921.94
420.057	941.94
420.28	915.94
420.503	929.94
420.726	950.94
420.948	943.94
421.171	936.94
421.394	920.94
421.617	946.94
421.839	967.94
422.062	950.94
422.285	937.94
422.507	933.94
422.73	884.94
422.953	855.94
423.175	887.94
423.398	883.94
423.621	920.94
423.843	928.94
424.066	972.94
424.288	1024.94
424.511	1015.94
424.733	984.94
424.956	907.94
425.178	915.94
425.401	913.94
425.623	936.94
425.846	945.94
426.068	946.94
426.291	959.94
426.513	950.94
426.735	928.94
426.958	1002.94
427.18	1046.94
427.402	964.94
427.625	1027.94
427.847	957.94
428.069	913.94
428.292	899.94
428.514	916.94
428.736	893.94
428.958	899.94
429.181	929.94
429.403	1069.94
429.625	1207.94
429.847	1030.94
430.069	919.94
430.292	1030.94
430.514	1013.94
430.736	981.94
430.958	984.94
431.18	920.94
431.402	888.94
431.624	845.94
431.846	776.94
432.068	721.94
432.29	711.94
432.512	761.94
432.734	845.94
432.956	893.94
433.178	962.94
433.4	934.94
433.622	927.94
433.844	878.94
434.066	866.94
434.287	799.94
434.509	786.94
434.731	799.94
434.953	919.94
435.175	912.94
435.397	890.94
435.618	889.94
435.84	823.94
436.062	843.94
436.284	871.94
436.505	961.94
436.727	915.94
436.949	888.94
437.17	907.94
437.392	894.94
437.614	833.94
437.835	768.94
438.057	806.94
438.278	832.94
438.5	883.94
438.721	881.94
438.943	913.94
439.165	906.94
439.386	883.94
439.608	935.94
439.829	942.94
440.05	937.94
440.272	953.94
440.493	936.94
440.715	965.94
440.936	999.94
441.158	1065.94
441.379	1011.94
441.6	1040.94
441.822	975.94
442.043	991.94
442.264	983.94
442.486	955.94
442.707	928.94
442.928	943.94
443.149	965.94
443.371	1014.94
443.592	993.94
443.813	1009.94
444.034	997.94
444.255	994.94
444.476	1003.94
444.698	1030.94
444.919	1019.94
445.14	1161.94
445.361	1104.94
445.582	1085.94
445.803	1027.94
446.024	1008.94
446.245	1041.94
446.466	1041.94
446.687	1011.94
446.908	1012.94
447.129	994.94
447.35	1009.94
447.571	994.94
447.792	963.94
448.013	938.94
448.234	992.94
448.455	967.94
448.675	989.94
448.896	937.94
449.117	907.94
449.338	917.94
449.559	921.94
449.779	984.94
450	988.94
450.221	1025.94
450.442	1023.94
450.662	922.94
450.883	895.94
451.104	856.94
451.324	892.94
451.545	855.94
451.766	878.94
451.986	807.94
452.207	791.94
452.428	786.94
452.648	771.94
452.869	774.94
453.089	773.94
453.31	774.94
453.53	728.94
453.751	726.94
453.971	697.94
454.192	720.94
454.412	760.94
454.633	805.94
454.853	758.94
455.073	754.94
455.294	773.94
455.514	749.94
455.734	763.94
455.955	766.94
456.175	722.94
456.395	717.94
456.616	734.94
456.836	730.94
457.056	735.94
457.276	711.94
457.497	692.94
457.717	707.94
457.937	685.94
458.157	698.94
458.377	661.94
458.598	658.94
458.818	655.94
459.038	685.94
459.258	719.94
459.478	723.94
459.698	692.94
459.918	726.94
460.138	794.94
460.358	845.94
460.578	817.94
460.798	847.94
461.018	885.94
461.238	857.94
461.458	834.94
461.678	836.94
461.898	832.94
462.118	778.94
462.338	843.94
462.558	861.94
462.777	846.94
462.997	866.94
463.217	887.94
463.437	879.94
463.657	840.94
463.876	799.94
464.096	807.94
464.316	835.94
464.536	877.94
464.755	863.94
464.975	849.94
465.195	875.94
465.414	860.94
465.634	866.94
465.854	864.94
466.073	966.94
466.293	928.94
466.512	834.94
466.732	853.94
466.951	913.94
467.171	873.94
467.391	870.94
467.61	865.94
467.829	888.94
468.049	971.94
468.268	1055.94
468.488	961.94
468.707	890.94
468.927	883.94
469.146	897.94
469.365	889.94
469.585	919.94
469.804	885.94
470.023	924.94
470.243	916.94
470.462	967.94
470.681	910.94
470.901	927.94
471.12	938.94
471.339	927.94
471.558	898.94
471.777	889.94
471.997	888.94
472.216	836.94
472.435	764.94
472.654	737.94
472.873	772.94
473.092	828.94
473.311	809.94
473.53	797.94
473.749	819.94
473.968	841.94
474.187	815.94
474.406	839.94
474.625	870.94
474.844	889.94
475.063	889.94
475.282	868.94
475.501	833.94
475.72	840.94
475.939	891.94
476.158	850.94
476.377	853.94
476.596	849.94
476.814	809.94
477.033	807.94
477.252	841.94
477.471	910.94
477.69	901.94
477.908	917.94
478.127	1011.94
478.346	970.94
478.564	970.94
478.783	986.94
479.002	1017.94
479.22	993.94
479.439	994.94
479.658	1058.94
479.876	962.94
480.095	873.94
480.313	878.94
480.532	890.94
480.751	863.94
480.969	796.94
481.188	768.94
481.406	765.94
481.624	759.94
481.843	778.94
482.061	799.94
482.28	854.94
482.498	880.94
482.717	824.94
482.935	864.94
483.153	963.94
483.372	1007.94
483.59	1006.94
483.808	971.94
484.027	928.94
484.245	970.94
484.463	1194.94
484.681	1306.94
484.9	1010.94
485.118	974.94
485.336	895.94
485.554	895.94
485.772	866.94
485.99	854.94
486.209	862.94
486.427	892.94
486.645	922.94
486.863	997.94
487.081	1029.94
487.299	1001.94
487.517	1022.94
487.735	1089.94
487.953	1188.94
488.171	1169.94
488.389	1139.94
488.607	1093.94
488.825	1153.94
489.043	1087.94
489.261	971.94
489.479	1025.94
489.696	1041.94
489.914	1031.94
490.132	1029.94
490.35	1109.94
490.568	1169.94
490.786	1173.94
491.003	1187.94
491.221	1225.94
491.439	1239.94
491.657	1307.94
491.874	1355.94
492.092	1424.94
492.31	1479.94
492.527	1465.94
492.745	1350.94
492.963	1305.94
493.18	1305.94
493.398	1370.94
493.615	1319.94
493.833	1239.94
494.05	1238.94
494.268	1185.94
494.485	1258.94
494.703	1238.94
494.92	1214.94
495.138	1234.94
495.355	1220.94
495.573	1263.94
495.79	1290.94
496.008	1270.94
496.225	1216.94
496.442	1192.94
496.66	1222.94
496.877	1182.94
497.094	1258.94
497.312	1210.94
497.529	1184.94
497.746	1209.94
497.963	1278.94
498.181	1307.94
498.398	1263.94
498.615	1214.94
498.832	1126.94
499.049	1139.94
499.267	1149.94
499.484	1225.94
499.701	1325.94
499.918	1361.94
500.135	1421.94
500.352	1557.94
500.569	1541.94
500.786	1654.94
501.003	1521.94
501.22	1413.94
501.437	1378.94
501.654	1405.94
501.871	1343.94
502.088	1167.94
502.305	1172.94
502.522	1148.94
502.739	1095.94
502.956	1055.94
503.172	1077.94
503.389	1013.94
503.606	991.94
503.823	986.94
504.04	963.94
504.256	1009.94
504.473	1005.94
504.69	1035.94
504.907	969.94
505.123	952.94
505.34	1081.94
505.557	1331.94
505.773	1099.94
505.99	941.94
506.207	903.94
506.423	872.94
506.64	879.94
506.856	896.94
507.073	1011.94
507.289	1061.94
507.506	1021.94
507.722	886.94
507.939	843.94
508.155	842.94
508.372	816.94
508.588	798.94
508.805	774.94
509.021	745.94
509.238	787.94
509.454	734.94
509.67	724.94
509.887	699.94
510.103	703.94
510.319	746.94
510.536	765.94
510.752	760.94
510.968	736.94
511.184	803.94
511.401	742.94
511.617	702.94
511.833	693.94
512.049	680.94
512.265	701.94
512.481	701.94
512.698	727.94
512.914	750.94
513.13	742.94
513.346	704.94
513.562	694.94
513.778	709.94
513.994	744.94
514.21	728.94
514.426	774.94
514.642	843.94
514.858	734.94
515.074	714.94
515.29	713.94
515.506	721.94
515.721	742.94
515.937	742.94
516.153	798.94
516.369	771.94
516.585	747.94
516.801	730.94
517.016	722.94
517.232	741.94
517.448	766.94
517.664	787.94
517.879	770.94
518.095	791.94
518.311	757.94
518.527	762.94
518.742	752.94
518.958	731.94
519.173	735.94
519.389	749.94
519.605	794.94
519.82	790.94
520.036	784.94
520.251	744.94
520.467	775.94
520.682	787.94
520.898	788.94
521.113	718.94
521.329	708.94
521.544	752.94
521.76	726.94
521.975	711.94
522.19	703.94
522.406	718.94
522.621	901.94
522.836	874.94
523.052	720.94
523.267	739.94
523.482	758.94
523.698	750.94
523.913	715.94
524.128	765.94
524.343	791.94
524.559	796.94
524.774	777.94
524.989	771.94
525.204	762.94
525.419	740.94
525.634	736.94
525.849	719.94
526.064	714.94
526.28	729.94
526.495	673.94
526.71	636.94
526.925	627.94
527.14	639.94
527.355	629.94
527.57	614.94
527.785	654.94
527.999	666.94
528.214	671.94
528.429	701.94
528.644	712.94
528.859	771.94
529.074	810.94
529.289	847.94
529.503	839.94
529.718	778.94
529.933	704.94
530.148	669.94
530.363	642.94
530.577	637.94
530.792	649.94
531.007	606.94
531.221	589.94
531.436	623.94
531.651	627.94
531.865	645.94
532.08	645.94
532.295	617.94
532.509	611.94
532.724	601.94
532.938	659.94
533.153	689.94
533.367	728.94
533.582	738.94
533.796	726.94
534.011	682.94
534.225	647.94
534.44	625.94
534.654	618.94
534.868	621.94
535.083	660.94
535.297	676.94
535.511	674.94
535.726	663.94
535.94	665.94
536.154	646.94
536.369	628.94
536.583	606.94
536.797	620.94
537.011	626.94
537.225	615.94
537.44	612.94
537.654	621.94
537.868	596.94
538.082	602.94
538.296	600.94
538.51	626.94
538.724	655.94
538.938	690.94
539.153	736.94
539.367	720.94
539.581	695.94
539.795	683.94
540.009	649.94
540.222	648.94
540.436	673.94
540.65	752.94
540.864	797.94
541.078	816.94
541.292	852.94
541.506	883.94
541.72	933.94
541.934	1006.94
542.147	1081.94
542.361	1012.94
542.575	912.94
542.789	842.94
543.002	735.94
543.216	705.94
543.43	765.94
543.644	808.94
543.857	864.94
544.071	906.94
544.285	921.94
544.498	921.94
544.712	921.94
544.925	966.94
545.139	989.94
545.352	963.94
545.566	899.94
545.779	919.94
545.993	922.94
546.206	944.94
546.42	954.94
546.633	937.94
546.847	926.94
547.06	935.94
547.274	964.94
547.487	960.94
547.7	977.94
547.914	962.94
548.127	926.94
548.34	935.94
548.554	903.94
548.767	915.94
548.98	910.94
549.193	899.94
549.407	938.94
549.62	945.94
549.833	938.94
550.046	889.94
550.259	879.94
550.473	910.94
550.686	889.94
550.899	851.94
551.112	825.94
551.325	827.94
551.538	842.94
551.751	864.94
551.964	698.94
552.177	730.94
552.39	785.94
552.603	838.94
552.816	869.94
553.029	931.94
553.242	925.94
553.455	915.94
553.667	907.94
553.88	898.94
554.093	873.94
554.306	849.94
554.519	826.94
554.732	817.94
554.944	831.94
555.157	810.94
555.37	794.94
555.583	811.94
555.795	744.94
556.008	713.94
556.221	731.94
556.433	730.94
556.646	730.94
556.859	723.94
557.071	726.94
557.284	741.94
557.496	713.94
557.709	743.94
557.921	725.94
558.134	736.94
558.346	736.94
558.559	721.94
558.771	690.94
558.984	681.94
559.196	687.94
559.409	678.94
559.621	663.94
559.833	659.94
560.046	678.94
560.258	702.94
560.47	686.94
560.683	669.94
560.895	670.94
561.107	643.94
561.32	648.94
561.532	678.94
561.744	661.94
561.956	695.94
562.168	632.94
562.381	632.94
562.593	632.94
562.805	662.94
563.017	622.94
563.229	600.94
563.441	615.94
563.653	604.94
563.865	623.94
564.077	599.94
564.289	621.94
564.501	615.94
564.713	637.94
564.925	639.94
565.137	667.94
565.349	629.94
565.561	596.94
565.773	595.94
565.985	630.94
566.197	647.94
566.408	656.94
566.62	673.94
566.832	662.94
567.044	673.94
567.255	668.94
567.467	644.94
567.679	628.94
567.891	630.94
568.102	629.94
568.314	570.94
568.526	521.94
568.737	525.94
568.949	485.94
569.161	466.94
569.372	478.94
569.584	439.94
569.795	446.94
570.007	423.94
570.218	435.94
570.43	435.94
570.641	443.94
570.853	470.94
571.064	483.94
571.276	503.94
571.487	470.94
571.698	461.94
571.91	459.94
572.121	426.94
572.333	444.94
572.544	418.94
572.755	399.94
572.966	392.94
573.178	410.94
573.389	365.94
573.6	414.94
573.811	424.94
574.023	383.94
574.234	390.94
574.445	380.94
574.656	370.94
574.867	387.94
575.078	417.94
575.289	410.94
575.501	390.94
575.712	378.94
575.923	384.94
576.134	402.94
576.345	400.94
576.556	380.94
576.767	374.94
576.978	391.94
577.188	378.94
577.399	361.94
577.61	345.94
577.821	371.94
578.032	371.94
578.243	352.94
578.454	372.94
578.665	349.94
578.875	340.94
579.086	339.94
579.297	329.94
579.508	350.94
579.718	343.94
579.929	351.94
580.14	331.94
580.35	336.94
580.561	355.94
580.772	383.94
580.982	375.94
581.193	339.94
581.403	365.94
581.614	352.94
581.825	335.94
582.035	338.94
582.246	361.94
582.456	358.94
582.667	333.94
582.877	356.94
583.087	330.94
583.298	331.94
583.508	326.94
583.719	321.94
583.929	328.94
584.139	328.94
584.35	331.94
584.56	333.94
584.77	325.94
584.981	313.94
585.191	324.94
585.401	345.94
585.611	336.94
585.821	319.94
586.032	310.94
586.242	324.94
586.452	310.94
586.662	336.94
586.872	303.94
587.082	299.94
587.292	323.94
587.502	309.94
587.713	329.94
587.923	310.94
588.133	305.94
588.343	312.94
588.553	302.94
588.762	290.94
588.972	295.94
589.182	314.94
589.392	306.94
589.602	305.94
589.812	309.94
590.022	296.94
590.232	305.94
590.441	319.94
590.651	304.94
590.861	312.94
591.071	294.94
591.281	302.94
591.49	293.94
591.7	302.94
591.91	299.94
592.119	292.94
592.329	312.94
592.539	330.94
592.748	324.94
592.958	314.94
593.167	314.94
593.377	302.94
593.587	327.94
593.796	314.94
594.006	314.94
594.215	321.94
594.424	326.94
594.634	333.94
594.843	323.94
595.053	344.94
595.262	346.94
595.472	322.94
595.681	316.94
595.89	313.94
596.1	298.94
596.309	321.94
596.518	311.94
596.727	317.94
596.937	318.94
597.146	308.94
597.355	321.94
597.564	285.94
597.774	270.94
597.983	289.94
598.192	281.94
598.401	265.94
598.61	257.94
598.819	275.94
599.028	296.94
599.237	297.94
599.446	295.94
599.655	278.94
599.864	285.94
600.073	277.94
600.282	290.94
600.491	296.94
600.7	285.94
600.909	296.94
601.118	318.94
601.327	313.94
601.536	318.94
601.745	345.94
601.953	362.94
602.162	356.94
602.371	361.94
602.58	340.94
602.789	339.94
602.997	337.94
603.206	343.94
603.415	339.94
603.623	350.94
603.832	350.94
604.041	328.94
604.249	323.94
604.458	287.94
604.666	289.94
604.875	298.94
605.084	302.94
605.292	329.94
605.501	349.94
605.709	368.94
605.918	350.94
606.126	337.94
606.334	337.94
606.543	348.94
606.751	356.94
606.96	362.94
607.168	352.94
607.376	338.94
607.585	326.94
607.793	351.94
608.001	344.94
608.21	346.94
608.418	355.94
608.626	361.94
608.834	360.94
609.043	365.94
609.251	353.94
609.459	356.94
609.667	341.94
609.875	375.94
610.083	364.94
610.291	362.94
610.499	354.94
610.707	360.94
610.916	358.94
611.124	359.94
611.332	358.94
611.54	363.94
611.748	368.94
611.955	351.94
612.163	361.94
612.371	361.94
612.579	365.94
612.787	366.94
612.995	351.94
613.203	368.94
613.411	356.94
613.618	355.94
613.826	343.94
614.034	345.94
614.242	343.94
614.449	354.94
614.657	362.94
614.865	356.94
615.072	355.94
615.28	359.94
615.488	344.94
615.695	346.94
615.903	347.94
616.111	361.94
616.318	366.94
616.526	359.94
616.733	336.94
616.941	344.94
617.148	350.94
617.356	341.94
617.563	347.94
617.771	330.94
617.978	318.94
618.185	352.94
618.393	342.94
618.6	340.94
618.807	344.94
619.015	313.94
619.222	324.94
619.429	319.94
619.637	296.94
619.844	286.94
620.051	303.94
620.258	325.94
620.466	331.94
620.673	325.94
620.88	315.94
621.087	323.94
621.294	321.94
621.501	276.94
621.708	309.94
621.915	331.94
622.122	335.94
622.329	307.94
622.536	323.94
622.743	290.94
622.95	325.94
623.157	318.94
623.364	305.94
623.571	304.94
623.778	330.94
623.985	306.94
624.192	310.94
624.399	304.94
624.606	331.94
624.812	315.94
625.019	319.94
625.226	295.94
625.433	285.94
625.639	270.94
625.846	260.94
626.053	266.94
626.259	257.94
626.466	234.94
626.673	232.94
626.879	208.94
627.086	262.94
627.293	272.94
627.499	290.94
627.706	276.94
627.912	297.94
628.119	298.94
628.325	301.94
628.532	283.94
628.738	277.94
628.945	278.94
629.151	285.94
629.357	281.94
629.564	288.94
629.77	281.94
629.976	246.94
630.183	255.94
630.389	271.94
630.595	273.94
630.802	264.94
631.008	266.94
631.214	276.94
631.42	249.94
631.627	246.94
631.833	233.94
632.039	256.94
632.245	267.94
632.451	280.94
632.657	250.94
632.863	261.94
633.069	265.94
633.275	265.94
633.481	257.94
633.688	266.94
633.893	247.94
634.099	226.94
634.305	253.94
634.511	243.94
634.717	221.94
634.923	239.94
635.129	219.94
635.335	226.94
635.541	241.94
635.747	235.94
635.952	241.94
636.158	263.94
636.364	254.94
636.57	251.94
636.775	273.94
636.981	237.94
637.187	266.94
637.392	258.94
637.598	282.94
637.804	270.94
638.009	256.94
638.215	239.94
638.421	242.94
638.626	243.94
638.832	247.94
639.037	250.94
639.243	246.94
639.448	248.94
639.654	233.94
639.859	258.94
640.065	271.94
640.27	234.94
640.475	228.94
640.681	243.94
640.886	249.94
641.091	240.94
641.297	238.94
641.502	239.94
641.707	239.94
641.913	260.94
642.118	235.94
642.323	244.94
642.528	261.94
642.733	234.94
642.939	247.94
643.144	240.94
643.349	241.94
643.554	253.94
643.759	222.94
643.964	217.94
644.169	237.94
644.374	253.94
644.579	242.94
644.784	226.94
644.989	238.94
645.194	229.94
645.399	247.94
645.604	249.94
645.809	227.94
646.014	237.94
646.219	255.94
646.423	226.94
646.628	257.94
646.833	242.94
647.038	234.94
647.243	230.94
647.447	231.94
647.652	237.94
647.857	215.94
648.062	219.94
648.266	237.94
648.471	228.94
648.676	232.94
648.88	242.94
649.085	240.94
649.289	218.94
649.494	230.94
649.698	232.94
649.903	219.94
650.107	228.94
650.312	224.94
650.516	216.94
650.721	226.94
650.925	222.94
651.13	202.94
651.334	239.94
651.539	214.94
651.743	217.94
651.947	215.94
652.152	224.94
652.356	213.94
652.56	218.94
652.764	191.94
652.969	192.94
653.173	193.94
653.377	196.94
653.581	207.94
653.785	186.94
653.99	195.94
654.194	218.94
654.398	194.94
654.602	189.94
654.806	203.94
655.01	196.94
655.214	192.94
655.418	194.94
655.622	201.94
655.826	201.94
656.03	205.94
656.234	227.94
656.438	221.94
656.642	210.94
656.846	211.94
657.049	191.94
657.253	200.94
657.457	179.94
657.661	165.94
657.865	168.94
658.068	181.94
658.272	147.94
658.476	142.94
658.68	142.94
658.883	139.94
659.087	130.94
659.291	135.94
659.494	145.94
659.698	138.94
659.901	129.94
660.105	117.94
660.309	114.94
660.512	123.94
660.716	114.94
660.919	130.94
661.123	110.94
661.326	111.94
661.53	102.94
661.733	95.94
661.936	99.94
662.14	99.94
662.343	96.94
662.546	87.94
662.75	92.94
662.953	104.94
663.156	94.94
663.36	95.94
663.563	78.94
663.766	77.94
663.969	76.94
664.173	89.94
664.376	79.94
664.579	90.94
664.782	79.94
664.985	95.94
665.188	91.94
665.391	64.94
665.594	90.94
665.797	77.94
666	84.94
666.203	67.94
666.406	80.94
666.609	81.94
666.812	66.94
667.015	80.94
667.218	81.94
667.421	89.94
667.624	60.94
667.827	79.94
668.03	88.94
668.232	79.94
668.435	71.94
668.638	87.94
668.841	95.94
669.043	85.94
669.246	89.94
669.449	89.94
669.651	74.94
669.854	68.94
670.057	73.94
670.259	82.94
670.462	85.94
670.665	79.94
670.867	90.94
671.07	75.94
671.272	82.94
671.475	84.94
671.677	65.94
671.88	92.94
672.082	90.94
672.284	79.94
672.487	90.94
672.689	72.94
672.892	74.94
