Data from WStandard_LampEnergy5.5LIBS07252019.E.O._I.C._HRD10591_16-07-54-920.txt Node
Date: Thu Jul 25 16:07:54 EDT 2019
User: cochatt
Spectrometer: HR+D1059
Trigger mode: 1
Integration Time (sec): 1.000000E-1
Scans to average: 1
Electric dark correction enabled: true
Nonlinearity correction enabled: false
Boxcar width: 0
XAxis mode: Wavelengths
Number of Pixels in Spectrum: 2048
>>>>>Begin Spectral Data<<<<<
223.165	-4.12
223.4	-4.12
223.635	-4.12
223.869	-8.12
224.104	-31.12
224.338	-20.12
224.573	-11.12
224.808	-23.12
225.042	-15.12
225.277	7.88
225.511	-0.12
225.746	4.88
225.98	2.88
226.215	9.88
226.449	20.88
226.683	10.88
226.918	33.88
227.152	21.88
227.387	38.88
227.621	45.88
227.856	58.88
228.09	51.88
228.324	53.88
228.559	56.88
228.793	148.88
229.027	363.88
229.262	375.88
229.496	391.88
229.73	388.88
229.964	449.88
230.199	460.88
230.433	485.88
230.667	507.88
230.901	531.88
231.136	489.88
231.37	469.88
231.604	482.88
231.838	483.88
232.072	475.88
232.306	457.88
232.541	466.88
232.775	548.88
233.009	594.88
233.243	588.88
233.477	523.88
233.711	573.88
233.945	590.88
234.179	566.88
234.413	605.88
234.647	655.88
234.881	628.88
235.115	561.88
235.349	575.88
235.583	569.88
235.817	560.88
236.051	553.88
236.285	545.88
236.519	608.88
236.753	682.88
236.987	699.88
237.221	671.88
237.455	748.88
237.689	739.88
237.922	703.88
238.156	640.88
238.39	657.88
238.624	703.88
238.858	786.88
239.091	775.88
239.325	784.88
239.559	943.88
239.793	1000.88
240.027	1029.88
240.26	1062.88
240.494	775.88
240.728	729.88
240.961	742.88
241.195	756.88
241.429	809.88
241.662	837.88
241.896	763.88
242.13	783.88
242.363	852.88
242.597	947.88
242.83	872.88
243.064	906.88
243.298	971.88
243.531	950.88
243.765	959.88
243.998	963.88
244.232	832.88
244.465	807.88
244.699	783.88
244.932	916.88
245.166	1065.88
245.399	1020.88
245.633	913.88
245.866	917.88
246.099	922.88
246.333	973.88
246.566	990.88
246.8	1062.88
247.033	1189.88
247.266	1113.88
247.5	1063.88
247.733	1082.88
247.966	1132.88
248.2	1267.88
248.433	1215.88
248.666	1229.88
248.899	1349.88
249.133	1548.88
249.366	1766.88
249.599	1443.88
249.832	1274.88
250.066	1297.88
250.299	1304.88
250.532	1236.88
250.765	1076.88
250.998	1151.88
251.231	1212.88
251.465	1303.88
251.698	1171.88
251.931	1212.88
252.164	1244.88
252.397	1276.88
252.63	1291.88
252.863	1109.88
253.096	1065.88
253.329	1153.88
253.562	1191.88
253.795	1337.88
254.028	1280.88
254.261	1184.88
254.494	1209.88
254.727	1104.88
254.96	1163.88
255.193	1249.88
255.426	1416.88
255.659	1685.88
255.892	1684.88
256.124	1392.88
256.357	1356.88
256.59	1435.88
256.823	1439.88
257.056	1457.88
257.289	1732.88
257.521	1934.88
257.754	1747.88
257.987	1625.88
258.22	1809.88
258.452	1755.88
258.685	1427.88
258.918	1396.88
259.151	1392.88
259.383	1344.88
259.616	1184.88
259.849	1219.88
260.081	1383.88
260.314	1568.88
260.547	1692.88
260.779	1730.88
261.012	1637.88
261.244	1447.88
261.477	1374.88
261.71	1436.88
261.942	1452.88
262.175	1395.88
262.407	1487.88
262.64	1416.88
262.872	1320.88
263.105	1258.88
263.337	1264.88
263.57	1327.88
263.802	1292.88
264.035	1248.88
264.267	1185.88
264.499	1152.88
264.732	1224.88
264.964	1335.88
265.197	1372.88
265.429	1442.88
265.661	1610.88
265.894	1770.88
266.126	1822.88
266.358	1598.88
266.591	1702.88
266.823	1862.88
267.055	1647.88
267.287	1630.88
267.52	1555.88
267.752	1555.88
267.984	1576.88
268.216	1651.88
268.448	1708.88
268.681	1689.88
268.913	1546.88
269.145	1441.88
269.377	1409.88
269.609	1513.88
269.841	1747.88
270.073	2071.88
270.306	2277.88
270.538	2427.88
270.77	2071.88
271.002	1785.88
271.234	1651.88
271.466	1635.88
271.698	1815.88
271.93	2219.88
272.162	2251.88
272.394	2011.88
272.626	1938.88
272.858	1711.88
273.09	1469.88
273.322	1456.88
273.553	1357.88
273.785	1437.88
274.017	1483.88
274.249	1597.88
274.481	1583.88
274.713	1484.88
274.945	1431.88
275.176	1427.88
275.408	1419.88
275.64	1394.88
275.872	1387.88
276.104	1473.88
276.335	1643.88
276.567	1883.88
276.799	1931.88
277.031	1714.88
277.262	1625.88
277.494	1671.88
277.726	1884.88
277.957	1895.88
278.189	1663.88
278.421	1513.88
278.652	1494.88
278.884	1463.88
279.115	1520.88
279.347	1553.88
279.579	1455.88
279.81	1490.88
280.042	1615.88
280.273	1806.88
280.505	1804.88
280.736	1827.88
280.968	1749.88
281.199	1571.88
281.431	1445.88
281.662	1445.88
281.894	1471.88
282.125	1503.88
282.356	1569.88
282.588	1584.88
282.819	1556.88
283.051	1674.88
283.282	1761.88
283.513	1776.88
283.745	1520.88
283.976	1435.88
284.207	1458.88
284.439	1464.88
284.67	1486.88
284.901	1539.88
285.132	1600.88
285.364	1557.88
285.595	1561.88
285.826	1545.88
286.057	1546.88
286.288	1504.88
286.52	1582.88
286.751	1737.88
286.982	1809.88
287.213	1600.88
287.444	1500.88
287.675	1464.88
287.906	1544.88
288.138	1675.88
288.369	1633.88
288.6	1565.88
288.831	1477.88
289.062	1497.88
289.293	1487.88
289.524	1510.88
289.755	1618.88
289.986	1595.88
290.217	1467.88
290.448	1509.88
290.679	1591.88
290.91	1570.88
291.141	1600.88
291.371	1624.88
291.602	1620.88
291.833	1612.88
292.064	1667.88
292.295	1637.88
292.526	1659.88
292.757	1785.88
292.987	1644.88
293.218	1536.88
293.449	1645.88
293.68	1890.88
293.91	2028.88
294.141	1923.88
294.372	1791.88
294.603	1864.88
294.833	1941.88
295.064	1861.88
295.295	1677.88
295.525	1621.88
295.756	1537.88
295.987	1409.88
296.217	1466.88
296.448	1538.88
296.679	1501.88
296.909	1538.88
297.14	1527.88
297.37	1553.88
297.601	1597.88
297.831	1763.88
298.062	1815.88
298.292	1600.88
298.523	1554.88
298.753	1561.88
298.984	1595.88
299.214	1567.88
299.445	1589.88
299.675	1648.88
299.905	1661.88
300.136	1619.88
300.366	1575.88
300.597	1491.88
300.827	1503.88
301.057	1575.88
301.288	1645.88
301.518	1678.88
301.748	1658.88
301.979	1755.88
302.209	1783.88
302.439	1867.88
302.669	1951.88
302.9	1855.88
303.13	1635.88
303.36	1648.88
303.59	1720.88
303.82	1655.88
304.051	1644.88
304.281	1667.88
304.511	1639.88
304.741	1742.88
304.971	1955.88
305.201	2090.88
305.431	1991.88
305.661	1646.88
305.891	1473.88
306.121	1453.88
306.352	1515.88
306.582	1594.88
306.812	1712.88
307.042	1863.88
307.272	1834.88
307.502	1851.88
307.731	1997.88
307.961	2195.88
308.191	2027.88
308.421	1718.88
308.651	1631.88
308.881	1603.88
309.111	1579.88
309.341	1599.88
309.571	1611.88
309.8	1595.88
310.03	1604.88
310.26	1591.88
310.49	1607.88
310.72	1616.88
310.949	1675.88
311.179	1710.88
311.409	1684.88
311.639	1636.88
311.868	1611.88
312.098	1641.88
312.328	1613.88
312.557	1602.88
312.787	1636.88
313.017	1673.88
313.246	1686.88
313.476	1649.88
313.706	1723.88
313.935	1707.88
314.165	1712.88
314.394	1749.88
314.624	1810.88
314.853	1962.88
315.083	2058.88
315.312	2162.88
315.542	1978.88
315.771	1739.88
316.001	1700.88
316.23	1807.88
316.46	1819.88
316.689	1773.88
316.919	1687.88
317.148	1647.88
317.377	1638.88
317.607	1743.88
317.836	1979.88
318.065	2072.88
318.295	1993.88
318.524	1938.88
318.753	1839.88
318.983	1817.88
319.212	1800.88
319.441	1734.88
319.67	1721.88
319.9	1722.88
320.129	1875.88
320.358	1951.88
320.587	1946.88
320.816	1930.88
321.046	1897.88
321.275	1825.88
321.504	1818.88
321.733	1976.88
321.962	1934.88
322.191	1777.88
322.42	1749.88
322.649	1734.88
322.878	1763.88
323.108	1750.88
323.337	1806.88
323.566	1833.88
323.795	1825.88
324.024	1837.88
324.253	1779.88
324.482	1784.88
324.71	1737.88
324.939	1671.88
325.168	1678.88
325.397	1713.88
325.626	1749.88
325.855	1852.88
326.084	1733.88
326.313	1779.88
326.542	1764.88
326.77	1825.88
326.999	1845.88
327.228	1793.88
327.457	1690.88
327.686	1657.88
327.914	1704.88
328.143	1733.88
328.372	1698.88
328.6	1779.88
328.829	1766.88
329.058	1747.88
329.287	1700.88
329.515	1738.88
329.744	1793.88
329.972	1869.88
330.201	1949.88
330.43	1907.88
330.658	1866.88
330.887	1839.88
331.115	1905.88
331.344	1849.88
331.572	1841.88
331.801	1822.88
332.03	1829.88
332.258	1859.88
332.486	1871.88
332.715	1898.88
332.943	1915.88
333.172	1837.88
333.4	1885.88
333.629	1904.88
333.857	2039.88
334.085	2224.88
334.314	2484.88
334.542	2779.88
334.771	2539.88
334.999	2230.88
335.227	2129.88
335.455	2005.88
335.684	1948.88
335.912	1999.88
336.14	2084.88
336.369	2011.88
336.597	1928.88
336.825	1897.88
337.053	1921.88
337.281	2006.88
337.51	2123.88
337.738	2206.88
337.966	2084.88
338.194	1924.88
338.422	1852.88
338.65	1825.88
338.878	1799.88
339.106	1770.88
339.334	1749.88
339.562	1767.88
339.79	1781.88
340.018	1907.88
340.246	1936.88
340.474	1986.88
340.702	1877.88
340.93	1926.88
341.158	1881.88
341.386	1851.88
341.614	1843.88
341.842	1851.88
342.07	1822.88
342.298	1875.88
342.526	1834.88
342.754	1834.88
342.981	1820.88
343.209	1847.88
343.437	1824.88
343.665	1825.88
343.893	1884.88
344.12	1956.88
344.348	1983.88
344.576	1909.88
344.804	1829.88
345.031	1814.88
345.259	1896.88
345.487	1776.88
345.714	1705.88
345.942	1662.88
346.17	1683.88
346.397	1730.88
346.625	1771.88
346.853	1660.88
347.08	1600.88
347.308	1641.88
347.535	1700.88
347.763	1729.88
347.99	1715.88
348.218	1657.88
348.445	1655.88
348.673	1722.88
348.9	1736.88
349.128	1787.88
349.355	1866.88
349.583	1808.88
349.81	1739.88
350.037	1599.88
350.265	1598.88
350.492	1609.88
350.72	1657.88
350.947	1731.88
351.174	1764.88
351.402	1686.88
351.629	1617.88
351.856	1584.88
352.083	1552.88
352.311	1570.88
352.538	1587.88
352.765	1703.88
352.992	1757.88
353.22	1697.88
353.447	1616.88
353.674	1671.88
353.901	1709.88
354.128	1618.88
354.355	1621.88
354.583	1725.88
354.81	1760.88
355.037	1743.88
355.264	1736.88
355.491	1677.88
355.718	1750.88
355.945	1666.88
356.172	1627.88
356.399	1635.88
356.626	1626.88
356.853	1696.88
357.08	1792.88
357.307	1984.88
357.534	2001.88
357.761	1783.88
357.988	1656.88
358.215	1575.88
358.441	1621.88
358.668	1586.88
358.895	1622.88
359.122	1717.88
359.349	1875.88
359.576	1932.88
359.802	1697.88
360.029	1570.88
360.256	1635.88
360.483	1667.88
360.709	1707.88
360.936	1756.88
361.163	1798.88
361.39	1943.88
361.616	2094.88
361.843	2067.88
362.07	1941.88
362.296	1703.88
362.523	1629.88
362.749	1665.88
362.976	1700.88
363.203	1758.88
363.429	1666.88
363.656	1625.88
363.882	1647.88
364.109	1804.88
364.335	1993.88
364.562	1884.88
364.788	1786.88
365.015	1683.88
365.241	1659.88
365.468	1691.88
365.694	1720.88
365.92	1810.88
366.147	1736.88
366.373	1640.88
366.599	1631.88
366.826	1599.88
367.052	1650.88
367.278	1654.88
367.505	1615.88
367.731	1718.88
367.957	1761.88
368.184	1751.88
368.41	1797.88
368.636	1895.88
368.862	1876.88
369.089	1895.88
369.315	1784.88
369.541	1779.88
369.767	1701.88
369.993	1619.88
370.219	1651.88
370.445	1704.88
370.672	1794.88
370.898	1890.88
371.124	1891.88
371.35	1756.88
371.576	1803.88
371.802	1919.88
372.028	1811.88
372.254	1729.88
372.48	1669.88
372.706	1679.88
372.932	1681.88
373.158	1691.88
373.384	1756.88
373.61	1759.88
373.835	1865.88
374.061	1811.88
374.287	1753.88
374.513	1728.88
374.739	1771.88
374.965	1776.88
375.191	1799.88
375.416	1785.88
375.642	1839.88
375.868	1845.88
376.094	1951.88
376.319	1871.88
376.545	1716.88
376.771	1808.88
376.997	1897.88
377.222	1884.88
377.448	1859.88
377.674	1876.88
377.899	1851.88
378.125	1905.88
378.35	1935.88
378.576	1760.88
378.802	1708.88
379.027	1714.88
379.253	1726.88
379.478	1748.88
379.704	1739.88
379.929	1748.88
380.155	1756.88
380.38	1780.88
380.606	1808.88
380.831	1784.88
381.057	1827.88
381.282	1879.88
381.507	1794.88
381.733	1907.88
381.958	1989.88
382.184	1831.88
382.409	1801.88
382.634	1844.88
382.86	1831.88
383.085	1832.88
383.31	1864.88
383.535	1982.88
383.761	2146.88
383.986	2035.88
384.211	1987.88
384.436	1969.88
384.662	2058.88
384.887	2131.88
385.112	2008.88
385.337	2049.88
385.562	1993.88
385.787	2011.88
386.013	2011.88
386.238	2076.88
386.463	2034.88
386.688	2158.88
386.913	2260.88
387.138	2253.88
387.363	2095.88
387.588	2069.88
387.813	2084.88
388.038	2065.88
388.263	2122.88
388.488	2089.88
388.713	1938.88
388.938	1933.88
389.163	1923.88
389.387	1987.88
389.612	1970.88
389.837	2015.88
390.062	2066.88
390.287	2081.88
390.512	2056.88
390.736	1960.88
390.961	1937.88
391.186	1907.88
391.411	1934.88
391.636	1991.88
391.86	1999.88
392.085	1993.88
392.31	2020.88
392.534	2049.88
392.759	2078.88
392.984	1988.88
393.208	2022.88
393.433	2055.88
393.658	2151.88
393.882	2152.88
394.107	2040.88
394.331	1978.88
394.556	1962.88
394.78	2026.88
395.005	2071.88
395.229	2137.88
395.454	2265.88
395.678	2252.88
395.903	2216.88
396.127	2119.88
396.352	2132.88
396.576	2154.88
396.801	2230.88
397.025	2209.88
397.249	2177.88
397.474	2195.88
397.698	2145.88
397.922	2177.88
398.147	2287.88
398.371	2355.88
398.595	2396.88
398.82	2291.88
399.044	2368.88
399.268	2424.88
399.492	2531.88
399.717	2693.88
399.941	2714.88
400.165	2641.88
400.389	2595.88
400.613	2550.88
400.837	2771.88
401.062	3199.88
401.286	2763.88
401.51	2522.88
401.734	2588.88
401.958	2523.88
402.182	2359.88
402.406	2325.88
402.63	2297.88
402.854	2311.88
403.078	2331.88
403.302	2361.88
403.526	2367.88
403.75	2376.88
403.974	2400.88
404.198	2418.88
404.422	2469.88
404.645	2594.88
404.869	2588.88
405.093	2398.88
405.317	2325.88
405.541	2393.88
405.765	2415.88
405.988	2425.88
406.212	2444.88
406.436	2519.88
406.66	2554.88
406.883	2553.88
407.107	2887.88
407.331	3080.88
407.555	3318.88
407.778	3124.88
408.002	2616.88
408.226	2534.88
408.449	2556.88
408.673	2459.88
408.896	2457.88
409.12	2520.88
409.344	2437.88
409.567	2375.88
409.791	2417.88
410.014	2468.88
410.238	2558.88
410.461	2727.88
410.685	2429.88
410.908	2326.88
411.132	2349.88
411.355	2370.88
411.578	2315.88
411.802	2330.88
412.025	2371.88
412.249	2363.88
412.472	2260.88
412.695	2238.88
412.919	2294.88
413.142	2291.88
413.365	2259.88
413.589	2360.88
413.812	2387.88
414.035	2520.88
414.258	2315.88
414.482	2256.88
414.705	2307.88
414.928	2264.88
415.151	2252.88
415.374	2267.88
415.597	2335.88
415.821	2315.88
416.044	2427.88
416.267	2471.88
416.49	2234.88
416.713	2192.88
416.936	2278.88
417.159	2333.88
417.382	2323.88
417.605	2233.88
417.828	2291.88
418.051	2349.88
418.274	2286.88
418.497	2189.88
418.72	2192.88
418.943	2226.88
419.166	2368.88
419.389	2436.88
419.611	2305.88
419.834	2283.88
420.057	2297.88
420.28	2239.88
420.503	2180.88
420.726	2232.88
420.948	2239.88
421.171	2193.88
421.394	2220.88
421.617	2236.88
421.839	2243.88
422.062	2227.88
422.285	2180.88
422.507	2147.88
422.73	2148.88
422.953	2090.88
423.175	2103.88
423.398	2167.88
423.621	2208.88
423.843	2187.88
424.066	2266.88
424.288	2291.88
424.511	2348.88
424.733	2303.88
424.956	2093.88
425.178	2120.88
425.401	2097.88
425.623	2136.88
425.846	2137.88
426.068	2237.88
426.291	2305.88
426.513	2242.88
426.735	2234.88
426.958	2346.88
427.18	2539.88
427.402	2323.88
427.625	2364.88
427.847	2346.88
428.069	2233.88
428.292	2150.88
428.514	2087.88
428.736	2058.88
428.958	2153.88
429.181	2107.88
429.403	2410.88
429.625	2966.88
429.847	2583.88
430.069	2193.88
430.292	2415.88
430.514	2533.88
430.736	2338.88
430.958	2388.88
431.18	2311.88
431.402	2129.88
431.624	2103.88
431.846	2093.88
432.068	2107.88
432.29	2102.88
432.512	2156.88
432.734	2154.88
432.956	2154.88
433.178	2311.88
433.4	2305.88
433.622	2297.88
433.844	2214.88
434.066	2107.88
434.287	2161.88
434.509	2162.88
434.731	2252.88
434.953	2468.88
435.175	2395.88
435.397	2274.88
435.618	2212.88
435.84	2283.88
436.062	2187.88
436.284	2204.88
436.505	2255.88
436.727	2303.88
436.949	2201.88
437.17	2184.88
437.392	2130.88
437.614	2151.88
437.835	2072.88
438.057	2193.88
438.278	2290.88
438.5	2145.88
438.721	2143.88
438.943	2135.88
439.165	2133.88
439.386	2084.88
439.608	2115.88
439.829	2067.88
440.05	2111.88
440.272	2065.88
440.493	2074.88
440.715	2175.88
440.936	2261.88
441.158	2529.88
441.379	2444.88
441.6	2343.88
441.822	2307.88
442.043	2287.88
442.264	2208.88
442.486	2145.88
442.707	2068.88
442.928	2088.88
443.149	2207.88
443.371	2310.88
443.592	2399.88
443.813	2348.88
444.034	2301.88
444.255	2339.88
444.476	2375.88
444.698	2431.88
444.919	2392.88
445.14	2485.88
445.361	2443.88
445.582	2547.88
445.803	2417.88
446.024	2326.88
446.245	2407.88
446.466	2377.88
446.687	2228.88
446.908	2249.88
447.129	2105.88
447.35	2219.88
447.571	2170.88
447.792	2019.88
448.013	2047.88
448.234	2087.88
448.455	2236.88
448.675	2175.88
448.896	2010.88
449.117	2015.88
449.338	2089.88
449.559	2183.88
449.779	2260.88
450	2502.88
450.221	2708.88
450.442	2615.88
450.662	2301.88
450.883	2083.88
451.104	1962.88
451.324	2035.88
451.545	2119.88
451.766	2086.88
451.986	1978.88
452.207	1967.88
452.428	1899.88
452.648	1860.88
452.869	1970.88
453.089	2098.88
453.31	2071.88
453.53	2146.88
453.751	2014.88
453.971	1947.88
454.192	1941.88
454.412	2105.88
454.633	2033.88
454.853	1991.88
455.073	1868.88
455.294	1860.88
455.514	1891.88
455.734	1892.88
455.955	1944.88
456.175	1885.88
456.395	1905.88
456.616	1922.88
456.836	2010.88
457.056	1950.88
457.276	1984.88
457.497	1870.88
457.717	1815.88
457.937	1861.88
458.157	1946.88
458.377	1908.88
458.598	1891.88
458.818	1907.88
459.038	1993.88
459.258	2150.88
459.478	2167.88
459.698	2081.88
459.918	2103.88
460.138	2192.88
460.358	2269.88
460.578	2255.88
460.798	2367.88
461.018	2516.88
461.238	2439.88
461.458	2245.88
461.678	2260.88
461.898	2252.88
462.118	2170.88
462.338	2232.88
462.558	2274.88
462.777	2263.88
462.997	2375.88
463.217	2531.88
463.437	2485.88
463.657	2305.88
463.876	2308.88
464.096	2295.88
464.316	2272.88
464.536	2378.88
464.755	2371.88
464.975	2426.88
465.195	2314.88
465.414	2395.88
465.634	2444.88
465.854	2273.88
466.073	2415.88
466.293	2423.88
466.512	2097.88
466.732	2081.88
466.951	2177.88
467.171	2152.88
467.391	2010.88
467.61	2026.88
467.829	2054.88
468.049	2184.88
468.268	2493.88
468.488	2330.88
468.707	2220.88
468.927	2095.88
469.146	2065.88
469.365	2033.88
469.585	2088.88
469.804	2045.88
470.023	2061.88
470.243	2083.88
470.462	2108.88
470.681	2013.88
470.901	2106.88
471.12	2081.88
471.339	2055.88
471.558	2029.88
471.777	2003.88
471.997	2015.88
472.216	2059.88
472.435	1975.88
472.654	2008.88
472.873	2086.88
473.092	2265.88
473.311	2125.88
473.53	1996.88
473.749	1988.88
473.968	2079.88
474.187	2121.88
474.406	2285.88
474.625	2123.88
474.844	2095.88
475.063	2083.88
475.282	2121.88
475.501	2096.88
475.72	2079.88
475.939	2177.88
476.158	2149.88
476.377	2072.88
476.596	2093.88
476.814	2201.88
477.033	2140.88
477.252	2274.88
477.471	2346.88
477.69	2257.88
477.908	2181.88
478.127	2304.88
478.346	2518.88
478.564	2528.88
478.783	2467.88
479.002	2514.88
479.22	2469.88
479.439	2599.88
479.658	2964.88
479.876	2867.88
480.095	2513.88
480.313	2419.88
480.532	2315.88
480.751	2329.88
480.969	2405.88
481.188	2367.88
481.406	2348.88
481.624	2279.88
481.843	2245.88
482.061	2361.88
482.28	2400.88
482.498	2421.88
482.717	2389.88
482.935	2264.88
483.153	2295.88
483.372	2335.88
483.59	2253.88
483.808	2296.88
484.027	2335.88
484.245	2495.88
484.463	2847.88
484.681	3392.88
484.9	2527.88
485.118	2421.88
485.336	2321.88
485.554	2451.88
485.772	2577.88
485.99	2499.88
486.209	2522.88
486.427	2469.88
486.645	2514.88
486.863	2435.88
487.081	2509.88
487.299	2559.88
487.517	2562.88
487.735	2440.88
487.953	2403.88
488.171	2373.88
488.389	2401.88
488.607	2403.88
488.825	2624.88
489.043	2716.88
489.261	2442.88
489.479	2590.88
489.696	2604.88
489.914	2550.88
490.132	2521.88
490.35	2369.88
490.568	2601.88
490.786	2467.88
491.003	2358.88
491.221	2422.88
491.439	2528.88
491.657	2530.88
491.874	2507.88
492.092	2533.88
492.31	2510.88
492.527	2467.88
492.745	2479.88
492.963	2434.88
493.18	2560.88
493.398	2781.88
493.615	2825.88
493.833	2620.88
494.05	2535.88
494.268	2519.88
494.485	2562.88
494.703	2550.88
494.92	2509.88
495.138	2492.88
495.355	2524.88
495.573	2625.88
495.79	2815.88
496.008	2841.88
496.225	2643.88
496.442	2622.88
496.66	2707.88
496.877	2613.88
497.094	2768.88
497.312	2776.88
497.529	2680.88
497.746	2800.88
497.963	3269.88
498.181	3658.88
498.398	3388.88
498.615	3285.88
498.832	3269.88
499.049	3228.88
499.267	3207.88
499.484	3410.88
499.701	3725.88
499.918	3759.88
500.135	4028.88
500.352	4393.88
500.569	4283.88
500.786	4522.88
501.003	4240.88
501.22	3853.88
501.437	3824.88
501.654	3682.88
501.871	3631.88
502.088	3184.88
502.305	3173.88
502.522	2995.88
502.739	2901.88
502.956	2843.88
503.172	2808.88
503.389	2744.88
503.606	2689.88
503.823	2705.88
504.04	2675.88
504.256	2643.88
504.473	2682.88
504.69	2801.88
504.907	2699.88
505.123	2472.88
505.34	2601.88
505.557	3372.88
505.773	2883.88
505.99	2467.88
506.207	2314.88
506.423	2303.88
506.64	2217.88
506.856	2278.88
507.073	2546.88
507.289	2751.88
507.506	2631.88
507.722	2288.88
507.939	2219.88
508.155	2235.88
508.372	2273.88
508.588	2156.88
508.805	2126.88
509.021	2106.88
509.238	2039.88
509.454	2040.88
509.67	2091.88
509.887	2029.88
510.103	2069.88
510.319	2069.88
510.536	2171.88
510.752	2235.88
510.968	2250.88
511.184	2345.88
511.401	2321.88
511.617	2068.88
511.833	1999.88
512.049	2001.88
512.265	2007.88
512.481	2013.88
512.698	2089.88
512.914	2212.88
513.13	2154.88
513.346	2025.88
513.562	1990.88
513.778	2008.88
513.994	2149.88
514.21	2216.88
514.426	2252.88
514.642	2421.88
514.858	2279.88
515.074	2105.88
515.29	2016.88
515.506	2122.88
515.721	2144.88
515.937	2160.88
516.153	2480.88
516.369	2345.88
516.585	2187.88
516.801	2103.88
517.016	2079.88
517.232	2196.88
517.448	2200.88
517.664	2228.88
517.879	2263.88
518.095	2371.88
518.311	2278.88
518.527	2113.88
518.742	2105.88
518.958	2005.88
519.173	1995.88
519.389	2074.88
519.605	2109.88
519.82	2071.88
520.036	2124.88
520.251	2026.88
520.467	2052.88
520.682	2161.88
520.898	2327.88
521.113	2018.88
521.329	2020.88
521.544	2189.88
521.76	2106.88
521.975	1991.88
522.19	1922.88
522.406	1927.88
522.621	2305.88
522.836	2352.88
523.052	1947.88
523.267	1903.88
523.482	1973.88
523.698	1881.88
523.913	1807.88
524.128	1853.88
524.343	1970.88
524.559	2022.88
524.774	1878.88
524.989	1850.88
525.204	1917.88
525.419	1777.88
525.634	1831.88
525.849	1847.88
526.064	1874.88
526.28	1906.88
526.495	1807.88
526.71	1795.88
526.925	1810.88
527.14	1823.88
527.355	1734.88
527.57	1731.88
527.785	1782.88
527.999	1797.88
528.214	1709.88
528.429	1663.88
528.644	1745.88
528.859	1775.88
529.074	1750.88
529.289	1723.88
529.503	1775.88
529.718	1810.88
529.933	1766.88
530.148	1727.88
530.363	1700.88
530.577	1720.88
530.792	1746.88
531.007	1800.88
531.221	1756.88
531.436	1775.88
531.651	1863.88
531.865	1947.88
532.08	1824.88
532.295	1727.88
532.509	1685.88
532.724	1683.88
532.938	1812.88
533.153	1905.88
533.367	1806.88
533.582	1787.88
533.796	1729.88
534.011	1752.88
534.225	1820.88
534.44	1710.88
534.654	1715.88
534.868	1736.88
535.083	1777.88
535.297	1793.88
535.511	1741.88
535.726	1751.88
535.94	1687.88
536.154	1719.88
536.369	1664.88
536.583	1663.88
536.797	1657.88
537.011	1737.88
537.225	1668.88
537.44	1621.88
537.654	1728.88
537.868	1637.88
538.082	1591.88
538.296	1554.88
538.51	1591.88
538.724	1594.88
538.938	1604.88
539.153	1654.88
539.367	1676.88
539.581	1609.88
539.795	1736.88
540.009	1684.88
540.222	1631.88
540.436	1709.88
540.65	1810.88
540.864	1851.88
541.078	1736.88
541.292	1627.88
541.506	1632.88
541.72	1605.88
541.934	1618.88
542.147	1700.88
542.361	1652.88
542.575	1516.88
542.789	1569.88
543.002	1515.88
543.216	1552.88
543.43	1683.88
543.644	1754.88
543.857	1812.88
544.071	1692.88
544.285	1655.88
544.498	1642.88
544.712	1645.88
544.925	1695.88
545.139	1696.88
545.352	1608.88
545.566	1549.88
545.779	1544.88
545.993	1545.88
546.206	1603.88
546.42	1550.88
546.633	1481.88
546.847	1499.88
547.06	1518.88
547.274	1554.88
547.487	1505.88
547.7	1512.88
547.914	1552.88
548.127	1593.88
548.34	1601.88
548.554	1580.88
548.767	1535.88
548.98	1564.88
549.193	1568.88
549.407	1609.88
549.62	1617.88
549.833	1534.88
550.046	1540.88
550.259	1574.88
550.473	1510.88
550.686	1548.88
550.899	1463.88
551.112	1511.88
551.325	1490.88
551.538	1555.88
551.751	1820.88
551.964	1507.88
552.177	1474.88
552.39	1470.88
552.603	1522.88
552.816	1520.88
553.029	1576.88
553.242	1622.88
553.455	1563.88
553.667	1547.88
553.88	1541.88
554.093	1537.88
554.306	1460.88
554.519	1444.88
554.732	1411.88
554.944	1441.88
555.157	1468.88
555.37	1428.88
555.583	1461.88
555.795	1402.88
556.008	1370.88
556.221	1352.88
556.433	1312.88
556.646	1345.88
556.859	1320.88
557.071	1292.88
557.284	1275.88
557.496	1327.88
557.709	1280.88
557.921	1272.88
558.134	1280.88
558.346	1312.88
558.559	1288.88
558.771	1276.88
558.984	1241.88
559.196	1235.88
559.409	1266.88
559.621	1248.88
559.833	1246.88
560.046	1283.88
560.258	1284.88
560.47	1269.88
560.683	1273.88
560.895	1240.88
561.107	1265.88
561.32	1289.88
561.532	1303.88
561.744	1259.88
561.956	1248.88
562.168	1229.88
562.381	1196.88
562.593	1209.88
562.805	1191.88
563.017	1194.88
563.229	1263.88
563.441	1256.88
563.653	1217.88
563.865	1245.88
564.077	1244.88
564.289	1217.88
564.501	1255.88
564.713	1295.88
564.925	1329.88
565.137	1385.88
565.349	1288.88
565.561	1322.88
565.773	1332.88
565.985	1345.88
566.197	1429.88
566.408	1487.88
566.62	1502.88
566.832	1508.88
567.044	1508.88
567.255	1469.88
567.467	1520.88
567.679	1587.88
567.891	1599.88
568.102	1571.88
568.314	1488.88
568.526	1448.88
568.737	1363.88
568.949	1334.88
569.161	1275.88
569.372	1208.88
569.584	1179.88
569.795	1221.88
570.007	1186.88
570.218	1157.88
570.43	1124.88
570.641	1128.88
570.853	1129.88
571.064	1145.88
571.276	1097.88
571.487	1108.88
571.698	1055.88
571.91	1089.88
572.121	1043.88
572.333	1024.88
572.544	1041.88
572.755	1023.88
572.966	984.88
573.178	1010.88
573.389	1007.88
573.6	1062.88
573.811	1099.88
574.023	1029.88
574.234	996.88
574.445	968.88
574.656	938.88
574.867	959.88
575.078	943.88
575.289	945.88
575.501	920.88
575.712	917.88
575.923	922.88
576.134	919.88
576.345	945.88
576.556	906.88
576.767	923.88
576.978	897.88
577.188	902.88
577.399	865.88
577.61	867.88
577.821	890.88
578.032	849.88
578.243	890.88
578.454	879.88
578.665	853.88
578.875	845.88
579.086	851.88
579.297	854.88
579.508	900.88
579.718	865.88
579.929	869.88
580.14	817.88
580.35	825.88
580.561	843.88
580.772	916.88
580.982	870.88
581.193	827.88
581.403	821.88
581.614	791.88
581.825	787.88
582.035	800.88
582.246	802.88
582.456	844.88
582.667	817.88
582.877	820.88
583.087	797.88
583.298	772.88
583.508	776.88
583.719	817.88
583.929	804.88
584.139	805.88
584.35	800.88
584.56	803.88
584.77	787.88
584.981	797.88
585.191	816.88
585.401	805.88
585.611	782.88
585.821	765.88
586.032	768.88
586.242	753.88
586.452	733.88
586.662	788.88
586.872	756.88
587.082	757.88
587.292	808.88
587.502	827.88
587.713	816.88
587.923	756.88
588.133	753.88
588.343	785.88
588.553	736.88
588.762	772.88
588.972	764.88
589.182	775.88
589.392	767.88
589.602	778.88
589.812	745.88
590.022	758.88
590.232	723.88
590.441	749.88
590.651	748.88
590.861	746.88
591.071	743.88
591.281	734.88
591.49	738.88
591.7	764.88
591.91	753.88
592.119	730.88
592.329	763.88
592.539	795.88
592.748	781.88
592.958	782.88
593.167	808.88
593.377	771.88
593.587	800.88
593.796	808.88
594.006	784.88
594.215	789.88
594.424	777.88
594.634	786.88
594.843	748.88
595.053	805.88
595.262	772.88
595.472	761.88
595.681	762.88
595.89	729.88
596.1	703.88
596.309	716.88
596.518	705.88
596.727	725.88
596.937	685.88
597.146	673.88
597.355	673.88
597.564	642.88
597.774	633.88
597.983	641.88
598.192	651.88
598.401	683.88
598.61	627.88
598.819	644.88
599.028	632.88
599.237	618.88
599.446	639.88
599.655	618.88
599.864	626.88
600.073	612.88
600.282	601.88
600.491	621.88
600.7	629.88
600.909	609.88
601.118	627.88
601.327	623.88
601.536	627.88
601.745	626.88
601.953	612.88
602.162	617.88
602.371	609.88
602.58	613.88
602.789	602.88
602.997	599.88
603.206	578.88
603.415	576.88
603.623	596.88
603.832	591.88
604.041	572.88
604.249	573.88
604.458	595.88
604.666	616.88
604.875	580.88
605.084	587.88
605.292	594.88
605.501	565.88
605.709	595.88
605.918	568.88
606.126	567.88
606.334	544.88
606.543	559.88
606.751	599.88
606.96	557.88
607.168	567.88
607.376	558.88
607.585	562.88
607.793	546.88
608.001	565.88
608.21	557.88
608.418	555.88
608.626	554.88
608.834	538.88
609.043	559.88
609.251	543.88
609.459	550.88
609.667	555.88
609.875	563.88
610.083	552.88
610.291	583.88
610.499	568.88
610.707	525.88
610.916	540.88
611.124	552.88
611.332	543.88
611.54	548.88
611.748	535.88
611.955	531.88
612.163	499.88
612.371	510.88
612.579	532.88
612.787	527.88
612.995	538.88
613.203	551.88
613.411	528.88
613.618	554.88
613.826	517.88
614.034	543.88
614.242	529.88
614.449	535.88
614.657	524.88
614.865	517.88
615.072	521.88
615.28	507.88
615.488	543.88
615.695	563.88
615.903	545.88
616.111	519.88
616.318	524.88
616.526	553.88
616.733	521.88
616.941	528.88
617.148	517.88
617.356	529.88
617.563	513.88
617.771	535.88
617.978	495.88
618.185	516.88
618.393	498.88
618.6	520.88
618.807	537.88
619.015	516.88
619.222	489.88
619.429	484.88
619.637	500.88
619.844	511.88
620.051	492.88
620.258	490.88
620.466	478.88
620.673	474.88
620.88	443.88
621.087	447.88
621.294	468.88
621.501	467.88
621.708	462.88
621.915	474.88
622.122	474.88
622.329	491.88
622.536	484.88
622.743	472.88
622.95	465.88
623.157	467.88
623.364	462.88
623.571	478.88
623.778	457.88
623.985	447.88
624.192	466.88
624.399	457.88
624.606	445.88
624.812	468.88
625.019	437.88
625.226	431.88
625.433	451.88
625.639	443.88
625.846	423.88
626.053	451.88
626.259	427.88
626.466	407.88
626.673	427.88
626.879	425.88
627.086	428.88
627.293	419.88
627.499	401.88
627.706	435.88
627.912	405.88
628.119	391.88
628.325	436.88
628.532	416.88
628.738	416.88
628.945	412.88
629.151	427.88
629.357	409.88
629.564	420.88
629.77	414.88
629.976	407.88
630.183	397.88
630.389	403.88
630.595	415.88
630.802	419.88
631.008	419.88
631.214	386.88
631.42	385.88
631.627	376.88
631.833	384.88
632.039	404.88
632.245	403.88
632.451	378.88
632.657	371.88
632.863	385.88
633.069	377.88
633.275	373.88
633.481	365.88
633.688	368.88
633.893	381.88
634.099	364.88
634.305	364.88
634.511	364.88
634.717	371.88
634.923	362.88
635.129	367.88
635.335	362.88
635.541	352.88
635.747	354.88
635.952	358.88
636.158	360.88
636.364	368.88
636.57	351.88
636.775	371.88
636.981	348.88
637.187	356.88
637.392	343.88
637.598	337.88
637.804	361.88
638.009	357.88
638.215	358.88
638.421	352.88
638.626	344.88
638.832	346.88
639.037	345.88
639.243	340.88
639.448	348.88
639.654	348.88
639.859	319.88
640.065	347.88
640.27	330.88
640.475	328.88
640.681	342.88
640.886	334.88
641.091	333.88
641.297	322.88
641.502	327.88
641.707	335.88
641.913	337.88
642.118	358.88
642.323	324.88
642.528	310.88
642.733	329.88
642.939	323.88
643.144	319.88
643.349	336.88
643.554	333.88
643.759	338.88
643.964	337.88
644.169	316.88
644.374	319.88
644.579	313.88
644.784	318.88
644.989	319.88
645.194	316.88
645.399	321.88
645.604	323.88
645.809	330.88
646.014	317.88
646.219	341.88
646.423	331.88
646.628	306.88
646.833	344.88
647.038	308.88
647.243	324.88
647.447	327.88
647.652	311.88
647.857	310.88
648.062	331.88
648.266	334.88
648.471	324.88
648.676	332.88
648.88	323.88
649.085	317.88
649.289	308.88
649.494	323.88
649.698	319.88
649.903	299.88
650.107	297.88
650.312	300.88
650.516	290.88
650.721	320.88
650.925	296.88
651.13	282.88
651.334	287.88
651.539	291.88
651.743	261.88
651.947	293.88
652.152	270.88
652.356	277.88
652.56	286.88
652.764	283.88
652.969	280.88
653.173	271.88
653.377	253.88
653.581	277.88
653.785	261.88
653.99	264.88
654.194	259.88
654.398	271.88
654.602	260.88
654.806	253.88
655.01	233.88
655.214	259.88
655.418	259.88
655.622	262.88
655.826	253.88
656.03	273.88
656.234	276.88
656.438	259.88
656.642	281.88
656.846	269.88
657.049	242.88
657.253	223.88
657.457	201.88
657.661	197.88
657.865	180.88
658.068	169.88
658.272	174.88
658.476	162.88
658.68	163.88
658.883	157.88
659.087	157.88
659.291	135.88
659.494	153.88
659.698	135.88
659.901	139.88
660.105	131.88
660.309	100.88
660.512	125.88
660.716	112.88
660.919	124.88
661.123	108.88
661.326	119.88
661.53	113.88
661.733	114.88
661.936	99.88
662.14	86.88
662.343	87.88
662.546	91.88
662.75	91.88
662.953	93.88
663.156	107.88
663.36	76.88
663.563	75.88
663.766	88.88
663.969	93.88
664.173	109.88
664.376	78.88
664.579	88.88
664.782	81.88
664.985	83.88
665.188	74.88
665.391	78.88
665.594	71.88
665.797	84.88
666	81.88
666.203	79.88
666.406	89.88
666.609	73.88
666.812	81.88
667.015	85.88
667.218	73.88
667.421	90.88
667.624	72.88
667.827	82.88
668.03	81.88
668.232	83.88
668.435	78.88
668.638	82.88
668.841	83.88
669.043	85.88
669.246	97.88
669.449	87.88
669.651	73.88
669.854	82.88
670.057	89.88
670.259	82.88
670.462	75.88
670.665	85.88
670.867	90.88
671.07	78.88
671.272	83.88
671.475	78.88
671.677	73.88
671.88	90.88
672.082	72.88
672.284	83.88
672.487	75.88
672.689	67.88
672.892	77.88
