Data from WStandard_LampEnergy10_LIBS07252019.E.O._I.C._HRD10591_15-55-19-928.txt Node
Date: Thu Jul 25 15:55:19 EDT 2019
User: cochatt
Spectrometer: HR+D1059
Trigger mode: 1
Integration Time (sec): 1.000000E-1
Scans to average: 1
Electric dark correction enabled: true
Nonlinearity correction enabled: false
Boxcar width: 0
XAxis mode: Wavelengths
Number of Pixels in Spectrum: 2048
>>>>>Begin Spectral Data<<<<<
223.165	-10.88
223.4	-10.88
223.635	-10.88
223.869	-9.88
224.104	-15.88
224.338	-9.88
224.573	-14.88
224.808	-11.88
225.042	-5.88
225.277	-3.88
225.511	-2.88
225.746	11.12
225.98	11.12
226.215	4.12
226.449	-7.88
226.683	10.12
226.918	24.12
227.152	33.12
227.387	31.12
227.621	44.12
227.856	34.12
228.09	38.12
228.324	56.12
228.559	48.12
228.793	81.12
229.027	132.12
229.262	140.12
229.496	161.12
229.73	156.12
229.964	171.12
230.199	182.12
230.433	168.12
230.667	180.12
230.901	183.12
231.136	174.12
231.37	171.12
231.604	178.12
231.838	176.12
232.072	165.12
232.306	178.12
232.541	165.12
232.775	202.12
233.009	206.12
233.243	212.12
233.477	196.12
233.711	186.12
233.945	225.12
234.179	206.12
234.413	216.12
234.647	210.12
234.881	209.12
235.115	186.12
235.349	185.12
235.583	182.12
235.817	189.12
236.051	178.12
236.285	196.12
236.519	220.12
236.753	219.12
236.987	226.12
237.221	225.12
237.455	249.12
237.689	230.12
237.922	224.12
238.156	213.12
238.39	227.12
238.624	216.12
238.858	242.12
239.091	238.12
239.325	260.12
239.559	296.12
239.793	282.12
240.027	308.12
240.26	290.12
240.494	216.12
240.728	207.12
240.961	214.12
241.195	234.12
241.429	238.12
241.662	242.12
241.896	221.12
242.13	255.12
242.363	274.12
242.597	261.12
242.83	266.12
243.064	277.12
243.298	292.12
243.531	286.12
243.765	288.12
243.998	275.12
244.232	246.12
244.465	250.12
244.699	265.12
244.932	288.12
245.166	294.12
245.399	289.12
245.633	293.12
245.866	268.12
246.099	279.12
246.333	297.12
246.566	287.12
246.8	304.12
247.033	330.12
247.266	320.12
247.5	332.12
247.733	321.12
247.966	319.12
248.2	340.12
248.433	342.12
248.666	360.12
248.899	371.12
249.133	422.12
249.366	453.12
249.599	384.12
249.832	368.12
250.066	351.12
250.299	341.12
250.532	326.12
250.765	331.12
250.998	338.12
251.231	346.12
251.465	333.12
251.698	326.12
251.931	345.12
252.164	356.12
252.397	366.12
252.63	345.12
252.863	331.12
253.096	308.12
253.329	339.12
253.562	360.12
253.795	361.12
254.028	348.12
254.261	333.12
254.494	327.12
254.727	321.12
254.96	343.12
255.193	387.12
255.426	404.12
255.659	442.12
255.892	434.12
256.124	390.12
256.357	360.12
256.59	416.12
256.823	394.12
257.056	398.12
257.289	469.12
257.521	484.12
257.754	464.12
257.987	424.12
258.22	478.12
258.452	459.12
258.685	405.12
258.918	380.12
259.151	357.12
259.383	345.12
259.616	345.12
259.849	375.12
260.081	398.12
260.314	434.12
260.547	458.12
260.779	455.12
261.012	424.12
261.244	409.12
261.477	405.12
261.71	385.12
261.942	417.12
262.175	392.12
262.407	420.12
262.64	384.12
262.872	370.12
263.105	341.12
263.337	370.12
263.57	376.12
263.802	373.12
264.035	333.12
264.267	338.12
264.499	333.12
264.732	341.12
264.964	366.12
265.197	394.12
265.429	429.12
265.661	459.12
265.894	458.12
266.126	489.12
266.358	462.12
266.591	460.12
266.823	478.12
267.055	454.12
267.287	424.12
267.52	432.12
267.752	437.12
267.984	452.12
268.216	450.12
268.448	456.12
268.681	449.12
268.913	416.12
269.145	422.12
269.377	402.12
269.609	446.12
269.841	515.12
270.073	560.12
270.306	618.12
270.538	601.12
270.77	514.12
271.002	469.12
271.234	453.12
271.466	482.12
271.698	517.12
271.93	578.12
272.162	581.12
272.394	555.12
272.626	506.12
272.858	458.12
273.09	409.12
273.322	403.12
273.553	404.12
273.785	399.12
274.017	411.12
274.249	414.12
274.481	445.12
274.713	428.12
274.945	427.12
275.176	409.12
275.408	397.12
275.64	404.12
275.872	402.12
276.104	437.12
276.335	486.12
276.567	517.12
276.799	498.12
277.031	482.12
277.262	458.12
277.494	469.12
277.726	487.12
277.957	500.12
278.189	466.12
278.421	438.12
278.652	424.12
278.884	430.12
279.115	414.12
279.347	430.12
279.579	432.12
279.81	450.12
280.042	451.12
280.273	513.12
280.505	507.12
280.736	508.12
280.968	468.12
281.199	421.12
281.431	382.12
281.662	398.12
281.894	426.12
282.125	434.12
282.356	472.12
282.588	451.12
282.819	450.12
283.051	493.12
283.282	519.12
283.513	469.12
283.745	434.12
283.976	435.12
284.207	417.12
284.439	441.12
284.67	437.12
284.901	437.12
285.132	452.12
285.364	452.12
285.595	443.12
285.826	445.12
286.057	448.12
286.288	456.12
286.52	467.12
286.751	486.12
286.982	487.12
287.213	469.12
287.444	419.12
287.675	430.12
287.906	453.12
288.138	488.12
288.369	461.12
288.6	446.12
288.831	416.12
289.062	436.12
289.293	458.12
289.524	457.12
289.755	458.12
289.986	441.12
290.217	444.12
290.448	430.12
290.679	460.12
290.91	474.12
291.141	469.12
291.371	466.12
291.602	463.12
291.833	485.12
292.064	494.12
292.295	472.12
292.526	514.12
292.757	483.12
292.987	474.12
293.218	491.12
293.449	518.12
293.68	578.12
293.91	572.12
294.141	539.12
294.372	550.12
294.603	571.12
294.833	544.12
295.064	542.12
295.295	492.12
295.525	474.12
295.756	445.12
295.987	432.12
296.217	440.12
296.448	441.12
296.679	435.12
296.909	466.12
297.14	446.12
297.37	488.12
297.601	514.12
297.831	525.12
298.062	519.12
298.292	484.12
298.523	475.12
298.753	460.12
298.984	469.12
299.214	476.12
299.445	481.12
299.675	506.12
299.905	500.12
300.136	491.12
300.366	464.12
300.597	464.12
300.827	451.12
301.057	451.12
301.288	521.12
301.518	502.12
301.748	509.12
301.979	556.12
302.209	569.12
302.439	590.12
302.669	588.12
302.9	542.12
303.13	498.12
303.36	507.12
303.59	510.12
303.82	506.12
304.051	512.12
304.281	514.12
304.511	531.12
304.741	583.12
304.971	594.12
305.201	627.12
305.431	547.12
305.661	471.12
305.891	445.12
306.121	458.12
306.352	481.12
306.582	496.12
306.812	544.12
307.042	573.12
307.272	566.12
307.502	585.12
307.731	629.12
307.961	596.12
308.191	568.12
308.421	530.12
308.651	511.12
308.881	500.12
309.111	500.12
309.341	483.12
309.571	487.12
309.8	496.12
310.03	472.12
310.26	471.12
310.49	501.12
310.72	515.12
310.949	541.12
311.179	516.12
311.409	479.12
311.639	504.12
311.868	501.12
312.098	495.12
312.328	518.12
312.557	497.12
312.787	502.12
313.017	541.12
313.246	523.12
313.476	537.12
313.706	537.12
313.935	516.12
314.165	546.12
314.394	569.12
314.624	583.12
314.853	605.12
315.083	635.12
315.312	644.12
315.542	572.12
315.771	542.12
316.001	553.12
316.23	580.12
316.46	582.12
316.689	523.12
316.919	526.12
317.148	509.12
317.377	534.12
317.607	581.12
317.836	592.12
318.065	623.12
318.295	612.12
318.524	585.12
318.753	566.12
318.983	566.12
319.212	540.12
319.441	544.12
319.67	548.12
319.9	563.12
320.129	581.12
320.358	585.12
320.587	619.12
320.816	604.12
321.046	589.12
321.275	572.12
321.504	587.12
321.733	604.12
321.962	597.12
322.191	568.12
322.42	554.12
322.649	554.12
322.878	561.12
323.108	562.12
323.337	587.12
323.566	578.12
323.795	577.12
324.024	567.12
324.253	556.12
324.482	542.12
324.71	529.12
324.939	512.12
325.168	525.12
325.397	565.12
325.626	576.12
325.855	567.12
326.084	570.12
326.313	568.12
326.542	563.12
326.77	576.12
326.999	562.12
327.228	566.12
327.457	527.12
327.686	540.12
327.914	554.12
328.143	560.12
328.372	562.12
328.6	546.12
328.829	542.12
329.058	562.12
329.287	562.12
329.515	575.12
329.744	576.12
329.972	606.12
330.201	616.12
330.43	584.12
330.658	589.12
330.887	580.12
331.115	585.12
331.344	586.12
331.572	581.12
331.801	576.12
332.03	587.12
332.258	571.12
332.486	609.12
332.715	625.12
332.943	598.12
333.172	603.12
333.4	596.12
333.629	617.12
333.857	653.12
334.085	742.12
334.314	779.12
334.542	820.12
334.771	758.12
334.999	672.12
335.227	652.12
335.455	628.12
335.684	646.12
335.912	633.12
336.14	667.12
336.369	627.12
336.597	608.12
336.825	610.12
337.053	636.12
337.281	660.12
337.51	682.12
337.738	667.12
337.966	649.12
338.194	605.12
338.422	580.12
338.65	591.12
338.878	587.12
339.106	566.12
339.334	543.12
339.562	547.12
339.79	603.12
340.018	605.12
340.246	637.12
340.474	622.12
340.702	598.12
340.93	626.12
341.158	633.12
341.386	602.12
341.614	600.12
341.842	588.12
342.07	589.12
342.298	596.12
342.526	576.12
342.754	596.12
342.981	585.12
343.209	576.12
343.437	571.12
343.665	601.12
343.893	615.12
344.12	622.12
344.348	606.12
344.576	614.12
344.804	598.12
345.031	595.12
345.259	586.12
345.487	585.12
345.714	538.12
345.942	540.12
346.17	567.12
346.397	568.12
346.625	583.12
346.853	542.12
347.08	542.12
347.308	553.12
347.535	563.12
347.763	580.12
347.99	563.12
348.218	565.12
348.445	564.12
348.673	547.12
348.9	581.12
349.128	613.12
349.355	627.12
349.583	586.12
349.81	542.12
350.037	554.12
350.265	520.12
350.492	550.12
350.72	592.12
350.947	592.12
351.174	583.12
351.402	528.12
351.629	525.12
351.856	524.12
352.083	512.12
352.311	556.12
352.538	553.12
352.765	568.12
352.992	572.12
353.22	551.12
353.447	540.12
353.674	580.12
353.901	552.12
354.128	560.12
354.355	592.12
354.583	586.12
354.81	587.12
355.037	587.12
355.264	571.12
355.491	548.12
355.718	562.12
355.945	548.12
356.172	532.12
356.399	556.12
356.626	574.12
356.853	578.12
357.08	623.12
357.307	685.12
357.534	660.12
357.761	555.12
357.988	554.12
358.215	535.12
358.441	545.12
358.668	554.12
358.895	585.12
359.122	621.12
359.349	642.12
359.576	626.12
359.802	565.12
360.029	546.12
360.256	546.12
360.483	576.12
360.709	581.12
360.936	600.12
361.163	627.12
361.39	692.12
361.616	713.12
361.843	689.12
362.07	645.12
362.296	548.12
362.523	562.12
362.749	580.12
362.976	568.12
363.203	596.12
363.429	570.12
363.656	553.12
363.882	589.12
364.109	653.12
364.335	638.12
364.562	626.12
364.788	602.12
365.015	549.12
365.241	580.12
365.468	569.12
365.694	596.12
365.92	634.12
366.147	558.12
366.373	568.12
366.599	560.12
366.826	557.12
367.052	573.12
367.278	551.12
367.505	590.12
367.731	581.12
367.957	615.12
368.184	626.12
368.41	636.12
368.636	673.12
368.862	670.12
369.089	658.12
369.315	650.12
369.541	621.12
369.767	588.12
369.993	576.12
370.219	597.12
370.445	600.12
370.672	638.12
370.898	672.12
371.124	652.12
371.35	639.12
371.576	634.12
371.802	619.12
372.028	619.12
372.254	613.12
372.48	589.12
372.706	592.12
372.932	596.12
373.158	600.12
373.384	602.12
373.61	638.12
373.835	645.12
374.061	613.12
374.287	614.12
374.513	653.12
374.739	638.12
374.965	641.12
375.191	642.12
375.416	646.12
375.642	670.12
375.868	717.12
376.094	701.12
376.319	661.12
376.545	636.12
376.771	675.12
376.997	688.12
377.222	689.12
377.448	648.12
377.674	648.12
377.899	704.12
378.125	740.12
378.35	691.12
378.576	636.12
378.802	613.12
379.027	621.12
379.253	643.12
379.478	657.12
379.704	626.12
379.929	640.12
380.155	622.12
380.38	647.12
380.606	672.12
380.831	671.12
381.057	699.12
381.282	694.12
381.507	688.12
381.733	705.12
381.958	723.12
382.184	693.12
382.409	692.12
382.634	687.12
382.86	696.12
383.085	673.12
383.31	728.12
383.535	780.12
383.761	822.12
383.986	756.12
384.211	747.12
384.436	708.12
384.662	773.12
384.887	764.12
385.112	730.12
385.337	717.12
385.562	725.12
385.787	730.12
386.013	784.12
386.238	771.12
386.463	769.12
386.688	834.12
386.913	853.12
387.138	818.12
387.363	770.12
387.588	776.12
387.813	755.12
388.038	768.12
388.263	788.12
388.488	756.12
388.713	723.12
388.938	726.12
389.163	746.12
389.387	742.12
389.612	749.12
389.837	744.12
390.062	765.12
390.287	761.12
390.512	736.12
390.736	731.12
390.961	737.12
391.186	732.12
391.411	718.12
391.636	743.12
391.86	747.12
392.085	733.12
392.31	731.12
392.534	758.12
392.759	772.12
392.984	732.12
393.208	752.12
393.433	798.12
393.658	827.12
393.882	802.12
394.107	776.12
394.331	774.12
394.556	778.12
394.78	775.12
395.005	784.12
395.229	817.12
395.454	880.12
395.678	848.12
395.903	843.12
396.127	802.12
396.352	796.12
396.576	866.12
396.801	838.12
397.025	840.12
397.249	852.12
397.474	813.12
397.698	818.12
397.922	823.12
398.147	879.12
398.371	918.12
398.595	876.12
398.82	872.12
399.044	861.12
399.268	916.12
399.492	973.12
399.717	1010.12
399.941	960.12
400.165	948.12
400.389	963.12
400.613	985.12
400.837	1101.12
401.062	1172.12
401.286	1024.12
401.51	983.12
401.734	980.12
401.958	943.12
402.182	882.12
402.406	864.12
402.63	883.12
402.854	882.12
403.078	891.12
403.302	911.12
403.526	924.12
403.75	910.12
403.974	960.12
404.198	932.12
404.422	946.12
404.645	982.12
404.869	994.12
405.093	916.12
405.317	891.12
405.541	948.12
405.765	942.12
405.988	948.12
406.212	957.12
406.436	974.12
406.66	954.12
406.883	1016.12
407.107	1094.12
407.331	1224.12
407.555	1293.12
407.778	1132.12
408.002	962.12
408.226	960.12
408.449	978.12
408.673	941.12
408.896	957.12
409.12	942.12
409.344	950.12
409.567	908.12
409.791	960.12
410.014	949.12
410.238	1027.12
410.461	1056.12
410.685	943.12
410.908	928.12
411.132	930.12
411.355	942.12
411.578	918.12
411.802	961.12
412.025	944.12
412.249	934.12
412.472	920.12
412.695	901.12
412.919	906.12
413.142	908.12
413.365	925.12
413.589	911.12
413.812	983.12
414.035	989.12
414.258	950.12
414.482	924.12
414.705	928.12
414.928	897.12
415.151	901.12
415.374	887.12
415.597	913.12
415.821	922.12
416.044	933.12
416.267	925.12
416.49	920.12
416.713	881.12
416.936	956.12
417.159	979.12
417.382	948.12
417.605	918.12
417.828	933.12
418.051	942.12
418.274	946.12
418.497	938.12
418.72	925.12
418.943	916.12
419.166	970.12
419.389	969.12
419.611	964.12
419.834	930.12
420.057	944.12
420.28	923.12
420.503	923.12
420.726	962.12
420.948	951.12
421.171	916.12
421.394	946.12
421.617	996.12
421.839	956.12
422.062	987.12
422.285	930.12
422.507	932.12
422.73	890.12
422.953	860.12
423.175	889.12
423.398	920.12
423.621	919.12
423.843	948.12
424.066	978.12
424.288	1020.12
424.511	1053.12
424.733	993.12
424.956	940.12
425.178	926.12
425.401	953.12
425.623	928.12
425.846	923.12
426.068	945.12
426.291	965.12
426.513	945.12
426.735	953.12
426.958	1035.12
427.18	1050.12
427.402	1015.12
427.625	1072.12
427.847	1004.12
428.069	924.12
428.292	905.12
428.514	909.12
428.736	884.12
428.958	932.12
429.181	924.12
429.403	1064.12
429.625	1220.12
429.847	1024.12
430.069	957.12
430.292	1034.12
430.514	1043.12
430.736	972.12
430.958	970.12
431.18	918.12
431.402	887.12
431.624	843.12
431.846	818.12
432.068	722.12
432.29	773.12
432.512	776.12
432.734	864.12
432.956	912.12
433.178	963.12
433.4	978.12
433.622	955.12
433.844	910.12
434.066	814.12
434.287	792.12
434.509	777.12
434.731	825.12
434.953	896.12
435.175	894.12
435.397	893.12
435.618	885.12
435.84	821.12
436.062	837.12
436.284	890.12
436.505	910.12
436.727	915.12
436.949	926.12
437.17	884.12
437.392	880.12
437.614	864.12
437.835	806.12
438.057	811.12
438.278	846.12
438.5	862.12
438.721	902.12
438.943	930.12
439.165	919.12
439.386	903.12
439.608	963.12
439.829	944.12
440.05	972.12
440.272	946.12
440.493	929.12
440.715	961.12
440.936	1019.12
441.158	1046.12
441.379	1049.12
441.6	1035.12
441.822	1021.12
442.043	1008.12
442.264	1010.12
442.486	964.12
442.707	969.12
442.928	954.12
443.149	991.12
443.371	1012.12
443.592	1018.12
443.813	1000.12
444.034	988.12
444.255	1014.12
444.476	1018.12
444.698	1028.12
444.919	1048.12
445.14	1114.12
445.361	1075.12
445.582	1069.12
445.803	1033.12
446.024	1006.12
446.245	1058.12
446.466	1030.12
446.687	1020.12
446.908	1025.12
447.129	1010.12
447.35	979.12
447.571	957.12
447.792	953.12
448.013	931.12
448.234	963.12
448.455	951.12
448.675	998.12
448.896	906.12
449.117	900.12
449.338	928.12
449.559	941.12
449.779	958.12
450	1016.12
450.221	1056.12
450.442	994.12
450.662	943.12
450.883	859.12
451.104	887.12
451.324	861.12
451.545	888.12
451.766	847.12
451.986	850.12
452.207	845.12
452.428	816.12
452.648	816.12
452.869	802.12
453.089	803.12
453.31	794.12
453.53	782.12
453.751	742.12
453.971	688.12
454.192	712.12
454.412	795.12
454.633	790.12
454.853	784.12
455.073	758.12
455.294	780.12
455.514	777.12
455.734	743.12
455.955	765.12
456.175	754.12
456.395	726.12
456.616	725.12
456.836	722.12
457.056	717.12
457.276	714.12
457.497	678.12
457.717	688.12
457.937	727.12
458.157	736.12
458.377	673.12
458.598	693.12
458.818	661.12
459.038	674.12
459.258	722.12
459.478	715.12
459.698	700.12
459.918	727.12
460.138	791.12
460.358	807.12
460.578	854.12
460.798	848.12
461.018	891.12
461.238	888.12
461.458	864.12
461.678	846.12
461.898	839.12
462.118	818.12
462.338	820.12
462.558	855.12
462.777	838.12
462.997	868.12
463.217	909.12
463.437	877.12
463.657	850.12
463.876	823.12
464.096	840.12
464.316	848.12
464.536	889.12
464.755	902.12
464.975	881.12
465.195	864.12
465.414	896.12
465.634	865.12
465.854	889.12
466.073	968.12
466.293	902.12
466.512	847.12
466.732	873.12
466.951	894.12
467.171	905.12
467.391	876.12
467.61	824.12
467.829	893.12
468.049	964.12
468.268	1022.12
468.488	966.12
468.707	918.12
468.927	923.12
469.146	889.12
469.365	929.12
469.585	934.12
469.804	927.12
470.023	932.12
470.243	906.12
470.462	905.12
470.681	918.12
470.901	903.12
471.12	935.12
471.339	935.12
471.558	916.12
471.777	903.12
471.997	879.12
472.216	848.12
472.435	800.12
472.654	753.12
472.873	781.12
473.092	834.12
473.311	839.12
473.53	810.12
473.749	808.12
473.968	835.12
474.187	850.12
474.406	837.12
474.625	852.12
474.844	881.12
475.063	868.12
475.282	888.12
475.501	816.12
475.72	838.12
475.939	898.12
476.158	887.12
476.377	864.12
476.596	828.12
476.814	828.12
477.033	796.12
477.252	858.12
477.471	874.12
477.69	928.12
477.908	943.12
478.127	959.12
478.346	1004.12
478.564	989.12
478.783	998.12
479.002	1010.12
479.22	1033.12
479.439	1046.12
479.658	1040.12
479.876	990.12
480.095	923.12
480.313	899.12
480.532	889.12
480.751	866.12
480.969	836.12
481.188	775.12
481.406	768.12
481.624	750.12
481.843	786.12
482.061	833.12
482.28	855.12
482.498	876.12
482.717	846.12
482.935	899.12
483.153	1012.12
483.372	1016.12
483.59	1033.12
483.808	989.12
484.027	938.12
484.245	1001.12
484.463	1211.12
484.681	1306.12
484.9	1006.12
485.118	980.12
485.336	923.12
485.554	925.12
485.772	884.12
485.99	877.12
486.209	905.12
486.427	909.12
486.645	949.12
486.863	1010.12
487.081	993.12
487.299	1011.12
487.517	1012.12
487.735	1109.12
487.953	1216.12
488.171	1150.12
488.389	1115.12
488.607	1064.12
488.825	1155.12
489.043	1085.12
489.261	978.12
489.479	1044.12
489.696	1047.12
489.914	1050.12
490.132	1025.12
490.35	1112.12
490.568	1154.12
490.786	1168.12
491.003	1193.12
491.221	1235.12
491.439	1273.12
491.657	1285.12
491.874	1336.12
492.092	1422.12
492.31	1468.12
492.527	1432.12
492.745	1373.12
492.963	1342.12
493.18	1277.12
493.398	1331.12
493.615	1337.12
493.833	1257.12
494.05	1221.12
494.268	1223.12
494.485	1197.12
494.703	1205.12
494.92	1221.12
495.138	1233.12
495.355	1242.12
495.573	1279.12
495.79	1292.12
496.008	1299.12
496.225	1200.12
496.442	1224.12
496.66	1219.12
496.877	1228.12
497.094	1233.12
497.312	1200.12
497.529	1182.12
497.746	1203.12
497.963	1269.12
498.181	1302.12
498.398	1257.12
498.615	1226.12
498.832	1166.12
499.049	1148.12
499.267	1175.12
499.484	1252.12
499.701	1332.12
499.918	1383.12
500.135	1462.12
500.352	1552.12
500.569	1578.12
500.786	1665.12
501.003	1527.12
501.22	1429.12
501.437	1379.12
501.654	1432.12
501.871	1365.12
502.088	1208.12
502.305	1228.12
502.522	1151.12
502.739	1113.12
502.956	1071.12
503.172	1048.12
503.389	1003.12
503.606	973.12
503.823	973.12
504.04	970.12
504.256	1013.12
504.473	993.12
504.69	1009.12
504.907	981.12
505.123	950.12
505.34	1101.12
505.557	1332.12
505.773	1122.12
505.99	931.12
506.207	912.12
506.423	916.12
506.64	892.12
506.856	910.12
507.073	1042.12
507.289	1090.12
507.506	1014.12
507.722	912.12
507.939	843.12
508.155	830.12
508.372	842.12
508.588	835.12
508.805	805.12
509.021	785.12
509.238	801.12
509.454	774.12
509.67	744.12
509.887	725.12
510.103	730.12
510.319	745.12
510.536	753.12
510.752	768.12
510.968	738.12
511.184	784.12
511.401	747.12
511.617	721.12
511.833	722.12
512.049	692.12
512.265	714.12
512.481	728.12
512.698	736.12
512.914	754.12
513.13	725.12
513.346	732.12
513.562	688.12
513.778	715.12
513.994	743.12
514.21	745.12
514.426	749.12
514.642	824.12
514.858	778.12
515.074	716.12
515.29	703.12
515.506	724.12
515.721	735.12
515.937	753.12
516.153	820.12
516.369	776.12
516.585	738.12
516.801	743.12
517.016	708.12
517.232	771.12
517.448	768.12
517.664	789.12
517.879	798.12
518.095	822.12
518.311	785.12
518.527	745.12
518.742	772.12
518.958	754.12
519.173	780.12
519.389	793.12
519.605	790.12
519.82	792.12
520.036	770.12
520.251	766.12
520.467	812.12
520.682	809.12
520.898	791.12
521.113	718.12
521.329	732.12
521.544	774.12
521.76	739.12
521.975	713.12
522.19	703.12
522.406	749.12
522.621	961.12
522.836	872.12
523.052	726.12
523.267	760.12
523.482	756.12
523.698	719.12
523.913	746.12
524.128	790.12
524.343	802.12
524.559	821.12
524.774	782.12
524.989	782.12
525.204	759.12
525.419	775.12
525.634	708.12
525.849	728.12
526.064	722.12
526.28	699.12
526.495	675.12
526.71	657.12
526.925	636.12
527.14	620.12
527.355	625.12
527.57	642.12
527.785	682.12
527.999	662.12
528.214	664.12
528.429	705.12
528.644	740.12
528.859	797.12
529.074	820.12
529.289	866.12
529.503	891.12
529.718	809.12
529.933	721.12
530.148	678.12
530.363	649.12
530.577	640.12
530.792	644.12
531.007	651.12
531.221	642.12
531.436	643.12
531.651	636.12
531.865	661.12
532.08	665.12
532.295	636.12
532.509	612.12
532.724	634.12
532.938	628.12
533.153	688.12
533.367	722.12
533.582	741.12
533.796	747.12
534.011	718.12
534.225	655.12
534.44	624.12
534.654	646.12
534.868	664.12
535.083	689.12
535.297	693.12
535.511	680.12
535.726	668.12
535.94	673.12
536.154	644.12
536.369	618.12
536.583	610.12
536.797	625.12
537.011	630.12
537.225	601.12
537.44	617.12
537.654	649.12
537.868	646.12
538.082	595.12
538.296	618.12
538.51	648.12
538.724	698.12
538.938	719.12
539.153	726.12
539.367	715.12
539.581	712.12
539.795	680.12
540.009	642.12
540.222	671.12
540.436	677.12
540.65	741.12
540.864	816.12
541.078	841.12
541.292	857.12
541.506	869.12
541.72	952.12
541.934	1006.12
542.147	1076.12
542.361	984.12
542.575	922.12
542.789	838.12
543.002	766.12
543.216	744.12
543.43	771.12
543.644	824.12
543.857	870.12
544.071	924.12
544.285	952.12
544.498	921.12
544.712	932.12
544.925	923.12
545.139	963.12
545.352	944.12
545.566	918.12
545.779	916.12
545.993	954.12
546.206	944.12
546.42	955.12
546.633	955.12
546.847	942.12
547.06	924.12
547.274	965.12
547.487	999.12
547.7	992.12
547.914	980.12
548.127	949.12
548.34	946.12
548.554	921.12
548.767	917.12
548.98	922.12
549.193	930.12
549.407	950.12
549.62	957.12
549.833	921.12
550.046	885.12
550.259	904.12
550.473	891.12
550.686	891.12
550.899	878.12
551.112	851.12
551.325	814.12
551.538	854.12
551.751	876.12
551.964	710.12
552.177	752.12
552.39	772.12
552.603	826.12
552.816	864.12
553.029	876.12
553.242	926.12
553.455	934.12
553.667	920.12
553.88	887.12
554.093	864.12
554.306	843.12
554.519	824.12
554.732	839.12
554.944	849.12
555.157	843.12
555.37	810.12
555.583	801.12
555.795	777.12
556.008	735.12
556.221	728.12
556.433	760.12
556.646	714.12
556.859	749.12
557.071	743.12
557.284	736.12
557.496	745.12
557.709	760.12
557.921	734.12
558.134	738.12
558.346	733.12
558.559	737.12
558.771	735.12
558.984	714.12
559.196	685.12
559.409	688.12
559.621	656.12
559.833	646.12
560.046	684.12
560.258	688.12
560.47	668.12
560.683	656.12
560.895	680.12
561.107	695.12
561.32	690.12
561.532	699.12
561.744	672.12
561.956	675.12
562.168	645.12
562.381	647.12
562.593	642.12
562.805	661.12
563.017	628.12
563.229	617.12
563.441	646.12
563.653	640.12
563.865	629.12
564.077	639.12
564.289	609.12
564.501	619.12
564.713	627.12
564.925	662.12
565.137	662.12
565.349	617.12
565.561	624.12
565.773	620.12
565.985	619.12
566.197	666.12
566.408	690.12
566.62	655.12
566.832	666.12
567.044	676.12
567.255	666.12
567.467	656.12
567.679	679.12
567.891	672.12
568.102	629.12
568.314	586.12
568.526	547.12
568.737	517.12
568.949	510.12
569.161	475.12
569.372	463.12
569.584	455.12
569.795	465.12
570.007	442.12
570.218	418.12
570.43	445.12
570.641	442.12
570.853	457.12
571.064	498.12
571.276	496.12
571.487	470.12
571.698	466.12
571.91	481.12
572.121	449.12
572.333	446.12
572.544	414.12
572.755	416.12
572.966	413.12
573.178	404.12
573.389	385.12
573.6	417.12
573.811	422.12
574.023	392.12
574.234	408.12
574.445	428.12
574.656	388.12
574.867	393.12
575.078	412.12
575.289	420.12
575.501	416.12
575.712	410.12
575.923	388.12
576.134	404.12
576.345	389.12
576.556	393.12
576.767	400.12
576.978	401.12
577.188	365.12
577.399	382.12
577.61	376.12
577.821	383.12
578.032	371.12
578.243	381.12
578.454	350.12
578.665	353.12
578.875	358.12
579.086	348.12
579.297	340.12
579.508	362.12
579.718	351.12
579.929	352.12
580.14	352.12
580.35	346.12
580.561	356.12
580.772	395.12
580.982	363.12
581.193	355.12
581.403	341.12
581.614	323.12
581.825	329.12
582.035	328.12
582.246	341.12
582.456	370.12
582.667	356.12
582.877	339.12
583.087	337.12
583.298	320.12
583.508	340.12
583.719	316.12
583.929	326.12
584.139	331.12
584.35	314.12
584.56	313.12
584.77	328.12
584.981	344.12
585.191	308.12
585.401	341.12
585.611	329.12
585.821	326.12
586.032	314.12
586.242	319.12
586.452	333.12
586.662	317.12
586.872	326.12
587.082	308.12
587.292	332.12
587.502	313.12
587.713	321.12
587.923	328.12
588.133	308.12
588.343	311.12
588.553	321.12
588.762	306.12
588.972	308.12
589.182	332.12
589.392	313.12
589.602	315.12
589.812	326.12
590.022	310.12
590.232	299.12
590.441	313.12
590.651	308.12
590.861	314.12
591.071	315.12
591.281	302.12
591.49	306.12
591.7	309.12
591.91	316.12
592.119	311.12
592.329	301.12
592.539	333.12
592.748	313.12
592.958	294.12
593.167	318.12
593.377	322.12
593.587	322.12
593.796	330.12
594.006	323.12
594.215	320.12
594.424	332.12
594.634	337.12
594.843	365.12
595.053	372.12
595.262	331.12
595.472	330.12
595.681	321.12
595.89	329.12
596.1	307.12
596.309	312.12
596.518	320.12
596.727	332.12
596.937	321.12
597.146	314.12
597.355	312.12
597.564	314.12
597.774	301.12
597.983	286.12
598.192	276.12
598.401	279.12
598.61	284.12
598.819	308.12
599.028	294.12
599.237	304.12
599.446	285.12
599.655	290.12
599.864	284.12
600.073	289.12
600.282	294.12
600.491	271.12
600.7	291.12
600.909	325.12
601.118	324.12
601.327	331.12
601.536	346.12
601.745	339.12
601.953	354.12
602.162	338.12
602.371	360.12
602.58	353.12
602.789	348.12
602.997	344.12
603.206	361.12
603.415	349.12
603.623	359.12
603.832	359.12
604.041	345.12
604.249	313.12
604.458	314.12
604.666	304.12
604.875	312.12
605.084	310.12
605.292	352.12
605.501	349.12
605.709	347.12
605.918	363.12
606.126	356.12
606.334	370.12
606.543	342.12
606.751	353.12
606.96	347.12
607.168	356.12
607.376	343.12
607.585	372.12
607.793	370.12
608.001	352.12
608.21	363.12
608.418	373.12
608.626	359.12
608.834	372.12
609.043	374.12
609.251	369.12
609.459	340.12
609.667	361.12
609.875	376.12
610.083	365.12
610.291	372.12
610.499	363.12
610.707	358.12
610.916	374.12
611.124	376.12
611.332	362.12
611.54	384.12
611.748	357.12
611.955	343.12
612.163	384.12
612.371	358.12
612.579	335.12
612.787	361.12
612.995	350.12
613.203	362.12
613.411	347.12
613.618	359.12
613.826	340.12
614.034	344.12
614.242	374.12
614.449	363.12
614.657	365.12
614.865	364.12
615.072	357.12
615.28	355.12
615.488	354.12
615.695	356.12
615.903	359.12
616.111	353.12
616.318	355.12
616.526	375.12
616.733	372.12
616.941	361.12
617.148	352.12
617.356	341.12
617.563	336.12
617.771	355.12
617.978	327.12
618.185	329.12
618.393	340.12
618.6	343.12
618.807	347.12
619.015	352.12
619.222	355.12
619.429	335.12
619.637	322.12
619.844	304.12
620.051	295.12
620.258	330.12
620.466	328.12
620.673	318.12
620.88	306.12
621.087	309.12
621.294	302.12
621.501	289.12
621.708	303.12
621.915	332.12
622.122	333.12
622.329	328.12
622.536	323.12
622.743	301.12
622.95	307.12
623.157	307.12
623.364	328.12
623.571	327.12
623.778	327.12
623.985	328.12
624.192	326.12
624.399	318.12
624.606	317.12
624.812	309.12
625.019	305.12
625.226	272.12
625.433	291.12
625.639	268.12
625.846	275.12
626.053	254.12
626.259	260.12
626.466	243.12
626.673	235.12
626.879	247.12
627.086	260.12
627.293	282.12
627.499	300.12
627.706	304.12
627.912	308.12
628.119	307.12
628.325	317.12
628.532	314.12
628.738	301.12
628.945	292.12
629.151	279.12
629.357	268.12
629.564	278.12
629.77	266.12
629.976	269.12
630.183	251.12
630.389	272.12
630.595	277.12
630.802	275.12
631.008	257.12
631.214	290.12
631.42	282.12
631.627	260.12
631.833	258.12
632.039	280.12
632.245	261.12
632.451	294.12
632.657	264.12
632.863	273.12
633.069	269.12
633.275	268.12
633.481	244.12
633.688	256.12
633.893	252.12
634.099	262.12
634.305	235.12
634.511	237.12
634.717	243.12
634.923	212.12
635.129	225.12
635.335	233.12
635.541	236.12
635.747	237.12
635.952	246.12
636.158	248.12
636.364	249.12
636.57	260.12
636.775	259.12
636.981	271.12
637.187	262.12
637.392	262.12
637.598	254.12
637.804	269.12
638.009	263.12
638.215	256.12
638.421	263.12
638.626	266.12
638.832	261.12
639.037	251.12
639.243	247.12
639.448	260.12
639.654	235.12
639.859	232.12
640.065	247.12
640.27	228.12
640.475	224.12
640.681	240.12
640.886	258.12
641.091	257.12
641.297	243.12
641.502	245.12
641.707	261.12
641.913	248.12
642.118	256.12
642.323	231.12
642.528	240.12
642.733	240.12
642.939	229.12
643.144	262.12
643.349	236.12
643.554	241.12
643.759	246.12
643.964	228.12
644.169	232.12
644.374	236.12
644.579	237.12
644.784	259.12
644.989	244.12
645.194	225.12
645.399	244.12
645.604	227.12
645.809	243.12
646.014	245.12
646.219	228.12
646.423	246.12
646.628	253.12
646.833	234.12
647.038	247.12
647.243	251.12
647.447	251.12
647.652	235.12
647.857	241.12
648.062	250.12
648.266	258.12
648.471	237.12
648.676	243.12
648.88	244.12
649.085	232.12
649.289	221.12
649.494	229.12
649.698	231.12
649.903	237.12
650.107	259.12
650.312	219.12
650.516	239.12
650.721	234.12
650.925	215.12
651.13	222.12
651.334	219.12
651.539	224.12
651.743	217.12
651.947	225.12
652.152	213.12
652.356	216.12
652.56	219.12
652.764	218.12
652.969	203.12
653.173	206.12
653.377	198.12
653.581	197.12
653.785	201.12
653.99	213.12
654.194	208.12
654.398	198.12
654.602	197.12
654.806	196.12
655.01	193.12
655.214	223.12
655.418	188.12
655.622	224.12
655.826	204.12
656.03	213.12
656.234	219.12
656.438	250.12
656.642	220.12
656.846	225.12
657.049	208.12
657.253	192.12
657.457	201.12
657.661	178.12
657.865	166.12
658.068	156.12
658.272	156.12
658.476	160.12
658.68	152.12
658.883	160.12
659.087	140.12
659.291	140.12
659.494	130.12
659.698	118.12
659.901	138.12
660.105	142.12
660.309	109.12
660.512	112.12
660.716	107.12
660.919	108.12
661.123	117.12
661.326	100.12
661.53	104.12
661.733	97.12
661.936	121.12
662.14	99.12
662.343	106.12
662.546	97.12
662.75	99.12
662.953	100.12
663.156	86.12
663.36	98.12
663.563	84.12
663.766	73.12
663.969	94.12
664.173	89.12
664.376	79.12
664.579	78.12
664.782	84.12
664.985	82.12
665.188	90.12
665.391	72.12
665.594	85.12
665.797	90.12
666	92.12
666.203	84.12
666.406	70.12
666.609	81.12
666.812	80.12
667.015	74.12
667.218	92.12
667.421	85.12
667.624	81.12
667.827	102.12
668.03	94.12
668.232	82.12
668.435	81.12
668.638	81.12
668.841	85.12
669.043	84.12
669.246	85.12
669.449	92.12
669.651	91.12
669.854	73.12
670.057	82.12
670.259	81.12
670.462	83.12
670.665	88.12
670.867	87.12
671.07	72.12
671.272	94.12
671.475	80.12
671.677	86.12
671.88	77.12
672.082	72.12
672.284	89.12
672.487	83.12
672.689	83.12
672.892	76.12
