Data from WStandard_LampEnergy8_LIBS07252019.E.O._I.C._HRD10591_15-58-44-930.txt Node
Date: Thu Jul 25 15:58:44 EDT 2019
User: cochatt
Spectrometer: HR+D1059
Trigger mode: 1
Integration Time (sec): 1.000000E-1
Scans to average: 1
Electric dark correction enabled: true
Nonlinearity correction enabled: false
Boxcar width: 0
XAxis mode: Wavelengths
Number of Pixels in Spectrum: 2048
>>>>>Begin Spectral Data<<<<<
223.165	-5.19
223.4	-5.19
223.635	-5.19
223.869	-27.19
224.104	-9.19
224.338	-10.19
224.573	-22.19
224.808	-23.19
225.042	-2.19
225.277	-9.19
225.511	0.81
225.746	0.81
225.98	2.81
226.215	11.81
226.449	4.81
226.683	20.81
226.918	28.81
227.152	37.81
227.387	37.81
227.621	34.81
227.856	40.81
228.09	45.81
228.324	52.81
228.559	62.81
228.793	98.81
229.027	203.81
229.262	207.81
229.496	219.81
229.73	232.81
229.964	224.81
230.199	265.81
230.433	261.81
230.667	275.81
230.901	276.81
231.136	274.81
231.37	266.81
231.604	295.81
231.838	276.81
232.072	290.81
232.306	268.81
232.541	268.81
232.775	310.81
233.009	342.81
233.243	301.81
233.477	301.81
233.711	328.81
233.945	327.81
234.179	320.81
234.413	335.81
234.647	353.81
234.881	315.81
235.115	297.81
235.349	296.81
235.583	314.81
235.817	334.81
236.051	300.81
236.285	309.81
236.519	336.81
236.753	361.81
236.987	364.81
237.221	372.81
237.455	386.81
237.689	396.81
237.922	366.81
238.156	365.81
238.39	372.81
238.624	389.81
238.858	403.81
239.091	397.81
239.325	423.81
239.559	490.81
239.793	485.81
240.027	523.81
240.26	520.81
240.494	417.81
240.728	370.81
240.961	402.81
241.195	389.81
241.429	408.81
241.662	424.81
241.896	383.81
242.13	424.81
242.363	455.81
242.597	473.81
242.83	465.81
243.064	455.81
243.298	497.81
243.531	490.81
243.765	485.81
243.998	485.81
244.232	412.81
244.465	432.81
244.699	436.81
244.932	503.81
245.166	522.81
245.399	497.81
245.633	454.81
245.866	463.81
246.099	472.81
246.333	513.81
246.566	502.81
246.8	539.81
247.033	603.81
247.266	571.81
247.5	527.81
247.733	538.81
247.966	588.81
248.2	625.81
248.433	620.81
248.666	634.81
248.899	690.81
249.133	770.81
249.366	817.81
249.599	717.81
249.832	617.81
250.066	662.81
250.299	632.81
250.532	606.81
250.765	551.81
250.998	592.81
251.231	619.81
251.465	643.81
251.698	617.81
251.931	590.81
252.164	628.81
252.397	642.81
252.63	617.81
252.863	557.81
253.096	592.81
253.329	590.81
253.562	609.81
253.795	631.81
254.028	631.81
254.261	592.81
254.494	597.81
254.727	583.81
254.96	595.81
255.193	660.81
255.426	717.81
255.659	798.81
255.892	786.81
256.124	670.81
256.357	673.81
256.59	708.81
256.823	705.81
257.056	741.81
257.289	856.81
257.521	910.81
257.754	848.81
257.987	787.81
258.22	864.81
258.452	813.81
258.685	698.81
258.918	700.81
259.151	682.81
259.383	668.81
259.616	593.81
259.849	636.81
260.081	738.81
260.314	768.81
260.547	828.81
260.779	859.81
261.012	810.81
261.244	713.81
261.477	688.81
261.71	689.81
261.942	708.81
262.175	706.81
262.407	718.81
262.64	707.81
262.872	640.81
263.105	610.81
263.337	636.81
263.57	650.81
263.802	636.81
264.035	591.81
264.267	563.81
264.499	587.81
264.732	625.81
264.964	667.81
265.197	675.81
265.429	721.81
265.661	793.81
265.894	849.81
266.126	855.81
266.358	782.81
266.591	823.81
266.823	884.81
267.055	800.81
267.287	781.81
267.52	761.81
267.752	781.81
267.984	799.81
268.216	834.81
268.448	839.81
268.681	801.81
268.913	748.81
269.145	732.81
269.377	712.81
269.609	786.81
269.841	903.81
270.073	1012.81
270.306	1125.81
270.538	1141.81
270.77	987.81
271.002	858.81
271.234	824.81
271.466	846.81
271.698	942.81
271.93	1090.81
272.162	1081.81
272.394	961.81
272.626	913.81
272.858	821.81
273.09	742.81
273.322	726.81
273.553	696.81
273.785	695.81
274.017	742.81
274.249	798.81
274.481	784.81
274.713	744.81
274.945	712.81
275.176	717.81
275.408	717.81
275.64	692.81
275.872	696.81
276.104	761.81
276.335	839.81
276.567	936.81
276.799	937.81
277.031	824.81
277.262	816.81
277.494	877.81
277.726	924.81
277.957	883.81
278.189	825.81
278.421	792.81
278.652	751.81
278.884	736.81
279.115	736.81
279.347	763.81
279.579	772.81
279.81	758.81
280.042	829.81
280.273	908.81
280.505	908.81
280.736	897.81
280.968	853.81
281.199	766.81
281.431	748.81
281.662	728.81
281.894	748.81
282.125	749.81
282.356	806.81
282.588	794.81
282.819	791.81
283.051	851.81
283.282	896.81
283.513	883.81
283.745	776.81
283.976	744.81
284.207	737.81
284.439	769.81
284.67	752.81
284.901	798.81
285.132	810.81
285.364	795.81
285.595	789.81
285.826	754.81
286.057	781.81
286.288	755.81
286.52	829.81
286.751	896.81
286.982	851.81
287.213	800.81
287.444	737.81
287.675	730.81
287.906	802.81
288.138	848.81
288.369	803.81
288.6	782.81
288.831	733.81
289.062	776.81
289.293	788.81
289.524	811.81
289.755	804.81
289.986	822.81
290.217	770.81
290.448	779.81
290.679	792.81
290.91	801.81
291.141	818.81
291.371	840.81
291.602	843.81
291.833	833.81
292.064	872.81
292.295	867.81
292.526	870.81
292.757	874.81
292.987	846.81
293.218	846.81
293.449	874.81
293.68	1003.81
293.91	1044.81
294.141	941.81
294.372	923.81
294.603	989.81
294.833	1004.81
295.064	941.81
295.295	853.81
295.525	833.81
295.756	790.81
295.987	737.81
296.217	783.81
296.448	781.81
296.679	794.81
296.909	800.81
297.14	813.81
297.37	790.81
297.601	845.81
297.831	906.81
298.062	890.81
298.292	806.81
298.523	797.81
298.753	813.81
298.984	804.81
299.214	827.81
299.445	823.81
299.675	872.81
299.905	858.81
300.136	834.81
300.366	795.81
300.597	768.81
300.827	777.81
301.057	813.81
301.288	857.81
301.518	853.81
301.748	893.81
301.979	928.81
302.209	947.81
302.439	1021.81
302.669	1036.81
302.9	985.81
303.13	877.81
303.36	872.81
303.59	881.81
303.82	875.81
304.051	846.81
304.281	867.81
304.511	908.81
304.741	976.81
304.971	1060.81
305.201	1092.81
305.431	973.81
305.661	854.81
305.891	780.81
306.121	768.81
306.352	817.81
306.582	877.81
306.812	921.81
307.042	984.81
307.272	994.81
307.502	1014.81
307.731	1086.81
307.961	1102.81
308.191	1003.81
308.421	892.81
308.651	876.81
308.881	853.81
309.111	846.81
309.341	840.81
309.571	852.81
309.8	825.81
310.03	842.81
310.26	813.81
310.49	812.81
310.72	855.81
310.949	904.81
311.179	894.81
311.409	887.81
311.639	884.81
311.868	854.81
312.098	891.81
312.328	858.81
312.557	855.81
312.787	882.81
313.017	882.81
313.246	887.81
313.476	873.81
313.706	916.81
313.935	916.81
314.165	904.81
314.394	963.81
314.624	1016.81
314.853	1079.81
315.083	1085.81
315.312	1077.81
315.542	997.81
315.771	908.81
316.001	936.81
316.23	971.81
316.46	955.81
316.689	931.81
316.919	892.81
317.148	881.81
317.377	916.81
317.607	973.81
317.836	1076.81
318.065	1098.81
318.295	1054.81
318.524	1017.81
318.753	948.81
318.983	974.81
319.212	945.81
319.441	919.81
319.67	913.81
319.9	964.81
320.129	1011.81
320.358	1060.81
320.587	1068.81
320.816	1004.81
321.046	1045.81
321.275	965.81
321.504	977.81
321.733	1086.81
321.962	1042.81
322.191	951.81
322.42	955.81
322.649	960.81
322.878	948.81
323.108	925.81
323.337	985.81
323.566	973.81
323.795	974.81
324.024	956.81
324.253	973.81
324.482	953.81
324.71	930.81
324.939	891.81
325.168	942.81
325.397	968.81
325.626	983.81
325.855	978.81
326.084	955.81
326.313	934.81
326.542	965.81
326.77	993.81
326.999	976.81
327.228	951.81
327.457	873.81
327.686	889.81
327.914	925.81
328.143	930.81
328.372	951.81
328.6	948.81
328.829	952.81
329.058	907.81
329.287	946.81
329.515	965.81
329.744	965.81
329.972	1045.81
330.201	1068.81
330.43	1050.81
330.658	977.81
330.887	986.81
331.115	988.81
331.344	989.81
331.572	987.81
331.801	980.81
332.03	1010.81
332.258	1013.81
332.486	1010.81
332.715	1035.81
332.943	1011.81
333.172	979.81
333.4	989.81
333.629	1045.81
333.857	1127.81
334.085	1229.81
334.314	1384.81
334.542	1450.81
334.771	1318.81
334.999	1188.81
335.227	1098.81
335.455	1076.81
335.684	1091.81
335.912	1097.81
336.14	1134.81
336.369	1081.81
336.597	1008.81
336.825	1014.81
337.053	1065.81
337.281	1115.81
337.51	1161.81
337.738	1207.81
337.966	1141.81
338.194	1059.81
338.422	994.81
338.65	1004.81
338.878	974.81
339.106	968.81
339.334	942.81
339.562	920.81
339.79	1013.81
340.018	1045.81
340.246	1081.81
340.474	1049.81
340.702	1047.81
340.93	1044.81
341.158	1035.81
341.386	1020.81
341.614	997.81
341.842	984.81
342.07	1000.81
342.298	1029.81
342.526	987.81
342.754	1010.81
342.981	971.81
343.209	1010.81
343.437	1016.81
343.665	1015.81
343.893	1039.81
344.12	1082.81
344.348	1044.81
344.576	1045.81
344.804	999.81
345.031	995.81
345.259	1012.81
345.487	966.81
345.714	939.81
345.942	917.81
346.17	914.81
346.397	952.81
346.625	946.81
346.853	906.81
347.08	893.81
347.308	897.81
347.535	922.81
347.763	941.81
347.99	939.81
348.218	893.81
348.445	909.81
348.673	921.81
348.9	994.81
349.128	997.81
349.355	1049.81
349.583	981.81
349.81	928.81
350.037	869.81
350.265	876.81
350.492	901.81
350.72	920.81
350.947	959.81
351.174	958.81
351.402	908.81
351.629	905.81
351.856	898.81
352.083	863.81
352.311	882.81
352.538	907.81
352.765	978.81
352.992	936.81
353.22	939.81
353.447	910.81
353.674	923.81
353.901	936.81
354.128	915.81
354.355	907.81
354.583	968.81
354.81	980.81
355.037	981.81
355.264	953.81
355.491	956.81
355.718	945.81
355.945	950.81
356.172	906.81
356.399	858.81
356.626	918.81
356.853	970.81
357.08	1048.81
357.307	1151.81
357.534	1111.81
357.761	955.81
357.988	909.81
358.215	904.81
358.441	896.81
358.668	887.81
358.895	900.81
359.122	950.81
359.349	1052.81
359.576	1024.81
359.802	923.81
360.029	898.81
360.256	920.81
360.483	925.81
360.709	974.81
360.936	1023.81
361.163	1043.81
361.39	1128.81
361.616	1201.81
361.843	1144.81
362.07	1071.81
362.296	950.81
362.523	910.81
362.749	932.81
362.976	953.81
363.203	991.81
363.429	896.81
363.656	907.81
363.882	964.81
364.109	1065.81
364.335	1107.81
364.562	1016.81
364.788	982.81
365.015	965.81
365.241	920.81
365.468	944.81
365.694	985.81
365.92	1029.81
366.147	960.81
366.373	928.81
366.599	904.81
366.826	904.81
367.052	924.81
367.278	926.81
367.505	988.81
367.731	997.81
367.957	967.81
368.184	1003.81
368.41	1085.81
368.636	1088.81
368.862	1066.81
369.089	1076.81
369.315	1043.81
369.541	967.81
369.767	973.81
369.993	931.81
370.219	944.81
370.445	993.81
370.672	1063.81
370.898	1058.81
371.124	1060.81
371.35	1020.81
371.576	1039.81
371.802	1100.81
372.028	1031.81
372.254	974.81
372.48	955.81
372.706	983.81
372.932	955.81
373.158	994.81
373.384	984.81
373.61	1003.81
373.835	1052.81
374.061	1015.81
374.287	1003.81
374.513	988.81
374.739	1003.81
374.965	1002.81
375.191	1033.81
375.416	1046.81
375.642	1056.81
375.868	1128.81
376.094	1146.81
376.319	1074.81
376.545	1013.81
376.771	1035.81
376.997	1108.81
377.222	1072.81
377.448	1066.81
377.674	1055.81
377.899	1055.81
378.125	1108.81
378.35	1097.81
378.576	1012.81
378.802	956.81
379.027	972.81
379.253	1017.81
379.478	990.81
379.704	980.81
379.929	994.81
380.155	992.81
380.38	1036.81
380.606	1008.81
380.831	1039.81
381.057	1076.81
381.282	1093.81
381.507	1059.81
381.733	1148.81
381.958	1165.81
382.184	1049.81
382.409	1042.81
382.634	1033.81
382.86	1074.81
383.085	1058.81
383.31	1125.81
383.535	1204.81
383.761	1251.81
383.986	1205.81
384.211	1145.81
384.436	1122.81
384.662	1185.81
384.887	1222.81
385.112	1172.81
385.337	1152.81
385.562	1136.81
385.787	1127.81
386.013	1159.81
386.238	1157.81
386.463	1210.81
386.688	1268.81
386.913	1346.81
387.138	1283.81
387.363	1200.81
387.588	1170.81
387.813	1177.81
388.038	1195.81
388.263	1218.81
388.488	1192.81
388.713	1076.81
388.938	1104.81
389.163	1106.81
389.387	1135.81
389.612	1133.81
389.837	1172.81
390.062	1165.81
390.287	1149.81
390.512	1161.81
390.736	1144.81
390.961	1092.81
391.186	1073.81
391.411	1109.81
391.636	1133.81
391.86	1157.81
392.085	1128.81
392.31	1142.81
392.534	1136.81
392.759	1163.81
392.984	1141.81
393.208	1171.81
393.433	1179.81
393.658	1243.81
393.882	1236.81
394.107	1165.81
394.331	1156.81
394.556	1124.81
394.78	1145.81
395.005	1223.81
395.229	1236.81
395.454	1331.81
395.678	1309.81
395.903	1254.81
396.127	1206.81
396.352	1234.81
396.576	1269.81
396.801	1256.81
397.025	1261.81
397.249	1259.81
397.474	1222.81
397.698	1220.81
397.922	1302.81
398.147	1346.81
398.371	1365.81
398.595	1375.81
398.82	1315.81
399.044	1352.81
399.268	1376.81
399.492	1461.81
399.717	1474.81
399.941	1512.81
400.165	1506.81
400.389	1462.81
400.613	1470.81
400.837	1683.81
401.062	1855.81
401.286	1539.81
401.51	1462.81
401.734	1502.81
401.958	1425.81
402.182	1318.81
402.406	1303.81
402.63	1313.81
402.854	1282.81
403.078	1329.81
403.302	1313.81
403.526	1340.81
403.75	1373.81
403.974	1421.81
404.198	1384.81
404.422	1410.81
404.645	1491.81
404.869	1465.81
405.093	1333.81
405.317	1334.81
405.541	1370.81
405.765	1362.81
405.988	1389.81
406.212	1346.81
406.436	1419.81
406.66	1460.81
406.883	1518.81
407.107	1652.81
407.331	1830.81
407.555	1901.81
407.778	1744.81
408.002	1435.81
408.226	1437.81
408.449	1445.81
408.673	1380.81
408.896	1397.81
409.12	1378.81
409.344	1404.81
409.567	1362.81
409.791	1380.81
410.014	1416.81
410.238	1468.81
410.461	1544.81
410.685	1382.81
410.908	1346.81
411.132	1360.81
411.355	1371.81
411.578	1322.81
411.802	1370.81
412.025	1401.81
412.249	1316.81
412.472	1314.81
412.695	1320.81
412.919	1339.81
413.142	1325.81
413.365	1344.81
413.589	1380.81
413.812	1412.81
414.035	1460.81
414.258	1348.81
414.482	1329.81
414.705	1310.81
414.928	1308.81
415.151	1288.81
415.374	1340.81
415.597	1366.81
415.821	1385.81
416.044	1354.81
416.267	1335.81
416.49	1307.81
416.713	1323.81
416.936	1380.81
417.159	1402.81
417.382	1401.81
417.605	1322.81
417.828	1356.81
418.051	1363.81
418.274	1323.81
418.497	1289.81
418.72	1277.81
418.943	1310.81
419.166	1354.81
419.389	1359.81
419.611	1342.81
419.834	1321.81
420.057	1338.81
420.28	1289.81
420.503	1284.81
420.726	1330.81
420.948	1312.81
421.171	1310.81
421.394	1316.81
421.617	1331.81
421.839	1355.81
422.062	1358.81
422.285	1309.81
422.507	1281.81
422.73	1277.81
422.953	1204.81
423.175	1220.81
423.398	1270.81
423.621	1300.81
423.843	1274.81
424.066	1361.81
424.288	1376.81
424.511	1407.81
424.733	1373.81
424.956	1271.81
425.178	1266.81
425.401	1284.81
425.623	1257.81
425.846	1282.81
426.068	1344.81
426.291	1378.81
426.513	1318.81
426.735	1325.81
426.958	1440.81
427.18	1494.81
427.402	1373.81
427.625	1428.81
427.847	1387.81
428.069	1272.81
428.292	1268.81
428.514	1243.81
428.736	1240.81
428.958	1244.81
429.181	1281.81
429.403	1488.81
429.625	1796.81
429.847	1528.81
430.069	1308.81
430.292	1481.81
430.514	1466.81
430.736	1372.81
430.958	1408.81
431.18	1306.81
431.402	1260.81
431.624	1236.81
431.846	1190.81
432.068	1123.81
432.29	1148.81
432.512	1204.81
432.734	1274.81
432.956	1296.81
433.178	1341.81
433.4	1364.81
433.622	1344.81
433.844	1252.81
434.066	1184.81
434.287	1187.81
434.509	1195.81
434.731	1284.81
434.953	1358.81
435.175	1346.81
435.397	1270.81
435.618	1288.81
435.84	1275.81
436.062	1249.81
436.284	1302.81
436.505	1306.81
436.727	1333.81
436.949	1319.81
437.17	1258.81
437.392	1243.81
437.614	1188.81
437.835	1194.81
438.057	1236.81
438.278	1269.81
438.5	1239.81
438.721	1254.81
438.943	1275.81
439.165	1251.81
439.386	1256.81
439.608	1264.81
439.829	1262.81
440.05	1261.81
440.272	1265.81
440.493	1229.81
440.715	1273.81
440.936	1376.81
441.158	1453.81
441.379	1386.81
441.6	1362.81
441.822	1384.81
442.043	1360.81
442.264	1323.81
442.486	1283.81
442.707	1262.81
442.928	1260.81
443.149	1312.81
443.371	1355.81
443.592	1397.81
443.813	1377.81
444.034	1394.81
444.255	1394.81
444.476	1382.81
444.698	1436.81
444.919	1424.81
445.14	1514.81
445.361	1494.81
445.582	1484.81
445.803	1428.81
446.024	1393.81
446.245	1453.81
446.466	1400.81
446.687	1344.81
446.908	1344.81
447.129	1323.81
447.35	1335.81
447.571	1347.81
447.792	1284.81
448.013	1238.81
448.234	1281.81
448.455	1304.81
448.675	1332.81
448.896	1204.81
449.117	1189.81
449.338	1211.81
449.559	1290.81
449.779	1357.81
450	1438.81
450.221	1544.81
450.442	1475.81
450.662	1292.81
450.883	1197.81
451.104	1189.81
451.324	1230.81
451.545	1237.81
451.766	1197.81
451.986	1180.81
452.207	1155.81
452.428	1100.81
452.648	1122.81
452.869	1151.81
453.089	1167.81
453.31	1167.81
453.53	1161.81
453.751	1133.81
453.971	1040.81
454.192	1109.81
454.412	1163.81
454.633	1147.81
454.853	1095.81
455.073	1068.81
455.294	1070.81
455.514	1104.81
455.734	1072.81
455.955	1112.81
456.175	1088.81
456.395	1080.81
456.616	1113.81
456.836	1129.81
457.056	1081.81
457.276	1103.81
457.497	1072.81
457.717	1054.81
457.937	1038.81
458.157	1068.81
458.377	1065.81
458.598	1082.81
458.818	1077.81
459.038	1133.81
459.258	1197.81
459.478	1184.81
459.698	1108.81
459.918	1199.81
460.138	1266.81
460.358	1289.81
460.578	1291.81
460.798	1335.81
461.018	1346.81
461.238	1309.81
461.458	1270.81
461.678	1280.81
461.898	1244.81
462.118	1219.81
462.338	1303.81
462.558	1286.81
462.777	1259.81
462.997	1300.81
463.217	1378.81
463.437	1358.81
463.657	1266.81
463.876	1281.81
464.096	1265.81
464.316	1261.81
464.536	1286.81
464.755	1302.81
464.975	1357.81
465.195	1287.81
465.414	1355.81
465.634	1325.81
465.854	1299.81
466.073	1422.81
466.293	1357.81
466.512	1192.81
466.732	1262.81
466.951	1273.81
467.171	1266.81
467.391	1214.81
467.61	1195.81
467.829	1249.81
468.049	1361.81
468.268	1458.81
468.488	1363.81
468.707	1244.81
468.927	1258.81
469.146	1224.81
469.365	1223.81
469.585	1241.81
469.804	1228.81
470.023	1254.81
470.243	1251.81
470.462	1241.81
470.681	1221.81
470.901	1228.81
471.12	1246.81
471.339	1238.81
471.558	1216.81
471.777	1184.81
471.997	1209.81
472.216	1175.81
472.435	1121.81
472.654	1132.81
472.873	1168.81
473.092	1254.81
473.311	1204.81
473.53	1134.81
473.749	1132.81
473.968	1148.81
474.187	1241.81
474.406	1242.81
474.625	1219.81
474.844	1218.81
475.063	1222.81
475.282	1214.81
475.501	1223.81
475.72	1232.81
475.939	1304.81
476.158	1264.81
476.377	1226.81
476.596	1226.81
476.814	1255.81
477.033	1204.81
477.252	1272.81
477.471	1309.81
477.69	1300.81
477.908	1296.81
478.127	1372.81
478.346	1450.81
478.564	1454.81
478.783	1421.81
479.002	1490.81
479.22	1460.81
479.439	1467.81
479.658	1603.81
479.876	1556.81
480.095	1394.81
480.313	1338.81
480.532	1284.81
480.751	1321.81
480.969	1336.81
481.188	1291.81
481.406	1282.81
481.624	1246.81
481.843	1290.81
482.061	1273.81
482.28	1343.81
482.498	1367.81
482.717	1335.81
482.935	1312.81
483.153	1373.81
483.372	1385.81
483.59	1373.81
483.808	1356.81
484.027	1380.81
484.245	1456.81
484.463	1779.81
484.681	1915.81
484.9	1500.81
485.118	1394.81
485.336	1374.81
485.554	1398.81
485.772	1428.81
485.99	1402.81
486.209	1418.81
486.427	1382.81
486.645	1408.81
486.863	1439.81
487.081	1492.81
487.299	1484.81
487.517	1451.81
487.735	1467.81
487.953	1524.81
488.171	1505.81
488.389	1471.81
488.607	1492.81
488.825	1632.81
489.043	1555.81
489.261	1404.81
489.479	1507.81
489.696	1536.81
489.914	1498.81
490.132	1477.81
490.35	1484.81
490.568	1555.81
490.786	1525.81
491.003	1452.81
491.221	1557.81
491.439	1596.81
491.657	1579.81
491.874	1628.81
492.092	1700.81
492.31	1758.81
492.527	1682.81
492.745	1636.81
492.963	1586.81
493.18	1598.81
493.398	1706.81
493.615	1760.81
493.833	1587.81
494.05	1572.81
494.268	1598.81
494.485	1574.81
494.703	1563.81
494.92	1558.81
495.138	1549.81
495.355	1541.81
495.573	1656.81
495.79	1715.81
496.008	1674.81
496.225	1624.81
496.442	1642.81
496.66	1626.81
496.877	1584.81
497.094	1689.81
497.312	1641.81
497.529	1661.81
497.746	1689.81
497.963	1881.81
498.181	2012.81
498.398	1923.81
498.615	1852.81
498.832	1789.81
499.049	1764.81
499.267	1762.81
499.484	1921.81
499.701	2059.81
499.918	2060.81
500.135	2248.81
500.352	2364.81
500.569	2362.81
500.786	2565.81
501.003	2350.81
501.22	2098.81
501.437	2056.81
501.654	2082.81
501.871	1990.81
502.088	1764.81
502.305	1737.81
502.522	1729.81
502.739	1630.81
502.956	1576.81
503.172	1574.81
503.389	1525.81
503.606	1497.81
503.823	1523.81
504.04	1489.81
504.256	1501.81
504.473	1522.81
504.69	1492.81
504.907	1456.81
505.123	1444.81
505.34	1573.81
505.557	1998.81
505.773	1687.81
505.99	1417.81
506.207	1340.81
506.423	1304.81
506.64	1295.81
506.856	1296.81
507.073	1544.81
507.289	1616.81
507.506	1540.81
507.722	1299.81
507.939	1236.81
508.155	1246.81
508.372	1252.81
508.588	1219.81
508.805	1221.81
509.021	1151.81
509.238	1181.81
509.454	1172.81
509.67	1191.81
509.887	1152.81
510.103	1122.81
510.319	1164.81
510.536	1204.81
510.752	1246.81
510.968	1216.81
511.184	1298.81
511.401	1265.81
511.617	1140.81
511.833	1095.81
512.049	1106.81
512.265	1111.81
512.481	1120.81
512.698	1192.81
512.914	1236.81
513.13	1167.81
513.346	1113.81
513.562	1135.81
513.778	1132.81
513.994	1164.81
514.21	1206.81
514.426	1208.81
514.642	1335.81
514.858	1243.81
515.074	1178.81
515.29	1156.81
515.506	1168.81
515.721	1171.81
515.937	1204.81
516.153	1336.81
516.369	1248.81
516.585	1187.81
516.801	1152.81
517.016	1138.81
517.232	1191.81
517.448	1230.81
517.664	1247.81
517.879	1244.81
518.095	1288.81
518.311	1213.81
518.527	1164.81
518.742	1173.81
518.958	1140.81
519.173	1149.81
519.389	1152.81
519.605	1168.81
519.82	1212.81
520.036	1212.81
520.251	1187.81
520.467	1183.81
520.682	1259.81
520.898	1261.81
521.113	1161.81
521.329	1152.81
521.544	1232.81
521.76	1162.81
521.975	1137.81
522.19	1107.81
522.406	1119.81
522.621	1458.81
522.836	1346.81
523.052	1115.81
523.267	1110.81
523.482	1149.81
523.698	1108.81
523.913	1077.81
524.128	1109.81
524.343	1174.81
524.559	1189.81
524.774	1124.81
524.989	1113.81
525.204	1095.81
525.419	1059.81
525.634	1042.81
525.849	1064.81
526.064	1072.81
526.28	1059.81
526.495	993.81
526.71	997.81
526.925	1028.81
527.14	1006.81
527.355	970.81
527.57	980.81
527.785	1030.81
527.999	1003.81
528.214	1013.81
528.429	1008.81
528.644	1027.81
528.859	1090.81
529.074	1091.81
529.289	1126.81
529.503	1140.81
529.718	1093.81
529.933	1018.81
530.148	979.81
530.363	971.81
530.577	1000.81
530.792	993.81
531.007	981.81
531.221	974.81
531.436	977.81
531.651	1031.81
531.865	1060.81
532.08	1022.81
532.295	964.81
532.509	937.81
532.724	974.81
532.938	1056.81
533.153	1080.81
533.367	1043.81
533.582	1078.81
533.796	1024.81
534.011	1058.81
534.225	1002.81
534.44	976.81
534.654	965.81
534.868	994.81
535.083	1061.81
535.297	1062.81
535.511	999.81
535.726	999.81
535.94	994.81
536.154	979.81
536.369	972.81
536.583	950.81
536.797	991.81
537.011	982.81
537.225	918.81
537.44	911.81
537.654	991.81
537.868	948.81
538.082	915.81
538.296	900.81
538.51	901.81
538.724	948.81
538.938	972.81
539.153	992.81
539.367	982.81
539.581	962.81
539.795	991.81
540.009	970.81
540.222	950.81
540.436	1003.81
540.65	1048.81
540.864	1107.81
541.078	1058.81
541.292	1044.81
541.506	1085.81
541.72	1102.81
541.934	1126.81
542.147	1178.81
542.361	1130.81
542.575	1055.81
542.789	1040.81
543.002	959.81
543.216	952.81
543.43	1040.81
543.644	1061.81
543.857	1163.81
544.071	1131.81
544.285	1122.81
544.498	1102.81
544.712	1132.81
544.925	1126.81
545.139	1158.81
545.352	1072.81
545.566	1067.81
545.779	1048.81
545.993	1126.81
546.206	1123.81
546.42	1097.81
546.633	1110.81
546.847	1042.81
547.06	1064.81
547.274	1054.81
547.487	1063.81
547.7	1110.81
547.914	1104.81
548.127	1082.81
548.34	1110.81
548.554	1059.81
548.767	1080.81
548.98	1067.81
549.193	1036.81
549.407	1101.81
549.62	1130.81
549.833	1064.81
550.046	1045.81
550.259	1058.81
550.473	1052.81
550.686	1021.81
550.899	996.81
551.112	991.81
551.325	981.81
551.538	1074.81
551.751	1163.81
551.964	960.81
552.177	958.81
552.39	966.81
552.603	1011.81
552.816	1003.81
553.029	1061.81
553.242	1092.81
553.455	1065.81
553.667	1033.81
553.88	1041.81
554.093	1028.81
554.306	986.81
554.519	964.81
554.732	950.81
554.944	955.81
555.157	988.81
555.37	956.81
555.583	957.81
555.795	935.81
556.008	897.81
556.221	888.81
556.433	868.81
556.646	887.81
556.859	866.81
557.071	878.81
557.284	877.81
557.496	907.81
557.709	878.81
557.921	851.81
558.134	889.81
558.346	900.81
558.559	845.81
558.771	869.81
558.984	843.81
559.196	800.81
559.409	801.81
559.621	814.81
559.833	835.81
560.046	857.81
560.258	862.81
560.47	852.81
560.683	842.81
560.895	832.81
561.107	816.81
561.32	849.81
561.532	834.81
561.744	823.81
561.956	852.81
562.168	827.81
562.381	801.81
562.593	783.81
562.805	809.81
563.017	796.81
563.229	769.81
563.441	805.81
563.653	789.81
563.865	783.81
564.077	778.81
564.289	792.81
564.501	796.81
564.713	807.81
564.925	818.81
565.137	896.81
565.349	832.81
565.561	809.81
565.773	816.81
565.985	813.81
566.197	865.81
566.408	933.81
566.62	925.81
566.832	909.81
567.044	910.81
567.255	914.81
567.467	908.81
567.679	913.81
567.891	924.81
568.102	876.81
568.314	837.81
568.526	814.81
568.737	781.81
568.949	742.81
569.161	704.81
569.372	707.81
569.584	694.81
569.795	682.81
570.007	675.81
570.218	677.81
570.43	651.81
570.641	661.81
570.853	650.81
571.064	663.81
571.276	682.81
571.487	652.81
571.698	656.81
571.91	618.81
572.121	621.81
572.333	629.81
572.544	618.81
572.755	595.81
572.966	586.81
573.178	582.81
573.389	606.81
573.6	636.81
573.811	644.81
574.023	577.81
574.234	568.81
574.445	596.81
574.656	538.81
574.867	562.81
575.078	577.81
575.289	583.81
575.501	566.81
575.712	570.81
575.923	555.81
576.134	549.81
576.345	556.81
576.556	553.81
576.767	538.81
576.978	527.81
577.188	540.81
577.399	517.81
577.61	538.81
577.821	515.81
578.032	515.81
578.243	509.81
578.454	523.81
578.665	524.81
578.875	489.81
579.086	472.81
579.297	500.81
579.508	522.81
579.718	514.81
579.929	498.81
580.14	477.81
580.35	476.81
580.561	512.81
580.772	592.81
580.982	529.81
581.193	507.81
581.403	490.81
581.614	480.81
581.825	500.81
582.035	476.81
582.246	505.81
582.456	498.81
582.667	476.81
582.877	472.81
583.087	474.81
583.298	473.81
583.508	488.81
583.719	462.81
583.929	472.81
584.139	498.81
584.35	470.81
584.56	445.81
584.77	465.81
584.981	494.81
585.191	475.81
585.401	490.81
585.611	486.81
585.821	471.81
586.032	442.81
586.242	442.81
586.452	449.81
586.662	458.81
586.872	448.81
587.082	468.81
587.292	476.81
587.502	483.81
587.713	456.81
587.923	468.81
588.133	461.81
588.343	463.81
588.553	450.81
588.762	450.81
588.972	442.81
589.182	446.81
589.392	461.81
589.602	446.81
589.812	451.81
590.022	434.81
590.232	430.81
590.441	463.81
590.651	473.81
590.861	453.81
591.071	445.81
591.281	435.81
591.49	438.81
591.7	445.81
591.91	450.81
592.119	467.81
592.329	457.81
592.539	465.81
592.748	451.81
592.958	462.81
593.167	475.81
593.377	486.81
593.587	469.81
593.796	460.81
594.006	484.81
594.215	469.81
594.424	475.81
594.634	458.81
594.843	462.81
595.053	466.81
595.262	477.81
595.472	441.81
595.681	449.81
595.89	449.81
596.1	440.81
596.309	445.81
596.518	433.81
596.727	437.81
596.937	427.81
597.146	434.81
597.355	412.81
597.564	417.81
597.774	403.81
597.983	416.81
598.192	404.81
598.401	408.81
598.61	388.81
598.819	392.81
599.028	393.81
599.237	416.81
599.446	384.81
599.655	393.81
599.864	379.81
600.073	388.81
600.282	386.81
600.491	385.81
600.7	375.81
600.909	379.81
601.118	402.81
601.327	413.81
601.536	418.81
601.745	402.81
601.953	435.81
602.162	424.81
602.371	424.81
602.58	422.81
602.789	437.81
602.997	395.81
603.206	413.81
603.415	411.81
603.623	392.81
603.832	409.81
604.041	398.81
604.249	395.81
604.458	384.81
604.666	376.81
604.875	382.81
605.084	393.81
605.292	414.81
605.501	408.81
605.709	412.81
605.918	398.81
606.126	416.81
606.334	424.81
606.543	396.81
606.751	420.81
606.96	414.81
607.168	404.81
607.376	402.81
607.585	403.81
607.793	401.81
608.001	393.81
608.21	399.81
608.418	408.81
608.626	402.81
608.834	406.81
609.043	396.81
609.251	398.81
609.459	387.81
609.667	397.81
609.875	396.81
610.083	416.81
610.291	414.81
610.499	421.81
610.707	390.81
610.916	380.81
611.124	413.81
611.332	393.81
611.54	425.81
611.748	424.81
611.955	410.81
612.163	383.81
612.371	385.81
612.579	400.81
612.787	410.81
612.995	424.81
613.203	398.81
613.411	375.81
613.618	387.81
613.826	398.81
614.034	393.81
614.242	385.81
614.449	386.81
614.657	413.81
614.865	416.81
615.072	430.81
615.28	399.81
615.488	386.81
615.695	423.81
615.903	411.81
616.111	369.81
616.318	394.81
616.526	388.81
616.733	379.81
616.941	391.81
617.148	381.81
617.356	372.81
617.563	382.81
617.771	387.81
617.978	380.81
618.185	373.81
618.393	373.81
618.6	364.81
618.807	376.81
619.015	371.81
619.222	362.81
619.429	352.81
619.637	363.81
619.844	355.81
620.051	358.81
620.258	361.81
620.466	373.81
620.673	344.81
620.88	363.81
621.087	358.81
621.294	318.81
621.501	341.81
621.708	358.81
621.915	362.81
622.122	346.81
622.329	376.81
622.536	367.81
622.743	364.81
622.95	333.81
623.157	356.81
623.364	338.81
623.571	345.81
623.778	342.81
623.985	330.81
624.192	361.81
624.399	353.81
624.606	337.81
624.812	342.81
625.019	327.81
625.226	327.81
625.433	327.81
625.639	321.81
625.846	321.81
626.053	302.81
626.259	302.81
626.466	317.81
626.673	283.81
626.879	300.81
627.086	297.81
627.293	312.81
627.499	321.81
627.706	318.81
627.912	334.81
628.119	342.81
628.325	325.81
628.532	310.81
628.738	328.81
628.945	314.81
629.151	312.81
629.357	321.81
629.564	308.81
629.77	300.81
629.976	314.81
630.183	302.81
630.389	292.81
630.595	312.81
630.802	300.81
631.008	275.81
631.214	321.81
631.42	290.81
631.627	286.81
631.833	300.81
632.039	278.81
632.245	285.81
632.451	292.81
632.657	290.81
632.863	298.81
633.069	287.81
633.275	294.81
633.481	287.81
633.688	300.81
633.893	272.81
634.099	293.81
634.305	282.81
634.511	276.81
634.717	258.81
634.923	254.81
635.129	265.81
635.335	277.81
635.541	291.81
635.747	289.81
635.952	294.81
636.158	283.81
636.364	287.81
636.57	285.81
636.775	305.81
636.981	284.81
637.187	293.81
637.392	285.81
637.598	276.81
637.804	283.81
638.009	288.81
638.215	278.81
638.421	290.81
638.626	286.81
638.832	274.81
639.037	262.81
639.243	278.81
639.448	264.81
639.654	268.81
639.859	259.81
640.065	270.81
640.27	282.81
640.475	261.81
640.681	275.81
640.886	246.81
641.091	258.81
641.297	270.81
641.502	258.81
641.707	255.81
641.913	271.81
642.118	260.81
642.323	257.81
642.528	278.81
642.733	270.81
642.939	275.81
643.144	246.81
643.349	281.81
643.554	269.81
643.759	253.81
643.964	261.81
644.169	259.81
644.374	257.81
644.579	259.81
644.784	273.81
644.989	257.81
645.194	249.81
645.399	257.81
645.604	266.81
645.809	259.81
646.014	253.81
646.219	264.81
646.423	256.81
646.628	257.81
646.833	263.81
647.038	250.81
647.243	276.81
647.447	236.81
647.652	247.81
647.857	269.81
648.062	256.81
648.266	264.81
648.471	265.81
648.676	262.81
648.88	256.81
649.085	263.81
649.289	256.81
649.494	263.81
649.698	249.81
649.903	243.81
650.107	245.81
650.312	258.81
650.516	249.81
650.721	247.81
650.925	248.81
651.13	234.81
651.334	235.81
651.539	242.81
651.743	232.81
651.947	246.81
652.152	242.81
652.356	235.81
652.56	246.81
652.764	227.81
652.969	229.81
653.173	226.81
653.377	219.81
653.581	229.81
653.785	220.81
653.99	234.81
654.194	228.81
654.398	221.81
654.602	221.81
654.806	218.81
655.01	223.81
655.214	214.81
655.418	209.81
655.622	218.81
655.826	227.81
656.03	235.81
656.234	236.81
656.438	249.81
656.642	273.81
656.846	231.81
657.049	243.81
657.253	223.81
657.457	202.81
657.661	188.81
657.865	169.81
658.068	190.81
658.272	170.81
658.476	162.81
658.68	149.81
658.883	150.81
659.087	135.81
659.291	144.81
659.494	137.81
659.698	132.81
659.901	130.81
660.105	150.81
660.309	136.81
660.512	134.81
660.716	135.81
660.919	118.81
661.123	110.81
661.326	134.81
661.53	120.81
661.733	124.81
661.936	110.81
662.14	115.81
662.343	80.81
662.546	97.81
662.75	109.81
662.953	101.81
663.156	98.81
663.36	107.81
663.563	104.81
663.766	83.81
663.969	99.81
664.173	91.81
664.376	87.81
664.579	84.81
664.782	96.81
664.985	83.81
665.188	87.81
665.391	73.81
665.594	82.81
665.797	86.81
666	79.81
666.203	95.81
666.406	108.81
666.609	97.81
666.812	77.81
667.015	83.81
667.218	91.81
667.421	87.81
667.624	92.81
667.827	91.81
668.03	93.81
668.232	91.81
668.435	100.81
668.638	79.81
668.841	75.81
669.043	84.81
669.246	86.81
669.449	91.81
669.651	105.81
669.854	86.81
670.057	93.81
670.259	74.81
670.462	82.81
670.665	83.81
670.867	78.81
671.07	90.81
671.272	79.81
671.475	73.81
671.677	99.81
671.88	79.81
672.082	89.81
672.284	95.81
672.487	85.81
672.689	85.81
672.892	94.81
