Data from WStandard_LampEnergy5.5LIBS07252019.E.O._I.C._HRD10591_16-07-01-919.txt Node
Date: Thu Jul 25 16:07:01 EDT 2019
User: cochatt
Spectrometer: HR+D1059
Trigger mode: 1
Integration Time (sec): 1.000000E-1
Scans to average: 1
Electric dark correction enabled: true
Nonlinearity correction enabled: false
Boxcar width: 0
XAxis mode: Wavelengths
Number of Pixels in Spectrum: 2048
>>>>>Begin Spectral Data<<<<<
223.165	-15.69
223.4	-15.69
223.635	-15.69
223.869	-13.69
224.104	-31.69
224.338	-9.69
224.573	-15.69
224.808	-22.69
225.042	2.31
225.277	-1.69
225.511	-14.69
225.746	4.31
225.98	15.31
226.215	6.31
226.449	13.31
226.683	22.31
226.918	29.31
227.152	32.31
227.387	40.31
227.621	25.31
227.856	32.31
228.09	43.31
228.324	50.31
228.559	46.31
228.793	149.31
229.027	359.31
229.262	376.31
229.496	394.31
229.73	369.31
229.964	440.31
230.199	461.31
230.433	478.31
230.667	512.31
230.901	530.31
231.136	470.31
231.37	471.31
231.604	453.31
231.838	463.31
232.072	478.31
232.306	459.31
232.541	478.31
232.775	548.31
233.009	615.31
233.243	570.31
233.477	516.31
233.711	542.31
233.945	574.31
234.179	567.31
234.413	583.31
234.647	620.31
234.881	603.31
235.115	539.31
235.349	539.31
235.583	579.31
235.817	576.31
236.051	529.31
236.285	562.31
236.519	591.31
236.753	668.31
236.987	691.31
237.221	656.31
237.455	760.31
237.689	714.31
237.922	676.31
238.156	671.31
238.39	659.31
238.624	713.31
238.858	756.31
239.091	768.31
239.325	818.31
239.559	915.31
239.793	983.31
240.027	1070.31
240.26	1072.31
240.494	779.31
240.728	718.31
240.961	724.31
241.195	725.31
241.429	823.31
241.662	819.31
241.896	747.31
242.13	751.31
242.363	858.31
242.597	927.31
242.83	889.31
243.064	892.31
243.298	970.31
243.531	904.31
243.765	924.31
243.998	930.31
244.232	809.31
244.465	782.31
244.699	801.31
244.932	887.31
245.166	1037.31
245.399	1002.31
245.633	909.31
245.866	869.31
246.099	944.31
246.333	972.31
246.566	982.31
246.8	1058.31
247.033	1193.31
247.266	1084.31
247.5	1090.31
247.733	1061.31
247.966	1116.31
248.2	1223.31
248.433	1159.31
248.666	1218.31
248.899	1304.31
249.133	1495.31
249.366	1751.31
249.599	1444.31
249.832	1225.31
250.066	1264.31
250.299	1312.31
250.532	1208.31
250.765	1082.31
250.998	1165.31
251.231	1217.31
251.465	1262.31
251.698	1172.31
251.931	1176.31
252.164	1220.31
252.397	1271.31
252.63	1285.31
252.863	1101.31
253.096	1070.31
253.329	1140.31
253.562	1163.31
253.795	1279.31
254.028	1261.31
254.261	1160.31
254.494	1162.31
254.727	1104.31
254.96	1154.31
255.193	1249.31
255.426	1414.31
255.659	1656.31
255.892	1663.31
256.124	1383.31
256.357	1337.31
256.59	1440.31
256.823	1440.31
257.056	1403.31
257.289	1686.31
257.521	1922.31
257.754	1692.31
257.987	1582.31
258.22	1760.31
258.452	1727.31
258.685	1387.31
258.918	1345.31
259.151	1385.31
259.383	1327.31
259.616	1158.31
259.849	1244.31
260.081	1367.31
260.314	1523.31
260.547	1686.31
260.779	1710.31
261.012	1635.31
261.244	1438.31
261.477	1374.31
261.71	1439.31
261.942	1426.31
262.175	1377.31
262.407	1503.31
262.64	1408.31
262.872	1258.31
263.105	1212.31
263.337	1244.31
263.57	1311.31
263.802	1315.31
264.035	1219.31
264.267	1130.31
264.499	1123.31
264.732	1192.31
264.964	1302.31
265.197	1355.31
265.429	1382.31
265.661	1554.31
265.894	1694.31
266.126	1834.31
266.358	1577.31
266.591	1624.31
266.823	1816.31
267.055	1636.31
267.287	1606.31
267.52	1525.31
267.752	1526.31
267.984	1552.31
268.216	1630.31
268.448	1646.31
268.681	1672.31
268.913	1507.31
269.145	1422.31
269.377	1396.31
269.609	1490.31
269.841	1746.31
270.073	2041.31
270.306	2264.31
270.538	2409.31
270.77	2050.31
271.002	1751.31
271.234	1618.31
271.466	1610.31
271.698	1829.31
271.93	2208.31
272.162	2248.31
272.394	1970.31
272.626	1890.31
272.858	1694.31
273.09	1423.31
273.322	1416.31
273.553	1375.31
273.785	1381.31
274.017	1439.31
274.249	1578.31
274.481	1588.31
274.713	1458.31
274.945	1376.31
275.176	1396.31
275.408	1400.31
275.64	1375.31
275.872	1313.31
276.104	1449.31
276.335	1639.31
276.567	1898.31
276.799	1957.31
277.031	1684.31
277.262	1580.31
277.494	1667.31
277.726	1870.31
277.957	1838.31
278.189	1697.31
278.421	1520.31
278.652	1480.31
278.884	1459.31
279.115	1442.31
279.347	1481.31
279.579	1416.31
279.81	1436.31
280.042	1632.31
280.273	1761.31
280.505	1771.31
280.736	1790.31
280.968	1663.31
281.199	1521.31
281.431	1418.31
281.662	1445.31
281.894	1432.31
282.125	1459.31
282.356	1536.31
282.588	1516.31
282.819	1513.31
283.051	1611.31
283.282	1799.31
283.513	1716.31
283.745	1500.31
283.976	1406.31
284.207	1433.31
284.439	1445.31
284.67	1469.31
284.901	1529.31
285.132	1526.31
285.364	1522.31
285.595	1519.31
285.826	1510.31
286.057	1455.31
286.288	1478.31
286.52	1532.31
286.751	1691.31
286.982	1747.31
287.213	1610.31
287.444	1447.31
287.675	1413.31
287.906	1492.31
288.138	1594.31
288.369	1592.31
288.6	1508.31
288.831	1415.31
289.062	1430.31
289.293	1484.31
289.524	1494.31
289.755	1525.31
289.986	1536.31
290.217	1454.31
290.448	1426.31
290.679	1475.31
290.91	1463.31
291.141	1504.31
291.371	1591.31
291.602	1571.31
291.833	1584.31
292.064	1586.31
292.295	1588.31
292.526	1646.31
292.757	1744.31
292.987	1651.31
293.218	1551.31
293.449	1617.31
293.68	1863.31
293.91	2007.31
294.141	1881.31
294.372	1710.31
294.603	1754.31
294.833	1868.31
295.064	1823.31
295.295	1617.31
295.525	1566.31
295.756	1479.31
295.987	1358.31
296.217	1426.31
296.448	1458.31
296.679	1484.31
296.909	1467.31
297.14	1488.31
297.37	1480.31
297.601	1581.31
297.831	1674.31
298.062	1688.31
298.292	1565.31
298.523	1490.31
298.753	1480.31
298.984	1495.31
299.214	1512.31
299.445	1558.31
299.675	1638.31
299.905	1586.31
300.136	1512.31
300.366	1511.31
300.597	1503.31
300.827	1444.31
301.057	1484.31
301.288	1604.31
301.518	1618.31
301.748	1620.31
301.979	1721.31
302.209	1702.31
302.439	1839.31
302.669	1955.31
302.9	1800.31
303.13	1584.31
303.36	1627.31
303.59	1659.31
303.82	1641.31
304.051	1586.31
304.281	1638.31
304.511	1584.31
304.741	1682.31
304.971	1890.31
305.201	2076.31
305.431	1914.31
305.661	1592.31
305.891	1446.31
306.121	1447.31
306.352	1480.31
306.582	1579.31
306.812	1662.31
307.042	1802.31
307.272	1756.31
307.502	1824.31
307.731	1976.31
307.961	2168.31
308.191	2001.31
308.421	1678.31
308.651	1571.31
308.881	1583.31
309.111	1555.31
309.341	1511.31
309.571	1530.31
309.8	1511.31
310.03	1566.31
310.26	1543.31
310.49	1514.31
310.72	1552.31
310.949	1653.31
311.179	1682.31
311.409	1631.31
311.639	1586.31
311.868	1547.31
312.098	1586.31
312.328	1567.31
312.557	1554.31
312.787	1543.31
313.017	1639.31
313.246	1607.31
313.476	1595.31
313.706	1639.31
313.935	1640.31
314.165	1625.31
314.394	1711.31
314.624	1798.31
314.853	1909.31
315.083	1938.31
315.312	2000.31
315.542	1889.31
315.771	1681.31
316.001	1647.31
316.23	1778.31
316.46	1774.31
316.689	1723.31
316.919	1641.31
317.148	1575.31
317.377	1603.31
317.607	1666.31
317.836	1914.31
318.065	2003.31
318.295	1910.31
318.524	1824.31
318.753	1779.31
318.983	1768.31
319.212	1729.31
319.441	1683.31
319.67	1670.31
319.9	1680.31
320.129	1763.31
320.358	1865.31
320.587	1894.31
320.816	1854.31
321.046	1817.31
321.275	1726.31
321.504	1776.31
321.733	1907.31
321.962	1889.31
322.191	1717.31
322.42	1727.31
322.649	1670.31
322.878	1646.31
323.108	1670.31
323.337	1753.31
323.566	1761.31
323.795	1744.31
324.024	1784.31
324.253	1714.31
324.482	1732.31
324.71	1667.31
324.939	1635.31
325.168	1614.31
325.397	1646.31
325.626	1728.31
325.855	1754.31
326.084	1664.31
326.313	1730.31
326.542	1735.31
326.77	1780.31
326.999	1787.31
327.228	1718.31
327.457	1605.31
327.686	1602.31
327.914	1634.31
328.143	1706.31
328.372	1724.31
328.6	1712.31
328.829	1701.31
329.058	1633.31
329.287	1648.31
329.515	1692.31
329.744	1713.31
329.972	1806.31
330.201	1914.31
330.43	1875.31
330.658	1816.31
330.887	1802.31
331.115	1771.31
331.344	1814.31
331.572	1772.31
331.801	1759.31
332.03	1793.31
332.258	1786.31
332.486	1801.31
332.715	1823.31
332.943	1809.31
333.172	1758.31
333.4	1796.31
333.629	1848.31
333.857	1947.31
334.085	2122.31
334.314	2397.31
334.542	2691.31
334.771	2492.31
334.999	2148.31
335.227	2059.31
335.455	1954.31
335.684	1903.31
335.912	1947.31
336.14	2031.31
336.369	1981.31
336.597	1808.31
336.825	1776.31
337.053	1841.31
337.281	1955.31
337.51	2038.31
337.738	2102.31
337.966	2090.31
338.194	1854.31
338.422	1781.31
338.65	1762.31
338.878	1722.31
339.106	1696.31
339.334	1722.31
339.562	1662.31
339.79	1662.31
340.018	1777.31
340.246	1920.31
340.474	1893.31
340.702	1824.31
340.93	1881.31
341.158	1816.31
341.386	1808.31
341.614	1763.31
341.842	1758.31
342.07	1773.31
342.298	1827.31
342.526	1747.31
342.754	1751.31
342.981	1732.31
343.209	1718.31
343.437	1721.31
343.665	1739.31
343.893	1802.31
344.12	1811.31
344.348	1930.31
344.576	1829.31
344.804	1724.31
345.031	1710.31
345.259	1764.31
345.487	1735.31
345.714	1641.31
345.942	1575.31
346.17	1643.31
346.397	1629.31
346.625	1699.31
346.853	1590.31
347.08	1562.31
347.308	1578.31
347.535	1589.31
347.763	1680.31
347.99	1656.31
348.218	1594.31
348.445	1583.31
348.673	1653.31
348.9	1699.31
349.128	1721.31
349.355	1782.31
349.583	1733.31
349.81	1658.31
350.037	1548.31
350.265	1507.31
350.492	1578.31
350.72	1589.31
350.947	1608.31
351.174	1722.31
351.402	1627.31
351.629	1533.31
351.856	1560.31
352.083	1458.31
352.311	1530.31
352.538	1574.31
352.765	1643.31
352.992	1719.31
353.22	1655.31
353.447	1571.31
353.674	1602.31
353.901	1651.31
354.128	1630.31
354.355	1586.31
354.583	1635.31
354.81	1682.31
355.037	1659.31
355.264	1669.31
355.491	1649.31
355.718	1646.31
355.945	1655.31
356.172	1555.31
356.399	1512.31
356.626	1554.31
356.853	1639.31
357.08	1736.31
357.307	1919.31
357.534	1966.31
357.761	1724.31
357.988	1566.31
358.215	1518.31
358.441	1568.31
358.668	1551.31
358.895	1574.31
359.122	1623.31
359.349	1826.31
359.576	1805.31
359.802	1627.31
360.029	1578.31
360.256	1523.31
360.483	1591.31
360.709	1613.31
360.936	1654.31
361.163	1711.31
361.39	1909.31
361.616	2062.31
361.843	1979.31
362.07	1910.31
362.296	1618.31
362.523	1600.31
362.749	1588.31
362.976	1634.31
363.203	1694.31
363.429	1651.31
363.656	1544.31
363.882	1610.31
364.109	1766.31
364.335	1956.31
364.562	1804.31
364.788	1729.31
365.015	1639.31
365.241	1584.31
365.468	1583.31
365.694	1659.31
365.92	1775.31
366.147	1701.31
366.373	1559.31
366.599	1530.31
366.826	1555.31
367.052	1604.31
367.278	1584.31
367.505	1586.31
367.731	1629.31
367.957	1647.31
368.184	1688.31
368.41	1787.31
368.636	1791.31
368.862	1823.31
369.089	1835.31
369.315	1723.31
369.541	1722.31
369.767	1623.31
369.993	1607.31
370.219	1584.31
370.445	1610.31
370.672	1727.31
370.898	1845.31
371.124	1774.31
371.35	1660.31
371.576	1740.31
371.802	1828.31
372.028	1782.31
372.254	1656.31
372.48	1623.31
372.706	1581.31
372.932	1625.31
373.158	1667.31
373.384	1655.31
373.61	1709.31
373.835	1822.31
374.061	1730.31
374.287	1682.31
374.513	1673.31
374.739	1685.31
374.965	1735.31
375.191	1748.31
375.416	1727.31
375.642	1723.31
375.868	1842.31
376.094	1900.31
376.319	1840.31
376.545	1664.31
376.771	1705.31
376.997	1820.31
377.222	1830.31
377.448	1715.31
377.674	1810.31
377.899	1746.31
378.125	1862.31
378.35	1887.31
378.576	1718.31
378.802	1605.31
379.027	1638.31
379.253	1642.31
379.478	1660.31
379.704	1690.31
379.929	1657.31
380.155	1688.31
380.38	1707.31
380.606	1730.31
380.831	1710.31
381.057	1751.31
381.282	1823.31
381.507	1707.31
381.733	1822.31
381.958	1936.31
382.184	1785.31
382.409	1711.31
382.634	1764.31
382.86	1794.31
383.085	1751.31
383.31	1784.31
383.535	1914.31
383.761	2074.31
383.986	1984.31
384.211	1884.31
384.436	1886.31
384.662	1992.31
384.887	2049.31
385.112	1931.31
385.337	1983.31
385.562	1906.31
385.787	1945.31
386.013	1931.31
386.238	1999.31
386.463	1940.31
386.688	2069.31
386.913	2179.31
387.138	2176.31
387.363	2022.31
387.588	2011.31
387.813	2003.31
388.038	1989.31
388.263	2039.31
388.488	2035.31
388.713	1795.31
388.938	1839.31
389.163	1871.31
389.387	1902.31
389.612	1856.31
389.837	1922.31
390.062	1955.31
390.287	1950.31
390.512	1898.31
390.736	1913.31
390.961	1854.31
391.186	1779.31
391.411	1861.31
391.636	1856.31
391.86	1909.31
392.085	1979.31
392.31	1887.31
392.534	1896.31
392.759	1957.31
392.984	1940.31
393.208	1961.31
393.433	1976.31
393.658	2056.31
393.882	2109.31
394.107	1999.31
394.331	1942.31
394.556	1915.31
394.78	1916.31
395.005	1998.31
395.229	2034.31
395.454	2215.31
395.678	2200.31
395.903	2099.31
396.127	1998.31
396.352	2061.31
396.576	2112.31
396.801	2152.31
397.025	2139.31
397.249	2100.31
397.474	2085.31
397.698	2024.31
397.922	2134.31
398.147	2244.31
398.371	2326.31
398.595	2295.31
398.82	2195.31
399.044	2240.31
399.268	2264.31
399.492	2481.31
399.717	2547.31
399.941	2614.31
400.165	2552.31
400.389	2425.31
400.613	2397.31
400.837	2646.31
401.062	3075.31
401.286	2676.31
401.51	2408.31
401.734	2514.31
401.958	2451.31
402.182	2262.31
402.406	2201.31
402.63	2131.31
402.854	2163.31
403.078	2240.31
403.302	2261.31
403.526	2299.31
403.75	2288.31
403.974	2314.31
404.198	2275.31
404.422	2378.31
404.645	2456.31
404.869	2470.31
405.093	2268.31
405.317	2204.31
405.541	2240.31
405.765	2302.31
405.988	2243.31
406.212	2373.31
406.436	2400.31
406.66	2440.31
406.883	2443.31
407.107	2663.31
407.331	2980.31
407.555	3213.31
407.778	3000.31
408.002	2458.31
408.226	2383.31
408.449	2397.31
408.673	2336.31
408.896	2339.31
409.12	2431.31
409.344	2339.31
409.567	2212.31
409.791	2282.31
410.014	2316.31
410.238	2432.31
410.461	2552.31
410.685	2343.31
410.908	2236.31
411.132	2275.31
411.355	2229.31
411.578	2190.31
411.802	2252.31
412.025	2333.31
412.249	2213.31
412.472	2162.31
412.695	2140.31
412.919	2124.31
413.142	2145.31
413.365	2228.31
413.589	2224.31
413.812	2314.31
414.035	2434.31
414.258	2198.31
414.482	2169.31
414.705	2198.31
414.928	2144.31
415.151	2149.31
415.374	2145.31
415.597	2224.31
415.821	2274.31
416.044	2343.31
416.267	2334.31
416.49	2115.31
416.713	2099.31
416.936	2152.31
417.159	2263.31
417.382	2263.31
417.605	2111.31
417.828	2178.31
418.051	2215.31
418.274	2180.31
418.497	2080.31
418.72	2075.31
418.943	2056.31
419.166	2259.31
419.389	2320.31
419.611	2170.31
419.834	2138.31
420.057	2181.31
420.28	2114.31
420.503	2082.31
420.726	2159.31
420.948	2139.31
421.171	2061.31
421.394	2094.31
421.617	2186.31
421.839	2180.31
422.062	2146.31
422.285	2075.31
422.507	2080.31
422.73	2041.31
422.953	1988.31
423.175	2008.31
423.398	2082.31
423.621	2076.31
423.843	2084.31
424.066	2141.31
424.288	2211.31
424.511	2264.31
424.733	2207.31
424.956	2034.31
425.178	1966.31
425.401	2018.31
425.623	2013.31
425.846	2016.31
426.068	2193.31
426.291	2178.31
426.513	2174.31
426.735	2138.31
426.958	2270.31
427.18	2437.31
427.402	2230.31
427.625	2272.31
427.847	2325.31
428.069	2121.31
428.292	2066.31
428.514	1983.31
428.736	2011.31
428.958	2033.31
429.181	2036.31
429.403	2289.31
429.625	2848.31
429.847	2539.31
430.069	2064.31
430.292	2290.31
430.514	2420.31
430.736	2182.31
430.958	2289.31
431.18	2214.31
431.402	2084.31
431.624	1994.31
431.846	2054.31
432.068	1958.31
432.29	2035.31
432.512	2056.31
432.734	2098.31
432.956	2093.31
433.178	2176.31
433.4	2245.31
433.622	2187.31
433.844	2073.31
434.066	2000.31
434.287	1980.31
434.509	2083.31
434.731	2198.31
434.953	2374.31
435.175	2259.31
435.397	2144.31
435.618	2170.31
435.84	2210.31
436.062	2142.31
436.284	2111.31
436.505	2152.31
436.727	2161.31
436.949	2122.31
437.17	2052.31
437.392	2078.31
437.614	2054.31
437.835	2014.31
438.057	2153.31
438.278	2194.31
438.5	2086.31
438.721	2038.31
438.943	2039.31
439.165	2004.31
439.386	1984.31
439.608	1985.31
439.829	1992.31
440.05	2048.31
440.272	1991.31
440.493	1945.31
440.715	2011.31
440.936	2136.31
441.158	2361.31
441.379	2338.31
441.6	2256.31
441.822	2220.31
442.043	2192.31
442.264	2186.31
442.486	1994.31
442.707	2030.31
442.928	2005.31
443.149	2105.31
443.371	2265.31
443.592	2325.31
443.813	2276.31
444.034	2208.31
444.255	2265.31
444.476	2257.31
444.698	2319.31
444.919	2257.31
445.14	2373.31
445.361	2401.31
445.582	2429.31
445.803	2333.31
446.024	2218.31
446.245	2298.31
446.466	2231.31
446.687	2143.31
446.908	2149.31
447.129	2060.31
447.35	2137.31
447.571	2097.31
447.792	2012.31
448.013	2007.31
448.234	2062.31
448.455	2084.31
448.675	2139.31
448.896	2002.31
449.117	1920.31
449.338	2000.31
449.559	2108.31
449.779	2205.31
450	2462.31
450.221	2630.31
450.442	2531.31
450.662	2224.31
450.883	1978.31
451.104	1891.31
451.324	1939.31
451.545	2059.31
451.766	2010.31
451.986	1926.31
452.207	1864.31
452.428	1841.31
452.648	1782.31
452.869	1863.31
453.089	1973.31
453.31	1975.31
453.53	2075.31
453.751	1967.31
453.971	1875.31
454.192	1905.31
454.412	2048.31
454.633	1956.31
454.853	1915.31
455.073	1787.31
455.294	1724.31
455.514	1801.31
455.734	1832.31
455.955	1819.31
456.175	1822.31
456.395	1822.31
456.616	1883.31
456.836	1904.31
457.056	1904.31
457.276	1863.31
457.497	1817.31
457.717	1722.31
457.937	1770.31
458.157	1868.31
458.377	1806.31
458.598	1766.31
458.818	1798.31
459.038	1885.31
459.258	2076.31
459.478	2119.31
459.698	1971.31
459.918	2035.31
460.138	2151.31
460.358	2186.31
460.578	2159.31
460.798	2295.31
461.018	2410.31
461.238	2328.31
461.458	2170.31
461.678	2162.31
461.898	2098.31
462.118	2038.31
462.338	2165.31
462.558	2181.31
462.777	2154.31
462.997	2274.31
463.217	2381.31
463.437	2397.31
463.657	2222.31
463.876	2188.31
464.096	2165.31
464.316	2113.31
464.536	2291.31
464.755	2286.31
464.975	2302.31
465.195	2202.31
465.414	2330.31
465.634	2313.31
465.854	2166.31
466.073	2362.31
466.293	2310.31
466.512	2025.31
466.732	1999.31
466.951	2105.31
467.171	2036.31
467.391	1967.31
467.61	1921.31
467.829	1960.31
468.049	2139.31
468.268	2386.31
468.488	2223.31
468.707	2080.31
468.927	2011.31
469.146	1997.31
469.365	1943.31
469.585	1995.31
469.804	1978.31
470.023	1985.31
470.243	2048.31
470.462	1972.31
470.681	1918.31
470.901	2019.31
471.12	2011.31
471.339	1970.31
471.558	1950.31
471.777	1895.31
471.997	1949.31
472.216	1966.31
472.435	1879.31
472.654	1893.31
472.873	2056.31
473.092	2122.31
473.311	2011.31
473.53	1891.31
473.749	1846.31
473.968	1932.31
474.187	2024.31
474.406	2185.31
474.625	2073.31
474.844	2022.31
475.063	2001.31
475.282	2119.31
475.501	2032.31
475.72	2030.31
475.939	2180.31
476.158	2080.31
476.377	2035.31
476.596	1995.31
476.814	2050.31
477.033	2115.31
477.252	2170.31
477.471	2243.31
477.69	2111.31
477.908	2121.31
478.127	2225.31
478.346	2447.31
478.564	2422.31
478.783	2374.31
479.002	2467.31
479.22	2361.31
479.439	2464.31
479.658	2841.31
479.876	2800.31
480.095	2432.31
480.313	2358.31
480.532	2182.31
480.751	2250.31
480.969	2261.31
481.188	2290.31
481.406	2216.31
481.624	2162.31
481.843	2219.31
482.061	2268.31
482.28	2284.31
482.498	2356.31
482.717	2320.31
482.935	2161.31
483.153	2183.31
483.372	2236.31
483.59	2201.31
483.808	2236.31
484.027	2280.31
484.245	2415.31
484.463	2758.31
484.681	3234.31
484.9	2436.31
485.118	2310.31
485.336	2195.31
485.554	2347.31
485.772	2436.31
485.99	2429.31
486.209	2431.31
486.427	2377.31
486.645	2406.31
486.863	2345.31
487.081	2505.31
487.299	2498.31
487.517	2467.31
487.735	2333.31
487.953	2263.31
488.171	2273.31
488.389	2267.31
488.607	2298.31
488.825	2533.31
489.043	2589.31
489.261	2351.31
489.479	2449.31
489.696	2504.31
489.914	2482.31
490.132	2362.31
490.35	2335.31
490.568	2451.31
490.786	2304.31
491.003	2277.31
491.221	2372.31
491.439	2418.31
491.657	2416.31
491.874	2395.31
492.092	2407.31
492.31	2456.31
492.527	2373.31
492.745	2358.31
492.963	2379.31
493.18	2515.31
493.398	2644.31
493.615	2725.31
493.833	2455.31
494.05	2432.31
494.268	2459.31
494.485	2527.31
494.703	2481.31
494.92	2385.31
495.138	2366.31
495.355	2394.31
495.573	2537.31
495.79	2715.31
496.008	2705.31
496.225	2545.31
496.442	2547.31
496.66	2615.31
496.877	2569.31
497.094	2632.31
497.312	2702.31
497.529	2590.31
497.746	2697.31
497.963	3147.31
498.181	3546.31
498.398	3258.31
498.615	3247.31
498.832	3098.31
499.049	3059.31
499.267	3059.31
499.484	3298.31
499.701	3505.31
499.918	3537.31
500.135	3856.31
500.352	4075.31
500.569	4045.31
500.786	4299.31
501.003	3989.31
501.22	3596.31
501.437	3556.31
501.654	3599.31
501.871	3509.31
502.088	3017.31
502.305	3102.31
502.522	2945.31
502.739	2734.31
502.956	2652.31
503.172	2664.31
503.389	2599.31
503.606	2576.31
503.823	2538.31
504.04	2530.31
504.256	2577.31
504.473	2599.31
504.69	2686.31
504.907	2517.31
505.123	2458.31
505.34	2486.31
505.557	3254.31
505.773	2839.31
505.99	2352.31
506.207	2224.31
506.423	2213.31
506.64	2187.31
506.856	2184.31
507.073	2513.31
507.289	2734.31
507.506	2628.31
507.722	2252.31
507.939	2073.31
508.155	2121.31
508.372	2162.31
508.588	2058.31
508.805	2053.31
509.021	2012.31
509.238	1976.31
509.454	1966.31
509.67	2003.31
509.887	2014.31
510.103	1975.31
510.319	2020.31
510.536	2127.31
510.752	2191.31
510.968	2173.31
511.184	2295.31
511.401	2307.31
511.617	1974.31
511.833	1910.31
512.049	1915.31
512.265	1897.31
512.481	1932.31
512.698	1977.31
512.914	2125.31
513.13	2072.31
513.346	1926.31
513.562	1897.31
513.778	1948.31
513.994	2062.31
514.21	2111.31
514.426	2128.31
514.642	2359.31
514.858	2277.31
515.074	1999.31
515.29	1985.31
515.506	2016.31
515.721	2070.31
515.937	2033.31
516.153	2357.31
516.369	2261.31
516.585	2108.31
516.801	2019.31
517.016	2008.31
517.232	2063.31
517.448	2099.31
517.664	2094.31
517.879	2095.31
518.095	2221.31
518.311	2145.31
518.527	2008.31
518.742	2000.31
518.958	1935.31
519.173	1931.31
519.389	1990.31
519.605	1974.31
519.82	2017.31
520.036	2012.31
520.251	1959.31
520.467	1973.31
520.682	2131.31
520.898	2219.31
521.113	1982.31
521.329	1937.31
521.544	2078.31
521.76	2013.31
521.975	1908.31
522.19	1899.31
522.406	1842.31
522.621	2244.31
522.836	2320.31
523.052	1826.31
523.267	1865.31
523.482	1878.31
523.698	1770.31
523.913	1730.31
524.128	1822.31
524.343	1902.31
524.559	1977.31
524.774	1838.31
524.989	1791.31
525.204	1767.31
525.419	1760.31
525.634	1774.31
525.849	1749.31
526.064	1776.31
526.28	1812.31
526.495	1728.31
526.71	1687.31
526.925	1739.31
527.14	1715.31
527.355	1742.31
527.57	1674.31
527.785	1775.31
527.999	1694.31
528.214	1644.31
528.429	1635.31
528.644	1635.31
528.859	1657.31
529.074	1640.31
529.289	1717.31
529.503	1716.31
529.718	1682.31
529.933	1686.31
530.148	1670.31
530.363	1647.31
530.577	1674.31
530.792	1696.31
531.007	1702.31
531.221	1673.31
531.436	1706.31
531.651	1812.31
531.865	1875.31
532.08	1749.31
532.295	1666.31
532.509	1607.31
532.724	1652.31
532.938	1691.31
533.153	1860.31
533.367	1736.31
533.582	1695.31
533.796	1622.31
534.011	1716.31
534.225	1736.31
534.44	1663.31
534.654	1622.31
534.868	1627.31
535.083	1713.31
535.297	1684.31
535.511	1658.31
535.726	1674.31
535.94	1634.31
536.154	1645.31
536.369	1616.31
536.583	1578.31
536.797	1582.31
537.011	1660.31
537.225	1606.31
537.44	1573.31
537.654	1646.31
537.868	1563.31
538.082	1520.31
538.296	1501.31
538.51	1519.31
538.724	1510.31
538.938	1517.31
539.153	1562.31
539.367	1553.31
539.581	1564.31
539.795	1663.31
540.009	1666.31
540.222	1570.31
540.436	1592.31
540.65	1731.31
540.864	1798.31
541.078	1654.31
541.292	1584.31
541.506	1526.31
541.72	1570.31
541.934	1605.31
542.147	1658.31
542.361	1592.31
542.575	1544.31
542.789	1487.31
543.002	1480.31
543.216	1494.31
543.43	1614.31
543.644	1651.31
543.857	1728.31
544.071	1628.31
544.285	1590.31
544.498	1553.31
544.712	1555.31
544.925	1627.31
545.139	1607.31
545.352	1514.31
545.566	1493.31
545.779	1508.31
545.993	1518.31
546.206	1532.31
546.42	1485.31
546.633	1496.31
546.847	1466.31
547.06	1483.31
547.274	1476.31
547.487	1491.31
547.7	1502.31
547.914	1495.31
548.127	1532.31
548.34	1522.31
548.554	1534.31
548.767	1478.31
548.98	1476.31
549.193	1469.31
549.407	1545.31
549.62	1566.31
549.833	1494.31
550.046	1538.31
550.259	1483.31
550.473	1470.31
550.686	1458.31
550.899	1420.31
551.112	1406.31
551.325	1448.31
551.538	1480.31
551.751	1785.31
551.964	1443.31
552.177	1398.31
552.39	1410.31
552.603	1477.31
552.816	1467.31
553.029	1490.31
553.242	1519.31
553.455	1470.31
553.667	1459.31
553.88	1493.31
554.093	1435.31
554.306	1411.31
554.519	1377.31
554.732	1337.31
554.944	1407.31
555.157	1417.31
555.37	1403.31
555.583	1398.31
555.795	1348.31
556.008	1343.31
556.221	1259.31
556.433	1304.31
556.646	1282.31
556.859	1284.31
557.071	1278.31
557.284	1256.31
557.496	1222.31
557.709	1262.31
557.921	1241.31
558.134	1223.31
558.346	1220.31
558.559	1219.31
558.771	1214.31
558.984	1184.31
559.196	1142.31
559.409	1177.31
559.621	1192.31
559.833	1191.31
560.046	1256.31
560.258	1220.31
560.47	1201.31
560.683	1210.31
560.895	1228.31
561.107	1220.31
561.32	1223.31
561.532	1249.31
561.744	1204.31
561.956	1208.31
562.168	1190.31
562.381	1152.31
562.593	1167.31
562.805	1164.31
563.017	1178.31
563.229	1172.31
563.441	1246.31
563.653	1176.31
563.865	1176.31
564.077	1145.31
564.289	1193.31
564.501	1240.31
564.713	1234.31
564.925	1274.31
565.137	1356.31
565.349	1236.31
565.561	1238.31
565.773	1251.31
565.985	1270.31
566.197	1357.31
566.408	1408.31
566.62	1408.31
566.832	1415.31
567.044	1446.31
567.255	1404.31
567.467	1428.31
567.679	1476.31
567.891	1479.31
568.102	1448.31
568.314	1400.31
568.526	1353.31
568.737	1307.31
568.949	1242.31
569.161	1208.31
569.372	1172.31
569.584	1162.31
569.795	1144.31
570.007	1121.31
570.218	1111.31
570.43	1076.31
570.641	1078.31
570.853	1067.31
571.064	1095.31
571.276	1040.31
571.487	1064.31
571.698	1000.31
571.91	997.31
572.121	984.31
572.333	981.31
572.544	980.31
572.755	938.31
572.966	933.31
573.178	961.31
573.389	960.31
573.6	1010.31
573.811	1086.31
574.023	978.31
574.234	936.31
574.445	928.31
574.656	914.31
574.867	878.31
575.078	908.31
575.289	939.31
575.501	872.31
575.712	871.31
575.923	927.31
576.134	916.31
576.345	891.31
576.556	871.31
576.767	847.31
576.978	856.31
577.188	863.31
577.399	863.31
577.61	838.31
577.821	841.31
578.032	828.31
578.243	830.31
578.454	819.31
578.665	819.31
578.875	814.31
579.086	830.31
579.297	826.31
579.508	869.31
579.718	832.31
579.929	804.31
580.14	795.31
580.35	790.31
580.561	805.31
580.772	898.31
580.982	807.31
581.193	811.31
581.403	779.31
581.614	783.31
581.825	766.31
582.035	759.31
582.246	798.31
582.456	797.31
582.667	791.31
582.877	749.31
583.087	742.31
583.298	744.31
583.508	755.31
583.719	778.31
583.929	768.31
584.139	756.31
584.35	743.31
584.56	747.31
584.77	759.31
584.981	764.31
585.191	760.31
585.401	788.31
585.611	752.31
585.821	738.31
586.032	722.31
586.242	715.31
586.452	742.31
586.662	751.31
586.872	723.31
587.082	726.31
587.292	752.31
587.502	756.31
587.713	744.31
587.923	733.31
588.133	726.31
588.343	726.31
588.553	727.31
588.762	734.31
588.972	722.31
589.182	748.31
589.392	719.31
589.602	725.31
589.812	740.31
590.022	715.31
590.232	696.31
590.441	714.31
590.651	728.31
590.861	722.31
591.071	704.31
591.281	700.31
591.49	712.31
591.7	715.31
591.91	711.31
592.119	730.31
592.329	722.31
592.539	715.31
592.748	713.31
592.958	708.31
593.167	737.31
593.377	763.31
593.587	733.31
593.796	752.31
594.006	728.31
594.215	726.31
594.424	728.31
594.634	724.31
594.843	760.31
595.053	744.31
595.262	706.31
595.472	703.31
595.681	702.31
595.89	716.31
596.1	687.31
596.309	681.31
596.518	664.31
596.727	696.31
596.937	666.31
597.146	620.31
597.355	628.31
597.564	634.31
597.774	644.31
597.983	628.31
598.192	595.31
598.401	604.31
598.61	610.31
598.819	599.31
599.028	619.31
599.237	609.31
599.446	622.31
599.655	587.31
599.864	571.31
600.073	588.31
600.282	581.31
600.491	606.31
600.7	583.31
600.909	579.31
601.118	578.31
601.327	585.31
601.536	598.31
601.745	580.31
601.953	574.31
602.162	574.31
602.371	590.31
602.58	588.31
602.789	581.31
602.997	585.31
603.206	576.31
603.415	556.31
603.623	582.31
603.832	578.31
604.041	570.31
604.249	552.31
604.458	562.31
604.666	559.31
604.875	564.31
605.084	550.31
605.292	600.31
605.501	582.31
605.709	541.31
605.918	548.31
606.126	549.31
606.334	533.31
606.543	544.31
606.751	537.31
606.96	518.31
607.168	571.31
607.376	555.31
607.585	564.31
607.793	556.31
608.001	530.31
608.21	517.31
608.418	521.31
608.626	535.31
608.834	541.31
609.043	516.31
609.251	503.31
609.459	510.31
609.667	514.31
609.875	529.31
610.083	546.31
610.291	567.31
610.499	544.31
610.707	518.31
610.916	533.31
611.124	530.31
611.332	528.31
611.54	532.31
611.748	530.31
611.955	496.31
612.163	526.31
612.371	507.31
612.579	515.31
612.787	513.31
612.995	529.31
613.203	525.31
613.411	527.31
613.618	495.31
613.826	489.31
614.034	519.31
614.242	498.31
614.449	491.31
614.657	523.31
614.865	496.31
615.072	490.31
615.28	496.31
615.488	518.31
615.695	534.31
615.903	510.31
616.111	498.31
616.318	505.31
616.526	513.31
616.733	506.31
616.941	490.31
617.148	483.31
617.356	480.31
617.563	478.31
617.771	501.31
617.978	481.31
618.185	502.31
618.393	486.31
618.6	507.31
618.807	498.31
619.015	471.31
619.222	468.31
619.429	490.31
619.637	457.31
619.844	466.31
620.051	458.31
620.258	463.31
620.466	470.31
620.673	448.31
620.88	440.31
621.087	448.31
621.294	458.31
621.501	443.31
621.708	452.31
621.915	450.31
622.122	449.31
622.329	475.31
622.536	471.31
622.743	443.31
622.95	444.31
623.157	450.31
623.364	450.31
623.571	424.31
623.778	431.31
623.985	441.31
624.192	435.31
624.399	420.31
624.606	435.31
624.812	419.31
625.019	413.31
625.226	437.31
625.433	410.31
625.639	424.31
625.846	423.31
626.053	406.31
626.259	427.31
626.466	402.31
626.673	419.31
626.879	388.31
627.086	406.31
627.293	403.31
627.499	399.31
627.706	384.31
627.912	402.31
628.119	420.31
628.325	410.31
628.532	394.31
628.738	406.31
628.945	419.31
629.151	400.31
629.357	420.31
629.564	397.31
629.77	380.31
629.976	387.31
630.183	381.31
630.389	393.31
630.595	382.31
630.802	389.31
631.008	370.31
631.214	399.31
631.42	361.31
631.627	370.31
631.833	364.31
632.039	377.31
632.245	361.31
632.451	384.31
632.657	380.31
632.863	353.31
633.069	378.31
633.275	366.31
633.481	368.31
633.688	361.31
633.893	349.31
634.099	355.31
634.305	352.31
634.511	335.31
634.717	339.31
634.923	361.31
635.129	354.31
635.335	344.31
635.541	362.31
635.747	353.31
635.952	359.31
636.158	363.31
636.364	333.31
636.57	349.31
636.775	353.31
636.981	355.31
637.187	355.31
637.392	345.31
637.598	344.31
637.804	335.31
638.009	343.31
638.215	340.31
638.421	350.31
638.626	332.31
638.832	344.31
639.037	313.31
639.243	318.31
639.448	320.31
639.654	299.31
639.859	318.31
640.065	340.31
640.27	341.31
640.475	323.31
640.681	310.31
640.886	331.31
641.091	306.31
641.297	304.31
641.502	309.31
641.707	319.31
641.913	310.31
642.118	319.31
642.323	320.31
642.528	313.31
642.733	305.31
642.939	308.31
643.144	339.31
643.349	339.31
643.554	308.31
643.759	318.31
643.964	309.31
644.169	306.31
644.374	298.31
644.579	321.31
644.784	296.31
644.989	297.31
645.194	302.31
645.399	324.31
645.604	307.31
645.809	317.31
646.014	323.31
646.219	307.31
646.423	301.31
646.628	305.31
646.833	307.31
647.038	309.31
647.243	306.31
647.447	302.31
647.652	331.31
647.857	310.31
648.062	312.31
648.266	306.31
648.471	279.31
648.676	316.31
648.88	315.31
649.085	297.31
649.289	296.31
649.494	309.31
649.698	315.31
649.903	287.31
650.107	292.31
650.312	302.31
650.516	289.31
650.721	289.31
650.925	290.31
651.13	270.31
651.334	277.31
651.539	257.31
651.743	279.31
651.947	269.31
652.152	280.31
652.356	275.31
652.56	252.31
652.764	245.31
652.969	250.31
653.173	238.31
653.377	251.31
653.581	225.31
653.785	235.31
653.99	255.31
654.194	238.31
654.398	243.31
654.602	230.31
654.806	230.31
655.01	240.31
655.214	230.31
655.418	234.31
655.622	241.31
655.826	234.31
656.03	251.31
656.234	249.31
656.438	262.31
656.642	254.31
656.846	241.31
657.049	227.31
657.253	219.31
657.457	208.31
657.661	192.31
657.865	196.31
658.068	190.31
658.272	147.31
658.476	166.31
658.68	148.31
658.883	146.31
659.087	140.31
659.291	130.31
659.494	139.31
659.698	120.31
659.901	138.31
660.105	136.31
660.309	122.31
660.512	112.31
660.716	113.31
660.919	113.31
661.123	105.31
661.326	95.31
661.53	106.31
661.733	100.31
661.936	99.31
662.14	107.31
662.343	106.31
662.546	99.31
662.75	78.31
662.953	79.31
663.156	92.31
663.36	91.31
663.563	83.31
663.766	82.31
663.969	95.31
664.173	85.31
664.376	70.31
664.579	83.31
664.782	105.31
664.985	95.31
665.188	73.31
665.391	75.31
665.594	83.31
665.797	91.31
666	90.31
666.203	72.31
666.406	53.31
666.609	75.31
666.812	75.31
667.015	86.31
667.218	86.31
667.421	87.31
667.624	91.31
667.827	74.31
668.03	82.31
668.232	86.31
668.435	84.31
668.638	71.31
668.841	88.31
669.043	74.31
669.246	83.31
669.449	74.31
669.651	96.31
669.854	83.31
670.057	81.31
670.259	93.31
670.462	80.31
670.665	90.31
670.867	89.31
671.07	84.31
671.272	93.31
671.475	85.31
671.677	83.31
671.88	96.31
672.082	82.31
672.284	91.31
672.487	75.31
672.689	76.31
672.892	80.31
