Data from WStandard_LampEnergy10_LIBS07252019.E.O._I.C._HRD10591_15-53-53-928.txt Node
Date: Thu Jul 25 15:53:53 EDT 2019
User: cochatt
Spectrometer: HR+D1059
Trigger mode: 1
Integration Time (sec): 1.000000E-1
Scans to average: 1
Electric dark correction enabled: true
Nonlinearity correction enabled: false
Boxcar width: 0
XAxis mode: Wavelengths
Number of Pixels in Spectrum: 2048
>>>>>Begin Spectral Data<<<<<
223.165	-13.44
223.4	-13.44
223.635	-13.44
223.869	-14.44
224.104	-18.44
224.338	-20.44
224.573	-19.44
224.808	-5.44
225.042	-11.44
225.277	-15.44
225.511	-12.44
225.746	2.56
225.98	10.56
226.215	15.56
226.449	18.56
226.683	20.56
226.918	28.56
227.152	34.56
227.387	32.56
227.621	35.56
227.856	24.56
228.09	45.56
228.324	64.56
228.559	54.56
228.793	80.56
229.027	135.56
229.262	136.56
229.496	137.56
229.73	145.56
229.964	157.56
230.199	162.56
230.433	159.56
230.667	187.56
230.901	188.56
231.136	172.56
231.37	155.56
231.604	172.56
231.838	187.56
232.072	181.56
232.306	161.56
232.541	181.56
232.775	209.56
233.009	219.56
233.243	200.56
233.477	182.56
233.711	200.56
233.945	205.56
234.179	220.56
234.413	200.56
234.647	215.56
234.881	193.56
235.115	172.56
235.349	188.56
235.583	201.56
235.817	203.56
236.051	182.56
236.285	198.56
236.519	210.56
236.753	216.56
236.987	231.56
237.221	229.56
237.455	225.56
237.689	231.56
237.922	221.56
238.156	212.56
238.39	216.56
238.624	227.56
238.858	236.56
239.091	234.56
239.325	247.56
239.559	295.56
239.793	292.56
240.027	295.56
240.26	282.56
240.494	233.56
240.728	221.56
240.961	241.56
241.195	248.56
241.429	245.56
241.662	263.56
241.896	225.56
242.13	250.56
242.363	266.56
242.597	263.56
242.83	268.56
243.064	276.56
243.298	280.56
243.531	289.56
243.765	271.56
243.998	271.56
244.232	254.56
244.465	241.56
244.699	251.56
244.932	290.56
245.166	306.56
245.399	294.56
245.633	281.56
245.866	282.56
246.099	282.56
246.333	284.56
246.566	316.56
246.8	327.56
247.033	330.56
247.266	308.56
247.5	321.56
247.733	310.56
247.966	334.56
248.2	369.56
248.433	361.56
248.666	376.56
248.899	388.56
249.133	440.56
249.366	454.56
249.599	393.56
249.832	371.56
250.066	367.56
250.299	361.56
250.532	376.56
250.765	320.56
250.998	338.56
251.231	349.56
251.465	351.56
251.698	350.56
251.931	356.56
252.164	350.56
252.397	343.56
252.63	343.56
252.863	325.56
253.096	337.56
253.329	347.56
253.562	346.56
253.795	365.56
254.028	368.56
254.261	354.56
254.494	360.56
254.727	340.56
254.96	346.56
255.193	353.56
255.426	395.56
255.659	468.56
255.892	443.56
256.124	398.56
256.357	384.56
256.59	380.56
256.823	405.56
257.056	423.56
257.289	480.56
257.521	489.56
257.754	484.56
257.987	446.56
258.22	467.56
258.452	465.56
258.685	378.56
258.918	416.56
259.151	381.56
259.383	383.56
259.616	356.56
259.849	390.56
260.081	392.56
260.314	445.56
260.547	455.56
260.779	462.56
261.012	457.56
261.244	409.56
261.477	411.56
261.71	409.56
261.942	407.56
262.175	393.56
262.407	394.56
262.64	400.56
262.872	377.56
263.105	378.56
263.337	388.56
263.57	391.56
263.802	352.56
264.035	347.56
264.267	340.56
264.499	336.56
264.732	382.56
264.964	377.56
265.197	382.56
265.429	420.56
265.661	462.56
265.894	488.56
266.126	498.56
266.358	461.56
266.591	470.56
266.823	487.56
267.055	470.56
267.287	470.56
267.52	447.56
267.752	439.56
267.984	437.56
268.216	462.56
268.448	465.56
268.681	445.56
268.913	408.56
269.145	369.56
269.377	412.56
269.609	444.56
269.841	512.56
270.073	580.56
270.306	613.56
270.538	632.56
270.77	534.56
271.002	502.56
271.234	466.56
271.466	478.56
271.698	550.56
271.93	611.56
272.162	596.56
272.394	547.56
272.626	522.56
272.858	462.56
273.09	406.56
273.322	424.56
273.553	399.56
273.785	402.56
274.017	423.56
274.249	432.56
274.481	456.56
274.713	426.56
274.945	417.56
275.176	403.56
275.408	413.56
275.64	399.56
275.872	391.56
276.104	444.56
276.335	504.56
276.567	538.56
276.799	528.56
277.031	495.56
277.262	448.56
277.494	494.56
277.726	531.56
277.957	511.56
278.189	474.56
278.421	435.56
278.652	423.56
278.884	411.56
279.115	443.56
279.347	430.56
279.579	432.56
279.81	462.56
280.042	460.56
280.273	502.56
280.505	497.56
280.736	482.56
280.968	488.56
281.199	439.56
281.431	421.56
281.662	424.56
281.894	450.56
282.125	441.56
282.356	454.56
282.588	450.56
282.819	469.56
283.051	473.56
283.282	511.56
283.513	479.56
283.745	448.56
283.976	428.56
284.207	453.56
284.439	458.56
284.67	450.56
284.901	460.56
285.132	451.56
285.364	446.56
285.595	465.56
285.826	454.56
286.057	458.56
286.288	437.56
286.52	470.56
286.751	481.56
286.982	486.56
287.213	465.56
287.444	435.56
287.675	437.56
287.906	464.56
288.138	487.56
288.369	467.56
288.6	448.56
288.831	440.56
289.062	442.56
289.293	432.56
289.524	477.56
289.755	473.56
289.986	448.56
290.217	444.56
290.448	462.56
290.679	456.56
290.91	465.56
291.141	487.56
291.371	474.56
291.602	498.56
291.833	489.56
292.064	500.56
292.295	496.56
292.526	522.56
292.757	497.56
292.987	486.56
293.218	482.56
293.449	537.56
293.68	556.56
293.91	576.56
294.141	557.56
294.372	559.56
294.603	537.56
294.833	578.56
295.064	540.56
295.295	498.56
295.525	466.56
295.756	460.56
295.987	420.56
296.217	466.56
296.448	466.56
296.679	469.56
296.909	454.56
297.14	467.56
297.37	484.56
297.601	497.56
297.831	520.56
298.062	541.56
298.292	491.56
298.523	464.56
298.753	476.56
298.984	467.56
299.214	493.56
299.445	492.56
299.675	520.56
299.905	492.56
300.136	493.56
300.366	462.56
300.597	457.56
300.827	463.56
301.057	493.56
301.288	508.56
301.518	526.56
301.748	538.56
301.979	561.56
302.209	534.56
302.439	590.56
302.669	605.56
302.9	560.56
303.13	515.56
303.36	514.56
303.59	519.56
303.82	533.56
304.051	508.56
304.281	528.56
304.511	520.56
304.741	570.56
304.971	622.56
305.201	618.56
305.431	562.56
305.661	496.56
305.891	462.56
306.121	463.56
306.352	480.56
306.582	512.56
306.812	544.56
307.042	576.56
307.272	573.56
307.502	600.56
307.731	629.56
307.961	620.56
308.191	591.56
308.421	514.56
308.651	523.56
308.881	489.56
309.111	498.56
309.341	491.56
309.571	501.56
309.8	469.56
310.03	484.56
310.26	504.56
310.49	489.56
310.72	500.56
310.949	531.56
311.179	527.56
311.409	530.56
311.639	522.56
311.868	520.56
312.098	512.56
312.328	508.56
312.557	509.56
312.787	542.56
313.017	514.56
313.246	537.56
313.476	538.56
313.706	529.56
313.935	531.56
314.165	533.56
314.394	569.56
314.624	606.56
314.853	599.56
315.083	631.56
315.312	630.56
315.542	582.56
315.771	534.56
316.001	533.56
316.23	587.56
316.46	593.56
316.689	559.56
316.919	538.56
317.148	518.56
317.377	566.56
317.607	589.56
317.836	616.56
318.065	642.56
318.295	625.56
318.524	600.56
318.753	568.56
318.983	565.56
319.212	559.56
319.441	582.56
319.67	559.56
319.9	574.56
320.129	591.56
320.358	631.56
320.587	636.56
320.816	631.56
321.046	611.56
321.275	583.56
321.504	590.56
321.733	634.56
321.962	608.56
322.191	583.56
322.42	542.56
322.649	563.56
322.878	532.56
323.108	550.56
323.337	560.56
323.566	584.56
323.795	572.56
324.024	576.56
324.253	573.56
324.482	552.56
324.71	545.56
324.939	546.56
325.168	554.56
325.397	572.56
325.626	582.56
325.855	582.56
326.084	569.56
326.313	586.56
326.542	565.56
326.77	589.56
326.999	586.56
327.228	550.56
327.457	532.56
327.686	534.56
327.914	557.56
328.143	570.56
328.372	558.56
328.6	549.56
328.829	559.56
329.058	573.56
329.287	580.56
329.515	566.56
329.744	595.56
329.972	601.56
330.201	635.56
330.43	615.56
330.658	611.56
330.887	574.56
331.115	589.56
331.344	599.56
331.572	612.56
331.801	600.56
332.03	602.56
332.258	601.56
332.486	630.56
332.715	608.56
332.943	592.56
333.172	586.56
333.4	605.56
333.629	624.56
333.857	677.56
334.085	745.56
334.314	814.56
334.542	824.56
334.771	762.56
334.999	690.56
335.227	638.56
335.455	641.56
335.684	645.56
335.912	671.56
336.14	654.56
336.369	638.56
336.597	605.56
336.825	629.56
337.053	637.56
337.281	649.56
337.51	697.56
337.738	700.56
337.966	631.56
338.194	616.56
338.422	578.56
338.65	605.56
338.878	596.56
339.106	585.56
339.334	549.56
339.562	579.56
339.79	594.56
340.018	592.56
340.246	643.56
340.474	652.56
340.702	617.56
340.93	636.56
341.158	602.56
341.386	620.56
341.614	644.56
341.842	621.56
342.07	613.56
342.298	610.56
342.526	589.56
342.754	617.56
342.981	581.56
343.209	622.56
343.437	599.56
343.665	600.56
343.893	616.56
344.12	643.56
344.348	624.56
344.576	624.56
344.804	597.56
345.031	608.56
345.259	594.56
345.487	598.56
345.714	557.56
345.942	550.56
346.17	576.56
346.397	565.56
346.625	548.56
346.853	525.56
347.08	548.56
347.308	568.56
347.535	553.56
347.763	585.56
347.99	586.56
348.218	582.56
348.445	584.56
348.673	576.56
348.9	595.56
349.128	642.56
349.355	614.56
349.583	579.56
349.81	574.56
350.037	553.56
350.265	513.56
350.492	553.56
350.72	561.56
350.947	598.56
351.174	564.56
351.402	543.56
351.629	522.56
351.856	538.56
352.083	536.56
352.311	549.56
352.538	558.56
352.765	594.56
352.992	593.56
353.22	553.56
353.447	533.56
353.674	572.56
353.901	585.56
354.128	565.56
354.355	584.56
354.583	597.56
354.81	581.56
355.037	594.56
355.264	567.56
355.491	588.56
355.718	589.56
355.945	573.56
356.172	538.56
356.399	546.56
356.626	545.56
356.853	600.56
357.08	632.56
357.307	688.56
357.534	653.56
357.761	567.56
357.988	546.56
358.215	540.56
358.441	514.56
358.668	549.56
358.895	556.56
359.122	596.56
359.349	633.56
359.576	618.56
359.802	574.56
360.029	529.56
360.256	543.56
360.483	548.56
360.709	588.56
360.936	589.56
361.163	631.56
361.39	706.56
361.616	721.56
361.843	689.56
362.07	653.56
362.296	591.56
362.523	556.56
362.749	586.56
362.976	592.56
363.203	592.56
363.429	590.56
363.656	574.56
363.882	575.56
364.109	657.56
364.335	682.56
364.562	633.56
364.788	585.56
365.015	583.56
365.241	570.56
365.468	593.56
365.694	628.56
365.92	620.56
366.147	590.56
366.373	558.56
366.599	559.56
366.826	592.56
367.052	575.56
367.278	580.56
367.505	592.56
367.731	598.56
367.957	599.56
368.184	610.56
368.41	670.56
368.636	685.56
368.862	692.56
369.089	693.56
369.315	644.56
369.541	624.56
369.767	607.56
369.993	590.56
370.219	595.56
370.445	622.56
370.672	640.56
370.898	668.56
371.124	647.56
371.35	644.56
371.576	644.56
371.802	656.56
372.028	633.56
372.254	617.56
372.48	615.56
372.706	586.56
372.932	618.56
373.158	622.56
373.384	632.56
373.61	662.56
373.835	648.56
374.061	636.56
374.287	644.56
374.513	652.56
374.739	653.56
374.965	647.56
375.191	668.56
375.416	647.56
375.642	672.56
375.868	729.56
376.094	734.56
376.319	676.56
376.545	654.56
376.771	659.56
376.997	682.56
377.222	674.56
377.448	657.56
377.674	670.56
377.899	680.56
378.125	712.56
378.35	694.56
378.576	662.56
378.802	639.56
379.027	644.56
379.253	639.56
379.478	657.56
379.704	643.56
379.929	642.56
380.155	666.56
380.38	676.56
380.606	664.56
380.831	687.56
381.057	718.56
381.282	706.56
381.507	721.56
381.733	744.56
381.958	749.56
382.184	718.56
382.409	674.56
382.634	690.56
382.86	696.56
383.085	701.56
383.31	720.56
383.535	796.56
383.761	798.56
383.986	777.56
384.211	727.56
384.436	712.56
384.662	782.56
384.887	798.56
385.112	760.56
385.337	764.56
385.562	744.56
385.787	735.56
386.013	757.56
386.238	754.56
386.463	782.56
386.688	847.56
386.913	892.56
387.138	825.56
387.363	776.56
387.588	767.56
387.813	769.56
388.038	790.56
388.263	808.56
388.488	796.56
388.713	722.56
388.938	737.56
389.163	742.56
389.387	782.56
389.612	753.56
389.837	779.56
390.062	744.56
390.287	764.56
390.512	790.56
390.736	738.56
390.961	750.56
391.186	710.56
391.411	760.56
391.636	764.56
391.86	777.56
392.085	774.56
392.31	742.56
392.534	768.56
392.759	785.56
392.984	786.56
393.208	767.56
393.433	792.56
393.658	812.56
393.882	814.56
394.107	778.56
394.331	745.56
394.556	779.56
394.78	832.56
395.005	817.56
395.229	868.56
395.454	898.56
395.678	883.56
395.903	818.56
396.127	816.56
396.352	834.56
396.576	868.56
396.801	890.56
397.025	850.56
397.249	836.56
397.474	830.56
397.698	826.56
397.922	894.56
398.147	884.56
398.371	930.56
398.595	914.56
398.82	896.56
399.044	897.56
399.268	938.56
399.492	983.56
399.717	989.56
399.941	1017.56
400.165	974.56
400.389	973.56
400.613	1008.56
400.837	1143.56
401.062	1215.56
401.286	1029.56
401.51	986.56
401.734	987.56
401.958	960.56
402.182	916.56
402.406	880.56
402.63	892.56
402.854	880.56
403.078	898.56
403.302	921.56
403.526	912.56
403.75	943.56
403.974	931.56
404.198	968.56
404.422	985.56
404.645	1023.56
404.869	1022.56
405.093	920.56
405.317	902.56
405.541	934.56
405.765	950.56
405.988	943.56
406.212	981.56
406.436	970.56
406.66	1010.56
406.883	1045.56
407.107	1153.56
407.331	1214.56
407.555	1268.56
407.778	1130.56
408.002	1024.56
408.226	991.56
408.449	990.56
408.673	949.56
408.896	960.56
409.12	956.56
409.344	960.56
409.567	918.56
409.791	937.56
410.014	983.56
410.238	1037.56
410.461	1070.56
410.685	944.56
410.908	933.56
411.132	968.56
411.355	929.56
411.578	943.56
411.802	929.56
412.025	930.56
412.249	950.56
412.472	938.56
412.695	912.56
412.919	913.56
413.142	942.56
413.365	946.56
413.589	957.56
413.812	1009.56
414.035	991.56
414.258	939.56
414.482	934.56
414.705	943.56
414.928	916.56
415.151	912.56
415.374	932.56
415.597	936.56
415.821	949.56
416.044	931.56
416.267	977.56
416.49	928.56
416.713	925.56
416.936	978.56
417.159	961.56
417.382	964.56
417.605	934.56
417.828	952.56
418.051	972.56
418.274	948.56
418.497	934.56
418.72	960.56
418.943	942.56
419.166	989.56
419.389	976.56
419.611	942.56
419.834	936.56
420.057	927.56
420.28	955.56
420.503	924.56
420.726	974.56
420.948	944.56
421.171	934.56
421.394	948.56
421.617	995.56
421.839	990.56
422.062	988.56
422.285	946.56
422.507	924.56
422.73	928.56
422.953	883.56
423.175	888.56
423.398	926.56
423.621	959.56
423.843	952.56
424.066	984.56
424.288	1013.56
424.511	1050.56
424.733	1018.56
424.956	929.56
425.178	924.56
425.401	921.56
425.623	926.56
425.846	933.56
426.068	965.56
426.291	990.56
426.513	946.56
426.735	964.56
426.958	1064.56
427.18	1061.56
427.402	1008.56
427.625	1027.56
427.847	1013.56
428.069	959.56
428.292	921.56
428.514	923.56
428.736	900.56
428.958	948.56
429.181	952.56
429.403	1057.56
429.625	1238.56
429.847	1072.56
430.069	964.56
430.292	1072.56
430.514	1038.56
430.736	989.56
430.958	991.56
431.18	928.56
431.402	894.56
431.624	842.56
431.846	802.56
432.068	742.56
432.29	754.56
432.512	784.56
432.734	913.56
432.956	934.56
433.178	971.56
433.4	987.56
433.622	980.56
433.844	920.56
434.066	835.56
434.287	819.56
434.509	806.56
434.731	830.56
434.953	899.56
435.175	936.56
435.397	914.56
435.618	904.56
435.84	849.56
436.062	850.56
436.284	893.56
436.505	952.56
436.727	967.56
436.949	898.56
437.17	887.56
437.392	917.56
437.614	871.56
437.835	794.56
438.057	821.56
438.278	832.56
438.5	854.56
438.721	911.56
438.943	917.56
439.165	929.56
439.386	924.56
439.608	949.56
439.829	979.56
440.05	975.56
440.272	976.56
440.493	962.56
440.715	988.56
440.936	1011.56
441.158	1078.56
441.379	1056.56
441.6	1038.56
441.822	1033.56
442.043	1024.56
442.264	1009.56
442.486	958.56
442.707	944.56
442.928	1004.56
443.149	985.56
443.371	1030.56
443.592	1030.56
443.813	1000.56
444.034	1023.56
444.255	1052.56
444.476	1020.56
444.698	1029.56
444.919	1056.56
445.14	1142.56
445.361	1086.56
445.582	1075.56
445.803	1044.56
446.024	1049.56
446.245	1091.56
446.466	1058.56
446.687	1049.56
446.908	1073.56
447.129	1002.56
447.35	1040.56
447.571	1018.56
447.792	975.56
448.013	963.56
448.234	962.56
448.455	1016.56
448.675	1005.56
448.896	931.56
449.117	924.56
449.338	931.56
449.559	961.56
449.779	992.56
450	1006.56
450.221	1046.56
450.442	1044.56
450.662	948.56
450.883	895.56
451.104	898.56
451.324	873.56
451.545	912.56
451.766	872.56
451.986	834.56
452.207	833.56
452.428	787.56
452.648	784.56
452.869	796.56
453.089	806.56
453.31	790.56
453.53	763.56
453.751	751.56
453.971	698.56
454.192	724.56
454.412	766.56
454.633	808.56
454.853	793.56
455.073	797.56
455.294	795.56
455.514	771.56
455.734	751.56
455.955	789.56
456.175	749.56
456.395	744.56
456.616	750.56
456.836	730.56
457.056	756.56
457.276	725.56
457.497	720.56
457.717	720.56
457.937	737.56
458.157	726.56
458.377	730.56
458.598	700.56
458.818	668.56
459.038	687.56
459.258	707.56
459.478	729.56
459.698	736.56
459.918	737.56
460.138	809.56
460.358	832.56
460.578	836.56
460.798	881.56
461.018	898.56
461.238	881.56
461.458	863.56
461.678	845.56
461.898	816.56
462.118	804.56
462.338	852.56
462.558	870.56
462.777	871.56
462.997	864.56
463.217	924.56
463.437	878.56
463.657	865.56
463.876	834.56
464.096	836.56
464.316	850.56
464.536	859.56
464.755	891.56
464.975	884.56
465.195	892.56
465.414	865.56
465.634	869.56
465.854	905.56
466.073	988.56
466.293	941.56
466.512	849.56
466.732	892.56
466.951	914.56
467.171	902.56
467.391	885.56
467.61	887.56
467.829	935.56
468.049	955.56
468.268	1087.56
468.488	966.56
468.707	906.56
468.927	914.56
469.146	927.56
469.365	949.56
469.585	966.56
469.804	921.56
470.023	951.56
470.243	966.56
470.462	927.56
470.681	950.56
470.901	957.56
471.12	944.56
471.339	948.56
471.558	921.56
471.777	935.56
471.997	923.56
472.216	854.56
472.435	792.56
472.654	801.56
472.873	775.56
473.092	828.56
473.311	837.56
473.53	827.56
473.749	830.56
473.968	853.56
474.187	849.56
474.406	865.56
474.625	868.56
474.844	883.56
475.063	892.56
475.282	900.56
475.501	839.56
475.72	853.56
475.939	909.56
476.158	880.56
476.377	869.56
476.596	850.56
476.814	840.56
477.033	812.56
477.252	841.56
477.471	912.56
477.69	931.56
477.908	968.56
478.127	1017.56
478.346	993.56
478.564	1025.56
478.783	1009.56
479.002	1071.56
479.22	1001.56
479.439	1033.56
479.658	1074.56
479.876	984.56
480.095	925.56
480.313	890.56
480.532	896.56
480.751	882.56
480.969	838.56
481.188	820.56
481.406	805.56
481.624	789.56
481.843	794.56
482.061	849.56
482.28	904.56
482.498	873.56
482.717	853.56
482.935	882.56
483.153	989.56
483.372	1048.56
483.59	1028.56
483.808	989.56
484.027	940.56
484.245	1001.56
484.463	1211.56
484.681	1323.56
484.9	1047.56
485.118	976.56
485.336	956.56
485.554	918.56
485.772	881.56
485.99	907.56
486.209	935.56
486.427	891.56
486.645	938.56
486.863	1037.56
487.081	1048.56
487.299	1040.56
487.517	1025.56
487.735	1152.56
487.953	1214.56
488.171	1183.56
488.389	1171.56
488.607	1110.56
488.825	1164.56
489.043	1076.56
489.261	988.56
489.479	1031.56
489.696	1062.56
489.914	1069.56
490.132	1064.56
490.35	1127.56
490.568	1193.56
490.786	1204.56
491.003	1228.56
491.221	1272.56
491.439	1272.56
491.657	1325.56
491.874	1387.56
492.092	1471.56
492.31	1538.56
492.527	1455.56
492.745	1396.56
492.963	1360.56
493.18	1344.56
493.398	1338.56
493.615	1349.56
493.833	1285.56
494.05	1301.56
494.268	1255.56
494.485	1262.56
494.703	1242.56
494.92	1242.56
495.138	1209.56
495.355	1224.56
495.573	1274.56
495.79	1310.56
496.008	1297.56
496.225	1241.56
496.442	1237.56
496.66	1211.56
496.877	1248.56
497.094	1282.56
497.312	1241.56
497.529	1222.56
497.746	1210.56
497.963	1319.56
498.181	1319.56
498.398	1247.56
498.615	1240.56
498.832	1157.56
499.049	1170.56
499.267	1171.56
499.484	1278.56
499.701	1329.56
499.918	1420.56
500.135	1533.56
500.352	1560.56
500.569	1617.56
500.786	1757.56
501.003	1570.56
501.22	1457.56
501.437	1408.56
501.654	1413.56
501.871	1381.56
502.088	1210.56
502.305	1207.56
502.522	1128.56
502.739	1129.56
502.956	1086.56
503.172	1078.56
503.389	1029.56
503.606	1005.56
503.823	1012.56
504.04	1013.56
504.256	1030.56
504.473	1001.56
504.69	1042.56
504.907	995.56
505.123	966.56
505.34	1079.56
505.557	1378.56
505.773	1114.56
505.99	956.56
506.207	924.56
506.423	913.56
506.64	914.56
506.856	953.56
507.073	1067.56
507.289	1119.56
507.506	1054.56
507.722	929.56
507.939	887.56
508.155	862.56
508.372	852.56
508.588	830.56
508.805	804.56
509.021	780.56
509.238	791.56
509.454	777.56
509.67	762.56
509.887	748.56
510.103	764.56
510.319	744.56
510.536	750.56
510.752	794.56
510.968	772.56
511.184	820.56
511.401	800.56
511.617	721.56
511.833	726.56
512.049	701.56
512.265	751.56
512.481	738.56
512.698	782.56
512.914	804.56
513.13	744.56
513.346	706.56
513.562	734.56
513.778	701.56
513.994	776.56
514.21	738.56
514.426	764.56
514.642	842.56
514.858	765.56
515.074	713.56
515.29	756.56
515.506	732.56
515.721	748.56
515.937	748.56
516.153	797.56
516.369	793.56
516.585	751.56
516.801	748.56
517.016	748.56
517.232	781.56
517.448	782.56
517.664	790.56
517.879	816.56
518.095	815.56
518.311	791.56
518.527	763.56
518.742	751.56
518.958	741.56
519.173	774.56
519.389	784.56
519.605	835.56
519.82	807.56
520.036	816.56
520.251	772.56
520.467	787.56
520.682	810.56
520.898	796.56
521.113	727.56
521.329	718.56
521.544	749.56
521.76	765.56
521.975	735.56
522.19	704.56
522.406	757.56
522.621	956.56
522.836	890.56
523.052	767.56
523.267	752.56
523.482	764.56
523.698	753.56
523.913	732.56
524.128	765.56
524.343	844.56
524.559	829.56
524.774	808.56
524.989	766.56
525.204	777.56
525.419	767.56
525.634	746.56
525.849	743.56
526.064	762.56
526.28	744.56
526.495	672.56
526.71	652.56
526.925	644.56
527.14	636.56
527.355	645.56
527.57	657.56
527.785	677.56
527.999	680.56
528.214	657.56
528.429	713.56
528.644	766.56
528.859	789.56
529.074	824.56
529.289	888.56
529.503	876.56
529.718	825.56
529.933	726.56
530.148	663.56
530.363	665.56
530.577	620.56
530.792	633.56
531.007	641.56
531.221	643.56
531.436	642.56
531.651	662.56
531.865	684.56
532.08	678.56
532.295	651.56
532.509	627.56
532.724	625.56
532.938	670.56
533.153	718.56
533.367	728.56
533.582	751.56
533.796	745.56
534.011	746.56
534.225	674.56
534.44	641.56
534.654	602.56
534.868	662.56
535.083	690.56
535.297	712.56
535.511	705.56
535.726	681.56
535.94	697.56
536.154	676.56
536.369	633.56
536.583	604.56
536.797	609.56
537.011	630.56
537.225	613.56
537.44	625.56
537.654	676.56
537.868	644.56
538.082	606.56
538.296	594.56
538.51	622.56
538.724	691.56
538.938	732.56
539.153	763.56
539.367	737.56
539.581	717.56
539.795	666.56
540.009	609.56
540.222	634.56
540.436	688.56
540.65	787.56
540.864	826.56
541.078	836.56
541.292	840.56
541.506	895.56
541.72	952.56
541.934	1029.56
542.147	1104.56
542.361	1016.56
542.575	935.56
542.789	852.56
543.002	788.56
543.216	751.56
543.43	774.56
543.644	817.56
543.857	867.56
544.071	908.56
544.285	942.56
544.498	943.56
544.712	954.56
544.925	972.56
545.139	978.56
545.352	938.56
545.566	937.56
545.779	956.56
545.993	960.56
546.206	957.56
546.42	953.56
546.633	936.56
546.847	949.56
547.06	982.56
547.274	975.56
547.487	1012.56
547.7	1004.56
547.914	978.56
548.127	971.56
548.34	984.56
548.554	932.56
548.767	959.56
548.98	933.56
549.193	960.56
549.407	960.56
549.62	959.56
549.833	898.56
550.046	935.56
550.259	928.56
550.473	902.56
550.686	910.56
550.899	900.56
551.112	849.56
551.325	836.56
551.538	835.56
551.751	885.56
551.964	729.56
552.177	736.56
552.39	819.56
552.603	865.56
552.816	863.56
553.029	918.56
553.242	929.56
553.455	902.56
553.667	928.56
553.88	905.56
554.093	882.56
554.306	869.56
554.519	860.56
554.732	843.56
554.944	846.56
555.157	817.56
555.37	839.56
555.583	824.56
555.795	776.56
556.008	750.56
556.221	748.56
556.433	741.56
556.646	732.56
556.859	728.56
557.071	748.56
557.284	753.56
557.496	773.56
557.709	773.56
557.921	753.56
558.134	762.56
558.346	763.56
558.559	715.56
558.771	689.56
558.984	716.56
559.196	703.56
559.409	696.56
559.621	706.56
559.833	671.56
560.046	677.56
560.258	687.56
560.47	690.56
560.683	667.56
560.895	672.56
561.107	702.56
561.32	687.56
561.532	675.56
561.744	678.56
561.956	701.56
562.168	678.56
562.381	660.56
562.593	640.56
562.805	651.56
563.017	645.56
563.229	654.56
563.441	667.56
563.653	624.56
563.865	628.56
564.077	631.56
564.289	633.56
564.501	633.56
564.713	632.56
564.925	658.56
565.137	670.56
565.349	632.56
565.561	612.56
565.773	627.56
565.985	626.56
566.197	680.56
566.408	698.56
566.62	714.56
566.832	674.56
567.044	677.56
567.255	647.56
567.467	668.56
567.679	664.56
567.891	676.56
568.102	624.56
568.314	592.56
568.526	551.56
568.737	528.56
568.949	496.56
569.161	470.56
569.372	461.56
569.584	467.56
569.795	444.56
570.007	458.56
570.218	433.56
570.43	453.56
570.641	461.56
570.853	481.56
571.064	486.56
571.276	502.56
571.487	472.56
571.698	478.56
571.91	454.56
572.121	474.56
572.333	471.56
572.544	452.56
572.755	418.56
572.966	408.56
573.178	413.56
573.389	402.56
573.6	414.56
573.811	466.56
574.023	424.56
574.234	395.56
574.445	409.56
574.656	400.56
574.867	415.56
575.078	431.56
575.289	399.56
575.501	412.56
575.712	385.56
575.923	405.56
576.134	400.56
576.345	400.56
576.556	419.56
576.767	416.56
576.978	388.56
577.188	376.56
577.399	381.56
577.61	390.56
577.821	374.56
578.032	368.56
578.243	398.56
578.454	390.56
578.665	361.56
578.875	357.56
579.086	342.56
579.297	339.56
579.508	371.56
579.718	372.56
579.929	350.56
580.14	341.56
580.35	347.56
580.561	360.56
580.772	388.56
580.982	371.56
581.193	369.56
581.403	345.56
581.614	357.56
581.825	359.56
582.035	344.56
582.246	336.56
582.456	368.56
582.667	337.56
582.877	349.56
583.087	327.56
583.298	333.56
583.508	346.56
583.719	343.56
583.929	341.56
584.139	329.56
584.35	333.56
584.56	324.56
584.77	325.56
584.981	319.56
585.191	334.56
585.401	358.56
585.611	330.56
585.821	325.56
586.032	331.56
586.242	307.56
586.452	310.56
586.662	319.56
586.872	314.56
587.082	320.56
587.292	340.56
587.502	326.56
587.713	313.56
587.923	322.56
588.133	324.56
588.343	324.56
588.553	313.56
588.762	328.56
588.972	323.56
589.182	317.56
589.392	296.56
589.602	325.56
589.812	326.56
590.022	288.56
590.232	302.56
590.441	312.56
590.651	311.56
590.861	326.56
591.071	311.56
591.281	312.56
591.49	321.56
591.7	333.56
591.91	306.56
592.119	312.56
592.329	315.56
592.539	305.56
592.748	329.56
592.958	326.56
593.167	321.56
593.377	310.56
593.587	320.56
593.796	321.56
594.006	317.56
594.215	338.56
594.424	350.56
594.634	346.56
594.843	340.56
595.053	364.56
595.262	334.56
595.472	339.56
595.681	326.56
595.89	329.56
596.1	316.56
596.309	312.56
596.518	333.56
596.727	356.56
596.937	345.56
597.146	319.56
597.355	327.56
597.564	304.56
597.774	318.56
597.983	277.56
598.192	283.56
598.401	276.56
598.61	293.56
598.819	274.56
599.028	312.56
599.237	307.56
599.446	301.56
599.655	303.56
599.864	293.56
600.073	283.56
600.282	307.56
600.491	278.56
600.7	302.56
600.909	312.56
601.118	309.56
601.327	334.56
601.536	332.56
601.745	344.56
601.953	349.56
602.162	348.56
602.371	351.56
602.58	347.56
602.789	357.56
602.997	353.56
603.206	350.56
603.415	348.56
603.623	346.56
603.832	367.56
604.041	325.56
604.249	318.56
604.458	308.56
604.666	304.56
604.875	292.56
605.084	318.56
605.292	344.56
605.501	357.56
605.709	368.56
605.918	364.56
606.126	386.56
606.334	375.56
606.543	371.56
606.751	382.56
606.96	365.56
607.168	373.56
607.376	358.56
607.585	344.56
607.793	359.56
608.001	356.56
608.21	359.56
608.418	386.56
608.626	375.56
608.834	367.56
609.043	345.56
609.251	373.56
609.459	339.56
609.667	364.56
609.875	362.56
610.083	374.56
610.291	374.56
610.499	364.56
610.707	355.56
610.916	346.56
611.124	377.56
611.332	353.56
611.54	367.56
611.748	378.56
611.955	367.56
612.163	366.56
612.371	358.56
612.579	359.56
612.787	357.56
612.995	379.56
613.203	382.56
613.411	361.56
613.618	364.56
613.826	344.56
614.034	365.56
614.242	350.56
614.449	359.56
614.657	366.56
614.865	350.56
615.072	371.56
615.28	350.56
615.488	366.56
615.695	361.56
615.903	377.56
616.111	354.56
616.318	364.56
616.526	357.56
616.733	344.56
616.941	363.56
617.148	354.56
617.356	337.56
617.563	351.56
617.771	335.56
617.978	325.56
618.185	353.56
618.393	342.56
618.6	334.56
618.807	337.56
619.015	362.56
619.222	335.56
619.429	346.56
619.637	319.56
619.844	301.56
620.051	318.56
620.258	323.56
620.466	326.56
620.673	337.56
620.88	320.56
621.087	317.56
621.294	307.56
621.501	300.56
621.708	291.56
621.915	305.56
622.122	331.56
622.329	326.56
622.536	328.56
622.743	327.56
622.95	301.56
623.157	300.56
623.364	327.56
623.571	311.56
623.778	330.56
623.985	322.56
624.192	338.56
624.399	337.56
624.606	312.56
624.812	326.56
625.019	300.56
625.226	308.56
625.433	292.56
625.639	273.56
625.846	287.56
626.053	271.56
626.259	248.56
626.466	254.56
626.673	232.56
626.879	240.56
627.086	252.56
627.293	269.56
627.499	295.56
627.706	296.56
627.912	294.56
628.119	303.56
628.325	297.56
628.532	316.56
628.738	293.56
628.945	289.56
629.151	304.56
629.357	297.56
629.564	294.56
629.77	280.56
629.976	293.56
630.183	257.56
630.389	269.56
630.595	286.56
630.802	285.56
631.008	276.56
631.214	291.56
631.42	265.56
631.627	263.56
631.833	259.56
632.039	289.56
632.245	259.56
632.451	266.56
632.657	265.56
632.863	265.56
633.069	285.56
633.275	263.56
633.481	261.56
633.688	274.56
633.893	258.56
634.099	247.56
634.305	261.56
634.511	240.56
634.717	238.56
634.923	227.56
635.129	235.56
635.335	238.56
635.541	243.56
635.747	237.56
635.952	257.56
636.158	262.56
636.364	275.56
636.57	280.56
636.775	265.56
636.981	254.56
637.187	279.56
637.392	266.56
637.598	262.56
637.804	262.56
638.009	278.56
638.215	270.56
638.421	252.56
638.626	243.56
638.832	246.56
639.037	248.56
639.243	236.56
639.448	260.56
639.654	236.56
639.859	250.56
640.065	232.56
640.27	267.56
640.475	244.56
640.681	284.56
640.886	251.56
641.091	243.56
641.297	242.56
641.502	247.56
641.707	261.56
641.913	258.56
642.118	240.56
642.323	256.56
642.528	254.56
642.733	249.56
642.939	256.56
643.144	234.56
643.349	242.56
643.554	236.56
643.759	262.56
643.964	245.56
644.169	244.56
644.374	250.56
644.579	241.56
644.784	253.56
644.989	256.56
645.194	225.56
645.399	256.56
645.604	242.56
645.809	258.56
646.014	245.56
646.219	227.56
646.423	259.56
646.628	246.56
646.833	245.56
647.038	262.56
647.243	224.56
647.447	224.56
647.652	237.56
647.857	238.56
648.062	242.56
648.266	251.56
648.471	229.56
648.676	253.56
648.88	233.56
649.085	240.56
649.289	229.56
649.494	260.56
649.698	229.56
649.903	232.56
650.107	234.56
650.312	237.56
650.516	240.56
650.721	228.56
650.925	236.56
651.13	216.56
651.334	244.56
651.539	202.56
651.743	223.56
651.947	233.56
652.152	216.56
652.356	230.56
652.56	222.56
652.764	210.56
652.969	202.56
653.173	211.56
653.377	223.56
653.581	186.56
653.785	202.56
653.99	203.56
654.194	209.56
654.398	205.56
654.602	191.56
654.806	196.56
655.01	195.56
655.214	199.56
655.418	206.56
655.622	206.56
655.826	206.56
656.03	210.56
656.234	224.56
656.438	224.56
656.642	224.56
656.846	209.56
657.049	214.56
657.253	188.56
657.457	197.56
657.661	183.56
657.865	178.56
658.068	162.56
658.272	151.56
658.476	156.56
658.68	151.56
658.883	156.56
659.087	136.56
659.291	149.56
659.494	136.56
659.698	122.56
659.901	115.56
660.105	119.56
660.309	130.56
660.512	139.56
660.716	113.56
660.919	133.56
661.123	122.56
661.326	116.56
661.53	101.56
661.733	109.56
661.936	97.56
662.14	97.56
662.343	101.56
662.546	80.56
662.75	108.56
662.953	104.56
663.156	100.56
663.36	75.56
663.563	84.56
663.766	81.56
663.969	88.56
664.173	96.56
664.376	85.56
664.579	92.56
664.782	97.56
664.985	79.56
665.188	92.56
665.391	74.56
665.594	83.56
665.797	85.56
666	86.56
666.203	94.56
666.406	84.56
666.609	84.56
666.812	71.56
667.015	99.56
667.218	84.56
667.421	86.56
667.624	93.56
667.827	71.56
668.03	74.56
668.232	77.56
668.435	90.56
668.638	76.56
668.841	69.56
669.043	84.56
669.246	80.56
669.449	83.56
669.651	75.56
669.854	80.56
670.057	83.56
670.259	82.56
670.462	72.56
670.665	86.56
670.867	77.56
671.07	66.56
671.272	79.56
671.475	80.56
671.677	74.56
671.88	79.56
672.082	81.56
672.284	84.56
672.487	79.56
672.689	78.56
672.892	87.56
