Data from WStandard_LampEnergy10_LIBS07252019.E.O._I.C._HRD10591_15-54-13-928.txt Node
Date: Thu Jul 25 15:54:13 EDT 2019
User: cochatt
Spectrometer: HR+D1059
Trigger mode: 1
Integration Time (sec): 1.000000E-1
Scans to average: 1
Electric dark correction enabled: true
Nonlinearity correction enabled: false
Boxcar width: 0
XAxis mode: Wavelengths
Number of Pixels in Spectrum: 2048
>>>>>Begin Spectral Data<<<<<
223.165	-20.5
223.4	-20.5
223.635	-20.5
223.869	-29.5
224.104	-15.5
224.338	-8.5
224.573	-3.5
224.808	-4.5
225.042	-13.5
225.277	2.5
225.511	-0.5
225.746	1.5
225.98	3.5
226.215	3.5
226.449	12.5
226.683	24.5
226.918	22.5
227.152	25.5
227.387	23.5
227.621	29.5
227.856	40.5
228.09	48.5
228.324	54.5
228.559	61.5
228.793	73.5
229.027	136.5
229.262	127.5
229.496	141.5
229.73	152.5
229.964	166.5
230.199	174.5
230.433	187.5
230.667	180.5
230.901	195.5
231.136	181.5
231.37	182.5
231.604	165.5
231.838	174.5
232.072	161.5
232.306	180.5
232.541	177.5
232.775	207.5
233.009	232.5
233.243	204.5
233.477	183.5
233.711	205.5
233.945	210.5
234.179	196.5
234.413	217.5
234.647	206.5
234.881	212.5
235.115	211.5
235.349	204.5
235.583	193.5
235.817	204.5
236.051	193.5
236.285	193.5
236.519	217.5
236.753	214.5
236.987	229.5
237.221	217.5
237.455	241.5
237.689	227.5
237.922	221.5
238.156	215.5
238.39	231.5
238.624	238.5
238.858	245.5
239.091	228.5
239.325	266.5
239.559	302.5
239.793	293.5
240.027	316.5
240.26	308.5
240.494	244.5
240.728	242.5
240.961	219.5
241.195	249.5
241.429	245.5
241.662	250.5
241.896	241.5
242.13	236.5
242.363	290.5
242.597	284.5
242.83	295.5
243.064	273.5
243.298	316.5
243.531	286.5
243.765	288.5
243.998	283.5
244.232	287.5
244.465	254.5
244.699	265.5
244.932	286.5
245.166	313.5
245.399	276.5
245.633	298.5
245.866	285.5
246.099	297.5
246.333	315.5
246.566	308.5
246.8	325.5
247.033	350.5
247.266	342.5
247.5	341.5
247.733	342.5
247.966	327.5
248.2	338.5
248.433	380.5
248.666	380.5
248.899	414.5
249.133	443.5
249.366	482.5
249.599	404.5
249.832	367.5
250.066	376.5
250.299	370.5
250.532	353.5
250.765	326.5
250.998	344.5
251.231	352.5
251.465	350.5
251.698	340.5
251.931	349.5
252.164	357.5
252.397	355.5
252.63	371.5
252.863	350.5
253.096	348.5
253.329	342.5
253.562	374.5
253.795	375.5
254.028	385.5
254.261	344.5
254.494	342.5
254.727	331.5
254.96	336.5
255.193	390.5
255.426	424.5
255.659	465.5
255.892	454.5
256.124	406.5
256.357	369.5
256.59	421.5
256.823	421.5
257.056	429.5
257.289	496.5
257.521	520.5
257.754	466.5
257.987	470.5
258.22	475.5
258.452	453.5
258.685	402.5
258.918	384.5
259.151	389.5
259.383	386.5
259.616	360.5
259.849	354.5
260.081	426.5
260.314	436.5
260.547	464.5
260.779	491.5
261.012	454.5
261.244	408.5
261.477	407.5
261.71	419.5
261.942	423.5
262.175	397.5
262.407	429.5
262.64	394.5
262.872	375.5
263.105	371.5
263.337	376.5
263.57	376.5
263.802	374.5
264.035	363.5
264.267	351.5
264.499	341.5
264.732	354.5
264.964	386.5
265.197	411.5
265.429	422.5
265.661	466.5
265.894	492.5
266.126	508.5
266.358	464.5
266.591	479.5
266.823	503.5
267.055	463.5
267.287	466.5
267.52	461.5
267.752	468.5
267.984	444.5
268.216	466.5
268.448	480.5
268.681	461.5
268.913	433.5
269.145	419.5
269.377	418.5
269.609	461.5
269.841	537.5
270.073	600.5
270.306	625.5
270.538	632.5
270.77	548.5
271.002	490.5
271.234	498.5
271.466	476.5
271.698	539.5
271.93	621.5
272.162	637.5
272.394	566.5
272.626	536.5
272.858	466.5
273.09	404.5
273.322	431.5
273.553	413.5
273.785	425.5
274.017	415.5
274.249	451.5
274.481	458.5
274.713	443.5
274.945	410.5
275.176	432.5
275.408	410.5
275.64	414.5
275.872	426.5
276.104	442.5
276.335	492.5
276.567	542.5
276.799	542.5
277.031	493.5
277.262	482.5
277.494	507.5
277.726	516.5
277.957	501.5
278.189	467.5
278.421	434.5
278.652	460.5
278.884	454.5
279.115	446.5
279.347	443.5
279.579	448.5
279.81	464.5
280.042	472.5
280.273	534.5
280.505	514.5
280.736	516.5
280.968	485.5
281.199	413.5
281.431	428.5
281.662	398.5
281.894	448.5
282.125	452.5
282.356	483.5
282.588	471.5
282.819	464.5
283.051	497.5
283.282	509.5
283.513	485.5
283.745	449.5
283.976	442.5
284.207	445.5
284.439	436.5
284.67	445.5
284.901	439.5
285.132	478.5
285.364	469.5
285.595	483.5
285.826	446.5
286.057	455.5
286.288	466.5
286.52	466.5
286.751	486.5
286.982	516.5
287.213	469.5
287.444	449.5
287.675	460.5
287.906	482.5
288.138	489.5
288.369	465.5
288.6	457.5
288.831	435.5
289.062	466.5
289.293	465.5
289.524	455.5
289.755	471.5
289.986	482.5
290.217	443.5
290.448	461.5
290.679	444.5
290.91	477.5
291.141	475.5
291.371	493.5
291.602	486.5
291.833	490.5
292.064	513.5
292.295	501.5
292.526	513.5
292.757	506.5
292.987	491.5
293.218	480.5
293.449	525.5
293.68	589.5
293.91	610.5
294.141	555.5
294.372	568.5
294.603	581.5
294.833	592.5
295.064	540.5
295.295	519.5
295.525	456.5
295.756	474.5
295.987	436.5
296.217	444.5
296.448	474.5
296.679	461.5
296.909	452.5
297.14	448.5
297.37	480.5
297.601	513.5
297.831	527.5
298.062	544.5
298.292	493.5
298.523	461.5
298.753	459.5
298.984	481.5
299.214	498.5
299.445	486.5
299.675	508.5
299.905	519.5
300.136	500.5
300.366	482.5
300.597	455.5
300.827	481.5
301.057	500.5
301.288	520.5
301.518	539.5
301.748	531.5
301.979	543.5
302.209	551.5
302.439	590.5
302.669	604.5
302.9	560.5
303.13	516.5
303.36	532.5
303.59	540.5
303.82	536.5
304.051	518.5
304.281	531.5
304.511	553.5
304.741	592.5
304.971	619.5
305.201	648.5
305.431	564.5
305.661	485.5
305.891	452.5
306.121	479.5
306.352	518.5
306.582	534.5
306.812	548.5
307.042	561.5
307.272	599.5
307.502	613.5
307.731	629.5
307.961	640.5
308.191	605.5
308.421	516.5
308.651	549.5
308.881	521.5
309.111	512.5
309.341	510.5
309.571	500.5
309.8	501.5
310.03	510.5
310.26	511.5
310.49	508.5
310.72	532.5
310.949	523.5
311.179	565.5
311.409	515.5
311.639	496.5
311.868	493.5
312.098	528.5
312.328	522.5
312.557	518.5
312.787	519.5
313.017	532.5
313.246	537.5
313.476	546.5
313.706	550.5
313.935	520.5
314.165	573.5
314.394	581.5
314.624	605.5
314.853	649.5
315.083	642.5
315.312	642.5
315.542	571.5
315.771	543.5
316.001	564.5
316.23	582.5
316.46	580.5
316.689	564.5
316.919	537.5
317.148	532.5
317.377	547.5
317.607	597.5
317.836	631.5
318.065	640.5
318.295	603.5
318.524	610.5
318.753	611.5
318.983	545.5
319.212	549.5
319.441	560.5
319.67	554.5
319.9	577.5
320.129	602.5
320.358	627.5
320.587	632.5
320.816	613.5
321.046	596.5
321.275	606.5
321.504	599.5
321.733	619.5
321.962	606.5
322.191	595.5
322.42	541.5
322.649	568.5
322.878	555.5
323.108	571.5
323.337	593.5
323.566	570.5
323.795	595.5
324.024	565.5
324.253	584.5
324.482	556.5
324.71	542.5
324.939	540.5
325.168	553.5
325.397	563.5
325.626	598.5
325.855	578.5
326.084	576.5
326.313	565.5
326.542	590.5
326.77	603.5
326.999	568.5
327.228	582.5
327.457	540.5
327.686	541.5
327.914	542.5
328.143	555.5
328.372	573.5
328.6	536.5
328.829	576.5
329.058	566.5
329.287	555.5
329.515	591.5
329.744	608.5
329.972	618.5
330.201	624.5
330.43	619.5
330.658	617.5
330.887	600.5
331.115	590.5
331.344	595.5
331.572	576.5
331.801	592.5
332.03	595.5
332.258	616.5
332.486	609.5
332.715	643.5
332.943	602.5
333.172	587.5
333.4	602.5
333.629	611.5
333.857	684.5
334.085	761.5
334.314	843.5
334.542	855.5
334.771	818.5
334.999	710.5
335.227	678.5
335.455	632.5
335.684	675.5
335.912	652.5
336.14	670.5
336.369	658.5
336.597	623.5
336.825	595.5
337.053	665.5
337.281	683.5
337.51	707.5
337.738	683.5
337.966	659.5
338.194	598.5
338.422	597.5
338.65	584.5
338.878	596.5
339.106	589.5
339.334	587.5
339.562	568.5
339.79	599.5
340.018	654.5
340.246	628.5
340.474	632.5
340.702	628.5
340.93	634.5
341.158	608.5
341.386	629.5
341.614	602.5
341.842	624.5
342.07	624.5
342.298	605.5
342.526	600.5
342.754	601.5
342.981	600.5
343.209	590.5
343.437	588.5
343.665	583.5
343.893	621.5
344.12	677.5
344.348	656.5
344.576	614.5
344.804	599.5
345.031	610.5
345.259	619.5
345.487	572.5
345.714	548.5
345.942	556.5
346.17	581.5
346.397	586.5
346.625	594.5
346.853	560.5
347.08	550.5
347.308	557.5
347.535	580.5
347.763	596.5
347.99	565.5
348.218	544.5
348.445	566.5
348.673	562.5
348.9	584.5
349.128	632.5
349.355	634.5
349.583	593.5
349.81	590.5
350.037	546.5
350.265	529.5
350.492	562.5
350.72	576.5
350.947	589.5
351.174	586.5
351.402	542.5
351.629	536.5
351.856	546.5
352.083	532.5
352.311	536.5
352.538	568.5
352.765	584.5
352.992	586.5
353.22	555.5
353.447	558.5
353.674	577.5
353.901	566.5
354.128	543.5
354.355	555.5
354.583	585.5
354.81	611.5
355.037	591.5
355.264	585.5
355.491	572.5
355.718	565.5
355.945	554.5
356.172	578.5
356.399	560.5
356.626	544.5
356.853	571.5
357.08	662.5
357.307	718.5
357.534	669.5
357.761	565.5
357.988	533.5
358.215	543.5
358.441	558.5
358.668	545.5
358.895	566.5
359.122	616.5
359.349	665.5
359.576	618.5
359.802	589.5
360.029	537.5
360.256	539.5
360.483	569.5
360.709	595.5
360.936	612.5
361.163	634.5
361.39	700.5
361.616	727.5
361.843	706.5
362.07	644.5
362.296	555.5
362.523	560.5
362.749	578.5
362.976	590.5
363.203	601.5
363.429	583.5
363.656	566.5
363.882	632.5
364.109	678.5
364.335	684.5
364.562	637.5
364.788	611.5
365.015	582.5
365.241	588.5
365.468	600.5
365.694	621.5
365.92	608.5
366.147	578.5
366.373	571.5
366.599	564.5
366.826	572.5
367.052	558.5
367.278	576.5
367.505	584.5
367.731	608.5
367.957	581.5
368.184	642.5
368.41	664.5
368.636	675.5
368.862	698.5
369.089	674.5
369.315	622.5
369.541	634.5
369.767	605.5
369.993	591.5
370.219	602.5
370.445	603.5
370.672	644.5
370.898	666.5
371.124	647.5
371.35	632.5
371.576	659.5
371.802	656.5
372.028	631.5
372.254	621.5
372.48	600.5
372.706	608.5
372.932	608.5
373.158	608.5
373.384	645.5
373.61	670.5
373.835	688.5
374.061	676.5
374.287	634.5
374.513	655.5
374.739	633.5
374.965	640.5
375.191	645.5
375.416	649.5
375.642	667.5
375.868	726.5
376.094	751.5
376.319	662.5
376.545	648.5
376.771	688.5
376.997	710.5
377.222	686.5
377.448	635.5
377.674	666.5
377.899	693.5
378.125	714.5
378.35	708.5
378.576	666.5
378.802	630.5
379.027	646.5
379.253	632.5
379.478	644.5
379.704	662.5
379.929	643.5
380.155	647.5
380.38	655.5
380.606	668.5
380.831	666.5
381.057	681.5
381.282	708.5
381.507	732.5
381.733	753.5
381.958	741.5
382.184	715.5
382.409	694.5
382.634	685.5
382.86	710.5
383.085	674.5
383.31	709.5
383.535	785.5
383.761	805.5
383.986	772.5
384.211	742.5
384.436	736.5
384.662	774.5
384.887	764.5
385.112	749.5
385.337	730.5
385.562	732.5
385.787	740.5
386.013	766.5
386.238	760.5
386.463	774.5
386.688	851.5
386.913	868.5
387.138	849.5
387.363	783.5
387.588	785.5
387.813	788.5
388.038	794.5
388.263	809.5
388.488	773.5
388.713	715.5
388.938	738.5
389.163	733.5
389.387	728.5
389.612	740.5
389.837	741.5
390.062	778.5
390.287	797.5
390.512	789.5
390.736	764.5
390.961	754.5
391.186	712.5
391.411	762.5
391.636	766.5
391.86	745.5
392.085	749.5
392.31	766.5
392.534	750.5
392.759	761.5
392.984	771.5
393.208	770.5
393.433	819.5
393.658	849.5
393.882	808.5
394.107	788.5
394.331	774.5
394.556	782.5
394.78	765.5
395.005	833.5
395.229	859.5
395.454	871.5
395.678	885.5
395.903	824.5
396.127	793.5
396.352	813.5
396.576	841.5
396.801	866.5
397.025	829.5
397.249	844.5
397.474	832.5
397.698	854.5
397.922	866.5
398.147	903.5
398.371	924.5
398.595	939.5
398.82	877.5
399.044	906.5
399.268	942.5
399.492	981.5
399.717	997.5
399.941	1012.5
400.165	960.5
400.389	956.5
400.613	1022.5
400.837	1134.5
401.062	1200.5
401.286	1028.5
401.51	974.5
401.734	1027.5
401.958	943.5
402.182	894.5
402.406	883.5
402.63	860.5
402.854	881.5
403.078	908.5
403.302	889.5
403.526	938.5
403.75	924.5
403.974	925.5
404.198	940.5
404.422	982.5
404.645	1032.5
404.869	1000.5
405.093	901.5
405.317	910.5
405.541	927.5
405.765	939.5
405.988	932.5
406.212	958.5
406.436	954.5
406.66	1005.5
406.883	1055.5
407.107	1165.5
407.331	1234.5
407.555	1299.5
407.778	1150.5
408.002	974.5
408.226	954.5
408.449	944.5
408.673	936.5
408.896	948.5
409.12	970.5
409.344	934.5
409.567	945.5
409.791	910.5
410.014	984.5
410.238	1044.5
410.461	1044.5
410.685	948.5
410.908	964.5
411.132	956.5
411.355	908.5
411.578	945.5
411.802	938.5
412.025	970.5
412.249	929.5
412.472	897.5
412.695	931.5
412.919	919.5
413.142	928.5
413.365	969.5
413.589	954.5
413.812	1003.5
414.035	1009.5
414.258	933.5
414.482	911.5
414.705	928.5
414.928	931.5
415.151	904.5
415.374	932.5
415.597	956.5
415.821	941.5
416.044	962.5
416.267	936.5
416.49	914.5
416.713	911.5
416.936	962.5
417.159	990.5
417.382	962.5
417.605	928.5
417.828	962.5
418.051	946.5
418.274	945.5
418.497	936.5
418.72	934.5
418.943	936.5
419.166	982.5
419.389	996.5
419.611	971.5
419.834	925.5
420.057	965.5
420.28	937.5
420.503	931.5
420.726	978.5
420.948	974.5
421.171	916.5
421.394	948.5
421.617	992.5
421.839	1000.5
422.062	972.5
422.285	944.5
422.507	916.5
422.73	914.5
422.953	880.5
423.175	866.5
423.398	932.5
423.621	912.5
423.843	939.5
424.066	973.5
424.288	1028.5
424.511	1040.5
424.733	1013.5
424.956	954.5
425.178	929.5
425.401	952.5
425.623	960.5
425.846	949.5
426.068	978.5
426.291	969.5
426.513	981.5
426.735	959.5
426.958	1032.5
427.18	1059.5
427.402	996.5
427.625	1040.5
427.847	1010.5
428.069	913.5
428.292	932.5
428.514	925.5
428.736	896.5
428.958	917.5
429.181	924.5
429.403	1102.5
429.625	1256.5
429.847	1088.5
430.069	965.5
430.292	1059.5
430.514	1046.5
430.736	988.5
430.958	967.5
431.18	944.5
431.402	897.5
431.624	862.5
431.846	808.5
432.068	729.5
432.29	765.5
432.512	810.5
432.734	880.5
432.956	964.5
433.178	977.5
433.4	984.5
433.622	965.5
433.844	938.5
434.066	867.5
434.287	808.5
434.509	784.5
434.731	832.5
434.953	952.5
435.175	941.5
435.397	922.5
435.618	899.5
435.84	869.5
436.062	848.5
436.284	910.5
436.505	918.5
436.727	936.5
436.949	918.5
437.17	889.5
437.392	879.5
437.614	873.5
437.835	822.5
438.057	820.5
438.278	828.5
438.5	847.5
438.721	903.5
438.943	952.5
439.165	901.5
439.386	930.5
439.608	965.5
439.829	962.5
440.05	990.5
440.272	949.5
440.493	968.5
440.715	996.5
440.936	1034.5
441.158	1084.5
441.379	1042.5
441.6	1024.5
441.822	1022.5
442.043	1026.5
442.264	983.5
442.486	957.5
442.707	970.5
442.928	976.5
443.149	984.5
443.371	1015.5
443.592	1035.5
443.813	1043.5
444.034	1009.5
444.255	1017.5
444.476	1041.5
444.698	1060.5
444.919	1040.5
445.14	1122.5
445.361	1106.5
445.582	1082.5
445.803	1091.5
446.024	1050.5
446.245	1078.5
446.466	1062.5
446.687	1051.5
446.908	1038.5
447.129	1029.5
447.35	1006.5
447.571	1021.5
447.792	963.5
448.013	984.5
448.234	1000.5
448.455	985.5
448.675	990.5
448.896	921.5
449.117	919.5
449.338	960.5
449.559	963.5
449.779	968.5
450	1044.5
450.221	1031.5
450.442	1029.5
450.662	946.5
450.883	890.5
451.104	872.5
451.324	899.5
451.545	896.5
451.766	874.5
451.986	839.5
452.207	846.5
452.428	822.5
452.648	794.5
452.869	792.5
453.089	799.5
453.31	792.5
453.53	781.5
453.751	735.5
453.971	730.5
454.192	755.5
454.412	792.5
454.633	816.5
454.853	783.5
455.073	782.5
455.294	778.5
455.514	768.5
455.734	780.5
455.955	747.5
456.175	726.5
456.395	737.5
456.616	770.5
456.836	748.5
457.056	742.5
457.276	755.5
457.497	710.5
457.717	707.5
457.937	707.5
458.157	714.5
458.377	715.5
458.598	706.5
458.818	677.5
459.038	732.5
459.258	726.5
459.478	729.5
459.698	696.5
459.918	746.5
460.138	847.5
460.358	853.5
460.578	833.5
460.798	865.5
461.018	884.5
461.238	873.5
461.458	888.5
461.678	820.5
461.898	823.5
462.118	814.5
462.338	859.5
462.558	852.5
462.777	846.5
462.997	884.5
463.217	892.5
463.437	897.5
463.657	869.5
463.876	853.5
464.096	821.5
464.316	843.5
464.536	887.5
464.755	891.5
464.975	878.5
465.195	868.5
465.414	863.5
465.634	898.5
465.854	914.5
466.073	1011.5
466.293	944.5
466.512	865.5
466.732	896.5
466.951	916.5
467.171	900.5
467.391	887.5
467.61	866.5
467.829	926.5
468.049	971.5
468.268	1084.5
468.488	976.5
468.707	915.5
468.927	924.5
469.146	909.5
469.365	938.5
469.585	912.5
469.804	953.5
470.023	906.5
470.243	938.5
470.462	941.5
470.681	911.5
470.901	950.5
471.12	923.5
471.339	950.5
471.558	921.5
471.777	941.5
471.997	895.5
472.216	868.5
472.435	792.5
472.654	786.5
472.873	797.5
473.092	861.5
473.311	846.5
473.53	847.5
473.749	842.5
473.968	869.5
474.187	843.5
474.406	835.5
474.625	863.5
474.844	887.5
475.063	858.5
475.282	861.5
475.501	839.5
475.72	875.5
475.939	922.5
476.158	930.5
476.377	898.5
476.596	844.5
476.814	845.5
477.033	828.5
477.252	842.5
477.471	900.5
477.69	924.5
477.908	944.5
478.127	997.5
478.346	1013.5
478.564	1004.5
478.783	995.5
479.002	1013.5
479.22	1000.5
479.439	1016.5
479.658	1064.5
479.876	1012.5
480.095	932.5
480.313	903.5
480.532	884.5
480.751	886.5
480.969	870.5
481.188	823.5
481.406	792.5
481.624	806.5
481.843	799.5
482.061	822.5
482.28	877.5
482.498	897.5
482.717	870.5
482.935	894.5
483.153	973.5
483.372	1029.5
483.59	1030.5
483.808	1015.5
484.027	935.5
484.245	1017.5
484.463	1233.5
484.681	1344.5
484.9	1038.5
485.118	972.5
485.336	955.5
485.554	889.5
485.772	884.5
485.99	884.5
486.209	932.5
486.427	901.5
486.645	946.5
486.863	998.5
487.081	1042.5
487.299	1013.5
487.517	1035.5
487.735	1129.5
487.953	1166.5
488.171	1200.5
488.389	1162.5
488.607	1137.5
488.825	1176.5
489.043	1096.5
489.261	1016.5
489.479	1070.5
489.696	1064.5
489.914	1066.5
490.132	1037.5
490.35	1113.5
490.568	1176.5
490.786	1176.5
491.003	1205.5
491.221	1244.5
491.439	1322.5
491.657	1344.5
491.874	1369.5
492.092	1424.5
492.31	1528.5
492.527	1485.5
492.745	1348.5
492.963	1342.5
493.18	1323.5
493.398	1369.5
493.615	1378.5
493.833	1274.5
494.05	1265.5
494.268	1238.5
494.485	1267.5
494.703	1261.5
494.92	1227.5
495.138	1225.5
495.355	1235.5
495.573	1266.5
495.79	1273.5
496.008	1277.5
496.225	1236.5
496.442	1230.5
496.66	1254.5
496.877	1225.5
497.094	1234.5
497.312	1221.5
497.529	1237.5
497.746	1189.5
497.963	1293.5
498.181	1329.5
498.398	1272.5
498.615	1222.5
498.832	1165.5
499.049	1153.5
499.267	1208.5
499.484	1260.5
499.701	1338.5
499.918	1396.5
500.135	1453.5
500.352	1572.5
500.569	1613.5
500.786	1715.5
501.003	1569.5
501.22	1460.5
501.437	1453.5
501.654	1424.5
501.871	1338.5
502.088	1214.5
502.305	1181.5
502.522	1145.5
502.739	1114.5
502.956	1112.5
503.172	1063.5
503.389	1022.5
503.606	1026.5
503.823	1012.5
504.04	1013.5
504.256	1020.5
504.473	997.5
504.69	1027.5
504.907	984.5
505.123	952.5
505.34	1089.5
505.557	1362.5
505.773	1176.5
505.99	982.5
506.207	932.5
506.423	914.5
506.64	923.5
506.856	909.5
507.073	1063.5
507.289	1107.5
507.506	1029.5
507.722	893.5
507.939	878.5
508.155	908.5
508.372	864.5
508.588	827.5
508.805	808.5
509.021	786.5
509.238	794.5
509.454	766.5
509.67	771.5
509.887	739.5
510.103	740.5
510.319	765.5
510.536	771.5
510.752	809.5
510.968	776.5
511.184	808.5
511.401	780.5
511.617	714.5
511.833	698.5
512.049	721.5
512.265	722.5
512.481	712.5
512.698	757.5
512.914	753.5
513.13	758.5
513.346	721.5
513.562	714.5
513.778	694.5
513.994	758.5
514.21	777.5
514.426	782.5
514.642	831.5
514.858	790.5
515.074	720.5
515.29	723.5
515.506	738.5
515.721	740.5
515.937	760.5
516.153	788.5
516.369	808.5
516.585	748.5
516.801	724.5
517.016	741.5
517.232	767.5
517.448	780.5
517.664	803.5
517.879	813.5
518.095	861.5
518.311	779.5
518.527	752.5
518.742	760.5
518.958	744.5
519.173	792.5
519.389	789.5
519.605	787.5
519.82	808.5
520.036	804.5
520.251	789.5
520.467	801.5
520.682	810.5
520.898	808.5
521.113	715.5
521.329	736.5
521.544	770.5
521.76	766.5
521.975	704.5
522.19	710.5
522.406	739.5
522.621	919.5
522.836	873.5
523.052	765.5
523.267	747.5
523.482	776.5
523.698	754.5
523.913	740.5
524.128	759.5
524.343	826.5
524.559	818.5
524.774	798.5
524.989	791.5
525.204	760.5
525.419	752.5
525.634	770.5
525.849	731.5
526.064	748.5
526.28	709.5
526.495	641.5
526.71	668.5
526.925	653.5
527.14	613.5
527.355	641.5
527.57	638.5
527.785	682.5
527.999	677.5
528.214	682.5
528.429	720.5
528.644	764.5
528.859	793.5
529.074	853.5
529.289	895.5
529.503	891.5
529.718	805.5
529.933	715.5
530.148	676.5
530.363	638.5
530.577	646.5
530.792	643.5
531.007	646.5
531.221	627.5
531.436	668.5
531.651	644.5
531.865	668.5
532.08	654.5
532.295	630.5
532.509	609.5
532.724	644.5
532.938	649.5
533.153	710.5
533.367	733.5
533.582	753.5
533.796	741.5
534.011	733.5
534.225	668.5
534.44	645.5
534.654	659.5
534.868	667.5
535.083	710.5
535.297	718.5
535.511	682.5
535.726	674.5
535.94	673.5
536.154	642.5
536.369	628.5
536.583	620.5
536.797	633.5
537.011	640.5
537.225	610.5
537.44	612.5
537.654	667.5
537.868	633.5
538.082	621.5
538.296	592.5
538.51	661.5
538.724	703.5
538.938	729.5
539.153	743.5
539.367	740.5
539.581	698.5
539.795	732.5
540.009	652.5
540.222	633.5
540.436	691.5
540.65	788.5
540.864	805.5
541.078	837.5
541.292	823.5
541.506	896.5
541.72	948.5
541.934	1021.5
542.147	1083.5
542.361	990.5
542.575	923.5
542.789	889.5
543.002	778.5
543.216	738.5
543.43	737.5
543.644	833.5
543.857	866.5
544.071	896.5
544.285	944.5
544.498	958.5
544.712	947.5
544.925	928.5
545.139	948.5
545.352	936.5
545.566	936.5
545.779	948.5
545.993	948.5
546.206	964.5
546.42	959.5
546.633	965.5
546.847	939.5
547.06	948.5
547.274	964.5
547.487	986.5
547.7	1011.5
547.914	1004.5
548.127	1010.5
548.34	952.5
548.554	982.5
548.767	899.5
548.98	932.5
549.193	929.5
549.407	948.5
549.62	972.5
549.833	917.5
550.046	906.5
550.259	930.5
550.473	878.5
550.686	884.5
550.899	880.5
551.112	864.5
551.325	826.5
551.538	852.5
551.751	905.5
551.964	710.5
552.177	717.5
552.39	831.5
552.603	830.5
552.816	884.5
553.029	916.5
553.242	922.5
553.455	912.5
553.667	929.5
553.88	894.5
554.093	859.5
554.306	846.5
554.519	825.5
554.732	825.5
554.944	849.5
555.157	856.5
555.37	813.5
555.583	818.5
555.795	800.5
556.008	737.5
556.221	731.5
556.433	729.5
556.646	732.5
556.859	729.5
557.071	745.5
557.284	741.5
557.496	745.5
557.709	740.5
557.921	729.5
558.134	746.5
558.346	746.5
558.559	737.5
558.771	721.5
558.984	705.5
559.196	702.5
559.409	685.5
559.621	665.5
559.833	659.5
560.046	698.5
560.258	670.5
560.47	672.5
560.683	696.5
560.895	714.5
561.107	692.5
561.32	683.5
561.532	675.5
561.744	663.5
561.956	691.5
562.168	684.5
562.381	644.5
562.593	654.5
562.805	630.5
563.017	634.5
563.229	650.5
563.441	644.5
563.653	646.5
563.865	634.5
564.077	631.5
564.289	595.5
564.501	598.5
564.713	632.5
564.925	663.5
565.137	695.5
565.349	643.5
565.561	595.5
565.773	624.5
565.985	635.5
566.197	656.5
566.408	665.5
566.62	687.5
566.832	668.5
567.044	676.5
567.255	650.5
567.467	660.5
567.679	670.5
567.891	634.5
568.102	617.5
568.314	584.5
568.526	551.5
568.737	498.5
568.949	484.5
569.161	474.5
569.372	462.5
569.584	480.5
569.795	464.5
570.007	446.5
570.218	434.5
570.43	459.5
570.641	466.5
570.853	461.5
571.064	478.5
571.276	514.5
571.487	504.5
571.698	460.5
571.91	473.5
572.121	482.5
572.333	461.5
572.544	442.5
572.755	427.5
572.966	410.5
573.178	410.5
573.389	402.5
573.6	423.5
573.811	440.5
574.023	408.5
574.234	410.5
574.445	397.5
574.656	372.5
574.867	397.5
575.078	388.5
575.289	425.5
575.501	404.5
575.712	412.5
575.923	398.5
576.134	401.5
576.345	386.5
576.556	422.5
576.767	404.5
576.978	403.5
577.188	380.5
577.399	359.5
577.61	374.5
577.821	356.5
578.032	361.5
578.243	377.5
578.454	380.5
578.665	360.5
578.875	338.5
579.086	344.5
579.297	345.5
579.508	356.5
579.718	342.5
579.929	339.5
580.14	352.5
580.35	330.5
580.561	378.5
580.772	398.5
580.982	374.5
581.193	366.5
581.403	338.5
581.614	359.5
581.825	345.5
582.035	351.5
582.246	359.5
582.456	358.5
582.667	376.5
582.877	342.5
583.087	330.5
583.298	331.5
583.508	337.5
583.719	318.5
583.929	351.5
584.139	318.5
584.35	315.5
584.56	315.5
584.77	312.5
584.981	349.5
585.191	346.5
585.401	353.5
585.611	333.5
585.821	348.5
586.032	307.5
586.242	311.5
586.452	320.5
586.662	318.5
586.872	312.5
587.082	330.5
587.292	320.5
587.502	302.5
587.713	342.5
587.923	325.5
588.133	312.5
588.343	317.5
588.553	311.5
588.762	314.5
588.972	309.5
589.182	312.5
589.392	306.5
589.602	326.5
589.812	306.5
590.022	290.5
590.232	296.5
590.441	337.5
590.651	332.5
590.861	303.5
591.071	324.5
591.281	306.5
591.49	323.5
591.7	302.5
591.91	290.5
592.119	292.5
592.329	336.5
592.539	355.5
592.748	320.5
592.958	316.5
593.167	328.5
593.377	336.5
593.587	332.5
593.796	331.5
594.006	323.5
594.215	314.5
594.424	339.5
594.634	350.5
594.843	344.5
595.053	351.5
595.262	326.5
595.472	346.5
595.681	313.5
595.89	329.5
596.1	306.5
596.309	338.5
596.518	328.5
596.727	324.5
596.937	336.5
597.146	300.5
597.355	327.5
597.564	317.5
597.774	302.5
597.983	285.5
598.192	286.5
598.401	293.5
598.61	285.5
598.819	283.5
599.028	316.5
599.237	316.5
599.446	310.5
599.655	298.5
599.864	285.5
600.073	290.5
600.282	292.5
600.491	309.5
600.7	294.5
600.909	297.5
601.118	314.5
601.327	318.5
601.536	347.5
601.745	335.5
601.953	347.5
602.162	355.5
602.371	375.5
602.58	360.5
602.789	340.5
602.997	332.5
603.206	359.5
603.415	356.5
603.623	358.5
603.832	341.5
604.041	339.5
604.249	324.5
604.458	305.5
604.666	292.5
604.875	308.5
605.084	321.5
605.292	355.5
605.501	333.5
605.709	350.5
605.918	372.5
606.126	376.5
606.334	349.5
606.543	356.5
606.751	363.5
606.96	373.5
607.168	351.5
607.376	336.5
607.585	365.5
607.793	365.5
608.001	366.5
608.21	365.5
608.418	380.5
608.626	372.5
608.834	377.5
609.043	370.5
609.251	350.5
609.459	361.5
609.667	372.5
609.875	368.5
610.083	381.5
610.291	384.5
610.499	376.5
610.707	354.5
610.916	359.5
611.124	386.5
611.332	368.5
611.54	378.5
611.748	357.5
611.955	348.5
612.163	368.5
612.371	366.5
612.579	368.5
612.787	374.5
612.995	384.5
613.203	372.5
613.411	360.5
613.618	350.5
613.826	362.5
614.034	357.5
614.242	360.5
614.449	364.5
614.657	366.5
614.865	348.5
615.072	361.5
615.28	361.5
615.488	348.5
615.695	356.5
615.903	347.5
616.111	364.5
616.318	362.5
616.526	353.5
616.733	345.5
616.941	350.5
617.148	377.5
617.356	344.5
617.563	350.5
617.771	328.5
617.978	348.5
618.185	357.5
618.393	354.5
618.6	362.5
618.807	376.5
619.015	364.5
619.222	368.5
619.429	343.5
619.637	328.5
619.844	301.5
620.051	305.5
620.258	336.5
620.466	340.5
620.673	344.5
620.88	307.5
621.087	325.5
621.294	310.5
621.501	297.5
621.708	311.5
621.915	308.5
622.122	323.5
622.329	322.5
622.536	331.5
622.743	326.5
622.95	339.5
623.157	280.5
623.364	330.5
623.571	318.5
623.778	321.5
623.985	331.5
624.192	331.5
624.399	324.5
624.606	317.5
624.812	315.5
625.019	291.5
625.226	294.5
625.433	287.5
625.639	280.5
625.846	270.5
626.053	262.5
626.259	268.5
626.466	249.5
626.673	237.5
626.879	234.5
627.086	254.5
627.293	275.5
627.499	294.5
627.706	294.5
627.912	297.5
628.119	308.5
628.325	302.5
628.532	301.5
628.738	299.5
628.945	309.5
629.151	284.5
629.357	299.5
629.564	273.5
629.77	306.5
629.976	283.5
630.183	268.5
630.389	277.5
630.595	290.5
630.802	288.5
631.008	282.5
631.214	281.5
631.42	269.5
631.627	289.5
631.833	248.5
632.039	256.5
632.245	285.5
632.451	276.5
632.657	274.5
632.863	270.5
633.069	274.5
633.275	260.5
633.481	277.5
633.688	266.5
633.893	262.5
634.099	252.5
634.305	273.5
634.511	236.5
634.717	252.5
634.923	228.5
635.129	240.5
635.335	229.5
635.541	233.5
635.747	240.5
635.952	261.5
636.158	276.5
636.364	268.5
636.57	252.5
636.775	255.5
636.981	274.5
637.187	258.5
637.392	256.5
637.598	273.5
637.804	268.5
638.009	253.5
638.215	253.5
638.421	267.5
638.626	232.5
638.832	240.5
639.037	251.5
639.243	256.5
639.448	237.5
639.654	237.5
639.859	235.5
640.065	235.5
640.27	244.5
640.475	236.5
640.681	247.5
640.886	232.5
641.091	249.5
641.297	263.5
641.502	254.5
641.707	251.5
641.913	252.5
642.118	246.5
642.323	242.5
642.528	229.5
642.733	243.5
642.939	242.5
643.144	245.5
643.349	250.5
643.554	243.5
643.759	251.5
643.964	248.5
644.169	237.5
644.374	244.5
644.579	244.5
644.784	250.5
644.989	240.5
645.194	253.5
645.399	245.5
645.604	222.5
645.809	249.5
646.014	260.5
646.219	240.5
646.423	264.5
646.628	236.5
646.833	244.5
647.038	239.5
647.243	244.5
647.447	245.5
647.652	248.5
647.857	244.5
648.062	249.5
648.266	235.5
648.471	251.5
648.676	250.5
648.88	243.5
649.085	259.5
649.289	229.5
649.494	217.5
649.698	240.5
649.903	239.5
650.107	242.5
650.312	246.5
650.516	244.5
650.721	240.5
650.925	218.5
651.13	217.5
651.334	204.5
651.539	231.5
651.743	220.5
651.947	227.5
652.152	229.5
652.356	227.5
652.56	226.5
652.764	208.5
652.969	208.5
653.173	211.5
653.377	197.5
653.581	212.5
653.785	201.5
653.99	212.5
654.194	213.5
654.398	199.5
654.602	195.5
654.806	224.5
655.01	226.5
655.214	203.5
655.418	208.5
655.622	215.5
655.826	213.5
656.03	222.5
656.234	200.5
656.438	224.5
656.642	227.5
656.846	217.5
657.049	222.5
657.253	216.5
657.457	204.5
657.661	191.5
657.865	169.5
658.068	155.5
658.272	157.5
658.476	151.5
658.68	158.5
658.883	152.5
659.087	147.5
659.291	142.5
659.494	142.5
659.698	130.5
659.901	131.5
660.105	116.5
660.309	121.5
660.512	116.5
660.716	128.5
660.919	107.5
661.123	102.5
661.326	97.5
661.53	104.5
661.733	103.5
661.936	106.5
662.14	103.5
662.343	104.5
662.546	106.5
662.75	97.5
662.953	93.5
663.156	102.5
663.36	78.5
663.563	88.5
663.766	89.5
663.969	99.5
664.173	80.5
664.376	94.5
664.579	97.5
664.782	87.5
664.985	75.5
665.188	93.5
665.391	91.5
665.594	78.5
665.797	83.5
666	86.5
666.203	69.5
666.406	84.5
666.609	84.5
666.812	82.5
667.015	67.5
667.218	88.5
667.421	89.5
667.624	85.5
667.827	65.5
668.03	79.5
668.232	76.5
668.435	86.5
668.638	85.5
668.841	78.5
669.043	80.5
669.246	85.5
669.449	89.5
669.651	73.5
669.854	72.5
670.057	68.5
670.259	81.5
670.462	82.5
670.665	71.5
670.867	87.5
671.07	88.5
671.272	88.5
671.475	99.5
671.677	79.5
671.88	92.5
672.082	88.5
672.284	88.5
672.487	64.5
672.689	90.5
672.892	101.5
