Data from WStandard_LampEnergy8_LIBS07252019.E.O._I.C._HRD10591_15-58-06-929.txt Node
Date: Thu Jul 25 15:58:06 EDT 2019
User: cochatt
Spectrometer: HR+D1059
Trigger mode: 1
Integration Time (sec): 1.000000E-1
Scans to average: 1
Electric dark correction enabled: true
Nonlinearity correction enabled: false
Boxcar width: 0
XAxis mode: Wavelengths
Number of Pixels in Spectrum: 2048
>>>>>Begin Spectral Data<<<<<
223.165	-12.12
223.4	-12.12
223.635	-12.12
223.869	-11.12
224.104	-21.12
224.338	-7.12
224.573	-11.12
224.808	-19.12
225.042	-2.12
225.277	0.88
225.511	-12.12
225.746	19.88
225.98	3.88
226.215	3.88
226.449	15.88
226.683	3.88
226.918	15.88
227.152	31.88
227.387	43.88
227.621	34.88
227.856	51.88
228.09	39.88
228.324	50.88
228.559	53.88
228.793	98.88
229.027	216.88
229.262	210.88
229.496	213.88
229.73	235.88
229.964	244.88
230.199	259.88
230.433	266.88
230.667	268.88
230.901	295.88
231.136	273.88
231.37	261.88
231.604	265.88
231.838	268.88
232.072	273.88
232.306	250.88
232.541	281.88
232.775	310.88
233.009	329.88
233.243	304.88
233.477	300.88
233.711	313.88
233.945	322.88
234.179	320.88
234.413	317.88
234.647	333.88
234.881	316.88
235.115	297.88
235.349	310.88
235.583	297.88
235.817	316.88
236.051	311.88
236.285	303.88
236.519	320.88
236.753	369.88
236.987	375.88
237.221	355.88
237.455	395.88
237.689	376.88
237.922	364.88
238.156	351.88
238.39	377.88
238.624	391.88
238.858	409.88
239.091	401.88
239.325	458.88
239.559	471.88
239.793	489.88
240.027	523.88
240.26	502.88
240.494	395.88
240.728	363.88
240.961	385.88
241.195	387.88
241.429	424.88
241.662	437.88
241.896	403.88
242.13	422.88
242.363	444.88
242.597	490.88
242.83	457.88
243.064	462.88
243.298	500.88
243.531	483.88
243.765	465.88
243.998	483.88
244.232	423.88
244.465	432.88
244.699	439.88
244.932	478.88
245.166	531.88
245.399	507.88
245.633	476.88
245.866	468.88
246.099	479.88
246.333	496.88
246.566	481.88
246.8	543.88
247.033	618.88
247.266	573.88
247.5	533.88
247.733	556.88
247.966	585.88
248.2	603.88
248.433	600.88
248.666	635.88
248.899	675.88
249.133	789.88
249.366	838.88
249.599	703.88
249.832	629.88
250.066	639.88
250.299	653.88
250.532	593.88
250.765	579.88
250.998	596.88
251.231	618.88
251.465	621.88
251.698	606.88
251.931	616.88
252.164	618.88
252.397	630.88
252.63	608.88
252.863	550.88
253.096	579.88
253.329	563.88
253.562	619.88
253.795	641.88
254.028	620.88
254.261	591.88
254.494	566.88
254.727	572.88
254.96	620.88
255.193	662.88
255.426	703.88
255.659	812.88
255.892	831.88
256.124	690.88
256.357	685.88
256.59	723.88
256.823	706.88
257.056	739.88
257.289	821.88
257.521	929.88
257.754	827.88
257.987	769.88
258.22	879.88
258.452	849.88
258.685	706.88
258.918	689.88
259.151	689.88
259.383	665.88
259.616	598.88
259.849	637.88
260.081	708.88
260.314	780.88
260.547	817.88
260.779	864.88
261.012	791.88
261.244	701.88
261.477	665.88
261.71	703.88
261.942	693.88
262.175	705.88
262.407	728.88
262.64	669.88
262.872	636.88
263.105	604.88
263.337	641.88
263.57	657.88
263.802	651.88
264.035	608.88
264.267	603.88
264.499	583.88
264.732	625.88
264.964	651.88
265.197	698.88
265.429	723.88
265.661	785.88
265.894	875.88
266.126	896.88
266.358	837.88
266.591	848.88
266.823	866.88
267.055	810.88
267.287	777.88
267.52	793.88
267.752	807.88
267.984	756.88
268.216	810.88
268.448	832.88
268.681	824.88
268.913	734.88
269.145	710.88
269.377	698.88
269.609	773.88
269.841	895.88
270.073	1035.88
270.306	1138.88
270.538	1149.88
270.77	954.88
271.002	866.88
271.234	851.88
271.466	852.88
271.698	921.88
271.93	1083.88
272.162	1079.88
272.394	969.88
272.626	908.88
272.858	825.88
273.09	735.88
273.322	720.88
273.553	674.88
273.785	704.88
274.017	730.88
274.249	775.88
274.481	777.88
274.713	748.88
274.945	732.88
275.176	724.88
275.408	708.88
275.64	705.88
275.872	715.88
276.104	776.88
276.335	844.88
276.567	944.88
276.799	953.88
277.031	859.88
277.262	822.88
277.494	856.88
277.726	924.88
277.957	891.88
278.189	848.88
278.421	795.88
278.652	736.88
278.884	729.88
279.115	779.88
279.347	767.88
279.579	745.88
279.81	773.88
280.042	829.88
280.273	904.88
280.505	920.88
280.736	915.88
280.968	845.88
281.199	771.88
281.431	735.88
281.662	765.88
281.894	754.88
282.125	756.88
282.356	795.88
282.588	801.88
282.819	788.88
283.051	829.88
283.282	919.88
283.513	900.88
283.745	763.88
283.976	720.88
284.207	761.88
284.439	747.88
284.67	763.88
284.901	777.88
285.132	818.88
285.364	808.88
285.595	800.88
285.826	774.88
286.057	774.88
286.288	770.88
286.52	827.88
286.751	887.88
286.982	869.88
287.213	811.88
287.444	731.88
287.675	753.88
287.906	802.88
288.138	851.88
288.369	815.88
288.6	782.88
288.831	748.88
289.062	743.88
289.293	748.88
289.524	790.88
289.755	813.88
289.986	796.88
290.217	780.88
290.448	768.88
290.679	803.88
290.91	804.88
291.141	830.88
291.371	871.88
291.602	866.88
291.833	836.88
292.064	845.88
292.295	849.88
292.526	845.88
292.757	889.88
292.987	828.88
293.218	795.88
293.449	921.88
293.68	993.88
293.91	1069.88
294.141	984.88
294.372	940.88
294.603	985.88
294.833	996.88
295.064	923.88
295.295	842.88
295.525	831.88
295.756	789.88
295.987	748.88
296.217	770.88
296.448	797.88
296.679	805.88
296.909	794.88
297.14	746.88
297.37	815.88
297.601	867.88
297.831	923.88
298.062	895.88
298.292	828.88
298.523	787.88
298.753	811.88
298.984	836.88
299.214	801.88
299.445	836.88
299.675	867.88
299.905	844.88
300.136	823.88
300.366	793.88
300.597	798.88
300.827	810.88
301.057	832.88
301.288	855.88
301.518	839.88
301.748	886.88
301.979	928.88
302.209	914.88
302.439	977.88
302.669	1017.88
302.9	970.88
303.13	895.88
303.36	847.88
303.59	898.88
303.82	897.88
304.051	863.88
304.281	867.88
304.511	908.88
304.741	964.88
304.971	1038.88
305.201	1100.88
305.431	995.88
305.661	836.88
305.891	761.88
306.121	779.88
306.352	815.88
306.582	881.88
306.812	911.88
307.042	981.88
307.272	979.88
307.502	1025.88
307.731	1090.88
307.961	1116.88
308.191	1031.88
308.421	913.88
308.651	863.88
308.881	841.88
309.111	848.88
309.341	828.88
309.571	871.88
309.8	861.88
310.03	869.88
310.26	837.88
310.49	851.88
310.72	880.88
310.949	901.88
311.179	879.88
311.409	873.88
311.639	893.88
311.868	863.88
312.098	840.88
312.328	854.88
312.557	835.88
312.787	876.88
313.017	885.88
313.246	887.88
313.476	887.88
313.706	912.88
313.935	918.88
314.165	940.88
314.394	954.88
314.624	979.88
314.853	1051.88
315.083	1076.88
315.312	1112.88
315.542	1012.88
315.771	913.88
316.001	939.88
316.23	979.88
316.46	956.88
316.689	959.88
316.919	902.88
317.148	903.88
317.377	943.88
317.607	989.88
317.836	1105.88
318.065	1105.88
318.295	1056.88
318.524	1037.88
318.753	979.88
318.983	948.88
319.212	947.88
319.441	928.88
319.67	927.88
319.9	937.88
320.129	994.88
320.358	1023.88
320.587	1033.88
320.816	1064.88
321.046	1041.88
321.275	992.88
321.504	978.88
321.733	1052.88
321.962	1003.88
322.191	962.88
322.42	940.88
322.649	914.88
322.878	939.88
323.108	979.88
323.337	977.88
323.566	1015.88
323.795	973.88
324.024	969.88
324.253	957.88
324.482	966.88
324.71	935.88
324.939	887.88
325.168	915.88
325.397	948.88
325.626	966.88
325.855	977.88
326.084	949.88
326.313	966.88
326.542	968.88
326.77	1011.88
326.999	999.88
327.228	938.88
327.457	900.88
327.686	909.88
327.914	925.88
328.143	937.88
328.372	947.88
328.6	946.88
328.829	919.88
329.058	926.88
329.287	937.88
329.515	961.88
329.744	981.88
329.972	1032.88
330.201	1047.88
330.43	1028.88
330.658	998.88
330.887	1019.88
331.115	1015.88
331.344	1045.88
331.572	989.88
331.801	1013.88
332.03	1009.88
332.258	996.88
332.486	1025.88
332.715	1028.88
332.943	1060.88
333.172	1014.88
333.4	1038.88
333.629	1057.88
333.857	1135.88
334.085	1264.88
334.314	1421.88
334.542	1500.88
334.771	1323.88
334.999	1194.88
335.227	1113.88
335.455	1082.88
335.684	1059.88
335.912	1096.88
336.14	1130.88
336.369	1079.88
336.597	1037.88
336.825	1012.88
337.053	1079.88
337.281	1132.88
337.51	1172.88
337.738	1221.88
337.966	1137.88
338.194	1043.88
338.422	1012.88
338.65	1015.88
338.878	975.88
339.106	976.88
339.334	960.88
339.562	932.88
339.79	987.88
340.018	1035.88
340.246	1079.88
340.474	1099.88
340.702	1032.88
340.93	1037.88
341.158	1052.88
341.386	993.88
341.614	1011.88
341.842	1017.88
342.07	1057.88
342.298	1046.88
342.526	1017.88
342.754	1011.88
342.981	1011.88
343.209	999.88
343.437	977.88
343.665	1017.88
343.893	1032.88
344.12	1081.88
344.348	1058.88
344.576	1016.88
344.804	1012.88
345.031	972.88
345.259	989.88
345.487	973.88
345.714	908.88
345.942	913.88
346.17	916.88
346.397	993.88
346.625	961.88
346.853	944.88
347.08	896.88
347.308	906.88
347.535	933.88
347.763	954.88
347.99	936.88
348.218	917.88
348.445	938.88
348.673	956.88
348.9	1002.88
349.128	1044.88
349.355	1045.88
349.583	1021.88
349.81	945.88
350.037	867.88
350.265	873.88
350.492	881.88
350.72	907.88
350.947	978.88
351.174	952.88
351.402	935.88
351.629	887.88
351.856	891.88
352.083	845.88
352.311	883.88
352.538	930.88
352.765	964.88
352.992	974.88
353.22	935.88
353.447	918.88
353.674	940.88
353.901	911.88
354.128	935.88
354.355	920.88
354.583	950.88
354.81	997.88
355.037	993.88
355.264	967.88
355.491	938.88
355.718	968.88
355.945	951.88
356.172	908.88
356.399	901.88
356.626	932.88
356.853	986.88
357.08	1065.88
357.307	1129.88
357.534	1073.88
357.761	965.88
357.988	887.88
358.215	878.88
358.441	908.88
358.668	907.88
358.895	923.88
359.122	999.88
359.349	1089.88
359.576	1014.88
359.802	911.88
360.029	894.88
360.256	894.88
360.483	906.88
360.709	955.88
360.936	1015.88
361.163	1045.88
361.39	1131.88
361.616	1164.88
361.843	1167.88
362.07	1055.88
362.296	952.88
362.523	906.88
362.749	951.88
362.976	943.88
363.203	959.88
363.429	908.88
363.656	932.88
363.882	984.88
364.109	1094.88
364.335	1141.88
364.562	1020.88
364.788	985.88
365.015	922.88
365.241	902.88
365.468	957.88
365.694	993.88
365.92	1065.88
366.147	977.88
366.373	919.88
366.599	903.88
366.826	915.88
367.052	920.88
367.278	913.88
367.505	947.88
367.731	961.88
367.957	954.88
368.184	1000.88
368.41	1073.88
368.636	1069.88
368.862	1088.88
369.089	1096.88
369.315	1029.88
369.541	1023.88
369.767	949.88
369.993	936.88
370.219	972.88
370.445	977.88
370.672	1037.88
370.898	1085.88
371.124	1055.88
371.35	1009.88
371.576	1027.88
371.802	1053.88
372.028	1007.88
372.254	959.88
372.48	961.88
372.706	946.88
372.932	967.88
373.158	963.88
373.384	982.88
373.61	1023.88
373.835	1060.88
374.061	1020.88
374.287	1019.88
374.513	1011.88
374.739	1001.88
374.965	1004.88
375.191	1049.88
375.416	1043.88
375.642	1041.88
375.868	1112.88
376.094	1139.88
376.319	1068.88
376.545	1017.88
376.771	1046.88
376.997	1102.88
377.222	1068.88
377.448	1031.88
377.674	1055.88
377.899	1051.88
378.125	1110.88
378.35	1097.88
378.576	984.88
378.802	955.88
379.027	975.88
379.253	996.88
379.478	1018.88
379.704	1014.88
379.929	1027.88
380.155	995.88
380.38	1023.88
380.606	1033.88
380.831	1056.88
381.057	1105.88
381.282	1089.88
381.507	1067.88
381.733	1129.88
381.958	1158.88
382.184	1075.88
382.409	1030.88
382.634	1067.88
382.86	1078.88
383.085	1045.88
383.31	1100.88
383.535	1200.88
383.761	1235.88
383.986	1180.88
384.211	1155.88
384.436	1116.88
384.662	1179.88
384.887	1193.88
385.112	1147.88
385.337	1194.88
385.562	1148.88
385.787	1155.88
386.013	1164.88
386.238	1177.88
386.463	1200.88
386.688	1294.88
386.913	1343.88
387.138	1284.88
387.363	1189.88
387.588	1181.88
387.813	1164.88
388.038	1203.88
388.263	1259.88
388.488	1156.88
388.713	1110.88
388.938	1081.88
389.163	1108.88
389.387	1149.88
389.612	1123.88
389.837	1191.88
390.062	1161.88
390.287	1153.88
390.512	1134.88
390.736	1104.88
390.961	1126.88
391.186	1082.88
391.411	1115.88
391.636	1154.88
391.86	1116.88
392.085	1147.88
392.31	1115.88
392.534	1143.88
392.759	1178.88
392.984	1164.88
393.208	1161.88
393.433	1182.88
393.658	1235.88
393.882	1224.88
394.107	1181.88
394.331	1129.88
394.556	1151.88
394.78	1168.88
395.005	1197.88
395.229	1255.88
395.454	1306.88
395.678	1312.88
395.903	1242.88
396.127	1194.88
396.352	1210.88
396.576	1292.88
396.801	1261.88
397.025	1273.88
397.249	1287.88
397.474	1239.88
397.698	1256.88
397.922	1270.88
398.147	1338.88
398.371	1395.88
398.595	1355.88
398.82	1350.88
399.044	1332.88
399.268	1403.88
399.492	1475.88
399.717	1480.88
399.941	1537.88
400.165	1477.88
400.389	1459.88
400.613	1500.88
400.837	1664.88
401.062	1864.88
401.286	1554.88
401.51	1431.88
401.734	1494.88
401.958	1432.88
402.182	1320.88
402.406	1316.88
402.63	1280.88
402.854	1299.88
403.078	1329.88
403.302	1316.88
403.526	1348.88
403.75	1382.88
403.974	1391.88
404.198	1393.88
404.422	1433.88
404.645	1530.88
404.869	1445.88
405.093	1360.88
405.317	1367.88
405.541	1355.88
405.765	1380.88
405.988	1381.88
406.212	1383.88
406.436	1405.88
406.66	1487.88
406.883	1519.88
407.107	1719.88
407.331	1797.88
407.555	1911.88
407.778	1721.88
408.002	1447.88
408.226	1439.88
408.449	1411.88
408.673	1399.88
408.896	1423.88
409.12	1424.88
409.344	1420.88
409.567	1363.88
409.791	1374.88
410.014	1429.88
410.238	1509.88
410.461	1559.88
410.685	1383.88
410.908	1355.88
411.132	1396.88
411.355	1360.88
411.578	1331.88
411.802	1388.88
412.025	1401.88
412.249	1359.88
412.472	1335.88
412.695	1355.88
412.919	1330.88
413.142	1347.88
413.365	1313.88
413.589	1352.88
413.812	1433.88
414.035	1445.88
414.258	1328.88
414.482	1369.88
414.705	1347.88
414.928	1322.88
415.151	1331.88
415.374	1307.88
415.597	1342.88
415.821	1320.88
416.044	1378.88
416.267	1371.88
416.49	1266.88
416.713	1302.88
416.936	1368.88
417.159	1382.88
417.382	1395.88
417.605	1315.88
417.828	1340.88
418.051	1363.88
418.274	1303.88
418.497	1281.88
418.72	1307.88
418.943	1291.88
419.166	1337.88
419.389	1365.88
419.611	1335.88
419.834	1321.88
420.057	1324.88
420.28	1298.88
420.503	1307.88
420.726	1364.88
420.948	1297.88
421.171	1276.88
421.394	1297.88
421.617	1382.88
421.839	1340.88
422.062	1339.88
422.285	1313.88
422.507	1300.88
422.73	1238.88
422.953	1232.88
423.175	1231.88
423.398	1323.88
423.621	1305.88
423.843	1278.88
424.066	1335.88
424.288	1408.88
424.511	1451.88
424.733	1373.88
424.956	1241.88
425.178	1251.88
425.401	1260.88
425.623	1291.88
425.846	1273.88
426.068	1352.88
426.291	1331.88
426.513	1305.88
426.735	1351.88
426.958	1456.88
427.18	1521.88
427.402	1382.88
427.625	1409.88
427.847	1399.88
428.069	1291.88
428.292	1265.88
428.514	1231.88
428.736	1243.88
428.958	1269.88
429.181	1300.88
429.403	1487.88
429.625	1791.88
429.847	1498.88
430.069	1320.88
430.292	1500.88
430.514	1492.88
430.736	1361.88
430.958	1362.88
431.18	1313.88
431.402	1288.88
431.624	1241.88
431.846	1220.88
432.068	1135.88
432.29	1161.88
432.512	1199.88
432.734	1290.88
432.956	1286.88
433.178	1360.88
433.4	1340.88
433.622	1310.88
433.844	1268.88
434.066	1205.88
434.287	1171.88
434.509	1217.88
434.731	1288.88
434.953	1363.88
435.175	1355.88
435.397	1300.88
435.618	1272.88
435.84	1235.88
436.062	1259.88
436.284	1290.88
436.505	1301.88
436.727	1328.88
436.949	1295.88
437.17	1252.88
437.392	1206.88
437.614	1242.88
437.835	1175.88
438.057	1228.88
438.278	1259.88
438.5	1240.88
438.721	1240.88
438.943	1222.88
439.165	1232.88
439.386	1246.88
439.608	1272.88
439.829	1289.88
440.05	1249.88
440.272	1289.88
440.493	1234.88
440.715	1283.88
440.936	1399.88
441.158	1455.88
441.379	1442.88
441.6	1414.88
441.822	1360.88
442.043	1369.88
442.264	1311.88
442.486	1294.88
442.707	1319.88
442.928	1261.88
443.149	1314.88
443.371	1365.88
443.592	1373.88
443.813	1396.88
444.034	1369.88
444.255	1405.88
444.476	1424.88
444.698	1432.88
444.919	1409.88
445.14	1497.88
445.361	1450.88
445.582	1495.88
445.803	1447.88
446.024	1403.88
446.245	1454.88
446.466	1395.88
446.687	1371.88
446.908	1356.88
447.129	1334.88
447.35	1346.88
447.571	1313.88
447.792	1252.88
448.013	1251.88
448.234	1267.88
448.455	1305.88
448.675	1304.88
448.896	1196.88
449.117	1209.88
449.338	1211.88
449.559	1279.88
449.779	1316.88
450	1441.88
450.221	1531.88
450.442	1436.88
450.662	1301.88
450.883	1194.88
451.104	1182.88
451.324	1224.88
451.545	1242.88
451.766	1205.88
451.986	1166.88
452.207	1148.88
452.428	1109.88
452.648	1098.88
452.869	1132.88
453.089	1163.88
453.31	1155.88
453.53	1147.88
453.751	1146.88
453.971	1076.88
454.192	1077.88
454.412	1184.88
454.633	1132.88
454.853	1118.88
455.073	1067.88
455.294	1096.88
455.514	1065.88
455.734	1114.88
455.955	1090.88
456.175	1092.88
456.395	1094.88
456.616	1120.88
456.836	1096.88
457.056	1108.88
457.276	1095.88
457.497	1040.88
457.717	1023.88
457.937	1082.88
458.157	1089.88
458.377	1043.88
458.598	1067.88
458.818	1071.88
459.038	1151.88
459.258	1185.88
459.478	1153.88
459.698	1132.88
459.918	1149.88
460.138	1214.88
460.358	1252.88
460.578	1254.88
460.798	1312.88
461.018	1364.88
461.238	1341.88
461.458	1290.88
461.678	1256.88
461.898	1276.88
462.118	1240.88
462.338	1297.88
462.558	1268.88
462.777	1280.88
462.997	1348.88
463.217	1385.88
463.437	1375.88
463.657	1256.88
463.876	1271.88
464.096	1287.88
464.316	1250.88
464.536	1322.88
464.755	1311.88
464.975	1350.88
465.195	1299.88
465.414	1363.88
465.634	1345.88
465.854	1313.88
466.073	1428.88
466.293	1373.88
466.512	1237.88
466.732	1227.88
466.951	1286.88
467.171	1240.88
467.391	1221.88
467.61	1173.88
467.829	1237.88
468.049	1351.88
468.268	1503.88
468.488	1325.88
468.707	1287.88
468.927	1245.88
469.146	1221.88
469.365	1210.88
469.585	1250.88
469.804	1233.88
470.023	1239.88
470.243	1247.88
470.462	1280.88
470.681	1198.88
470.901	1263.88
471.12	1269.88
471.339	1269.88
471.558	1233.88
471.777	1209.88
471.997	1187.88
472.216	1198.88
472.435	1150.88
472.654	1153.88
472.873	1187.88
473.092	1239.88
473.311	1210.88
473.53	1142.88
473.749	1129.88
473.968	1220.88
474.187	1233.88
474.406	1228.88
474.625	1209.88
474.844	1247.88
475.063	1220.88
475.282	1250.88
475.501	1221.88
475.72	1224.88
475.939	1323.88
476.158	1236.88
476.377	1223.88
476.596	1215.88
476.814	1240.88
477.033	1216.88
477.252	1282.88
477.471	1320.88
477.69	1303.88
477.908	1293.88
478.127	1354.88
478.346	1449.88
478.564	1427.88
478.783	1431.88
479.002	1459.88
479.22	1416.88
479.439	1476.88
479.658	1589.88
479.876	1546.88
480.095	1399.88
480.313	1377.88
480.532	1274.88
480.751	1335.88
480.969	1340.88
481.188	1299.88
481.406	1225.88
481.624	1267.88
481.843	1256.88
482.061	1316.88
482.28	1354.88
482.498	1350.88
482.717	1324.88
482.935	1306.88
483.153	1340.88
483.372	1398.88
483.59	1392.88
483.808	1370.88
484.027	1364.88
484.245	1436.88
484.463	1791.88
484.681	1919.88
484.9	1466.88
485.118	1409.88
485.336	1357.88
485.554	1395.88
485.772	1415.88
485.99	1367.88
486.209	1417.88
486.427	1385.88
486.645	1447.88
486.863	1430.88
487.081	1465.88
487.299	1509.88
487.517	1477.88
487.735	1435.88
487.953	1514.88
488.171	1492.88
488.389	1483.88
488.607	1498.88
488.825	1653.88
489.043	1588.88
489.261	1423.88
489.479	1501.88
489.696	1483.88
489.914	1473.88
490.132	1444.88
490.35	1467.88
490.568	1545.88
490.786	1539.88
491.003	1508.88
491.221	1558.88
491.439	1625.88
491.657	1592.88
491.874	1637.88
492.092	1669.88
492.31	1686.88
492.527	1686.88
492.745	1647.88
492.963	1579.88
493.18	1613.88
493.398	1750.88
493.615	1715.88
493.833	1616.88
494.05	1585.88
494.268	1608.88
494.485	1639.88
494.703	1612.88
494.92	1590.88
495.138	1549.88
495.355	1571.88
495.573	1649.88
495.79	1721.88
496.008	1728.88
496.225	1613.88
496.442	1655.88
496.66	1598.88
496.877	1592.88
497.094	1698.88
497.312	1649.88
497.529	1645.88
497.746	1675.88
497.963	1917.88
498.181	2038.88
498.398	1949.88
498.615	1874.88
498.832	1811.88
499.049	1792.88
499.267	1811.88
499.484	1939.88
499.701	2061.88
499.918	2066.88
500.135	2216.88
500.352	2385.88
500.569	2411.88
500.786	2637.88
501.003	2327.88
501.22	2169.88
501.437	2089.88
501.654	2148.88
501.871	2054.88
502.088	1819.88
502.305	1812.88
502.522	1699.88
502.739	1629.88
502.956	1608.88
503.172	1575.88
503.389	1512.88
503.606	1495.88
503.823	1529.88
504.04	1491.88
504.256	1519.88
504.473	1495.88
504.69	1539.88
504.907	1476.88
505.123	1395.88
505.34	1565.88
505.557	2068.88
505.773	1677.88
505.99	1399.88
506.207	1320.88
506.423	1287.88
506.64	1299.88
506.856	1352.88
507.073	1560.88
507.289	1643.88
507.506	1529.88
507.722	1315.88
507.939	1285.88
508.155	1265.88
508.372	1251.88
508.588	1219.88
508.805	1172.88
509.021	1191.88
509.238	1159.88
509.454	1189.88
509.67	1152.88
509.887	1140.88
510.103	1123.88
510.319	1186.88
510.536	1202.88
510.752	1246.88
510.968	1236.88
511.184	1323.88
511.401	1268.88
511.617	1151.88
511.833	1148.88
512.049	1107.88
512.265	1139.88
512.481	1128.88
512.698	1163.88
512.914	1212.88
513.13	1180.88
513.346	1161.88
513.562	1142.88
513.778	1139.88
513.994	1170.88
514.21	1189.88
514.426	1213.88
514.642	1317.88
514.858	1228.88
515.074	1151.88
515.29	1149.88
515.506	1161.88
515.721	1180.88
515.937	1221.88
516.153	1363.88
516.369	1263.88
516.585	1179.88
516.801	1183.88
517.016	1179.88
517.232	1221.88
517.448	1257.88
517.664	1219.88
517.879	1227.88
518.095	1256.88
518.311	1203.88
518.527	1181.88
518.742	1174.88
518.958	1171.88
519.173	1133.88
519.389	1165.88
519.605	1201.88
519.82	1188.88
520.036	1221.88
520.251	1151.88
520.467	1190.88
520.682	1286.88
520.898	1268.88
521.113	1123.88
521.329	1126.88
521.544	1191.88
521.76	1162.88
521.975	1096.88
522.19	1082.88
522.406	1121.88
522.621	1415.88
522.836	1364.88
523.052	1105.88
523.267	1111.88
523.482	1127.88
523.698	1085.88
523.913	1083.88
524.128	1141.88
524.343	1163.88
524.559	1158.88
524.774	1119.88
524.989	1128.88
525.204	1071.88
525.419	1047.88
525.634	1044.88
525.849	1100.88
526.064	1098.88
526.28	1081.88
526.495	1031.88
526.71	1005.88
526.925	1027.88
527.14	962.88
527.355	972.88
527.57	970.88
527.785	1033.88
527.999	1010.88
528.214	988.88
528.429	1002.88
528.644	1012.88
528.859	1067.88
529.074	1115.88
529.289	1103.88
529.503	1157.88
529.718	1103.88
529.933	1056.88
530.148	995.88
530.363	990.88
530.577	995.88
530.792	1027.88
531.007	1021.88
531.221	986.88
531.436	1007.88
531.651	1024.88
531.865	1083.88
532.08	1056.88
532.295	979.88
532.509	942.88
532.724	943.88
532.938	1012.88
533.153	1082.88
533.367	1068.88
533.582	1041.88
533.796	1028.88
534.011	1016.88
534.225	1004.88
534.44	1000.88
534.654	995.88
534.868	977.88
535.083	1036.88
535.297	1037.88
535.511	1030.88
535.726	1041.88
535.94	994.88
536.154	994.88
536.369	943.88
536.583	939.88
536.797	955.88
537.011	980.88
537.225	931.88
537.44	916.88
537.654	985.88
537.868	934.88
538.082	899.88
538.296	908.88
538.51	937.88
538.724	964.88
538.938	973.88
539.153	1023.88
539.367	1029.88
539.581	994.88
539.795	1013.88
540.009	961.88
540.222	951.88
540.436	979.88
540.65	1110.88
540.864	1116.88
541.078	1060.88
541.292	1052.88
541.506	1055.88
541.72	1118.88
541.934	1151.88
542.147	1242.88
542.361	1155.88
542.575	1097.88
542.789	1051.88
543.002	973.88
543.216	967.88
543.43	1028.88
543.644	1070.88
543.857	1117.88
544.071	1107.88
544.285	1106.88
544.498	1093.88
544.712	1123.88
544.925	1126.88
545.139	1119.88
545.352	1075.88
545.566	1076.88
545.779	1031.88
545.993	1116.88
546.206	1099.88
546.42	1077.88
546.633	1052.88
546.847	1049.88
547.06	1099.88
547.274	1068.88
547.487	1118.88
547.7	1090.88
547.914	1095.88
548.127	1099.88
548.34	1079.88
548.554	1074.88
548.767	1043.88
548.98	1081.88
549.193	1064.88
549.407	1125.88
549.62	1120.88
549.833	1086.88
550.046	1035.88
550.259	1071.88
550.473	1037.88
550.686	1018.88
550.899	1005.88
551.112	994.88
551.325	971.88
551.538	1033.88
551.751	1207.88
551.964	948.88
552.177	931.88
552.39	981.88
552.603	1020.88
552.816	1054.88
553.029	1101.88
553.242	1066.88
553.455	1052.88
553.667	1082.88
553.88	1084.88
554.093	1037.88
554.306	993.88
554.519	983.88
554.732	955.88
554.944	975.88
555.157	986.88
555.37	978.88
555.583	976.88
555.795	919.88
556.008	901.88
556.221	880.88
556.433	896.88
556.646	896.88
556.859	897.88
557.071	864.88
557.284	882.88
557.496	883.88
557.709	865.88
557.921	870.88
558.134	867.88
558.346	867.88
558.559	858.88
558.771	832.88
558.984	836.88
559.196	809.88
559.409	840.88
559.621	788.88
559.833	836.88
560.046	853.88
560.258	817.88
560.47	833.88
560.683	825.88
560.895	834.88
561.107	801.88
561.32	833.88
561.532	838.88
561.744	831.88
561.956	853.88
562.168	817.88
562.381	796.88
562.593	785.88
562.805	805.88
563.017	760.88
563.229	806.88
563.441	818.88
563.653	751.88
563.865	793.88
564.077	794.88
564.289	783.88
564.501	781.88
564.713	842.88
564.925	845.88
565.137	917.88
565.349	823.88
565.561	823.88
565.773	826.88
565.985	827.88
566.197	866.88
566.408	919.88
566.62	933.88
566.832	919.88
567.044	919.88
567.255	904.88
567.467	887.88
567.679	913.88
567.891	911.88
568.102	890.88
568.314	841.88
568.526	830.88
568.737	785.88
568.949	732.88
569.161	738.88
569.372	730.88
569.584	687.88
569.795	685.88
570.007	681.88
570.218	675.88
570.43	671.88
570.641	662.88
570.853	684.88
571.064	689.88
571.276	663.88
571.487	676.88
571.698	652.88
571.91	645.88
572.121	627.88
572.333	631.88
572.544	618.88
572.755	602.88
572.966	564.88
573.178	583.88
573.389	589.88
573.6	623.88
573.811	663.88
574.023	602.88
574.234	571.88
574.445	552.88
574.656	558.88
574.867	567.88
575.078	580.88
575.289	564.88
575.501	556.88
575.712	568.88
575.923	591.88
576.134	568.88
576.345	561.88
576.556	540.88
576.767	536.88
576.978	546.88
577.188	540.88
577.399	548.88
577.61	552.88
577.821	513.88
578.032	522.88
578.243	506.88
578.454	504.88
578.665	523.88
578.875	502.88
579.086	485.88
579.297	529.88
579.508	527.88
579.718	511.88
579.929	513.88
580.14	500.88
580.35	482.88
580.561	506.88
580.772	561.88
580.982	524.88
581.193	509.88
581.403	484.88
581.614	486.88
581.825	477.88
582.035	476.88
582.246	473.88
582.456	490.88
582.667	484.88
582.877	497.88
583.087	476.88
583.298	471.88
583.508	484.88
583.719	464.88
583.929	475.88
584.139	463.88
584.35	438.88
584.56	468.88
584.77	457.88
584.981	468.88
585.191	497.88
585.401	484.88
585.611	450.88
585.821	472.88
586.032	467.88
586.242	444.88
586.452	466.88
586.662	462.88
586.872	449.88
587.082	461.88
587.292	468.88
587.502	470.88
587.713	474.88
587.923	474.88
588.133	450.88
588.343	456.88
588.553	460.88
588.762	447.88
588.972	464.88
589.182	459.88
589.392	437.88
589.602	463.88
589.812	465.88
590.022	453.88
590.232	422.88
590.441	458.88
590.651	481.88
590.861	436.88
591.071	441.88
591.281	441.88
591.49	439.88
591.7	451.88
591.91	435.88
592.119	442.88
592.329	433.88
592.539	463.88
592.748	465.88
592.958	474.88
593.167	471.88
593.377	456.88
593.587	462.88
593.796	455.88
594.006	467.88
594.215	485.88
594.424	471.88
594.634	466.88
594.843	472.88
595.053	479.88
595.262	468.88
595.472	439.88
595.681	430.88
595.89	440.88
596.1	440.88
596.309	436.88
596.518	456.88
596.727	461.88
596.937	433.88
597.146	431.88
597.355	424.88
597.564	400.88
597.774	402.88
597.983	399.88
598.192	389.88
598.401	405.88
598.61	398.88
598.819	408.88
599.028	410.88
599.237	407.88
599.446	398.88
599.655	380.88
599.864	378.88
600.073	379.88
600.282	392.88
600.491	381.88
600.7	390.88
600.909	375.88
601.118	401.88
601.327	402.88
601.536	407.88
601.745	408.88
601.953	410.88
602.162	413.88
602.371	417.88
602.58	416.88
602.789	407.88
602.997	420.88
603.206	411.88
603.415	408.88
603.623	415.88
603.832	413.88
604.041	392.88
604.249	389.88
604.458	372.88
604.666	393.88
604.875	367.88
605.084	406.88
605.292	401.88
605.501	387.88
605.709	423.88
605.918	399.88
606.126	391.88
606.334	414.88
606.543	396.88
606.751	402.88
606.96	413.88
607.168	394.88
607.376	388.88
607.585	379.88
607.793	397.88
608.001	411.88
608.21	405.88
608.418	416.88
608.626	405.88
608.834	387.88
609.043	396.88
609.251	407.88
609.459	403.88
609.667	390.88
609.875	411.88
610.083	427.88
610.291	417.88
610.499	395.88
610.707	409.88
610.916	415.88
611.124	387.88
611.332	384.88
611.54	403.88
611.748	396.88
611.955	405.88
612.163	392.88
612.371	397.88
612.579	387.88
612.787	403.88
612.995	401.88
613.203	416.88
613.411	393.88
613.618	408.88
613.826	394.88
614.034	379.88
614.242	388.88
614.449	395.88
614.657	387.88
614.865	391.88
615.072	394.88
615.28	378.88
615.488	376.88
615.695	415.88
615.903	411.88
616.111	387.88
616.318	384.88
616.526	394.88
616.733	375.88
616.941	383.88
617.148	394.88
617.356	381.88
617.563	377.88
617.771	388.88
617.978	377.88
618.185	362.88
618.393	387.88
618.6	375.88
618.807	397.88
619.015	394.88
619.222	380.88
619.429	374.88
619.637	368.88
619.844	345.88
620.051	351.88
620.258	359.88
620.466	336.88
620.673	369.88
620.88	363.88
621.087	341.88
621.294	334.88
621.501	332.88
621.708	331.88
621.915	376.88
622.122	369.88
622.329	378.88
622.536	366.88
622.743	372.88
622.95	371.88
623.157	353.88
623.364	351.88
623.571	348.88
623.778	359.88
623.985	363.88
624.192	353.88
624.399	349.88
624.606	360.88
624.812	339.88
625.019	335.88
625.226	330.88
625.433	317.88
625.639	329.88
625.846	315.88
626.053	305.88
626.259	309.88
626.466	300.88
626.673	296.88
626.879	289.88
627.086	294.88
627.293	314.88
627.499	323.88
627.706	306.88
627.912	318.88
628.119	313.88
628.325	312.88
628.532	309.88
628.738	320.88
628.945	323.88
629.151	316.88
629.357	313.88
629.564	316.88
629.77	294.88
629.976	299.88
630.183	304.88
630.389	299.88
630.595	315.88
630.802	295.88
631.008	303.88
631.214	295.88
631.42	285.88
631.627	278.88
631.833	275.88
632.039	285.88
632.245	300.88
632.451	285.88
632.657	271.88
632.863	275.88
633.069	297.88
633.275	286.88
633.481	284.88
633.688	291.88
633.893	283.88
634.099	303.88
634.305	297.88
634.511	279.88
634.717	267.88
634.923	257.88
635.129	262.88
635.335	268.88
635.541	277.88
635.747	269.88
635.952	290.88
636.158	285.88
636.364	271.88
636.57	283.88
636.775	289.88
636.981	267.88
637.187	283.88
637.392	309.88
637.598	280.88
637.804	268.88
638.009	276.88
638.215	278.88
638.421	265.88
638.626	260.88
638.832	273.88
639.037	270.88
639.243	269.88
639.448	279.88
639.654	271.88
639.859	281.88
640.065	260.88
640.27	271.88
640.475	253.88
640.681	275.88
640.886	277.88
641.091	272.88
641.297	283.88
641.502	260.88
641.707	267.88
641.913	281.88
642.118	283.88
642.323	273.88
642.528	263.88
642.733	257.88
642.939	275.88
643.144	269.88
643.349	268.88
643.554	261.88
643.759	262.88
643.964	260.88
644.169	271.88
644.374	261.88
644.579	265.88
644.784	263.88
644.989	252.88
645.194	253.88
645.399	244.88
645.604	241.88
645.809	250.88
646.014	251.88
646.219	256.88
646.423	275.88
646.628	256.88
646.833	255.88
647.038	241.88
647.243	256.88
647.447	251.88
647.652	253.88
647.857	264.88
648.062	266.88
648.266	269.88
648.471	269.88
648.676	280.88
648.88	259.88
649.085	252.88
649.289	250.88
649.494	232.88
649.698	253.88
649.903	257.88
650.107	252.88
650.312	250.88
650.516	221.88
650.721	247.88
650.925	232.88
651.13	229.88
651.334	235.88
651.539	226.88
651.743	229.88
651.947	235.88
652.152	229.88
652.356	205.88
652.56	232.88
652.764	216.88
652.969	228.88
653.173	240.88
653.377	208.88
653.581	224.88
653.785	216.88
653.99	228.88
654.194	211.88
654.398	217.88
654.602	224.88
654.806	218.88
655.01	207.88
655.214	206.88
655.418	211.88
655.622	220.88
655.826	221.88
656.03	227.88
656.234	253.88
656.438	256.88
656.642	252.88
656.846	253.88
657.049	227.88
657.253	216.88
657.457	194.88
657.661	193.88
657.865	188.88
658.068	169.88
658.272	175.88
658.476	150.88
658.68	150.88
658.883	138.88
659.087	162.88
659.291	157.88
659.494	145.88
659.698	141.88
659.901	125.88
660.105	139.88
660.309	127.88
660.512	135.88
660.716	124.88
660.919	129.88
661.123	120.88
661.326	122.88
661.53	101.88
661.733	106.88
661.936	97.88
662.14	104.88
662.343	99.88
662.546	95.88
662.75	102.88
662.953	96.88
663.156	104.88
663.36	109.88
663.563	94.88
663.766	87.88
663.969	77.88
664.173	87.88
664.376	81.88
664.579	87.88
664.782	98.88
664.985	92.88
665.188	84.88
665.391	91.88
665.594	91.88
665.797	93.88
666	86.88
666.203	85.88
666.406	84.88
666.609	70.88
666.812	78.88
667.015	97.88
667.218	77.88
667.421	85.88
667.624	72.88
667.827	77.88
668.03	80.88
668.232	80.88
668.435	74.88
668.638	83.88
668.841	83.88
669.043	90.88
669.246	95.88
669.449	82.88
669.651	88.88
669.854	85.88
670.057	77.88
670.259	68.88
670.462	63.88
670.665	82.88
670.867	77.88
671.07	66.88
671.272	72.88
671.475	88.88
671.677	73.88
671.88	61.88
672.082	78.88
672.284	84.88
672.487	81.88
672.689	75.88
672.892	68.88
