Data from WStandard_LampEnergy5.5LIBS07252019.E.O._I.C._HRD10591_16-07-58-920.txt Node
Date: Thu Jul 25 16:07:58 EDT 2019
User: cochatt
Spectrometer: HR+D1059
Trigger mode: 1
Integration Time (sec): 1.000000E-1
Scans to average: 1
Electric dark correction enabled: true
Nonlinearity correction enabled: false
Boxcar width: 0
XAxis mode: Wavelengths
Number of Pixels in Spectrum: 2048
>>>>>Begin Spectral Data<<<<<
223.165	-21.06
223.4	-21.06
223.635	-21.06
223.869	-13.06
224.104	-12.06
224.338	-11.06
224.573	-12.06
224.808	-11.06
225.042	-12.06
225.277	-6.06
225.511	-7.06
225.746	-1.06
225.98	-5.06
226.215	5.94
226.449	33.94
226.683	20.94
226.918	20.94
227.152	29.94
227.387	19.94
227.621	50.94
227.856	55.94
228.09	45.94
228.324	45.94
228.559	53.94
228.793	136.94
229.027	386.94
229.262	390.94
229.496	382.94
229.73	395.94
229.964	453.94
230.199	485.94
230.433	497.94
230.667	518.94
230.901	553.94
231.136	495.94
231.37	469.94
231.604	482.94
231.838	477.94
232.072	476.94
232.306	466.94
232.541	485.94
232.775	589.94
233.009	608.94
233.243	602.94
233.477	521.94
233.711	561.94
233.945	579.94
234.179	562.94
234.413	595.94
234.647	658.94
234.881	618.94
235.115	563.94
235.349	582.94
235.583	592.94
235.817	565.94
236.051	558.94
236.285	567.94
236.519	574.94
236.753	709.94
236.987	704.94
237.221	692.94
237.455	778.94
237.689	746.94
237.922	668.94
238.156	671.94
238.39	688.94
238.624	738.94
238.858	786.94
239.091	793.94
239.325	803.94
239.559	928.94
239.793	991.94
240.027	1093.94
240.26	1067.94
240.494	806.94
240.728	735.94
240.961	712.94
241.195	764.94
241.429	864.94
241.662	844.94
241.896	788.94
242.13	769.94
242.363	899.94
242.597	942.94
242.83	903.94
243.064	910.94
243.298	972.94
243.531	989.94
243.765	958.94
243.998	950.94
244.232	841.94
244.465	806.94
244.699	822.94
244.932	960.94
245.166	1059.94
245.399	1037.94
245.633	914.94
245.866	912.94
246.099	968.94
246.333	994.94
246.566	981.94
246.8	1075.94
247.033	1217.94
247.266	1112.94
247.5	1088.94
247.733	1105.94
247.966	1144.94
248.2	1293.94
248.433	1212.94
248.666	1243.94
248.899	1395.94
249.133	1598.94
249.366	1749.94
249.599	1471.94
249.832	1306.94
250.066	1310.94
250.299	1321.94
250.532	1217.94
250.765	1094.94
250.998	1202.94
251.231	1249.94
251.465	1262.94
251.698	1178.94
251.931	1206.94
252.164	1252.94
252.397	1298.94
252.63	1310.94
252.863	1152.94
253.096	1091.94
253.329	1163.94
253.562	1199.94
253.795	1321.94
254.028	1306.94
254.261	1207.94
254.494	1251.94
254.727	1144.94
254.96	1164.94
255.193	1292.94
255.426	1467.94
255.659	1680.94
255.892	1724.94
256.124	1445.94
256.357	1374.94
256.59	1463.94
256.823	1462.94
257.056	1440.94
257.289	1744.94
257.521	1960.94
257.754	1741.94
257.987	1656.94
258.22	1826.94
258.452	1783.94
258.685	1430.94
258.918	1416.94
259.151	1431.94
259.383	1366.94
259.616	1208.94
259.849	1244.94
260.081	1444.94
260.314	1579.94
260.547	1763.94
260.779	1761.94
261.012	1690.94
261.244	1464.94
261.477	1383.94
261.71	1498.94
261.942	1470.94
262.175	1396.94
262.407	1528.94
262.64	1439.94
262.872	1340.94
263.105	1302.94
263.337	1330.94
263.57	1346.94
263.802	1368.94
264.035	1251.94
264.267	1217.94
264.499	1166.94
264.732	1264.94
264.964	1335.94
265.197	1368.94
265.429	1421.94
265.661	1606.94
265.894	1764.94
266.126	1856.94
266.358	1617.94
266.591	1680.94
266.823	1897.94
267.055	1680.94
267.287	1650.94
267.52	1602.94
267.752	1632.94
267.984	1592.94
268.216	1677.94
268.448	1718.94
268.681	1734.94
268.913	1554.94
269.145	1438.94
269.377	1431.94
269.609	1554.94
269.841	1780.94
270.073	2127.94
270.306	2362.94
270.538	2526.94
270.77	2105.94
271.002	1782.94
271.234	1692.94
271.466	1650.94
271.698	1874.94
271.93	2310.94
272.162	2248.94
272.394	2080.94
272.626	1952.94
272.858	1710.94
273.09	1510.94
273.322	1499.94
273.553	1426.94
273.785	1453.94
274.017	1522.94
274.249	1602.94
274.481	1635.94
274.713	1492.94
274.945	1442.94
275.176	1430.94
275.408	1404.94
275.64	1430.94
275.872	1399.94
276.104	1497.94
276.335	1687.94
276.567	2001.94
276.799	1968.94
277.031	1779.94
277.262	1634.94
277.494	1688.94
277.726	1878.94
277.957	1887.94
278.189	1752.94
278.421	1578.94
278.652	1568.94
278.884	1526.94
279.115	1510.94
279.347	1546.94
279.579	1518.94
279.81	1512.94
280.042	1667.94
280.273	1846.94
280.505	1848.94
280.736	1872.94
280.968	1808.94
281.199	1570.94
281.431	1489.94
281.662	1462.94
281.894	1458.94
282.125	1496.94
282.356	1588.94
282.588	1600.94
282.819	1539.94
283.051	1708.94
283.282	1881.94
283.513	1802.94
283.745	1556.94
283.976	1434.94
284.207	1427.94
284.439	1502.94
284.67	1561.94
284.901	1542.94
285.132	1594.94
285.364	1559.94
285.595	1588.94
285.826	1556.94
286.057	1560.94
286.288	1501.94
286.52	1591.94
286.751	1763.94
286.982	1812.94
287.213	1656.94
287.444	1517.94
287.675	1501.94
287.906	1586.94
288.138	1693.94
288.369	1623.94
288.6	1577.94
288.831	1540.94
289.062	1530.94
289.293	1586.94
289.524	1576.94
289.755	1629.94
289.986	1619.94
290.217	1479.94
290.448	1525.94
290.679	1553.94
290.91	1582.94
291.141	1629.94
291.371	1676.94
291.602	1661.94
291.833	1646.94
292.064	1708.94
292.295	1675.94
292.526	1695.94
292.757	1778.94
292.987	1726.94
293.218	1590.94
293.449	1707.94
293.68	1941.94
293.91	2137.94
294.141	1944.94
294.372	1806.94
294.603	1891.94
294.833	1957.94
295.064	1878.94
295.295	1668.94
295.525	1646.94
295.756	1545.94
295.987	1479.94
296.217	1473.94
296.448	1538.94
296.679	1547.94
296.909	1574.94
297.14	1527.94
297.37	1564.94
297.601	1610.94
297.831	1767.94
298.062	1774.94
298.292	1656.94
298.523	1547.94
298.753	1558.94
298.984	1568.94
299.214	1574.94
299.445	1608.94
299.675	1673.94
299.905	1675.94
300.136	1616.94
300.366	1594.94
300.597	1515.94
300.827	1495.94
301.057	1602.94
301.288	1667.94
301.518	1671.94
301.748	1724.94
301.979	1778.94
302.209	1798.94
302.439	1908.94
302.669	2025.94
302.9	1912.94
303.13	1720.94
303.36	1678.94
303.59	1738.94
303.82	1678.94
304.051	1667.94
304.281	1742.94
304.511	1686.94
304.741	1782.94
304.971	1971.94
305.201	2154.94
305.431	2006.94
305.661	1647.94
305.891	1492.94
306.121	1494.94
306.352	1548.94
306.582	1654.94
306.812	1738.94
307.042	1890.94
307.272	1874.94
307.502	1884.94
307.731	2059.94
307.961	2232.94
308.191	2110.94
308.421	1730.94
308.651	1636.94
308.881	1622.94
309.111	1640.94
309.341	1597.94
309.571	1610.94
309.8	1617.94
310.03	1606.94
310.26	1600.94
310.49	1609.94
310.72	1626.94
310.949	1715.94
311.179	1772.94
311.409	1704.94
311.639	1672.94
311.868	1607.94
312.098	1657.94
312.328	1632.94
312.557	1625.94
312.787	1660.94
313.017	1704.94
313.246	1672.94
313.476	1692.94
313.706	1746.94
313.935	1752.94
314.165	1722.94
314.394	1771.94
314.624	1884.94
314.853	1982.94
315.083	2012.94
315.312	2061.94
315.542	1941.94
315.771	1747.94
316.001	1703.94
316.23	1857.94
316.46	1862.94
316.689	1823.94
316.919	1701.94
317.148	1660.94
317.377	1655.94
317.607	1806.94
317.836	1982.94
318.065	2123.94
318.295	2013.94
318.524	1924.94
318.753	1848.94
318.983	1827.94
319.212	1786.94
319.441	1752.94
319.67	1747.94
319.9	1770.94
320.129	1846.94
320.358	1950.94
320.587	2016.94
320.816	1964.94
321.046	1908.94
321.275	1820.94
321.504	1828.94
321.733	2017.94
321.962	1998.94
322.191	1778.94
322.42	1773.94
322.649	1719.94
322.878	1748.94
323.108	1773.94
323.337	1852.94
323.566	1849.94
323.795	1822.94
324.024	1862.94
324.253	1782.94
324.482	1849.94
324.71	1793.94
324.939	1663.94
325.168	1685.94
325.397	1780.94
325.626	1836.94
325.855	1847.94
326.084	1785.94
326.313	1786.94
326.542	1817.94
326.77	1857.94
326.999	1863.94
327.228	1804.94
327.457	1708.94
327.686	1663.94
327.914	1711.94
328.143	1776.94
328.372	1779.94
328.6	1786.94
328.829	1746.94
329.058	1731.94
329.287	1720.94
329.515	1776.94
329.744	1806.94
329.972	1883.94
330.201	1991.94
330.43	1942.94
330.658	1874.94
330.887	1863.94
331.115	1888.94
331.344	1959.94
331.572	1856.94
331.801	1858.94
332.03	1870.94
332.258	1847.94
332.486	1928.94
332.715	1931.94
332.943	1860.94
333.172	1854.94
333.4	1902.94
333.629	1950.94
333.857	2021.94
334.085	2240.94
334.314	2554.94
334.542	2814.94
334.771	2619.94
334.999	2288.94
335.227	2139.94
335.455	2025.94
335.684	1974.94
335.912	2075.94
336.14	2142.94
336.369	2047.94
336.597	1918.94
336.825	1908.94
337.053	1963.94
337.281	2083.94
337.51	2149.94
337.738	2215.94
337.966	2151.94
338.194	1979.94
338.422	1912.94
338.65	1880.94
338.878	1815.94
339.106	1771.94
339.334	1759.94
339.562	1718.94
339.79	1814.94
340.018	1883.94
340.246	1995.94
340.474	1960.94
340.702	1942.94
340.93	1951.94
341.158	1924.94
341.386	1886.94
341.614	1866.94
341.842	1842.94
342.07	1823.94
342.298	1903.94
342.526	1861.94
342.754	1826.94
342.981	1842.94
343.209	1810.94
343.437	1804.94
343.665	1825.94
343.893	1864.94
344.12	2034.94
344.348	2038.94
344.576	1937.94
344.804	1838.94
345.031	1835.94
345.259	1835.94
345.487	1814.94
345.714	1767.94
345.942	1681.94
346.17	1728.94
346.397	1732.94
346.625	1804.94
346.853	1658.94
347.08	1636.94
347.308	1635.94
347.535	1694.94
347.763	1780.94
347.99	1751.94
348.218	1700.94
348.445	1641.94
348.673	1699.94
348.9	1739.94
349.128	1785.94
349.355	1866.94
349.583	1862.94
349.81	1717.94
350.037	1583.94
350.265	1602.94
350.492	1590.94
350.72	1676.94
350.947	1722.94
351.174	1799.94
351.402	1691.94
351.629	1589.94
351.856	1623.94
352.083	1594.94
352.311	1603.94
352.538	1656.94
352.765	1738.94
352.992	1784.94
353.22	1736.94
353.447	1664.94
353.674	1689.94
353.901	1736.94
354.128	1666.94
354.355	1603.94
354.583	1694.94
354.81	1786.94
355.037	1755.94
355.264	1762.94
355.491	1715.94
355.718	1697.94
355.945	1723.94
356.172	1659.94
356.399	1642.94
356.626	1647.94
356.853	1687.94
357.08	1815.94
357.307	2003.94
357.534	2039.94
357.761	1807.94
357.988	1659.94
358.215	1609.94
358.441	1659.94
358.668	1607.94
358.895	1647.94
359.122	1754.94
359.349	1876.94
359.576	1935.94
359.802	1715.94
360.029	1620.94
360.256	1627.94
360.483	1634.94
360.709	1686.94
360.936	1807.94
361.163	1812.94
361.39	1991.94
361.616	2119.94
361.843	2116.94
362.07	1960.94
362.296	1711.94
362.523	1676.94
362.749	1672.94
362.976	1742.94
363.203	1731.94
363.429	1684.94
363.656	1633.94
363.882	1694.94
364.109	1871.94
364.335	2025.94
364.562	1889.94
364.788	1771.94
365.015	1704.94
365.241	1671.94
365.468	1703.94
365.694	1761.94
365.92	1827.94
366.147	1751.94
366.373	1666.94
366.599	1634.94
366.826	1614.94
367.052	1649.94
367.278	1625.94
367.505	1734.94
367.731	1738.94
367.957	1747.94
368.184	1767.94
368.41	1899.94
368.636	1923.94
368.862	1870.94
369.089	1898.94
369.315	1824.94
369.541	1798.94
369.767	1739.94
369.993	1688.94
370.219	1666.94
370.445	1705.94
370.672	1790.94
370.898	1904.94
371.124	1931.94
371.35	1766.94
371.576	1829.94
371.802	1922.94
372.028	1832.94
372.254	1756.94
372.48	1722.94
372.706	1672.94
372.932	1705.94
373.158	1696.94
373.384	1719.94
373.61	1800.94
373.835	1909.94
374.061	1799.94
374.287	1759.94
374.513	1800.94
374.739	1783.94
374.965	1808.94
375.191	1826.94
375.416	1836.94
375.642	1817.94
375.868	1933.94
376.094	2009.94
376.319	1902.94
376.545	1779.94
376.771	1848.94
376.997	1887.94
377.222	1875.94
377.448	1844.94
377.674	1862.94
377.899	1847.94
378.125	1984.94
378.35	1930.94
378.576	1796.94
378.802	1738.94
379.027	1706.94
379.253	1735.94
379.478	1737.94
379.704	1795.94
379.929	1719.94
380.155	1754.94
380.38	1794.94
380.606	1770.94
380.831	1809.94
381.057	1896.94
381.282	1923.94
381.507	1846.94
381.733	1948.94
381.958	2076.94
382.184	1880.94
382.409	1824.94
382.634	1850.94
382.86	1839.94
383.085	1852.94
383.31	1911.94
383.535	2036.94
383.761	2181.94
383.986	2102.94
384.211	1978.94
384.436	1984.94
384.662	2050.94
384.887	2163.94
385.112	2049.94
385.337	2056.94
385.562	2066.94
385.787	2016.94
386.013	2077.94
386.238	2087.94
386.463	2025.94
386.688	2171.94
386.913	2291.94
387.138	2296.94
387.363	2075.94
387.588	2064.94
387.813	2111.94
388.038	2096.94
388.263	2171.94
388.488	2078.94
388.713	1918.94
388.938	1951.94
389.163	1961.94
389.387	1988.94
389.612	1974.94
389.837	2040.94
390.062	2055.94
390.287	2056.94
390.512	2038.94
390.736	1955.94
390.961	1972.94
391.186	1895.94
391.411	1961.94
391.636	2004.94
391.86	2000.94
392.085	1995.94
392.31	2017.94
392.534	2046.94
392.759	2035.94
392.984	2021.94
393.208	2059.94
393.433	2100.94
393.658	2188.94
393.882	2229.94
394.107	2078.94
394.331	1976.94
394.556	2035.94
394.78	2032.94
395.005	2098.94
395.229	2173.94
395.454	2340.94
395.678	2366.94
395.903	2235.94
396.127	2135.94
396.352	2130.94
396.576	2174.94
396.801	2222.94
397.025	2228.94
397.249	2210.94
397.474	2188.94
397.698	2190.94
397.922	2227.94
398.147	2330.94
398.371	2398.94
398.595	2448.94
398.82	2316.94
399.044	2367.94
399.268	2465.94
399.492	2620.94
399.717	2706.94
399.941	2739.94
400.165	2633.94
400.389	2585.94
400.613	2590.94
400.837	2832.94
401.062	3251.94
401.286	2770.94
401.51	2552.94
401.734	2619.94
401.958	2594.94
402.182	2400.94
402.406	2363.94
402.63	2263.94
402.854	2299.94
403.078	2304.94
403.302	2378.94
403.526	2437.94
403.75	2430.94
403.974	2450.94
404.198	2401.94
404.422	2512.94
404.645	2585.94
404.869	2600.94
405.093	2360.94
405.317	2350.94
405.541	2395.94
405.765	2451.94
405.988	2417.94
406.212	2427.94
406.436	2523.94
406.66	2562.94
406.883	2576.94
407.107	2890.94
407.331	3169.94
407.555	3413.94
407.778	3151.94
408.002	2602.94
408.226	2521.94
408.449	2523.94
408.673	2433.94
408.896	2496.94
409.12	2543.94
409.344	2438.94
409.567	2346.94
409.791	2402.94
410.014	2453.94
410.238	2565.94
410.461	2760.94
410.685	2467.94
410.908	2324.94
411.132	2436.94
411.355	2384.94
411.578	2398.94
411.802	2328.94
412.025	2367.94
412.249	2376.94
412.472	2287.94
412.695	2329.94
412.919	2306.94
413.142	2270.94
413.365	2362.94
413.589	2409.94
413.812	2424.94
414.035	2508.94
414.258	2355.94
414.482	2310.94
414.705	2320.94
414.928	2294.94
415.151	2276.94
415.374	2322.94
415.597	2366.94
415.821	2353.94
416.044	2424.94
416.267	2434.94
416.49	2254.94
416.713	2208.94
416.936	2237.94
417.159	2370.94
417.382	2398.94
417.605	2251.94
417.828	2271.94
418.051	2345.94
418.274	2295.94
418.497	2219.94
418.72	2194.94
418.943	2187.94
419.166	2346.94
419.389	2447.94
419.611	2300.94
419.834	2273.94
420.057	2324.94
420.28	2209.94
420.503	2240.94
420.726	2236.94
420.948	2278.94
421.171	2160.94
421.394	2249.94
421.617	2352.94
421.839	2310.94
422.062	2257.94
422.285	2213.94
422.507	2200.94
422.73	2136.94
422.953	2138.94
423.175	2111.94
423.398	2163.94
423.621	2195.94
423.843	2241.94
424.066	2276.94
424.288	2266.94
424.511	2350.94
424.733	2288.94
424.956	2127.94
425.178	2084.94
425.401	2156.94
425.623	2193.94
425.846	2141.94
426.068	2262.94
426.291	2325.94
426.513	2247.94
426.735	2293.94
426.958	2416.94
427.18	2511.94
427.402	2332.94
427.625	2386.94
427.847	2466.94
428.069	2291.94
428.292	2163.94
428.514	2118.94
428.736	2112.94
428.958	2190.94
429.181	2141.94
429.403	2438.94
429.625	3108.94
429.847	2718.94
430.069	2207.94
430.292	2441.94
430.514	2517.94
430.736	2336.94
430.958	2392.94
431.18	2310.94
431.402	2137.94
431.624	2106.94
431.846	2160.94
432.068	2106.94
432.29	2152.94
432.512	2154.94
432.734	2203.94
432.956	2222.94
433.178	2367.94
433.4	2293.94
433.622	2296.94
433.844	2215.94
434.066	2132.94
434.287	2127.94
434.509	2211.94
434.731	2323.94
434.953	2503.94
435.175	2414.94
435.397	2288.94
435.618	2318.94
435.84	2281.94
436.062	2235.94
436.284	2212.94
436.505	2236.94
436.727	2296.94
436.949	2237.94
437.17	2180.94
437.392	2137.94
437.614	2132.94
437.835	2135.94
438.057	2271.94
438.278	2338.94
438.5	2172.94
438.721	2137.94
438.943	2146.94
439.165	2123.94
439.386	2088.94
439.608	2102.94
439.829	2142.94
440.05	2098.94
440.272	2108.94
440.493	2048.94
440.715	2130.94
440.936	2230.94
441.158	2537.94
441.379	2452.94
441.6	2364.94
441.822	2302.94
442.043	2301.94
442.264	2226.94
442.486	2112.94
442.707	2114.94
442.928	2105.94
443.149	2209.94
443.371	2344.94
443.592	2366.94
443.813	2382.94
444.034	2342.94
444.255	2375.94
444.476	2403.94
444.698	2458.94
444.919	2393.94
445.14	2498.94
445.361	2516.94
445.582	2608.94
445.803	2487.94
446.024	2340.94
446.245	2449.94
446.466	2349.94
446.687	2256.94
446.908	2227.94
447.129	2167.94
447.35	2187.94
447.571	2194.94
447.792	2142.94
448.013	2087.94
448.234	2159.94
448.455	2204.94
448.675	2230.94
448.896	2058.94
449.117	2044.94
449.338	2086.94
449.559	2176.94
449.779	2330.94
450	2462.94
450.221	2690.94
450.442	2621.94
450.662	2339.94
450.883	2071.94
451.104	1974.94
451.324	2048.94
451.545	2126.94
451.766	2091.94
451.986	1979.94
452.207	1999.94
452.428	1919.94
452.648	1878.94
452.869	1977.94
453.089	2106.94
453.31	2077.94
453.53	2157.94
453.751	2070.94
453.971	1922.94
454.192	2031.94
454.412	2160.94
454.633	2054.94
454.853	1994.94
455.073	1891.94
455.294	1889.94
455.514	1879.94
455.734	1864.94
455.955	1899.94
456.175	1955.94
456.395	1912.94
456.616	1955.94
456.836	2026.94
457.056	1999.94
457.276	1957.94
457.497	1914.94
457.717	1867.94
457.937	1922.94
458.157	1947.94
458.377	1917.94
458.598	1924.94
458.818	1929.94
459.038	2019.94
459.258	2183.94
459.478	2166.94
459.698	2174.94
459.918	2138.94
460.138	2252.94
460.358	2275.94
460.578	2268.94
460.798	2366.94
461.018	2569.94
461.238	2406.94
461.458	2302.94
461.678	2355.94
461.898	2308.94
462.118	2175.94
462.338	2315.94
462.558	2264.94
462.777	2304.94
462.997	2393.94
463.217	2586.94
463.437	2542.94
463.657	2392.94
463.876	2309.94
464.096	2312.94
464.316	2304.94
464.536	2450.94
464.755	2371.94
464.975	2410.94
465.195	2317.94
465.414	2463.94
465.634	2450.94
465.854	2257.94
466.073	2394.94
466.293	2365.94
466.512	2168.94
466.732	2086.94
466.951	2175.94
467.171	2148.94
467.391	2095.94
467.61	2016.94
467.829	2054.94
468.049	2235.94
468.268	2481.94
468.488	2351.94
468.707	2212.94
468.927	2147.94
469.146	2117.94
469.365	2032.94
469.585	2104.94
469.804	2064.94
470.023	2060.94
470.243	2151.94
470.462	2031.94
470.681	2033.94
470.901	2102.94
471.12	2086.94
471.339	2106.94
471.558	2026.94
471.777	2010.94
471.997	2033.94
472.216	2091.94
472.435	1987.94
472.654	2000.94
472.873	2125.94
473.092	2247.94
473.311	2108.94
473.53	2010.94
473.749	1947.94
473.968	2066.94
474.187	2180.94
474.406	2262.94
474.625	2163.94
474.844	2127.94
475.063	2173.94
475.282	2187.94
475.501	2115.94
475.72	2108.94
475.939	2224.94
476.158	2176.94
476.377	2138.94
476.596	2134.94
476.814	2208.94
477.033	2202.94
477.252	2327.94
477.471	2401.94
477.69	2230.94
477.908	2200.94
478.127	2338.94
478.346	2553.94
478.564	2578.94
478.783	2505.94
479.002	2571.94
479.22	2522.94
479.439	2586.94
479.658	2958.94
479.876	2930.94
480.095	2561.94
480.313	2440.94
480.532	2335.94
480.751	2370.94
480.969	2436.94
481.188	2414.94
481.406	2335.94
481.624	2304.94
481.843	2298.94
482.061	2368.94
482.28	2416.94
482.498	2466.94
482.717	2439.94
482.935	2387.94
483.153	2350.94
483.372	2328.94
483.59	2265.94
483.808	2406.94
484.027	2432.94
484.245	2539.94
484.463	2910.94
484.681	3367.94
484.9	2611.94
485.118	2463.94
485.336	2355.94
485.554	2475.94
485.772	2580.94
485.99	2522.94
486.209	2560.94
486.427	2560.94
486.645	2519.94
486.863	2481.94
487.081	2554.94
487.299	2632.94
487.517	2572.94
487.735	2410.94
487.953	2423.94
488.171	2404.94
488.389	2395.94
488.607	2408.94
488.825	2646.94
489.043	2768.94
489.261	2447.94
489.479	2578.94
489.696	2577.94
489.914	2591.94
490.132	2553.94
490.35	2463.94
490.568	2586.94
490.786	2472.94
491.003	2415.94
491.221	2427.94
491.439	2569.94
491.657	2487.94
491.874	2528.94
492.092	2547.94
492.31	2610.94
492.527	2504.94
492.745	2523.94
492.963	2518.94
493.18	2560.94
493.398	2726.94
493.615	2814.94
493.833	2592.94
494.05	2603.94
494.268	2535.94
494.485	2612.94
494.703	2568.94
494.92	2547.94
495.138	2496.94
495.355	2558.94
495.573	2642.94
495.79	2833.94
496.008	2898.94
496.225	2675.94
496.442	2661.94
496.66	2760.94
496.877	2678.94
497.094	2808.94
497.312	2849.94
497.529	2765.94
497.746	2894.94
497.963	3302.94
498.181	3795.94
498.398	3480.94
498.615	3398.94
498.832	3283.94
499.049	3307.94
499.267	3241.94
499.484	3500.94
499.701	3767.94
499.918	3812.94
500.135	4046.94
500.352	4371.94
500.569	4329.94
500.786	4617.94
501.003	4302.94
501.22	3850.94
501.437	3766.94
501.654	3801.94
501.871	3700.94
502.088	3214.94
502.305	3266.94
502.522	3109.94
502.739	2901.94
502.956	2846.94
503.172	2836.94
503.389	2758.94
503.606	2715.94
503.823	2689.94
504.04	2758.94
504.256	2681.94
504.473	2740.94
504.69	2855.94
504.907	2690.94
505.123	2505.94
505.34	2642.94
505.557	3418.94
505.773	2931.94
505.99	2468.94
506.207	2351.94
506.423	2281.94
506.64	2282.94
506.856	2296.94
507.073	2619.94
507.289	2856.94
507.506	2682.94
507.722	2365.94
507.939	2178.94
508.155	2238.94
508.372	2259.94
508.588	2200.94
508.805	2122.94
509.021	2130.94
509.238	2094.94
509.454	2048.94
509.67	2095.94
509.887	2050.94
510.103	2078.94
510.319	2088.94
510.536	2206.94
510.752	2276.94
510.968	2264.94
511.184	2377.94
511.401	2424.94
511.617	2071.94
511.833	2017.94
512.049	2020.94
512.265	2045.94
512.481	2016.94
512.698	2102.94
512.914	2241.94
513.13	2184.94
513.346	2083.94
513.562	1989.94
513.778	2055.94
513.994	2148.94
514.21	2253.94
514.426	2249.94
514.642	2495.94
514.858	2346.94
515.074	2126.94
515.29	2083.94
515.506	2127.94
515.721	2172.94
515.937	2158.94
516.153	2410.94
516.369	2373.94
516.585	2219.94
516.801	2141.94
517.016	2135.94
517.232	2227.94
517.448	2250.94
517.664	2248.94
517.879	2278.94
518.095	2426.94
518.311	2268.94
518.527	2171.94
518.742	2117.94
518.958	2070.94
519.173	2072.94
519.389	2059.94
519.605	2090.94
519.82	2116.94
520.036	2157.94
520.251	2084.94
520.467	2091.94
520.682	2275.94
520.898	2347.94
521.113	2084.94
521.329	2016.94
521.544	2205.94
521.76	2107.94
521.975	1970.94
522.19	1956.94
522.406	1941.94
522.621	2323.94
522.836	2411.94
523.052	1945.94
523.267	1948.94
523.482	1940.94
523.698	1891.94
523.913	1812.94
524.128	1889.94
524.343	2002.94
524.559	2050.94
524.774	1902.94
524.989	1882.94
525.204	1845.94
525.419	1862.94
525.634	1848.94
525.849	1862.94
526.064	1867.94
526.28	1868.94
526.495	1817.94
526.71	1800.94
526.925	1845.94
527.14	1819.94
527.355	1761.94
527.57	1742.94
527.785	1849.94
527.999	1803.94
528.214	1723.94
528.429	1738.94
528.644	1732.94
528.859	1808.94
529.074	1768.94
529.289	1788.94
529.503	1819.94
529.718	1819.94
529.933	1788.94
530.148	1708.94
530.363	1704.94
530.577	1705.94
530.792	1819.94
531.007	1803.94
531.221	1772.94
531.436	1784.94
531.651	1878.94
531.865	1950.94
532.08	1862.94
532.295	1749.94
532.509	1710.94
532.724	1750.94
532.938	1794.94
533.153	1932.94
533.367	1854.94
533.582	1774.94
533.796	1736.94
534.011	1752.94
534.225	1835.94
534.44	1748.94
534.654	1743.94
534.868	1699.94
535.083	1796.94
535.297	1797.94
535.511	1731.94
535.726	1736.94
535.94	1724.94
536.154	1712.94
536.369	1731.94
536.583	1693.94
536.797	1685.94
537.011	1756.94
537.225	1685.94
537.44	1631.94
537.654	1781.94
537.868	1717.94
538.082	1606.94
538.296	1570.94
538.51	1595.94
538.724	1623.94
538.938	1558.94
539.153	1633.94
539.367	1642.94
539.581	1642.94
539.795	1760.94
540.009	1698.94
540.222	1693.94
540.436	1687.94
540.65	1852.94
540.864	1890.94
541.078	1756.94
541.292	1610.94
541.506	1642.94
541.72	1692.94
541.934	1652.94
542.147	1705.94
542.361	1625.94
542.575	1610.94
542.789	1600.94
543.002	1542.94
543.216	1598.94
543.43	1721.94
543.644	1755.94
543.857	1788.94
544.071	1756.94
544.285	1657.94
544.498	1646.94
544.712	1668.94
544.925	1643.94
545.139	1678.94
545.352	1642.94
545.566	1560.94
545.779	1579.94
545.993	1616.94
546.206	1614.94
546.42	1562.94
546.633	1545.94
546.847	1545.94
547.06	1548.94
547.274	1580.94
547.487	1546.94
547.7	1540.94
547.914	1573.94
548.127	1623.94
548.34	1607.94
548.554	1589.94
548.767	1569.94
548.98	1564.94
549.193	1552.94
549.407	1626.94
549.62	1649.94
549.833	1548.94
550.046	1507.94
550.259	1524.94
550.473	1541.94
550.686	1562.94
550.899	1497.94
551.112	1505.94
551.325	1431.94
551.538	1556.94
551.751	1828.94
551.964	1500.94
552.177	1484.94
552.39	1510.94
552.603	1550.94
552.816	1530.94
553.029	1620.94
553.242	1662.94
553.455	1534.94
553.667	1493.94
553.88	1570.94
554.093	1541.94
554.306	1469.94
554.519	1447.94
554.732	1436.94
554.944	1450.94
555.157	1503.94
555.37	1460.94
555.583	1442.94
555.795	1406.94
556.008	1367.94
556.221	1374.94
556.433	1393.94
556.646	1350.94
556.859	1335.94
557.071	1331.94
557.284	1347.94
557.496	1300.94
557.709	1288.94
557.921	1254.94
558.134	1299.94
558.346	1318.94
558.559	1296.94
558.771	1305.94
558.984	1246.94
559.196	1235.94
559.409	1279.94
559.621	1298.94
559.833	1249.94
560.046	1306.94
560.258	1306.94
560.47	1267.94
560.683	1227.94
560.895	1291.94
561.107	1275.94
561.32	1289.94
561.532	1273.94
561.744	1250.94
561.956	1282.94
562.168	1252.94
562.381	1185.94
562.593	1200.94
562.805	1241.94
563.017	1209.94
563.229	1250.94
563.441	1290.94
563.653	1258.94
563.865	1286.94
564.077	1247.94
564.289	1239.94
564.501	1273.94
564.713	1258.94
564.925	1303.94
565.137	1443.94
565.349	1321.94
565.561	1315.94
565.773	1282.94
565.985	1358.94
566.197	1428.94
566.408	1494.94
566.62	1538.94
566.832	1497.94
567.044	1514.94
567.255	1452.94
567.467	1490.94
567.679	1616.94
567.891	1599.94
568.102	1574.94
568.314	1463.94
568.526	1434.94
568.737	1385.94
568.949	1315.94
569.161	1268.94
569.372	1240.94
569.584	1205.94
569.795	1238.94
570.007	1185.94
570.218	1170.94
570.43	1110.94
570.641	1176.94
570.853	1143.94
571.064	1123.94
571.276	1123.94
571.487	1104.94
571.698	1049.94
571.91	1064.94
572.121	1023.94
572.333	1051.94
572.544	1042.94
572.755	983.94
572.966	1011.94
573.178	1008.94
573.389	994.94
573.6	1035.94
573.811	1136.94
574.023	1047.94
574.234	998.94
574.445	963.94
574.656	961.94
574.867	932.94
575.078	986.94
575.289	946.94
575.501	968.94
575.712	920.94
575.923	940.94
576.134	959.94
576.345	940.94
576.556	926.94
576.767	894.94
576.978	902.94
577.188	916.94
577.399	884.94
577.61	887.94
577.821	906.94
578.032	848.94
578.243	866.94
578.454	852.94
578.665	864.94
578.875	858.94
579.086	840.94
579.297	856.94
579.508	882.94
579.718	873.94
579.929	842.94
580.14	810.94
580.35	826.94
580.561	846.94
580.772	934.94
580.982	861.94
581.193	838.94
581.403	824.94
581.614	821.94
581.825	825.94
582.035	803.94
582.246	838.94
582.456	855.94
582.667	828.94
582.877	798.94
583.087	799.94
583.298	781.94
583.508	788.94
583.719	786.94
583.929	822.94
584.139	818.94
584.35	796.94
584.56	776.94
584.77	822.94
584.981	796.94
585.191	795.94
585.401	825.94
585.611	811.94
585.821	783.94
586.032	754.94
586.242	768.94
586.452	761.94
586.662	786.94
586.872	764.94
587.082	746.94
587.292	801.94
587.502	799.94
587.713	800.94
587.923	780.94
588.133	774.94
588.343	790.94
588.553	779.94
588.762	771.94
588.972	743.94
589.182	789.94
589.392	770.94
589.602	759.94
589.812	775.94
590.022	755.94
590.232	730.94
590.441	783.94
590.651	754.94
590.861	735.94
591.071	752.94
591.281	737.94
591.49	736.94
591.7	747.94
591.91	752.94
592.119	752.94
592.329	766.94
592.539	790.94
592.748	771.94
592.958	786.94
593.167	797.94
593.377	784.94
593.587	813.94
593.796	789.94
594.006	808.94
594.215	790.94
594.424	803.94
594.634	787.94
594.843	783.94
595.053	784.94
595.262	768.94
595.472	744.94
595.681	779.94
595.89	752.94
596.1	713.94
596.309	720.94
596.518	723.94
596.727	707.94
596.937	701.94
597.146	671.94
597.355	673.94
597.564	689.94
597.774	678.94
597.983	648.94
598.192	644.94
598.401	651.94
598.61	636.94
598.819	652.94
599.028	651.94
599.237	630.94
599.446	628.94
599.655	616.94
599.864	632.94
600.073	607.94
600.282	633.94
600.491	613.94
600.7	612.94
600.909	602.94
601.118	592.94
601.327	626.94
601.536	635.94
601.745	615.94
601.953	617.94
602.162	606.94
602.371	620.94
602.58	592.94
602.789	605.94
602.997	610.94
603.206	596.94
603.415	619.94
603.623	607.94
603.832	587.94
604.041	577.94
604.249	577.94
604.458	596.94
604.666	600.94
604.875	575.94
605.084	615.94
605.292	608.94
605.501	578.94
605.709	578.94
605.918	574.94
606.126	553.94
606.334	575.94
606.543	544.94
606.751	556.94
606.96	579.94
607.168	588.94
607.376	573.94
607.585	562.94
607.793	564.94
608.001	570.94
608.21	571.94
608.418	548.94
608.626	565.94
608.834	574.94
609.043	556.94
609.251	546.94
609.459	552.94
609.667	569.94
609.875	551.94
610.083	585.94
610.291	601.94
610.499	578.94
610.707	555.94
610.916	540.94
611.124	550.94
611.332	533.94
611.54	538.94
611.748	534.94
611.955	529.94
612.163	528.94
612.371	561.94
612.579	530.94
612.787	530.94
612.995	548.94
613.203	555.94
613.411	540.94
613.618	545.94
613.826	536.94
614.034	528.94
614.242	522.94
614.449	531.94
614.657	555.94
614.865	518.94
615.072	514.94
615.28	539.94
615.488	536.94
615.695	561.94
615.903	527.94
616.111	529.94
616.318	544.94
616.526	528.94
616.733	530.94
616.941	508.94
617.148	521.94
617.356	519.94
617.563	510.94
617.771	485.94
617.978	512.94
618.185	516.94
618.393	507.94
618.6	508.94
618.807	512.94
619.015	518.94
619.222	509.94
619.429	490.94
619.637	486.94
619.844	485.94
620.051	491.94
620.258	482.94
620.466	471.94
620.673	472.94
620.88	475.94
621.087	464.94
621.294	466.94
621.501	471.94
621.708	452.94
621.915	451.94
622.122	465.94
622.329	493.94
622.536	460.94
622.743	450.94
622.95	460.94
623.157	464.94
623.364	449.94
623.571	452.94
623.778	470.94
623.985	457.94
624.192	455.94
624.399	468.94
624.606	437.94
624.812	446.94
625.019	441.94
625.226	450.94
625.433	450.94
625.639	447.94
625.846	418.94
626.053	418.94
626.259	439.94
626.466	416.94
626.673	424.94
626.879	402.94
627.086	439.94
627.293	421.94
627.499	405.94
627.706	417.94
627.912	422.94
628.119	428.94
628.325	421.94
628.532	424.94
628.738	434.94
628.945	420.94
629.151	410.94
629.357	396.94
629.564	400.94
629.77	418.94
629.976	386.94
630.183	387.94
630.389	415.94
630.595	410.94
630.802	401.94
631.008	412.94
631.214	412.94
631.42	394.94
631.627	384.94
631.833	396.94
632.039	390.94
632.245	398.94
632.451	384.94
632.657	359.94
632.863	376.94
633.069	394.94
633.275	378.94
633.481	371.94
633.688	370.94
633.893	368.94
634.099	366.94
634.305	352.94
634.511	376.94
634.717	367.94
634.923	342.94
635.129	351.94
635.335	358.94
635.541	366.94
635.747	362.94
635.952	366.94
636.158	375.94
636.364	383.94
636.57	358.94
636.775	354.94
636.981	351.94
637.187	356.94
637.392	363.94
637.598	354.94
637.804	359.94
638.009	368.94
638.215	342.94
638.421	356.94
638.626	358.94
638.832	332.94
639.037	328.94
639.243	338.94
639.448	361.94
639.654	342.94
639.859	332.94
640.065	347.94
640.27	342.94
640.475	331.94
640.681	336.94
640.886	322.94
641.091	326.94
641.297	331.94
641.502	329.94
641.707	342.94
641.913	338.94
642.118	318.94
642.323	326.94
642.528	320.94
642.733	327.94
642.939	318.94
643.144	336.94
643.349	332.94
643.554	335.94
643.759	345.94
643.964	294.94
644.169	334.94
644.374	331.94
644.579	304.94
644.784	315.94
644.989	329.94
645.194	316.94
645.399	310.94
645.604	318.94
645.809	322.94
646.014	345.94
646.219	322.94
646.423	328.94
646.628	322.94
646.833	318.94
647.038	289.94
647.243	322.94
647.447	316.94
647.652	342.94
647.857	331.94
648.062	320.94
648.266	333.94
648.471	325.94
648.676	318.94
648.88	326.94
649.085	320.94
649.289	325.94
649.494	311.94
649.698	317.94
649.903	331.94
650.107	298.94
650.312	310.94
650.516	310.94
650.721	290.94
650.925	282.94
651.13	275.94
651.334	282.94
651.539	280.94
651.743	284.94
651.947	281.94
652.152	269.94
652.356	263.94
652.56	279.94
652.764	266.94
652.969	256.94
653.173	267.94
653.377	259.94
653.581	259.94
653.785	251.94
653.99	264.94
654.194	265.94
654.398	227.94
654.602	258.94
654.806	244.94
655.01	245.94
655.214	239.94
655.418	226.94
655.622	239.94
655.826	233.94
656.03	253.94
656.234	245.94
656.438	275.94
656.642	270.94
656.846	269.94
657.049	249.94
657.253	218.94
657.457	208.94
657.661	194.94
657.865	197.94
658.068	180.94
658.272	168.94
658.476	167.94
658.68	164.94
658.883	150.94
659.087	165.94
659.291	134.94
659.494	143.94
659.698	141.94
659.901	120.94
660.105	137.94
660.309	142.94
660.512	114.94
660.716	131.94
660.919	107.94
661.123	102.94
661.326	104.94
661.53	101.94
661.733	110.94
661.936	102.94
662.14	85.94
662.343	97.94
662.546	96.94
662.75	76.94
662.953	84.94
663.156	93.94
663.36	112.94
663.563	83.94
663.766	93.94
663.969	95.94
664.173	89.94
664.376	86.94
664.579	82.94
664.782	85.94
664.985	91.94
665.188	94.94
665.391	81.94
665.594	77.94
665.797	89.94
666	75.94
666.203	76.94
666.406	85.94
666.609	94.94
666.812	78.94
667.015	73.94
667.218	101.94
667.421	83.94
667.624	87.94
667.827	88.94
668.03	76.94
668.232	73.94
668.435	75.94
668.638	85.94
668.841	80.94
669.043	75.94
669.246	84.94
669.449	84.94
669.651	97.94
669.854	72.94
670.057	74.94
670.259	76.94
670.462	80.94
670.665	59.94
670.867	92.94
671.07	68.94
671.272	61.94
671.475	86.94
671.677	80.94
671.88	73.94
672.082	86.94
672.284	82.94
672.487	83.94
672.689	79.94
672.892	103.94
