Data from WStandard_LampEnergy10_LIBS07252019.E.O._I.C._HRD10591_15-53-03-928.txt Node
Date: Thu Jul 25 15:53:03 EDT 2019
User: cochatt
Spectrometer: HR+D1059
Trigger mode: 1
Integration Time (sec): 1.000000E-1
Scans to average: 1
Electric dark correction enabled: true
Nonlinearity correction enabled: false
Boxcar width: 0
XAxis mode: Wavelengths
Number of Pixels in Spectrum: 2048
>>>>>Begin Spectral Data<<<<<
223.165	-11.25
223.4	-11.25
223.635	-11.25
223.869	-32.25
224.104	-23.25
224.338	-11.25
224.573	-4.25
224.808	-4.25
225.042	-4.25
225.277	-10.25
225.511	-4.25
225.746	10.75
225.98	12.75
226.215	4.75
226.449	13.75
226.683	16.75
226.918	21.75
227.152	24.75
227.387	38.75
227.621	43.75
227.856	43.75
228.09	54.75
228.324	41.75
228.559	44.75
228.793	76.75
229.027	140.75
229.262	153.75
229.496	156.75
229.73	148.75
229.964	163.75
230.199	165.75
230.433	164.75
230.667	189.75
230.901	186.75
231.136	170.75
231.37	163.75
231.604	161.75
231.838	183.75
232.072	181.75
232.306	181.75
232.541	186.75
232.775	198.75
233.009	225.75
233.243	213.75
233.477	181.75
233.711	198.75
233.945	209.75
234.179	194.75
234.413	197.75
234.647	211.75
234.881	196.75
235.115	179.75
235.349	203.75
235.583	199.75
235.817	207.75
236.051	189.75
236.285	207.75
236.519	209.75
236.753	216.75
236.987	221.75
237.221	234.75
237.455	231.75
237.689	233.75
237.922	229.75
238.156	226.75
238.39	212.75
238.624	218.75
238.858	238.75
239.091	252.75
239.325	268.75
239.559	286.75
239.793	287.75
240.027	297.75
240.26	297.75
240.494	220.75
240.728	247.75
240.961	230.75
241.195	247.75
241.429	240.75
241.662	254.75
241.896	233.75
242.13	236.75
242.363	263.75
242.597	286.75
242.83	264.75
243.064	266.75
243.298	277.75
243.531	302.75
243.765	285.75
243.998	266.75
244.232	265.75
244.465	235.75
244.699	257.75
244.932	275.75
245.166	302.75
245.399	272.75
245.633	286.75
245.866	274.75
246.099	283.75
246.333	306.75
246.566	320.75
246.8	319.75
247.033	351.75
247.266	320.75
247.5	305.75
247.733	324.75
247.966	325.75
248.2	348.75
248.433	349.75
248.666	358.75
248.899	379.75
249.133	424.75
249.366	466.75
249.599	401.75
249.832	363.75
250.066	371.75
250.299	368.75
250.532	356.75
250.765	307.75
250.998	339.75
251.231	347.75
251.465	362.75
251.698	337.75
251.931	345.75
252.164	375.75
252.397	353.75
252.63	366.75
252.863	327.75
253.096	315.75
253.329	351.75
253.562	342.75
253.795	355.75
254.028	356.75
254.261	333.75
254.494	335.75
254.727	338.75
254.96	336.75
255.193	384.75
255.426	420.75
255.659	458.75
255.892	440.75
256.124	394.75
256.357	384.75
256.59	392.75
256.823	393.75
257.056	415.75
257.289	452.75
257.521	496.75
257.754	468.75
257.987	457.75
258.22	474.75
258.452	467.75
258.685	392.75
258.918	382.75
259.151	402.75
259.383	384.75
259.616	345.75
259.849	370.75
260.081	413.75
260.314	442.75
260.547	452.75
260.779	463.75
261.012	433.75
261.244	409.75
261.477	391.75
261.71	399.75
261.942	401.75
262.175	403.75
262.407	416.75
262.64	401.75
262.872	366.75
263.105	357.75
263.337	374.75
263.57	386.75
263.802	375.75
264.035	350.75
264.267	344.75
264.499	343.75
264.732	370.75
264.964	361.75
265.197	387.75
265.429	412.75
265.661	446.75
265.894	480.75
266.126	519.75
266.358	459.75
266.591	470.75
266.823	508.75
267.055	455.75
267.287	472.75
267.52	435.75
267.752	444.75
267.984	441.75
268.216	465.75
268.448	470.75
268.681	442.75
268.913	455.75
269.145	419.75
269.377	398.75
269.609	431.75
269.841	518.75
270.073	572.75
270.306	598.75
270.538	630.75
270.77	565.75
271.002	480.75
271.234	468.75
271.466	480.75
271.698	553.75
271.93	585.75
272.162	586.75
272.394	562.75
272.626	531.75
272.858	477.75
273.09	404.75
273.322	418.75
273.553	390.75
273.785	392.75
274.017	409.75
274.249	424.75
274.481	424.75
274.713	409.75
274.945	419.75
275.176	416.75
275.408	420.75
275.64	411.75
275.872	394.75
276.104	420.75
276.335	494.75
276.567	551.75
276.799	539.75
277.031	467.75
277.262	454.75
277.494	498.75
277.726	518.75
277.957	509.75
278.189	486.75
278.421	434.75
278.652	440.75
278.884	431.75
279.115	447.75
279.347	438.75
279.579	432.75
279.81	444.75
280.042	483.75
280.273	517.75
280.505	501.75
280.736	491.75
280.968	475.75
281.199	434.75
281.431	404.75
281.662	430.75
281.894	405.75
282.125	426.75
282.356	437.75
282.588	440.75
282.819	440.75
283.051	477.75
283.282	502.75
283.513	512.75
283.745	445.75
283.976	432.75
284.207	445.75
284.439	440.75
284.67	438.75
284.901	469.75
285.132	450.75
285.364	457.75
285.595	475.75
285.826	459.75
286.057	443.75
286.288	456.75
286.52	467.75
286.751	491.75
286.982	485.75
287.213	455.75
287.444	437.75
287.675	449.75
287.906	460.75
288.138	503.75
288.369	480.75
288.6	427.75
288.831	428.75
289.062	447.75
289.293	462.75
289.524	440.75
289.755	460.75
289.986	471.75
290.217	424.75
290.448	455.75
290.679	463.75
290.91	476.75
291.141	483.75
291.371	481.75
291.602	464.75
291.833	461.75
292.064	474.75
292.295	479.75
292.526	505.75
292.757	496.75
292.987	488.75
293.218	483.75
293.449	510.75
293.68	575.75
293.91	588.75
294.141	566.75
294.372	558.75
294.603	548.75
294.833	558.75
295.064	529.75
295.295	484.75
295.525	476.75
295.756	440.75
295.987	437.75
296.217	446.75
296.448	455.75
296.679	452.75
296.909	452.75
297.14	432.75
297.37	489.75
297.601	520.75
297.831	530.75
298.062	520.75
298.292	502.75
298.523	467.75
298.753	456.75
298.984	475.75
299.214	479.75
299.445	491.75
299.675	504.75
299.905	514.75
300.136	480.75
300.366	476.75
300.597	483.75
300.827	469.75
301.057	483.75
301.288	516.75
301.518	515.75
301.748	541.75
301.979	545.75
302.209	555.75
302.439	587.75
302.669	587.75
302.9	564.75
303.13	515.75
303.36	502.75
303.59	520.75
303.82	527.75
304.051	494.75
304.281	510.75
304.511	537.75
304.741	554.75
304.971	611.75
305.201	623.75
305.431	571.75
305.661	494.75
305.891	445.75
306.121	438.75
306.352	476.75
306.582	508.75
306.812	529.75
307.042	575.75
307.272	569.75
307.502	588.75
307.731	617.75
307.961	639.75
308.191	590.75
308.421	547.75
308.651	488.75
308.881	483.75
309.111	488.75
309.341	472.75
309.571	484.75
309.8	511.75
310.03	497.75
310.26	458.75
310.49	508.75
310.72	524.75
310.949	525.75
311.179	529.75
311.409	500.75
311.639	530.75
311.868	510.75
312.098	502.75
312.328	494.75
312.557	486.75
312.787	513.75
313.017	530.75
313.246	522.75
313.476	519.75
313.706	551.75
313.935	545.75
314.165	542.75
314.394	565.75
314.624	564.75
314.853	618.75
315.083	627.75
315.312	622.75
315.542	580.75
315.771	555.75
316.001	563.75
316.23	566.75
316.46	567.75
316.689	543.75
316.919	518.75
317.148	534.75
317.377	552.75
317.607	581.75
317.836	623.75
318.065	622.75
318.295	602.75
318.524	574.75
318.753	580.75
318.983	552.75
319.212	563.75
319.441	548.75
319.67	553.75
319.9	566.75
320.129	608.75
320.358	603.75
320.587	614.75
320.816	632.75
321.046	599.75
321.275	597.75
321.504	593.75
321.733	633.75
321.962	591.75
322.191	572.75
322.42	544.75
322.649	548.75
322.878	539.75
323.108	535.75
323.337	586.75
323.566	573.75
323.795	570.75
324.024	566.75
324.253	545.75
324.482	533.75
324.71	498.75
324.939	538.75
325.168	532.75
325.397	564.75
325.626	574.75
325.855	559.75
326.084	576.75
326.313	551.75
326.542	578.75
326.77	614.75
326.999	589.75
327.228	557.75
327.457	538.75
327.686	532.75
327.914	565.75
328.143	557.75
328.372	579.75
328.6	565.75
328.829	538.75
329.058	552.75
329.287	551.75
329.515	569.75
329.744	597.75
329.972	630.75
330.201	634.75
330.43	598.75
330.658	596.75
330.887	576.75
331.115	584.75
331.344	616.75
331.572	577.75
331.801	568.75
332.03	582.75
332.258	576.75
332.486	600.75
332.715	583.75
332.943	592.75
333.172	579.75
333.4	611.75
333.629	638.75
333.857	640.75
334.085	724.75
334.314	811.75
334.542	822.75
334.771	745.75
334.999	686.75
335.227	645.75
335.455	622.75
335.684	610.75
335.912	644.75
336.14	633.75
336.369	619.75
336.597	584.75
336.825	596.75
337.053	622.75
337.281	663.75
337.51	686.75
337.738	699.75
337.966	651.75
338.194	605.75
338.422	601.75
338.65	590.75
338.878	583.75
339.106	559.75
339.334	565.75
339.562	560.75
339.79	577.75
340.018	608.75
340.246	625.75
340.474	633.75
340.702	609.75
340.93	611.75
341.158	633.75
341.386	587.75
341.614	614.75
341.842	571.75
342.07	583.75
342.298	593.75
342.526	587.75
342.754	569.75
342.981	596.75
343.209	592.75
343.437	593.75
343.665	583.75
343.893	620.75
344.12	627.75
344.348	635.75
344.576	597.75
344.804	601.75
345.031	591.75
345.259	552.75
345.487	567.75
345.714	548.75
345.942	556.75
346.17	561.75
346.397	554.75
346.625	574.75
346.853	553.75
347.08	533.75
347.308	551.75
347.535	575.75
347.763	576.75
347.99	546.75
348.218	551.75
348.445	531.75
348.673	535.75
348.9	556.75
349.128	603.75
349.355	619.75
349.583	589.75
349.81	552.75
350.037	522.75
350.265	536.75
350.492	544.75
350.72	553.75
350.947	568.75
351.174	566.75
351.402	530.75
351.629	542.75
351.856	526.75
352.083	523.75
352.311	522.75
352.538	555.75
352.765	557.75
352.992	561.75
353.22	568.75
353.447	553.75
353.674	575.75
353.901	578.75
354.128	551.75
354.355	563.75
354.583	589.75
354.81	590.75
355.037	587.75
355.264	592.75
355.491	601.75
355.718	548.75
355.945	515.75
356.172	552.75
356.399	560.75
356.626	536.75
356.853	597.75
357.08	614.75
357.307	698.75
357.534	648.75
357.761	595.75
357.988	550.75
358.215	546.75
358.441	540.75
358.668	548.75
358.895	547.75
359.122	583.75
359.349	631.75
359.576	609.75
359.802	552.75
360.029	542.75
360.256	542.75
360.483	573.75
360.709	597.75
360.936	586.75
361.163	636.75
361.39	680.75
361.616	704.75
361.843	696.75
362.07	649.75
362.296	555.75
362.523	578.75
362.749	571.75
362.976	599.75
363.203	602.75
363.429	546.75
363.656	566.75
363.882	609.75
364.109	642.75
364.335	647.75
364.562	616.75
364.788	607.75
365.015	580.75
365.241	556.75
365.468	592.75
365.694	618.75
365.92	586.75
366.147	570.75
366.373	566.75
366.599	554.75
366.826	564.75
367.052	587.75
367.278	570.75
367.505	580.75
367.731	595.75
367.957	620.75
368.184	633.75
368.41	626.75
368.636	647.75
368.862	658.75
369.089	645.75
369.315	655.75
369.541	628.75
369.767	593.75
369.993	563.75
370.219	586.75
370.445	608.75
370.672	645.75
370.898	671.75
371.124	663.75
371.35	633.75
371.576	664.75
371.802	653.75
372.028	635.75
372.254	606.75
372.48	599.75
372.706	570.75
372.932	603.75
373.158	607.75
373.384	620.75
373.61	630.75
373.835	659.75
374.061	649.75
374.287	618.75
374.513	640.75
374.739	635.75
374.965	635.75
375.191	632.75
375.416	647.75
375.642	643.75
375.868	696.75
376.094	694.75
376.319	668.75
376.545	652.75
376.771	683.75
376.997	700.75
377.222	672.75
377.448	674.75
377.674	654.75
377.899	710.75
378.125	717.75
378.35	673.75
378.576	614.75
378.802	623.75
379.027	622.75
379.253	622.75
379.478	641.75
379.704	642.75
379.929	636.75
380.155	645.75
380.38	654.75
380.606	662.75
380.831	671.75
381.057	676.75
381.282	690.75
381.507	707.75
381.733	750.75
381.958	736.75
382.184	681.75
382.409	652.75
382.634	675.75
382.86	678.75
383.085	686.75
383.31	711.75
383.535	773.75
383.761	779.75
383.986	746.75
384.211	729.75
384.436	749.75
384.662	763.75
384.887	785.75
385.112	721.75
385.337	708.75
385.562	719.75
385.787	740.75
386.013	763.75
386.238	772.75
386.463	768.75
386.688	829.75
386.913	866.75
387.138	835.75
387.363	772.75
387.588	804.75
387.813	786.75
388.038	792.75
388.263	811.75
388.488	745.75
388.713	691.75
388.938	747.75
389.163	717.75
389.387	707.75
389.612	738.75
389.837	778.75
390.062	751.75
390.287	760.75
390.512	740.75
390.736	752.75
390.961	715.75
391.186	720.75
391.411	726.75
391.636	765.75
391.86	746.75
392.085	747.75
392.31	731.75
392.534	758.75
392.759	752.75
392.984	753.75
393.208	760.75
393.433	800.75
393.658	818.75
393.882	814.75
394.107	764.75
394.331	747.75
394.556	796.75
394.78	792.75
395.005	820.75
395.229	835.75
395.454	879.75
395.678	863.75
395.903	825.75
396.127	793.75
396.352	835.75
396.576	859.75
396.801	858.75
397.025	847.75
397.249	863.75
397.474	836.75
397.698	788.75
397.922	865.75
398.147	886.75
398.371	929.75
398.595	894.75
398.82	881.75
399.044	886.75
399.268	923.75
399.492	978.75
399.717	958.75
399.941	968.75
400.165	987.75
400.389	949.75
400.613	969.75
400.837	1079.75
401.062	1213.75
401.286	1032.75
401.51	985.75
401.734	978.75
401.958	931.75
402.182	882.75
402.406	880.75
402.63	889.75
402.854	903.75
403.078	888.75
403.302	886.75
403.526	916.75
403.75	883.75
403.974	950.75
404.198	932.75
404.422	971.75
404.645	997.75
404.869	968.75
405.093	875.75
405.317	879.75
405.541	906.75
405.765	924.75
405.988	952.75
406.212	960.75
406.436	971.75
406.66	1003.75
406.883	1027.75
407.107	1135.75
407.331	1204.75
407.555	1278.75
407.778	1118.75
408.002	980.75
408.226	971.75
408.449	969.75
408.673	932.75
408.896	969.75
409.12	927.75
409.344	946.75
409.567	934.75
409.791	935.75
410.014	967.75
410.238	983.75
410.461	1049.75
410.685	948.75
410.908	937.75
411.132	991.75
411.355	920.75
411.578	904.75
411.802	943.75
412.025	947.75
412.249	938.75
412.472	901.75
412.695	922.75
412.919	905.75
413.142	896.75
413.365	910.75
413.589	968.75
413.812	1026.75
414.035	1022.75
414.258	943.75
414.482	928.75
414.705	941.75
414.928	926.75
415.151	935.75
415.374	919.75
415.597	908.75
415.821	897.75
416.044	954.75
416.267	966.75
416.49	913.75
416.713	924.75
416.936	950.75
417.159	974.75
417.382	946.75
417.605	948.75
417.828	934.75
418.051	965.75
418.274	932.75
418.497	912.75
418.72	902.75
418.943	932.75
419.166	934.75
419.389	1011.75
419.611	946.75
419.834	939.75
420.057	932.75
420.28	952.75
420.503	940.75
420.726	956.75
420.948	933.75
421.171	914.75
421.394	929.75
421.617	978.75
421.839	990.75
422.062	965.75
422.285	939.75
422.507	929.75
422.73	916.75
422.953	904.75
423.175	912.75
423.398	893.75
423.621	930.75
423.843	957.75
424.066	953.75
424.288	1023.75
424.511	1066.75
424.733	981.75
424.956	933.75
425.178	930.75
425.401	954.75
425.623	943.75
425.846	938.75
426.068	966.75
426.291	974.75
426.513	993.75
426.735	974.75
426.958	1081.75
427.18	1063.75
427.402	1009.75
427.625	1022.75
427.847	1001.75
428.069	918.75
428.292	933.75
428.514	875.75
428.736	919.75
428.958	895.75
429.181	948.75
429.403	1079.75
429.625	1239.75
429.847	1046.75
430.069	955.75
430.292	1040.75
430.514	1023.75
430.736	989.75
430.958	993.75
431.18	933.75
431.402	867.75
431.624	826.75
431.846	790.75
432.068	733.75
432.29	750.75
432.512	811.75
432.734	878.75
432.956	931.75
433.178	990.75
433.4	978.75
433.622	939.75
433.844	905.75
434.066	839.75
434.287	799.75
434.509	783.75
434.731	838.75
434.953	934.75
435.175	936.75
435.397	917.75
435.618	906.75
435.84	816.75
436.062	840.75
436.284	892.75
436.505	909.75
436.727	961.75
436.949	928.75
437.17	888.75
437.392	873.75
437.614	838.75
437.835	811.75
438.057	804.75
438.278	829.75
438.5	875.75
438.721	923.75
438.943	914.75
439.165	918.75
439.386	950.75
439.608	960.75
439.829	946.75
440.05	951.75
440.272	965.75
440.493	964.75
440.715	968.75
440.936	997.75
441.158	1057.75
441.379	1030.75
441.6	1031.75
441.822	1012.75
442.043	990.75
442.264	1014.75
442.486	966.75
442.707	952.75
442.928	951.75
443.149	962.75
443.371	991.75
443.592	1039.75
443.813	1026.75
444.034	1014.75
444.255	988.75
444.476	1044.75
444.698	1011.75
444.919	1044.75
445.14	1148.75
445.361	1125.75
445.582	1082.75
445.803	1056.75
446.024	1078.75
446.245	1090.75
446.466	1052.75
446.687	1042.75
446.908	1084.75
447.129	1016.75
447.35	1028.75
447.571	993.75
447.792	960.75
448.013	962.75
448.234	950.75
448.455	983.75
448.675	987.75
448.896	927.75
449.117	934.75
449.338	954.75
449.559	960.75
449.779	978.75
450	1024.75
450.221	1042.75
450.442	1040.75
450.662	965.75
450.883	887.75
451.104	857.75
451.324	874.75
451.545	896.75
451.766	870.75
451.986	860.75
452.207	824.75
452.428	793.75
452.648	771.75
452.869	770.75
453.089	793.75
453.31	778.75
453.53	772.75
453.751	739.75
453.971	709.75
454.192	708.75
454.412	792.75
454.633	784.75
454.853	764.75
455.073	750.75
455.294	764.75
455.514	786.75
455.734	747.75
455.955	741.75
456.175	765.75
456.395	746.75
456.616	744.75
456.836	744.75
457.056	724.75
457.276	732.75
457.497	707.75
457.717	671.75
457.937	692.75
458.157	716.75
458.377	696.75
458.598	683.75
458.818	672.75
459.038	674.75
459.258	717.75
459.478	715.75
459.698	699.75
459.918	732.75
460.138	791.75
460.358	827.75
460.578	820.75
460.798	849.75
461.018	912.75
461.238	860.75
461.458	852.75
461.678	857.75
461.898	797.75
462.118	829.75
462.338	817.75
462.558	839.75
462.777	856.75
462.997	868.75
463.217	884.75
463.437	846.75
463.657	826.75
463.876	823.75
464.096	816.75
464.316	842.75
464.536	862.75
464.755	860.75
464.975	875.75
465.195	866.75
465.414	879.75
465.634	874.75
465.854	884.75
466.073	976.75
466.293	918.75
466.512	868.75
466.732	892.75
466.951	884.75
467.171	908.75
467.391	879.75
467.61	876.75
467.829	914.75
468.049	987.75
468.268	1038.75
468.488	974.75
468.707	922.75
468.927	920.75
469.146	906.75
469.365	920.75
469.585	940.75
469.804	916.75
470.023	924.75
470.243	947.75
470.462	940.75
470.681	923.75
470.901	919.75
471.12	955.75
471.339	928.75
471.558	918.75
471.777	904.75
471.997	897.75
472.216	848.75
472.435	772.75
472.654	756.75
472.873	776.75
473.092	844.75
473.311	853.75
473.53	817.75
473.749	840.75
473.968	842.75
474.187	858.75
474.406	850.75
474.625	855.75
474.844	899.75
475.063	884.75
475.282	886.75
475.501	809.75
475.72	865.75
475.939	922.75
476.158	894.75
476.377	859.75
476.596	851.75
476.814	826.75
477.033	796.75
477.252	838.75
477.471	923.75
477.69	916.75
477.908	947.75
478.127	975.75
478.346	997.75
478.564	994.75
478.783	988.75
479.002	1026.75
479.22	1009.75
479.439	1028.75
479.658	1041.75
479.876	979.75
480.095	900.75
480.313	874.75
480.532	868.75
480.751	872.75
480.969	849.75
481.188	759.75
481.406	774.75
481.624	747.75
481.843	800.75
482.061	810.75
482.28	888.75
482.498	883.75
482.717	836.75
482.935	916.75
483.153	963.75
483.372	1032.75
483.59	1031.75
483.808	977.75
484.027	968.75
484.245	990.75
484.463	1237.75
484.681	1328.75
484.9	1026.75
485.118	972.75
485.336	931.75
485.554	909.75
485.772	889.75
485.99	873.75
486.209	920.75
486.427	921.75
486.645	942.75
486.863	1025.75
487.081	1043.75
487.299	1024.75
487.517	1026.75
487.735	1103.75
487.953	1232.75
488.171	1193.75
488.389	1130.75
488.607	1124.75
488.825	1155.75
489.043	1076.75
489.261	995.75
489.479	1032.75
489.696	1075.75
489.914	1050.75
490.132	1041.75
490.35	1095.75
490.568	1190.75
490.786	1179.75
491.003	1226.75
491.221	1270.75
491.439	1302.75
491.657	1344.75
491.874	1392.75
492.092	1476.75
492.31	1510.75
492.527	1467.75
492.745	1371.75
492.963	1292.75
493.18	1336.75
493.398	1344.75
493.615	1342.75
493.833	1304.75
494.05	1234.75
494.268	1254.75
494.485	1243.75
494.703	1242.75
494.92	1228.75
495.138	1233.75
495.355	1232.75
495.573	1267.75
495.79	1278.75
496.008	1287.75
496.225	1248.75
496.442	1225.75
496.66	1251.75
496.877	1193.75
497.094	1231.75
497.312	1208.75
497.529	1175.75
497.746	1184.75
497.963	1289.75
498.181	1339.75
498.398	1271.75
498.615	1233.75
498.832	1143.75
499.049	1117.75
499.267	1168.75
499.484	1240.75
499.701	1319.75
499.918	1350.75
500.135	1440.75
500.352	1522.75
500.569	1600.75
500.786	1689.75
501.003	1530.75
501.22	1423.75
501.437	1391.75
501.654	1401.75
501.871	1333.75
502.088	1223.75
502.305	1178.75
502.522	1146.75
502.739	1083.75
502.956	1096.75
503.172	1063.75
503.389	1032.75
503.606	1022.75
503.823	998.75
504.04	1003.75
504.256	1028.75
504.473	1022.75
504.69	1013.75
504.907	992.75
505.123	971.75
505.34	1069.75
505.557	1358.75
505.773	1112.75
505.99	949.75
506.207	923.75
506.423	915.75
506.64	891.75
506.856	927.75
507.073	1056.75
507.289	1084.75
507.506	1054.75
507.722	871.75
507.939	855.75
508.155	857.75
508.372	845.75
508.588	842.75
508.805	797.75
509.021	780.75
509.238	768.75
509.454	789.75
509.67	760.75
509.887	737.75
510.103	707.75
510.319	739.75
510.536	754.75
510.752	783.75
510.968	762.75
511.184	811.75
511.401	770.75
511.617	715.75
511.833	708.75
512.049	733.75
512.265	710.75
512.481	706.75
512.698	738.75
512.914	748.75
513.13	738.75
513.346	714.75
513.562	697.75
513.778	683.75
513.994	774.75
514.21	761.75
514.426	766.75
514.642	828.75
514.858	758.75
515.074	711.75
515.29	728.75
515.506	745.75
515.721	711.75
515.937	740.75
516.153	808.75
516.369	782.75
516.585	738.75
516.801	714.75
517.016	719.75
517.232	765.75
517.448	766.75
517.664	792.75
517.879	762.75
518.095	802.75
518.311	799.75
518.527	769.75
518.742	745.75
518.958	746.75
519.173	747.75
519.389	786.75
519.605	785.75
519.82	795.75
520.036	806.75
520.251	766.75
520.467	788.75
520.682	828.75
520.898	790.75
521.113	718.75
521.329	707.75
521.544	774.75
521.76	727.75
521.975	725.75
522.19	726.75
522.406	748.75
522.621	954.75
522.836	889.75
523.052	707.75
523.267	756.75
523.482	756.75
523.698	737.75
523.913	726.75
524.128	767.75
524.343	806.75
524.559	834.75
524.774	794.75
524.989	777.75
525.204	773.75
525.419	746.75
525.634	731.75
525.849	748.75
526.064	723.75
526.28	722.75
526.495	670.75
526.71	645.75
526.925	642.75
527.14	612.75
527.355	646.75
527.57	616.75
527.785	668.75
527.999	666.75
528.214	675.75
528.429	688.75
528.644	755.75
528.859	809.75
529.074	847.75
529.289	870.75
529.503	858.75
529.718	808.75
529.933	728.75
530.148	663.75
530.363	662.75
530.577	656.75
530.792	640.75
531.007	631.75
531.221	609.75
531.436	650.75
531.651	659.75
531.865	698.75
532.08	649.75
532.295	637.75
532.509	615.75
532.724	640.75
532.938	689.75
533.153	706.75
533.367	715.75
533.582	745.75
533.796	744.75
534.011	714.75
534.225	663.75
534.44	629.75
534.654	646.75
534.868	660.75
535.083	706.75
535.297	699.75
535.511	693.75
535.726	691.75
535.94	695.75
536.154	652.75
536.369	642.75
536.583	619.75
536.797	613.75
537.011	608.75
537.225	610.75
537.44	602.75
537.654	657.75
537.868	632.75
538.082	586.75
538.296	602.75
538.51	641.75
538.724	702.75
538.938	726.75
539.153	724.75
539.367	747.75
539.581	674.75
539.795	690.75
540.009	637.75
540.222	630.75
540.436	684.75
540.65	764.75
540.864	813.75
541.078	814.75
541.292	846.75
541.506	904.75
541.72	988.75
541.934	1054.75
542.147	1115.75
542.361	1034.75
542.575	937.75
542.789	834.75
543.002	743.75
543.216	770.75
543.43	787.75
543.644	847.75
543.857	925.75
544.071	902.75
544.285	933.75
544.498	948.75
544.712	970.75
544.925	977.75
545.139	962.75
545.352	929.75
545.566	927.75
545.779	923.75
545.993	954.75
546.206	951.75
546.42	973.75
546.633	946.75
546.847	969.75
547.06	960.75
547.274	1005.75
547.487	988.75
547.7	1000.75
547.914	998.75
548.127	990.75
548.34	958.75
548.554	946.75
548.767	922.75
548.98	944.75
549.193	924.75
549.407	961.75
549.62	969.75
549.833	903.75
550.046	904.75
550.259	888.75
550.473	904.75
550.686	881.75
550.899	882.75
551.112	846.75
551.325	832.75
551.538	850.75
551.751	863.75
551.964	717.75
552.177	721.75
552.39	781.75
552.603	831.75
552.816	885.75
553.029	942.75
553.242	918.75
553.455	960.75
553.667	917.75
553.88	914.75
554.093	858.75
554.306	867.75
554.519	850.75
554.732	833.75
554.944	838.75
555.157	846.75
555.37	822.75
555.583	811.75
555.795	796.75
556.008	770.75
556.221	714.75
556.433	743.75
556.646	747.75
556.859	746.75
557.071	742.75
557.284	761.75
557.496	783.75
557.709	768.75
557.921	744.75
558.134	738.75
558.346	736.75
558.559	731.75
558.771	757.75
558.984	699.75
559.196	677.75
559.409	676.75
559.621	687.75
559.833	659.75
560.046	675.75
560.258	664.75
560.47	691.75
560.683	694.75
560.895	666.75
561.107	687.75
561.32	687.75
561.532	687.75
561.744	663.75
561.956	698.75
562.168	666.75
562.381	649.75
562.593	640.75
562.805	675.75
563.017	640.75
563.229	625.75
563.441	638.75
563.653	632.75
563.865	632.75
564.077	631.75
564.289	619.75
564.501	608.75
564.713	626.75
564.925	653.75
565.137	683.75
565.349	626.75
565.561	619.75
565.773	613.75
565.985	631.75
566.197	637.75
566.408	673.75
566.62	670.75
566.832	684.75
567.044	684.75
567.255	660.75
567.467	638.75
567.679	672.75
567.891	629.75
568.102	593.75
568.314	560.75
568.526	535.75
568.737	516.75
568.949	515.75
569.161	488.75
569.372	436.75
569.584	454.75
569.795	461.75
570.007	444.75
570.218	436.75
570.43	433.75
570.641	445.75
570.853	473.75
571.064	486.75
571.276	478.75
571.487	459.75
571.698	467.75
571.91	457.75
572.121	437.75
572.333	455.75
572.544	440.75
572.755	420.75
572.966	402.75
573.178	377.75
573.389	385.75
573.6	407.75
573.811	422.75
574.023	405.75
574.234	403.75
574.445	384.75
574.656	392.75
574.867	404.75
575.078	400.75
575.289	415.75
575.501	391.75
575.712	383.75
575.923	418.75
576.134	414.75
576.345	402.75
576.556	385.75
576.767	401.75
576.978	381.75
577.188	401.75
577.399	362.75
577.61	380.75
577.821	375.75
578.032	378.75
578.243	384.75
578.454	361.75
578.665	360.75
578.875	349.75
579.086	330.75
579.297	343.75
579.508	339.75
579.718	356.75
579.929	362.75
580.14	341.75
580.35	339.75
580.561	353.75
580.772	373.75
580.982	355.75
581.193	350.75
581.403	351.75
581.614	367.75
581.825	345.75
582.035	338.75
582.246	339.75
582.456	355.75
582.667	368.75
582.877	354.75
583.087	341.75
583.298	331.75
583.508	332.75
583.719	314.75
583.929	336.75
584.139	326.75
584.35	315.75
584.56	330.75
584.77	318.75
584.981	326.75
585.191	327.75
585.401	356.75
585.611	348.75
585.821	327.75
586.032	344.75
586.242	314.75
586.452	303.75
586.662	306.75
586.872	303.75
587.082	323.75
587.292	322.75
587.502	299.75
587.713	311.75
587.923	320.75
588.133	336.75
588.343	314.75
588.553	323.75
588.762	305.75
588.972	327.75
589.182	332.75
589.392	320.75
589.602	323.75
589.812	311.75
590.022	284.75
590.232	286.75
590.441	313.75
590.651	329.75
590.861	308.75
591.071	304.75
591.281	299.75
591.49	318.75
591.7	306.75
591.91	294.75
592.119	312.75
592.329	320.75
592.539	320.75
592.748	310.75
592.958	323.75
593.167	322.75
593.377	317.75
593.587	332.75
593.796	319.75
594.006	323.75
594.215	328.75
594.424	321.75
594.634	314.75
594.843	350.75
595.053	342.75
595.262	336.75
595.472	321.75
595.681	327.75
595.89	305.75
596.1	314.75
596.309	340.75
596.518	338.75
596.727	315.75
596.937	332.75
597.146	320.75
597.355	313.75
597.564	305.75
597.774	282.75
597.983	276.75
598.192	281.75
598.401	271.75
598.61	275.75
598.819	290.75
599.028	298.75
599.237	309.75
599.446	310.75
599.655	283.75
599.864	288.75
600.073	282.75
600.282	298.75
600.491	279.75
600.7	295.75
600.909	298.75
601.118	291.75
601.327	343.75
601.536	351.75
601.745	361.75
601.953	353.75
602.162	359.75
602.371	356.75
602.58	327.75
602.789	333.75
602.997	347.75
603.206	359.75
603.415	355.75
603.623	340.75
603.832	351.75
604.041	345.75
604.249	337.75
604.458	323.75
604.666	300.75
604.875	284.75
605.084	332.75
605.292	330.75
605.501	363.75
605.709	362.75
605.918	340.75
606.126	370.75
606.334	360.75
606.543	342.75
606.751	366.75
606.96	366.75
607.168	351.75
607.376	362.75
607.585	355.75
607.793	367.75
608.001	367.75
608.21	351.75
608.418	380.75
608.626	364.75
608.834	371.75
609.043	364.75
609.251	346.75
609.459	354.75
609.667	354.75
609.875	384.75
610.083	386.75
610.291	356.75
610.499	357.75
610.707	343.75
610.916	361.75
611.124	383.75
611.332	368.75
611.54	379.75
611.748	352.75
611.955	366.75
612.163	375.75
612.371	352.75
612.579	355.75
612.787	356.75
612.995	357.75
613.203	354.75
613.411	355.75
613.618	354.75
613.826	347.75
614.034	357.75
614.242	372.75
614.449	360.75
614.657	366.75
614.865	364.75
615.072	352.75
615.28	342.75
615.488	374.75
615.695	353.75
615.903	358.75
616.111	351.75
616.318	368.75
616.526	366.75
616.733	368.75
616.941	340.75
617.148	351.75
617.356	339.75
617.563	345.75
617.771	341.75
617.978	338.75
618.185	334.75
618.393	349.75
618.6	354.75
618.807	344.75
619.015	345.75
619.222	336.75
619.429	306.75
619.637	314.75
619.844	296.75
620.051	300.75
620.258	320.75
620.466	319.75
620.673	321.75
620.88	323.75
621.087	323.75
621.294	286.75
621.501	304.75
621.708	295.75
621.915	312.75
622.122	334.75
622.329	337.75
622.536	333.75
622.743	327.75
622.95	329.75
623.157	310.75
623.364	336.75
623.571	331.75
623.778	322.75
623.985	324.75
624.192	309.75
624.399	301.75
624.606	310.75
624.812	302.75
625.019	313.75
625.226	294.75
625.433	298.75
625.639	270.75
625.846	251.75
626.053	246.75
626.259	254.75
626.466	231.75
626.673	225.75
626.879	242.75
627.086	245.75
627.293	268.75
627.499	290.75
627.706	296.75
627.912	308.75
628.119	316.75
628.325	289.75
628.532	306.75
628.738	300.75
628.945	318.75
629.151	290.75
629.357	279.75
629.564	281.75
629.77	283.75
629.976	284.75
630.183	272.75
630.389	265.75
630.595	280.75
630.802	263.75
631.008	281.75
631.214	292.75
631.42	269.75
631.627	272.75
631.833	245.75
632.039	239.75
632.245	250.75
632.451	278.75
632.657	266.75
632.863	264.75
633.069	267.75
633.275	267.75
633.481	261.75
633.688	266.75
633.893	259.75
634.099	242.75
634.305	258.75
634.511	241.75
634.717	240.75
634.923	233.75
635.129	235.75
635.335	216.75
635.541	207.75
635.747	233.75
635.952	236.75
636.158	252.75
636.364	260.75
636.57	267.75
636.775	242.75
636.981	242.75
637.187	264.75
637.392	256.75
637.598	255.75
637.804	268.75
638.009	270.75
638.215	280.75
638.421	250.75
638.626	251.75
638.832	259.75
639.037	249.75
639.243	246.75
639.448	235.75
639.654	258.75
639.859	226.75
640.065	214.75
640.27	248.75
640.475	235.75
640.681	258.75
640.886	248.75
641.091	263.75
641.297	262.75
641.502	250.75
641.707	263.75
641.913	255.75
642.118	248.75
642.323	256.75
642.528	253.75
642.733	263.75
642.939	240.75
643.144	244.75
643.349	244.75
643.554	259.75
643.759	234.75
643.964	265.75
644.169	241.75
644.374	232.75
644.579	245.75
644.784	252.75
644.989	254.75
645.194	243.75
645.399	238.75
645.604	233.75
645.809	242.75
646.014	234.75
646.219	240.75
646.423	252.75
646.628	256.75
646.833	237.75
647.038	239.75
647.243	252.75
647.447	240.75
647.652	247.75
647.857	240.75
648.062	268.75
648.266	239.75
648.471	244.75
648.676	245.75
648.88	260.75
649.085	263.75
649.289	233.75
649.494	234.75
649.698	239.75
649.903	242.75
650.107	226.75
650.312	229.75
650.516	224.75
650.721	237.75
650.925	227.75
651.13	233.75
651.334	217.75
651.539	208.75
651.743	219.75
651.947	218.75
652.152	231.75
652.356	214.75
652.56	210.75
652.764	221.75
652.969	201.75
653.173	205.75
653.377	215.75
653.581	209.75
653.785	225.75
653.99	203.75
654.194	206.75
654.398	188.75
654.602	211.75
654.806	195.75
655.01	194.75
655.214	209.75
655.418	200.75
655.622	203.75
655.826	229.75
656.03	204.75
656.234	224.75
656.438	218.75
656.642	230.75
656.846	217.75
657.049	222.75
657.253	211.75
657.457	197.75
657.661	190.75
657.865	174.75
658.068	174.75
658.272	167.75
658.476	160.75
658.68	155.75
658.883	151.75
659.087	137.75
659.291	145.75
659.494	141.75
659.698	130.75
659.901	126.75
660.105	123.75
660.309	121.75
660.512	131.75
660.716	131.75
660.919	114.75
661.123	111.75
661.326	110.75
661.53	120.75
661.733	103.75
661.936	110.75
662.14	105.75
662.343	103.75
662.546	89.75
662.75	96.75
662.953	94.75
663.156	79.75
663.36	102.75
663.563	87.75
663.766	105.75
663.969	77.75
664.173	85.75
664.376	96.75
664.579	90.75
664.782	96.75
664.985	79.75
665.188	75.75
665.391	98.75
665.594	87.75
665.797	79.75
666	79.75
666.203	71.75
666.406	83.75
666.609	77.75
666.812	92.75
667.015	80.75
667.218	75.75
667.421	84.75
667.624	79.75
667.827	83.75
668.03	78.75
668.232	88.75
668.435	86.75
668.638	70.75
668.841	87.75
669.043	80.75
669.246	88.75
669.449	66.75
669.651	87.75
669.854	89.75
670.057	81.75
670.259	71.75
670.462	69.75
670.665	82.75
670.867	67.75
671.07	66.75
671.272	79.75
671.475	98.75
671.677	87.75
671.88	84.75
672.082	91.75
672.284	79.75
672.487	82.75
672.689	83.75
672.892	90.75
