Data from WStandard_LampEnergy10_LIBS07252019.E.O._I.C._HRD10591_15-53-38-928.txt Node
Date: Thu Jul 25 15:53:38 EDT 2019
User: cochatt
Spectrometer: HR+D1059
Trigger mode: 1
Integration Time (sec): 1.000000E-1
Scans to average: 1
Electric dark correction enabled: true
Nonlinearity correction enabled: false
Boxcar width: 0
XAxis mode: Wavelengths
Number of Pixels in Spectrum: 2048
>>>>>Begin Spectral Data<<<<<
223.165	-24.38
223.4	-24.38
223.635	-24.38
223.869	-15.38
224.104	-16.38
224.338	-8.38
224.573	-8.38
224.808	-9.38
225.042	-12.38
225.277	-11.38
225.511	-3.38
225.746	6.62
225.98	12.62
226.215	8.62
226.449	14.62
226.683	1.62
226.918	25.62
227.152	39.62
227.387	53.62
227.621	41.62
227.856	33.62
228.09	43.62
228.324	52.62
228.559	59.62
228.793	84.62
229.027	137.62
229.262	133.62
229.496	139.62
229.73	152.62
229.964	161.62
230.199	162.62
230.433	168.62
230.667	171.62
230.901	172.62
231.136	173.62
231.37	175.62
231.604	159.62
231.838	189.62
232.072	173.62
232.306	169.62
232.541	181.62
232.775	193.62
233.009	210.62
233.243	214.62
233.477	187.62
233.711	198.62
233.945	207.62
234.179	201.62
234.413	204.62
234.647	225.62
234.881	205.62
235.115	197.62
235.349	193.62
235.583	202.62
235.817	220.62
236.051	197.62
236.285	213.62
236.519	204.62
236.753	216.62
236.987	244.62
237.221	222.62
237.455	245.62
237.689	246.62
237.922	226.62
238.156	214.62
238.39	211.62
238.624	241.62
238.858	255.62
239.091	248.62
239.325	263.62
239.559	276.62
239.793	271.62
240.027	303.62
240.26	295.62
240.494	260.62
240.728	235.62
240.961	226.62
241.195	248.62
241.429	261.62
241.662	238.62
241.896	231.62
242.13	260.62
242.363	285.62
242.597	276.62
242.83	265.62
243.064	259.62
243.298	280.62
243.531	282.62
243.765	269.62
243.998	287.62
244.232	276.62
244.465	265.62
244.699	248.62
244.932	266.62
245.166	308.62
245.399	289.62
245.633	278.62
245.866	284.62
246.099	283.62
246.333	281.62
246.566	284.62
246.8	312.62
247.033	329.62
247.266	319.62
247.5	317.62
247.733	332.62
247.966	347.62
248.2	355.62
248.433	362.62
248.666	379.62
248.899	395.62
249.133	414.62
249.366	458.62
249.599	383.62
249.832	362.62
250.066	385.62
250.299	359.62
250.532	329.62
250.765	325.62
250.998	346.62
251.231	349.62
251.465	393.62
251.698	348.62
251.931	342.62
252.164	354.62
252.397	378.62
252.63	364.62
252.863	339.62
253.096	323.62
253.329	331.62
253.562	356.62
253.795	352.62
254.028	382.62
254.261	343.62
254.494	335.62
254.727	325.62
254.96	337.62
255.193	392.62
255.426	415.62
255.659	452.62
255.892	461.62
256.124	412.62
256.357	385.62
256.59	411.62
256.823	404.62
257.056	443.62
257.289	481.62
257.521	477.62
257.754	470.62
257.987	448.62
258.22	457.62
258.452	471.62
258.685	424.62
258.918	385.62
259.151	402.62
259.383	375.62
259.616	339.62
259.849	359.62
260.081	412.62
260.314	433.62
260.547	453.62
260.779	470.62
261.012	439.62
261.244	389.62
261.477	399.62
261.71	391.62
261.942	386.62
262.175	383.62
262.407	414.62
262.64	388.62
262.872	350.62
263.105	379.62
263.337	379.62
263.57	372.62
263.802	350.62
264.035	351.62
264.267	359.62
264.499	349.62
264.732	376.62
264.964	373.62
265.197	393.62
265.429	425.62
265.661	440.62
265.894	474.62
266.126	511.62
266.358	480.62
266.591	473.62
266.823	514.62
267.055	474.62
267.287	448.62
267.52	431.62
267.752	436.62
267.984	452.62
268.216	457.62
268.448	474.62
268.681	468.62
268.913	440.62
269.145	427.62
269.377	411.62
269.609	460.62
269.841	504.62
270.073	575.62
270.306	612.62
270.538	624.62
270.77	537.62
271.002	495.62
271.234	485.62
271.466	490.62
271.698	546.62
271.93	619.62
272.162	592.62
272.394	537.62
272.626	488.62
272.858	450.62
273.09	427.62
273.322	408.62
273.553	390.62
273.785	413.62
274.017	419.62
274.249	440.62
274.481	444.62
274.713	408.62
274.945	418.62
275.176	418.62
275.408	412.62
275.64	426.62
275.872	415.62
276.104	446.62
276.335	476.62
276.567	535.62
276.799	530.62
277.031	471.62
277.262	457.62
277.494	494.62
277.726	508.62
277.957	511.62
278.189	490.62
278.421	465.62
278.652	435.62
278.884	439.62
279.115	454.62
279.347	433.62
279.579	426.62
279.81	429.62
280.042	475.62
280.273	498.62
280.505	525.62
280.736	511.62
280.968	479.62
281.199	437.62
281.431	409.62
281.662	417.62
281.894	447.62
282.125	432.62
282.356	458.62
282.588	456.62
282.819	469.62
283.051	484.62
283.282	515.62
283.513	506.62
283.745	438.62
283.976	439.62
284.207	428.62
284.439	422.62
284.67	456.62
284.901	469.62
285.132	464.62
285.364	448.62
285.595	452.62
285.826	452.62
286.057	444.62
286.288	455.62
286.52	477.62
286.751	505.62
286.982	499.62
287.213	459.62
287.444	428.62
287.675	440.62
287.906	494.62
288.138	511.62
288.369	480.62
288.6	453.62
288.831	417.62
289.062	451.62
289.293	480.62
289.524	470.62
289.755	460.62
289.986	455.62
290.217	429.62
290.448	461.62
290.679	449.62
290.91	461.62
291.141	478.62
291.371	518.62
291.602	471.62
291.833	480.62
292.064	505.62
292.295	496.62
292.526	502.62
292.757	509.62
292.987	490.62
293.218	501.62
293.449	529.62
293.68	578.62
293.91	580.62
294.141	540.62
294.372	530.62
294.603	572.62
294.833	592.62
295.064	565.62
295.295	495.62
295.525	478.62
295.756	447.62
295.987	435.62
296.217	440.62
296.448	458.62
296.679	471.62
296.909	460.62
297.14	457.62
297.37	479.62
297.601	530.62
297.831	535.62
298.062	506.62
298.292	483.62
298.523	472.62
298.753	482.62
298.984	470.62
299.214	488.62
299.445	495.62
299.675	507.62
299.905	499.62
300.136	477.62
300.366	452.62
300.597	480.62
300.827	485.62
301.057	490.62
301.288	513.62
301.518	498.62
301.748	532.62
301.979	543.62
302.209	552.62
302.439	597.62
302.669	603.62
302.9	544.62
303.13	542.62
303.36	497.62
303.59	531.62
303.82	525.62
304.051	495.62
304.281	537.62
304.511	560.62
304.741	596.62
304.971	593.62
305.201	641.62
305.431	559.62
305.661	482.62
305.891	444.62
306.121	469.62
306.352	474.62
306.582	508.62
306.812	533.62
307.042	564.62
307.272	574.62
307.502	605.62
307.731	632.62
307.961	641.62
308.191	592.62
308.421	515.62
308.651	488.62
308.881	483.62
309.111	495.62
309.341	493.62
309.571	491.62
309.8	480.62
310.03	489.62
310.26	510.62
310.49	482.62
310.72	523.62
310.949	536.62
311.179	533.62
311.409	489.62
311.639	521.62
311.868	481.62
312.098	529.62
312.328	526.62
312.557	508.62
312.787	527.62
313.017	548.62
313.246	537.62
313.476	491.62
313.706	534.62
313.935	538.62
314.165	545.62
314.394	583.62
314.624	600.62
314.853	626.62
315.083	616.62
315.312	628.62
315.542	586.62
315.771	553.62
316.001	553.62
316.23	576.62
316.46	563.62
316.689	556.62
316.919	547.62
317.148	529.62
317.377	559.62
317.607	583.62
317.836	627.62
318.065	637.62
318.295	616.62
318.524	594.62
318.753	570.62
318.983	598.62
319.212	570.62
319.441	550.62
319.67	548.62
319.9	580.62
320.129	598.62
320.358	584.62
320.587	613.62
320.816	620.62
321.046	611.62
321.275	607.62
321.504	591.62
321.733	651.62
321.962	582.62
322.191	563.62
322.42	551.62
322.649	567.62
322.878	546.62
323.108	554.62
323.337	583.62
323.566	570.62
323.795	578.62
324.024	579.62
324.253	562.62
324.482	565.62
324.71	537.62
324.939	535.62
325.168	544.62
325.397	565.62
325.626	581.62
325.855	577.62
326.084	560.62
326.313	561.62
326.542	597.62
326.77	594.62
326.999	571.62
327.228	554.62
327.457	528.62
327.686	531.62
327.914	533.62
328.143	572.62
328.372	549.62
328.6	571.62
328.829	549.62
329.058	559.62
329.287	553.62
329.515	572.62
329.744	577.62
329.972	606.62
330.201	615.62
330.43	583.62
330.658	596.62
330.887	589.62
331.115	581.62
331.344	604.62
331.572	580.62
331.801	570.62
332.03	582.62
332.258	593.62
332.486	617.62
332.715	601.62
332.943	599.62
333.172	582.62
333.4	597.62
333.629	616.62
333.857	660.62
334.085	746.62
334.314	799.62
334.542	834.62
334.771	787.62
334.999	696.62
335.227	658.62
335.455	617.62
335.684	645.62
335.912	661.62
336.14	641.62
336.369	606.62
336.597	586.62
336.825	607.62
337.053	630.62
337.281	687.62
337.51	692.62
337.738	711.62
337.966	637.62
338.194	602.62
338.422	594.62
338.65	595.62
338.878	573.62
339.106	569.62
339.334	577.62
339.562	573.62
339.79	583.62
340.018	615.62
340.246	634.62
340.474	631.62
340.702	630.62
340.93	637.62
341.158	612.62
341.386	606.62
341.614	589.62
341.842	598.62
342.07	588.62
342.298	601.62
342.526	601.62
342.754	603.62
342.981	616.62
343.209	600.62
343.437	597.62
343.665	603.62
343.893	631.62
344.12	631.62
344.348	624.62
344.576	599.62
344.804	621.62
345.031	602.62
345.259	580.62
345.487	575.62
345.714	567.62
345.942	550.62
346.17	588.62
346.397	603.62
346.625	568.62
346.853	561.62
347.08	547.62
347.308	555.62
347.535	580.62
347.763	611.62
347.99	576.62
348.218	559.62
348.445	535.62
348.673	599.62
348.9	578.62
349.128	596.62
349.355	621.62
349.583	592.62
349.81	559.62
350.037	529.62
350.265	540.62
350.492	554.62
350.72	541.62
350.947	610.62
351.174	587.62
351.402	535.62
351.629	518.62
351.856	522.62
352.083	529.62
352.311	561.62
352.538	555.62
352.765	568.62
352.992	598.62
353.22	568.62
353.447	562.62
353.674	562.62
353.901	566.62
354.128	560.62
354.355	585.62
354.583	586.62
354.81	605.62
355.037	573.62
355.264	571.62
355.491	594.62
355.718	573.62
355.945	565.62
356.172	554.62
356.399	536.62
356.626	562.62
356.853	588.62
357.08	669.62
357.307	693.62
357.534	654.62
357.761	584.62
357.988	541.62
358.215	533.62
358.441	555.62
358.668	553.62
358.895	593.62
359.122	617.62
359.349	626.62
359.576	622.62
359.802	572.62
360.029	543.62
360.256	564.62
360.483	575.62
360.709	607.62
360.936	619.62
361.163	654.62
361.39	691.62
361.616	728.62
361.843	709.62
362.07	661.62
362.296	593.62
362.523	556.62
362.749	589.62
362.976	577.62
363.203	593.62
363.429	569.62
363.656	562.62
363.882	600.62
364.109	651.62
364.335	668.62
364.562	629.62
364.788	610.62
365.015	581.62
365.241	576.62
365.468	581.62
365.694	588.62
365.92	621.62
366.147	617.62
366.373	596.62
366.599	555.62
366.826	564.62
367.052	573.62
367.278	593.62
367.505	629.62
367.731	615.62
367.957	627.62
368.184	649.62
368.41	649.62
368.636	669.62
368.862	683.62
369.089	652.62
369.315	625.62
369.541	614.62
369.767	608.62
369.993	603.62
370.219	608.62
370.445	625.62
370.672	667.62
370.898	676.62
371.124	660.62
371.35	603.62
371.576	676.62
371.802	670.62
372.028	648.62
372.254	631.62
372.48	612.62
372.706	591.62
372.932	604.62
373.158	630.62
373.384	636.62
373.61	677.62
373.835	671.62
374.061	627.62
374.287	632.62
374.513	618.62
374.739	629.62
374.965	635.62
375.191	653.62
375.416	639.62
375.642	670.62
375.868	738.62
376.094	729.62
376.319	666.62
376.545	664.62
376.771	665.62
376.997	693.62
377.222	671.62
377.448	701.62
377.674	678.62
377.899	694.62
378.125	715.62
378.35	687.62
378.576	649.62
378.802	602.62
379.027	632.62
379.253	652.62
379.478	653.62
379.704	642.62
379.929	665.62
380.155	659.62
380.38	688.62
380.606	673.62
380.831	659.62
381.057	711.62
381.282	709.62
381.507	685.62
381.733	738.62
381.958	743.62
382.184	670.62
382.409	673.62
382.634	679.62
382.86	706.62
383.085	674.62
383.31	729.62
383.535	787.62
383.761	801.62
383.986	740.62
384.211	737.62
384.436	754.62
384.662	785.62
384.887	792.62
385.112	715.62
385.337	752.62
385.562	744.62
385.787	761.62
386.013	798.62
386.238	756.62
386.463	744.62
386.688	839.62
386.913	899.62
387.138	833.62
387.363	755.62
387.588	777.62
387.813	774.62
388.038	783.62
388.263	806.62
388.488	768.62
388.713	696.62
388.938	736.62
389.163	725.62
389.387	732.62
389.612	748.62
389.837	759.62
390.062	743.62
390.287	764.62
390.512	729.62
390.736	749.62
390.961	732.62
391.186	718.62
391.411	734.62
391.636	741.62
391.86	748.62
392.085	753.62
392.31	767.62
392.534	752.62
392.759	790.62
392.984	761.62
393.208	785.62
393.433	782.62
393.658	828.62
393.882	826.62
394.107	790.62
394.331	785.62
394.556	762.62
394.78	804.62
395.005	819.62
395.229	847.62
395.454	866.62
395.678	859.62
395.903	828.62
396.127	803.62
396.352	815.62
396.576	857.62
396.801	854.62
397.025	836.62
397.249	838.62
397.474	848.62
397.698	844.62
397.922	888.62
398.147	921.62
398.371	908.62
398.595	913.62
398.82	872.62
399.044	939.62
399.268	936.62
399.492	956.62
399.717	972.62
399.941	1005.62
400.165	988.62
400.389	951.62
400.613	961.62
400.837	1119.62
401.062	1189.62
401.286	1050.62
401.51	957.62
401.734	996.62
401.958	945.62
402.182	891.62
402.406	883.62
402.63	895.62
402.854	877.62
403.078	913.62
403.302	900.62
403.526	897.62
403.75	920.62
403.974	963.62
404.198	937.62
404.422	985.62
404.645	1060.62
404.869	963.62
405.093	913.62
405.317	914.62
405.541	905.62
405.765	908.62
405.988	951.62
406.212	971.62
406.436	956.62
406.66	993.62
406.883	1019.62
407.107	1163.62
407.331	1245.62
407.555	1291.62
407.778	1126.62
408.002	1001.62
408.226	988.62
408.449	995.62
408.673	942.62
408.896	965.62
409.12	977.62
409.344	935.62
409.567	955.62
409.791	967.62
410.014	951.62
410.238	1047.62
410.461	1054.62
410.685	986.62
410.908	946.62
411.132	952.62
411.355	938.62
411.578	915.62
411.802	943.62
412.025	958.62
412.249	936.62
412.472	903.62
412.695	913.62
412.919	944.62
413.142	920.62
413.365	945.62
413.589	980.62
413.812	1001.62
414.035	995.62
414.258	963.62
414.482	950.62
414.705	928.62
414.928	946.62
415.151	921.62
415.374	901.62
415.597	936.62
415.821	961.62
416.044	969.62
416.267	939.62
416.49	930.62
416.713	930.62
416.936	964.62
417.159	995.62
417.382	962.62
417.605	922.62
417.828	937.62
418.051	947.62
418.274	964.62
418.497	945.62
418.72	913.62
418.943	957.62
419.166	954.62
419.389	972.62
419.611	957.62
419.834	945.62
420.057	965.62
420.28	910.62
420.503	949.62
420.726	931.62
420.948	968.62
421.171	939.62
421.394	934.62
421.617	983.62
421.839	979.62
422.062	975.62
422.285	952.62
422.507	950.62
422.73	893.62
422.953	917.62
423.175	904.62
423.398	929.62
423.621	915.62
423.843	953.62
424.066	980.62
424.288	1033.62
424.511	1065.62
424.733	987.62
424.956	953.62
425.178	953.62
425.401	945.62
425.623	959.62
425.846	940.62
426.068	981.62
426.291	986.62
426.513	931.62
426.735	967.62
426.958	1062.62
427.18	1077.62
427.402	1009.62
427.625	1021.62
427.847	977.62
428.069	953.62
428.292	909.62
428.514	913.62
428.736	909.62
428.958	960.62
429.181	936.62
429.403	1067.62
429.625	1248.62
429.847	1060.62
430.069	984.62
430.292	1056.62
430.514	1027.62
430.736	993.62
430.958	1003.62
431.18	947.62
431.402	881.62
431.624	823.62
431.846	807.62
432.068	725.62
432.29	744.62
432.512	786.62
432.734	879.62
432.956	897.62
433.178	979.62
433.4	971.62
433.622	963.62
433.844	916.62
434.066	861.62
434.287	775.62
434.509	780.62
434.731	799.62
434.953	903.62
435.175	925.62
435.397	899.62
435.618	883.62
435.84	839.62
436.062	839.62
436.284	881.62
436.505	923.62
436.727	949.62
436.949	947.62
437.17	928.62
437.392	893.62
437.614	842.62
437.835	800.62
438.057	837.62
438.278	844.62
438.5	863.62
438.721	932.62
438.943	924.62
439.165	935.62
439.386	933.62
439.608	954.62
439.829	984.62
440.05	984.62
440.272	979.62
440.493	944.62
440.715	972.62
440.936	1034.62
441.158	1065.62
441.379	1071.62
441.6	1049.62
441.822	1049.62
442.043	1011.62
442.264	988.62
442.486	961.62
442.707	949.62
442.928	980.62
443.149	988.62
443.371	1026.62
443.592	1049.62
443.813	1029.62
444.034	1027.62
444.255	994.62
444.476	1027.62
444.698	1031.62
444.919	1061.62
445.14	1147.62
445.361	1098.62
445.582	1068.62
445.803	1077.62
446.024	1041.62
446.245	1119.62
446.466	1043.62
446.687	1042.62
446.908	1049.62
447.129	1002.62
447.35	1037.62
447.571	1012.62
447.792	949.62
448.013	979.62
448.234	978.62
448.455	1004.62
448.675	985.62
448.896	940.62
449.117	931.62
449.338	910.62
449.559	972.62
449.779	980.62
450	1060.62
450.221	1071.62
450.442	1009.62
450.662	945.62
450.883	890.62
451.104	878.62
451.324	901.62
451.545	890.62
451.766	852.62
451.986	859.62
452.207	821.62
452.428	823.62
452.648	781.62
452.869	780.62
453.089	773.62
453.31	795.62
453.53	771.62
453.751	749.62
453.971	703.62
454.192	739.62
454.412	767.62
454.633	789.62
454.853	805.62
455.073	764.62
455.294	766.62
455.514	774.62
455.734	784.62
455.955	763.62
456.175	752.62
456.395	757.62
456.616	741.62
456.836	719.62
457.056	754.62
457.276	728.62
457.497	736.62
457.717	681.62
457.937	707.62
458.157	725.62
458.377	689.62
458.598	689.62
458.818	692.62
459.038	701.62
459.258	731.62
459.478	735.62
459.698	715.62
459.918	751.62
460.138	825.62
460.358	823.62
460.578	849.62
460.798	843.62
461.018	880.62
461.238	866.62
461.458	867.62
461.678	848.62
461.898	812.62
462.118	840.62
462.338	832.62
462.558	834.62
462.777	862.62
462.997	864.62
463.217	878.62
463.437	858.62
463.657	829.62
463.876	832.62
464.096	819.62
464.316	833.62
464.536	855.62
464.755	884.62
464.975	891.62
465.195	870.62
465.414	870.62
465.634	883.62
465.854	901.62
466.073	956.62
466.293	950.62
466.512	855.62
466.732	884.62
466.951	913.62
467.171	915.62
467.391	896.62
467.61	881.62
467.829	908.62
468.049	1016.62
468.268	1045.62
468.488	975.62
468.707	935.62
468.927	899.62
469.146	913.62
469.365	906.62
469.585	947.62
469.804	923.62
470.023	946.62
470.243	963.62
470.462	954.62
470.681	925.62
470.901	936.62
471.12	936.62
471.339	966.62
471.558	945.62
471.777	917.62
471.997	881.62
472.216	843.62
472.435	778.62
472.654	772.62
472.873	774.62
473.092	849.62
473.311	839.62
473.53	797.62
473.749	829.62
473.968	858.62
474.187	841.62
474.406	865.62
474.625	866.62
474.844	874.62
475.063	883.62
475.282	872.62
475.501	841.62
475.72	858.62
475.939	922.62
476.158	899.62
476.377	889.62
476.596	864.62
476.814	841.62
477.033	827.62
477.252	880.62
477.471	885.62
477.69	932.62
477.908	939.62
478.127	1007.62
478.346	1028.62
478.564	1023.62
478.783	1005.62
479.002	994.62
479.22	1013.62
479.439	1051.62
479.658	1057.62
479.876	980.62
480.095	932.62
480.313	890.62
480.532	892.62
480.751	870.62
480.969	824.62
481.188	801.62
481.406	787.62
481.624	772.62
481.843	807.62
482.061	834.62
482.28	877.62
482.498	895.62
482.717	857.62
482.935	890.62
483.153	1011.62
483.372	1041.62
483.59	1016.62
483.808	999.62
484.027	915.62
484.245	983.62
484.463	1219.62
484.681	1323.62
484.9	1044.62
485.118	981.62
485.336	936.62
485.554	910.62
485.772	907.62
485.99	913.62
486.209	930.62
486.427	918.62
486.645	940.62
486.863	982.62
487.081	1032.62
487.299	1002.62
487.517	1026.62
487.735	1095.62
487.953	1226.62
488.171	1196.62
488.389	1116.62
488.607	1108.62
488.825	1155.62
489.043	1073.62
489.261	1001.62
489.479	1032.62
489.696	1075.62
489.914	1075.62
490.132	1047.62
490.35	1124.62
490.568	1167.62
490.786	1178.62
491.003	1224.62
491.221	1259.62
491.439	1303.62
491.657	1350.62
491.874	1365.62
492.092	1433.62
492.31	1503.62
492.527	1483.62
492.745	1371.62
492.963	1334.62
493.18	1328.62
493.398	1351.62
493.615	1333.62
493.833	1267.62
494.05	1231.62
494.268	1241.62
494.485	1265.62
494.703	1238.62
494.92	1220.62
495.138	1229.62
495.355	1266.62
495.573	1287.62
495.79	1297.62
496.008	1297.62
496.225	1249.62
496.442	1239.62
496.66	1254.62
496.877	1226.62
497.094	1256.62
497.312	1232.62
497.529	1217.62
497.746	1189.62
497.963	1301.62
498.181	1290.62
498.398	1249.62
498.615	1203.62
498.832	1175.62
499.049	1154.62
499.267	1173.62
499.484	1240.62
499.701	1349.62
499.918	1363.62
500.135	1540.62
500.352	1567.62
500.569	1567.62
500.786	1695.62
501.003	1582.62
501.22	1445.62
501.437	1421.62
501.654	1425.62
501.871	1327.62
502.088	1186.62
502.305	1169.62
502.522	1156.62
502.739	1101.62
502.956	1084.62
503.172	1046.62
503.389	1041.62
503.606	1007.62
503.823	993.62
504.04	1023.62
504.256	999.62
504.473	1024.62
504.69	1027.62
504.907	1007.62
505.123	962.62
505.34	1097.62
505.557	1365.62
505.773	1142.62
505.99	948.62
506.207	910.62
506.423	917.62
506.64	895.62
506.856	923.62
507.073	1025.62
507.289	1105.62
507.506	1022.62
507.722	943.62
507.939	873.62
508.155	873.62
508.372	859.62
508.588	826.62
508.805	796.62
509.021	801.62
509.238	775.62
509.454	773.62
509.67	772.62
509.887	738.62
510.103	737.62
510.319	740.62
510.536	786.62
510.752	782.62
510.968	769.62
511.184	783.62
511.401	771.62
511.617	706.62
511.833	689.62
512.049	726.62
512.265	711.62
512.481	692.62
512.698	747.62
512.914	789.62
513.13	749.62
513.346	732.62
513.562	699.62
513.778	725.62
513.994	752.62
514.21	750.62
514.426	766.62
514.642	791.62
514.858	769.62
515.074	728.62
515.29	736.62
515.506	725.62
515.721	748.62
515.937	769.62
516.153	833.62
516.369	781.62
516.585	773.62
516.801	729.62
517.016	716.62
517.232	744.62
517.448	804.62
517.664	809.62
517.879	804.62
518.095	797.62
518.311	777.62
518.527	774.62
518.742	767.62
518.958	752.62
519.173	762.62
519.389	768.62
519.605	795.62
519.82	785.62
520.036	801.62
520.251	761.62
520.467	771.62
520.682	801.62
520.898	805.62
521.113	725.62
521.329	712.62
521.544	762.62
521.76	735.62
521.975	713.62
522.19	720.62
522.406	742.62
522.621	941.62
522.836	856.62
523.052	743.62
523.267	761.62
523.482	771.62
523.698	747.62
523.913	730.62
524.128	767.62
524.343	826.62
524.559	814.62
524.774	778.62
524.989	771.62
525.204	782.62
525.419	757.62
525.634	763.62
525.849	758.62
526.064	725.62
526.28	717.62
526.495	685.62
526.71	658.62
526.925	653.62
527.14	639.62
527.355	645.62
527.57	647.62
527.785	652.62
527.999	661.62
528.214	693.62
528.429	712.62
528.644	747.62
528.859	800.62
529.074	829.62
529.289	863.62
529.503	873.62
529.718	812.62
529.933	752.62
530.148	677.62
530.363	649.62
530.577	629.62
530.792	644.62
531.007	647.62
531.221	630.62
531.436	647.62
531.651	634.62
531.865	671.62
532.08	649.62
532.295	633.62
532.509	627.62
532.724	626.62
532.938	663.62
533.153	687.62
533.367	711.62
533.582	737.62
533.796	731.62
534.011	742.62
534.225	689.62
534.44	649.62
534.654	635.62
534.868	660.62
535.083	682.62
535.297	707.62
535.511	681.62
535.726	716.62
535.94	691.62
536.154	652.62
536.369	641.62
536.583	611.62
536.797	617.62
537.011	636.62
537.225	595.62
537.44	625.62
537.654	649.62
537.868	606.62
538.082	599.62
538.296	610.62
538.51	634.62
538.724	689.62
538.938	704.62
539.153	773.62
539.367	718.62
539.581	698.62
539.795	687.62
540.009	650.62
540.222	640.62
540.436	693.62
540.65	750.62
540.864	805.62
541.078	813.62
541.292	859.62
541.506	895.62
541.72	955.62
541.934	1014.62
542.147	1064.62
542.361	1010.62
542.575	918.62
542.789	841.62
543.002	808.62
543.216	744.62
543.43	771.62
543.644	796.62
543.857	913.62
544.071	916.62
544.285	962.62
544.498	959.62
544.712	916.62
544.925	935.62
545.139	970.62
545.352	951.62
545.566	964.62
545.779	942.62
545.993	948.62
546.206	977.62
546.42	977.62
546.633	943.62
546.847	952.62
547.06	959.62
547.274	974.62
547.487	1012.62
547.7	967.62
547.914	1000.62
548.127	971.62
548.34	961.62
548.554	943.62
548.767	922.62
548.98	952.62
549.193	937.62
549.407	981.62
549.62	966.62
549.833	904.62
550.046	892.62
550.259	886.62
550.473	925.62
550.686	885.62
550.899	854.62
551.112	868.62
551.325	819.62
551.538	827.62
551.751	857.62
551.964	710.62
552.177	751.62
552.39	775.62
552.603	825.62
552.816	850.62
553.029	923.62
553.242	951.62
553.455	911.62
553.667	920.62
553.88	895.62
554.093	866.62
554.306	839.62
554.519	845.62
554.732	820.62
554.944	826.62
555.157	836.62
555.37	808.62
555.583	834.62
555.795	785.62
556.008	742.62
556.221	744.62
556.433	724.62
556.646	765.62
556.859	754.62
557.071	773.62
557.284	726.62
557.496	761.62
557.709	757.62
557.921	756.62
558.134	716.62
558.346	758.62
558.559	711.62
558.771	713.62
558.984	701.62
559.196	661.62
559.409	663.62
559.621	674.62
559.833	666.62
560.046	703.62
560.258	681.62
560.47	681.62
560.683	708.62
560.895	675.62
561.107	660.62
561.32	692.62
561.532	675.62
561.744	683.62
561.956	700.62
562.168	687.62
562.381	677.62
562.593	641.62
562.805	623.62
563.017	634.62
563.229	657.62
563.441	665.62
563.653	617.62
563.865	652.62
564.077	596.62
564.289	615.62
564.501	630.62
564.713	610.62
564.925	649.62
565.137	673.62
565.349	637.62
565.561	604.62
565.773	617.62
565.985	646.62
566.197	673.62
566.408	681.62
566.62	696.62
566.832	695.62
567.044	680.62
567.255	648.62
567.467	658.62
567.679	649.62
567.891	653.62
568.102	606.62
568.314	579.62
568.526	545.62
568.737	515.62
568.949	502.62
569.161	474.62
569.372	451.62
569.584	444.62
569.795	462.62
570.007	435.62
570.218	459.62
570.43	441.62
570.641	443.62
570.853	479.62
571.064	475.62
571.276	481.62
571.487	491.62
571.698	484.62
571.91	454.62
572.121	443.62
572.333	453.62
572.544	447.62
572.755	432.62
572.966	388.62
573.178	403.62
573.389	398.62
573.6	412.62
573.811	435.62
574.023	423.62
574.234	381.62
574.445	392.62
574.656	385.62
574.867	402.62
575.078	411.62
575.289	396.62
575.501	419.62
575.712	392.62
575.923	406.62
576.134	403.62
576.345	413.62
576.556	401.62
576.767	390.62
576.978	406.62
577.188	394.62
577.399	383.62
577.61	357.62
577.821	365.62
578.032	370.62
578.243	377.62
578.454	388.62
578.665	357.62
578.875	373.62
579.086	338.62
579.297	349.62
579.508	339.62
579.718	347.62
579.929	342.62
580.14	341.62
580.35	350.62
580.561	346.62
580.772	383.62
580.982	373.62
581.193	361.62
581.403	355.62
581.614	352.62
581.825	328.62
582.035	343.62
582.246	340.62
582.456	347.62
582.667	331.62
582.877	367.62
583.087	344.62
583.298	338.62
583.508	335.62
583.719	324.62
583.929	339.62
584.139	319.62
584.35	329.62
584.56	334.62
584.77	333.62
584.981	314.62
585.191	328.62
585.401	354.62
585.611	338.62
585.821	314.62
586.032	310.62
586.242	288.62
586.452	308.62
586.662	324.62
586.872	326.62
587.082	300.62
587.292	324.62
587.502	328.62
587.713	331.62
587.923	306.62
588.133	313.62
588.343	322.62
588.553	313.62
588.762	330.62
588.972	311.62
589.182	310.62
589.392	311.62
589.602	323.62
589.812	334.62
590.022	319.62
590.232	316.62
590.441	315.62
590.651	307.62
590.861	303.62
591.071	311.62
591.281	309.62
591.49	296.62
591.7	291.62
591.91	316.62
592.119	305.62
592.329	313.62
592.539	327.62
592.748	322.62
592.958	323.62
593.167	330.62
593.377	342.62
593.587	339.62
593.796	315.62
594.006	304.62
594.215	339.62
594.424	324.62
594.634	345.62
594.843	333.62
595.053	351.62
595.262	345.62
595.472	321.62
595.681	316.62
595.89	308.62
596.1	314.62
596.309	339.62
596.518	313.62
596.727	319.62
596.937	324.62
597.146	321.62
597.355	304.62
597.564	329.62
597.774	291.62
597.983	287.62
598.192	292.62
598.401	267.62
598.61	295.62
598.819	275.62
599.028	283.62
599.237	300.62
599.446	287.62
599.655	293.62
599.864	269.62
600.073	292.62
600.282	281.62
600.491	287.62
600.7	289.62
600.909	300.62
601.118	293.62
601.327	314.62
601.536	341.62
601.745	358.62
601.953	346.62
602.162	328.62
602.371	344.62
602.58	352.62
602.789	356.62
602.997	336.62
603.206	346.62
603.415	348.62
603.623	332.62
603.832	340.62
604.041	332.62
604.249	308.62
604.458	305.62
604.666	288.62
604.875	288.62
605.084	316.62
605.292	347.62
605.501	337.62
605.709	367.62
605.918	357.62
606.126	363.62
606.334	357.62
606.543	364.62
606.751	354.62
606.96	361.62
607.168	343.62
607.376	344.62
607.585	354.62
607.793	350.62
608.001	359.62
608.21	370.62
608.418	359.62
608.626	373.62
608.834	344.62
609.043	367.62
609.251	362.62
609.459	354.62
609.667	370.62
609.875	387.62
610.083	392.62
610.291	383.62
610.499	359.62
610.707	364.62
610.916	364.62
611.124	363.62
611.332	349.62
611.54	367.62
611.748	385.62
611.955	369.62
612.163	362.62
612.371	367.62
612.579	364.62
612.787	356.62
612.995	363.62
613.203	381.62
613.411	371.62
613.618	381.62
613.826	327.62
614.034	353.62
614.242	355.62
614.449	379.62
614.657	367.62
614.865	353.62
615.072	347.62
615.28	365.62
615.488	375.62
615.695	375.62
615.903	361.62
616.111	365.62
616.318	361.62
616.526	368.62
616.733	359.62
616.941	364.62
617.148	368.62
617.356	341.62
617.563	341.62
617.771	354.62
617.978	338.62
618.185	347.62
618.393	332.62
618.6	353.62
618.807	341.62
619.015	353.62
619.222	342.62
619.429	332.62
619.637	332.62
619.844	289.62
620.051	322.62
620.258	317.62
620.466	322.62
620.673	341.62
620.88	316.62
621.087	295.62
621.294	312.62
621.501	291.62
621.708	268.62
621.915	313.62
622.122	332.62
622.329	319.62
622.536	333.62
622.743	330.62
622.95	339.62
623.157	311.62
623.364	329.62
623.571	339.62
623.778	311.62
623.985	310.62
624.192	317.62
624.399	298.62
624.606	310.62
624.812	324.62
625.019	307.62
625.226	288.62
625.433	306.62
625.639	274.62
625.846	268.62
626.053	267.62
626.259	251.62
626.466	235.62
626.673	253.62
626.879	245.62
627.086	252.62
627.293	276.62
627.499	301.62
627.706	313.62
627.912	320.62
628.119	297.62
628.325	292.62
628.532	306.62
628.738	296.62
628.945	311.62
629.151	294.62
629.357	293.62
629.564	276.62
629.77	269.62
629.976	269.62
630.183	265.62
630.389	263.62
630.595	280.62
630.802	273.62
631.008	277.62
631.214	278.62
631.42	281.62
631.627	259.62
631.833	243.62
632.039	269.62
632.245	270.62
632.451	263.62
632.657	283.62
632.863	272.62
633.069	257.62
633.275	257.62
633.481	241.62
633.688	261.62
633.893	248.62
634.099	252.62
634.305	251.62
634.511	241.62
634.717	237.62
634.923	237.62
635.129	233.62
635.335	231.62
635.541	244.62
635.747	259.62
635.952	251.62
636.158	255.62
636.364	280.62
636.57	284.62
636.775	262.62
636.981	259.62
637.187	257.62
637.392	261.62
637.598	264.62
637.804	271.62
638.009	251.62
638.215	267.62
638.421	267.62
638.626	263.62
638.832	242.62
639.037	234.62
639.243	257.62
639.448	236.62
639.654	255.62
639.859	263.62
640.065	246.62
640.27	259.62
640.475	257.62
640.681	252.62
640.886	235.62
641.091	244.62
641.297	260.62
641.502	259.62
641.707	259.62
641.913	263.62
642.118	247.62
642.323	246.62
642.528	257.62
642.733	258.62
642.939	244.62
643.144	251.62
643.349	250.62
643.554	244.62
643.759	246.62
643.964	243.62
644.169	249.62
644.374	240.62
644.579	234.62
644.784	243.62
644.989	253.62
645.194	240.62
645.399	252.62
645.604	253.62
645.809	250.62
646.014	239.62
646.219	247.62
646.423	255.62
646.628	252.62
646.833	235.62
647.038	253.62
647.243	222.62
647.447	257.62
647.652	234.62
647.857	240.62
648.062	243.62
648.266	231.62
648.471	234.62
648.676	253.62
648.88	256.62
649.085	240.62
649.289	235.62
649.494	233.62
649.698	235.62
649.903	211.62
650.107	213.62
650.312	235.62
650.516	236.62
650.721	229.62
650.925	219.62
651.13	225.62
651.334	233.62
651.539	219.62
651.743	233.62
651.947	230.62
652.152	223.62
652.356	213.62
652.56	212.62
652.764	224.62
652.969	216.62
653.173	200.62
653.377	209.62
653.581	201.62
653.785	205.62
653.99	200.62
654.194	223.62
654.398	207.62
654.602	215.62
654.806	181.62
655.01	195.62
655.214	203.62
655.418	211.62
655.622	190.62
655.826	211.62
656.03	204.62
656.234	226.62
656.438	228.62
656.642	226.62
656.846	233.62
657.049	193.62
657.253	211.62
657.457	205.62
657.661	176.62
657.865	167.62
658.068	187.62
658.272	171.62
658.476	155.62
658.68	156.62
658.883	155.62
659.087	151.62
659.291	132.62
659.494	147.62
659.698	142.62
659.901	125.62
660.105	127.62
660.309	126.62
660.512	117.62
660.716	125.62
660.919	121.62
661.123	128.62
661.326	116.62
661.53	120.62
661.733	101.62
661.936	108.62
662.14	100.62
662.343	108.62
662.546	107.62
662.75	112.62
662.953	104.62
663.156	98.62
663.36	100.62
663.563	86.62
663.766	91.62
663.969	85.62
664.173	101.62
664.376	98.62
664.579	93.62
664.782	90.62
664.985	81.62
665.188	92.62
665.391	78.62
665.594	85.62
665.797	90.62
666	73.62
666.203	87.62
666.406	74.62
666.609	83.62
666.812	91.62
667.015	95.62
667.218	93.62
667.421	73.62
667.624	79.62
667.827	79.62
668.03	84.62
668.232	67.62
668.435	80.62
668.638	79.62
668.841	85.62
669.043	82.62
669.246	89.62
669.449	77.62
669.651	73.62
669.854	73.62
670.057	80.62
670.259	85.62
670.462	88.62
670.665	75.62
670.867	79.62
671.07	77.62
671.272	98.62
671.475	85.62
671.677	77.62
671.88	82.62
672.082	74.62
672.284	86.62
672.487	82.62
672.689	75.62
672.892	60.62
