Data from WStandard_LampEnergy5.5LIBS07252019.E.O._I.C._HRD10591_16-06-38-919.txt Node
Date: Thu Jul 25 16:06:38 EDT 2019
User: cochatt
Spectrometer: HR+D1059
Trigger mode: 1
Integration Time (sec): 1.000000E-1
Scans to average: 1
Electric dark correction enabled: true
Nonlinearity correction enabled: false
Boxcar width: 0
XAxis mode: Wavelengths
Number of Pixels in Spectrum: 2048
>>>>>Begin Spectral Data<<<<<
223.165	-7.62
223.4	-7.62
223.635	-7.62
223.869	-17.62
224.104	-19.62
224.338	-6.62
224.573	-13.62
224.808	-5.62
225.042	-14.62
225.277	-21.62
225.511	8.38
225.746	3.38
225.98	4.38
226.215	19.38
226.449	18.38
226.683	14.38
226.918	12.38
227.152	26.38
227.387	32.38
227.621	39.38
227.856	36.38
228.09	53.38
228.324	52.38
228.559	60.38
228.793	154.38
229.027	345.38
229.262	364.38
229.496	406.38
229.73	410.38
229.964	449.38
230.199	448.38
230.433	465.38
230.667	508.38
230.901	521.38
231.136	479.38
231.37	466.38
231.604	481.38
231.838	461.38
232.072	483.38
232.306	456.38
232.541	475.38
232.775	527.38
233.009	611.38
233.243	599.38
233.477	510.38
233.711	557.38
233.945	556.38
234.179	548.38
234.413	588.38
234.647	635.38
234.881	612.38
235.115	561.38
235.349	548.38
235.583	554.38
235.817	554.38
236.051	547.38
236.285	562.38
236.519	596.38
236.753	679.38
236.987	680.38
237.221	659.38
237.455	724.38
237.689	721.38
237.922	659.38
238.156	651.38
238.39	640.38
238.624	708.38
238.858	736.38
239.091	755.38
239.325	810.38
239.559	920.38
239.793	985.38
240.027	1030.38
240.26	1032.38
240.494	765.38
240.728	706.38
240.961	709.38
241.195	740.38
241.429	813.38
241.662	806.38
241.896	737.38
242.13	783.38
242.363	860.38
242.597	929.38
242.83	888.38
243.064	890.38
243.298	963.38
243.531	925.38
243.765	924.38
243.998	924.38
244.232	807.38
244.465	776.38
244.699	793.38
244.932	875.38
245.166	1034.38
245.399	973.38
245.633	924.38
245.866	880.38
246.099	924.38
246.333	935.38
246.566	973.38
246.8	1038.38
247.033	1193.38
247.266	1090.38
247.5	1065.38
247.733	1029.38
247.966	1112.38
248.2	1270.38
248.433	1174.38
248.666	1251.38
248.899	1321.38
249.133	1507.38
249.366	1786.38
249.599	1424.38
249.832	1234.38
250.066	1280.38
250.299	1298.38
250.532	1216.38
250.765	1053.38
250.998	1148.38
251.231	1220.38
251.465	1209.38
251.698	1184.38
251.931	1207.38
252.164	1182.38
252.397	1266.38
252.63	1258.38
252.863	1107.38
253.096	1090.38
253.329	1140.38
253.562	1191.38
253.795	1276.38
254.028	1293.38
254.261	1193.38
254.494	1152.38
254.727	1086.38
254.96	1128.38
255.193	1228.38
255.426	1380.38
255.659	1607.38
255.892	1708.38
256.124	1379.38
256.357	1326.38
256.59	1436.38
256.823	1432.38
257.056	1414.38
257.289	1696.38
257.521	1879.38
257.754	1692.38
257.987	1566.38
258.22	1767.38
258.452	1743.38
258.685	1409.38
258.918	1334.38
259.151	1395.38
259.383	1346.38
259.616	1124.38
259.849	1221.38
260.081	1404.38
260.314	1532.38
260.547	1675.38
260.779	1739.38
261.012	1618.38
261.244	1453.38
261.477	1360.38
261.71	1412.38
261.942	1415.38
262.175	1365.38
262.407	1458.38
262.64	1392.38
262.872	1259.38
263.105	1225.38
263.337	1292.38
263.57	1300.38
263.802	1289.38
264.035	1213.38
264.267	1153.38
264.499	1123.38
264.732	1236.38
264.964	1261.38
265.197	1340.38
265.429	1375.38
265.661	1560.38
265.894	1714.38
266.126	1782.38
266.358	1567.38
266.591	1626.38
266.823	1801.38
267.055	1576.38
267.287	1593.38
267.52	1556.38
267.752	1514.38
267.984	1533.38
268.216	1630.38
268.448	1655.38
268.681	1645.38
268.913	1494.38
269.145	1427.38
269.377	1388.38
269.609	1451.38
269.841	1714.38
270.073	2026.38
270.306	2231.38
270.538	2425.38
270.77	2034.38
271.002	1724.38
271.234	1616.38
271.466	1622.38
271.698	1810.38
271.93	2191.38
272.162	2178.38
272.394	1956.38
272.626	1922.38
272.858	1642.38
273.09	1446.38
273.322	1450.38
273.553	1369.38
273.785	1403.38
274.017	1438.38
274.249	1531.38
274.481	1580.38
274.713	1426.38
274.945	1370.38
275.176	1437.38
275.408	1400.38
275.64	1372.38
275.872	1342.38
276.104	1423.38
276.335	1632.38
276.567	1879.38
276.799	1883.38
277.031	1655.38
277.262	1576.38
277.494	1643.38
277.726	1806.38
277.957	1821.38
278.189	1684.38
278.421	1545.38
278.652	1480.38
278.884	1462.38
279.115	1461.38
279.347	1491.38
279.579	1430.38
279.81	1449.38
280.042	1614.38
280.273	1760.38
280.505	1745.38
280.736	1795.38
280.968	1688.38
281.199	1466.38
281.431	1437.38
281.662	1435.38
281.894	1417.38
282.125	1476.38
282.356	1522.38
282.588	1552.38
282.819	1524.38
283.051	1672.38
283.282	1772.38
283.513	1749.38
283.745	1477.38
283.976	1386.38
284.207	1432.38
284.439	1464.38
284.67	1461.38
284.901	1518.38
285.132	1546.38
285.364	1489.38
285.595	1574.38
285.826	1484.38
286.057	1467.38
286.288	1472.38
286.52	1514.38
286.751	1676.38
286.982	1736.38
287.213	1597.38
287.444	1460.38
287.675	1431.38
287.906	1527.38
288.138	1612.38
288.369	1556.38
288.6	1535.38
288.831	1472.38
289.062	1458.38
289.293	1502.38
289.524	1466.38
289.755	1541.38
289.986	1569.38
290.217	1444.38
290.448	1450.38
290.679	1526.38
290.91	1524.38
291.141	1562.38
291.371	1588.38
291.602	1634.38
291.833	1573.38
292.064	1629.38
292.295	1623.38
292.526	1620.38
292.757	1721.38
292.987	1622.38
293.218	1526.38
293.449	1628.38
293.68	1842.38
293.91	2026.38
294.141	1896.38
294.372	1719.38
294.603	1809.38
294.833	1861.38
295.064	1806.38
295.295	1612.38
295.525	1608.38
295.756	1475.38
295.987	1401.38
296.217	1427.38
296.448	1468.38
296.679	1464.38
296.909	1487.38
297.14	1481.38
297.37	1486.38
297.601	1560.38
297.831	1707.38
298.062	1684.38
298.292	1558.38
298.523	1443.38
298.753	1521.38
298.984	1542.38
299.214	1562.38
299.445	1568.38
299.675	1624.38
299.905	1622.38
300.136	1552.38
300.366	1568.38
300.597	1462.38
300.827	1507.38
301.057	1517.38
301.288	1624.38
301.518	1588.38
301.748	1599.38
301.979	1685.38
302.209	1764.38
302.439	1849.38
302.669	1947.38
302.9	1821.38
303.13	1628.38
303.36	1599.38
303.59	1676.38
303.82	1656.38
304.051	1598.38
304.281	1637.38
304.511	1644.38
304.741	1669.38
304.971	1908.38
305.201	2093.38
305.431	1907.38
305.661	1594.38
305.891	1442.38
306.121	1464.38
306.352	1458.38
306.582	1554.38
306.812	1689.38
307.042	1771.38
307.272	1769.38
307.502	1800.38
307.731	1985.38
307.961	2166.38
308.191	2029.38
308.421	1702.38
308.651	1597.38
308.881	1591.38
309.111	1556.38
309.341	1555.38
309.571	1605.38
309.8	1576.38
310.03	1563.38
310.26	1516.38
310.49	1543.38
310.72	1573.38
310.949	1651.38
311.179	1702.38
311.409	1645.38
311.639	1586.38
311.868	1541.38
312.098	1607.38
312.328	1588.38
312.557	1545.38
312.787	1629.38
313.017	1662.38
313.246	1633.38
313.476	1604.38
313.706	1645.38
313.935	1682.38
314.165	1678.38
314.394	1698.38
314.624	1844.38
314.853	1926.38
315.083	1963.38
315.312	2082.38
315.542	1933.38
315.771	1718.38
316.001	1700.38
316.23	1802.38
316.46	1780.38
316.689	1747.38
316.919	1678.38
317.148	1603.38
317.377	1615.38
317.607	1716.38
317.836	1958.38
318.065	2029.38
318.295	1923.38
318.524	1872.38
318.753	1815.38
318.983	1798.38
319.212	1747.38
319.441	1704.38
319.67	1660.38
319.9	1713.38
320.129	1797.38
320.358	1906.38
320.587	1910.38
320.816	1914.38
321.046	1891.38
321.275	1753.38
321.504	1728.38
321.733	1925.38
321.962	1909.38
322.191	1729.38
322.42	1746.38
322.649	1696.38
322.878	1736.38
323.108	1698.38
323.337	1803.38
323.566	1778.38
323.795	1791.38
324.024	1806.38
324.253	1759.38
324.482	1756.38
324.71	1736.38
324.939	1625.38
325.168	1624.38
325.397	1714.38
325.626	1765.38
325.855	1816.38
326.084	1693.38
326.313	1745.38
326.542	1781.38
326.77	1812.38
326.999	1817.38
327.228	1734.38
327.457	1649.38
327.686	1637.38
327.914	1672.38
328.143	1706.38
328.372	1762.38
328.6	1730.38
328.829	1693.38
329.058	1709.38
329.287	1662.38
329.515	1753.38
329.744	1738.38
329.972	1842.38
330.201	1888.38
330.43	1912.38
330.658	1812.38
330.887	1829.38
331.115	1834.38
331.344	1820.38
331.572	1789.38
331.801	1798.38
332.03	1804.38
332.258	1789.38
332.486	1810.38
332.715	1862.38
332.943	1872.38
333.172	1830.38
333.4	1852.38
333.629	1881.38
333.857	1952.38
334.085	2121.38
334.314	2466.38
334.542	2724.38
334.771	2498.38
334.999	2191.38
335.227	2072.38
335.455	1948.38
335.684	1949.38
335.912	1981.38
336.14	2046.38
336.369	1957.38
336.597	1874.38
336.825	1816.38
337.053	1878.38
337.281	1957.38
337.51	2076.38
337.738	2174.38
337.966	2106.38
338.194	1901.38
338.422	1826.38
338.65	1801.38
338.878	1780.38
339.106	1777.38
339.334	1732.38
339.562	1703.38
339.79	1749.38
340.018	1857.38
340.246	1929.38
340.474	1936.38
340.702	1904.38
340.93	1912.38
341.158	1849.38
341.386	1814.38
341.614	1853.38
341.842	1803.38
342.07	1824.38
342.298	1807.38
342.526	1819.38
342.754	1797.38
342.981	1737.38
343.209	1789.38
343.437	1729.38
343.665	1785.38
343.893	1819.38
344.12	1907.38
344.348	2005.38
344.576	1879.38
344.804	1803.38
345.031	1766.38
345.259	1813.38
345.487	1714.38
345.714	1658.38
345.942	1615.38
346.17	1650.38
346.397	1680.38
346.625	1748.38
346.853	1605.38
347.08	1611.38
347.308	1640.38
347.535	1680.38
347.763	1729.38
347.99	1721.38
348.218	1606.38
348.445	1618.38
348.673	1681.38
348.9	1714.38
349.128	1761.38
349.355	1862.38
349.583	1798.38
349.81	1703.38
350.037	1567.38
350.265	1527.38
350.492	1591.38
350.72	1626.38
350.947	1661.38
351.174	1708.38
351.402	1665.38
351.629	1594.38
351.856	1556.38
352.083	1495.38
352.311	1554.38
352.538	1588.38
352.765	1673.38
352.992	1715.38
353.22	1648.38
353.447	1619.38
353.674	1618.38
353.901	1676.38
354.128	1605.38
354.355	1588.38
354.583	1679.38
354.81	1685.38
355.037	1728.38
355.264	1712.38
355.491	1672.38
355.718	1692.38
355.945	1659.38
356.172	1640.38
356.399	1579.38
356.626	1590.38
356.853	1643.38
357.08	1779.38
357.307	1976.38
357.534	1954.38
357.761	1766.38
357.988	1624.38
358.215	1589.38
358.441	1607.38
358.668	1547.38
358.895	1565.38
359.122	1662.38
359.349	1800.38
359.576	1827.38
359.802	1629.38
360.029	1638.38
360.256	1581.38
360.483	1615.38
360.709	1673.38
360.936	1691.38
361.163	1725.38
361.39	1906.38
361.616	2091.38
361.843	2029.38
362.07	1931.38
362.296	1724.38
362.523	1648.38
362.749	1615.38
362.976	1668.38
363.203	1669.38
363.429	1628.38
363.656	1606.38
363.882	1628.38
364.109	1797.38
364.335	1972.38
364.562	1824.38
364.788	1734.38
365.015	1701.38
365.241	1600.38
365.468	1666.38
365.694	1707.38
365.92	1785.38
366.147	1701.38
366.373	1658.38
366.599	1584.38
366.826	1596.38
367.052	1589.38
367.278	1594.38
367.505	1620.38
367.731	1653.38
367.957	1635.38
368.184	1717.38
368.41	1829.38
368.636	1849.38
368.862	1814.38
369.089	1869.38
369.315	1821.38
369.541	1708.38
369.767	1706.38
369.993	1615.38
370.219	1614.38
370.445	1686.38
370.672	1764.38
370.898	1828.38
371.124	1812.38
371.35	1725.38
371.576	1765.38
371.802	1840.38
372.028	1773.38
372.254	1693.38
372.48	1665.38
372.706	1663.38
372.932	1638.38
373.158	1668.38
373.384	1669.38
373.61	1734.38
373.835	1832.38
374.061	1754.38
374.287	1706.38
374.513	1720.38
374.739	1756.38
374.965	1769.38
375.191	1744.38
375.416	1742.38
375.642	1804.38
375.868	1826.38
376.094	1915.38
376.319	1892.38
376.545	1716.38
376.771	1730.38
376.997	1852.38
377.222	1813.38
377.448	1777.38
377.674	1835.38
377.899	1757.38
378.125	1868.38
378.35	1898.38
378.576	1732.38
378.802	1640.38
379.027	1672.38
379.253	1724.38
379.478	1699.38
379.704	1716.38
379.929	1708.38
380.155	1715.38
380.38	1730.38
380.606	1735.38
380.831	1740.38
381.057	1811.38
381.282	1841.38
381.507	1767.38
381.733	1869.38
381.958	1974.38
382.184	1841.38
382.409	1734.38
382.634	1789.38
382.86	1799.38
383.085	1803.38
383.31	1830.38
383.535	1968.38
383.761	2058.38
383.986	1992.38
384.211	1897.38
384.436	1958.38
384.662	1994.38
384.887	2077.38
385.112	1999.38
385.337	1984.38
385.562	1938.38
385.787	1928.38
386.013	2003.38
386.238	2012.38
386.463	1997.38
386.688	2128.38
386.913	2279.38
387.138	2208.38
387.363	2060.38
387.588	2029.38
387.813	2015.38
388.038	2009.38
388.263	2071.38
388.488	2068.38
388.713	1893.38
388.938	1901.38
389.163	1876.38
389.387	1951.38
389.612	1940.38
389.837	2005.38
390.062	1976.38
390.287	1996.38
390.512	1984.38
390.736	1992.38
390.961	1889.38
391.186	1843.38
391.411	1897.38
391.636	1948.38
391.86	1970.38
392.085	1944.38
392.31	1921.38
392.534	1947.38
392.759	1954.38
392.984	1957.38
393.208	1986.38
393.433	2080.38
393.658	2153.38
393.882	2136.38
394.107	1984.38
394.331	1963.38
394.556	1938.38
394.78	1990.38
395.005	2034.38
395.229	2077.38
395.454	2214.38
395.678	2247.38
395.903	2147.38
396.127	2086.38
396.352	2075.38
396.576	2123.38
396.801	2147.38
397.025	2170.38
397.249	2168.38
397.474	2171.38
397.698	2069.38
397.922	2172.38
398.147	2245.38
398.371	2357.38
398.595	2357.38
398.82	2225.38
399.044	2292.38
399.268	2401.38
399.492	2532.38
399.717	2650.38
399.941	2682.38
400.165	2595.38
400.389	2539.38
400.613	2474.38
400.837	2705.38
401.062	3069.38
401.286	2724.38
401.51	2406.38
401.734	2558.38
401.958	2502.38
402.182	2330.38
402.406	2219.38
402.63	2239.38
402.854	2189.38
403.078	2255.38
403.302	2301.38
403.526	2338.38
403.75	2339.38
403.974	2369.38
404.198	2354.38
404.422	2366.38
404.645	2516.38
404.869	2518.38
405.093	2365.38
405.317	2221.38
405.541	2334.38
405.765	2365.38
405.988	2338.38
406.212	2425.38
406.436	2439.38
406.66	2520.38
406.883	2480.38
407.107	2833.38
407.331	3014.38
407.555	3258.38
407.778	3069.38
408.002	2552.38
408.226	2445.38
408.449	2492.38
408.673	2399.38
408.896	2412.38
409.12	2443.38
409.344	2411.38
409.567	2253.38
409.791	2308.38
410.014	2405.38
410.238	2487.38
410.461	2674.38
410.685	2411.38
410.908	2276.38
411.132	2364.38
411.355	2312.38
411.578	2315.38
411.802	2249.38
412.025	2317.38
412.249	2251.38
412.472	2236.38
412.695	2231.38
412.919	2187.38
413.142	2218.38
413.365	2245.38
413.589	2336.38
413.812	2337.38
414.035	2456.38
414.258	2262.38
414.482	2197.38
414.705	2235.38
414.928	2238.38
415.151	2221.38
415.374	2254.38
415.597	2269.38
415.821	2270.38
416.044	2382.38
416.267	2378.38
416.49	2171.38
416.713	2148.38
416.936	2229.38
417.159	2312.38
417.382	2310.38
417.605	2189.38
417.828	2180.38
418.051	2314.38
418.274	2207.38
418.497	2144.38
418.72	2187.38
418.943	2169.38
419.166	2286.38
419.389	2408.38
419.611	2271.38
419.834	2185.38
420.057	2218.38
420.28	2160.38
420.503	2187.38
420.726	2207.38
420.948	2210.38
421.171	2126.38
421.394	2168.38
421.617	2215.38
421.839	2194.38
422.062	2171.38
422.285	2122.38
422.507	2156.38
422.73	2086.38
422.953	2072.38
423.175	2070.38
423.398	2161.38
423.621	2144.38
423.843	2177.38
424.066	2227.38
424.288	2305.38
424.511	2314.38
424.733	2272.38
424.956	2076.38
425.178	2052.38
425.401	2056.38
425.623	2108.38
425.846	2094.38
426.068	2221.38
426.291	2182.38
426.513	2172.38
426.735	2202.38
426.958	2317.38
427.18	2446.38
427.402	2250.38
427.625	2315.38
427.847	2344.38
428.069	2193.38
428.292	2100.38
428.514	2068.38
428.736	2017.38
428.958	2107.38
429.181	2050.38
429.403	2352.38
429.625	2880.38
429.847	2588.38
430.069	2146.38
430.292	2296.38
430.514	2442.38
430.736	2249.38
430.958	2336.38
431.18	2208.38
431.402	2086.38
431.624	2108.38
431.846	2142.38
432.068	2043.38
432.29	2086.38
432.512	2111.38
432.734	2104.38
432.956	2148.38
433.178	2268.38
433.4	2299.38
433.622	2258.38
433.844	2140.38
434.066	2046.38
434.287	2059.38
434.509	2142.38
434.731	2258.38
434.953	2345.38
435.175	2362.38
435.397	2149.38
435.618	2205.38
435.84	2154.38
436.062	2178.38
436.284	2168.38
436.505	2182.38
436.727	2221.38
436.949	2137.38
437.17	2090.38
437.392	2085.38
437.614	2106.38
437.835	2085.38
438.057	2176.38
438.278	2256.38
438.5	2119.38
438.721	2092.38
438.943	2146.38
439.165	2096.38
439.386	2013.38
439.608	2097.38
439.829	2054.38
440.05	2109.38
440.272	2032.38
440.493	2038.38
440.715	2032.38
440.936	2171.38
441.158	2445.38
441.379	2374.38
441.6	2329.38
441.822	2224.38
442.043	2241.38
442.264	2157.38
442.486	2051.38
442.707	2063.38
442.928	2053.38
443.149	2147.38
443.371	2232.38
443.592	2332.38
443.813	2309.38
444.034	2266.38
444.255	2283.38
444.476	2328.38
444.698	2381.38
444.919	2323.38
445.14	2378.38
445.361	2418.38
445.582	2474.38
445.803	2387.38
446.024	2294.38
446.245	2380.38
446.466	2274.38
446.687	2182.38
446.908	2189.38
447.129	2117.38
447.35	2155.38
447.571	2132.38
447.792	2080.38
448.013	2025.38
448.234	2060.38
448.455	2182.38
448.675	2180.38
448.896	2016.38
449.117	1968.38
449.338	2058.38
449.559	2131.38
449.779	2243.38
450	2430.38
450.221	2642.38
450.442	2594.38
450.662	2245.38
450.883	1949.38
451.104	1965.38
451.324	2022.38
451.545	2071.38
451.766	2019.38
451.986	1908.38
452.207	1944.38
452.428	1889.38
452.648	1834.38
452.869	1895.38
453.089	2048.38
453.31	2035.38
453.53	2082.38
453.751	2012.38
453.971	1868.38
454.192	1965.38
454.412	2054.38
454.633	1970.38
454.853	1934.38
455.073	1816.38
455.294	1820.38
455.514	1809.38
455.734	1843.38
455.955	1872.38
456.175	1867.38
456.395	1841.38
456.616	1901.38
456.836	1956.38
457.056	1867.38
457.276	1922.38
457.497	1868.38
457.717	1810.38
457.937	1840.38
458.157	1861.38
458.377	1850.38
458.598	1886.38
458.818	1844.38
459.038	1929.38
459.258	2081.38
459.478	2078.38
459.698	2016.38
459.918	2073.38
460.138	2177.38
460.358	2197.38
460.578	2204.38
460.798	2306.38
461.018	2445.38
461.238	2342.38
461.458	2192.38
461.678	2198.38
461.898	2182.38
462.118	2110.38
462.338	2248.38
462.558	2227.38
462.777	2269.38
462.997	2317.38
463.217	2462.38
463.437	2452.38
463.657	2300.38
463.876	2206.38
464.096	2213.38
464.316	2219.38
464.536	2300.38
464.755	2352.38
464.975	2344.38
465.195	2204.38
465.414	2378.38
465.634	2382.38
465.854	2205.38
466.073	2357.38
466.293	2296.38
466.512	2054.38
466.732	2069.38
466.951	2123.38
467.171	2151.38
467.391	2006.38
467.61	1942.38
467.829	2001.38
468.049	2145.38
468.268	2380.38
468.488	2284.38
468.707	2144.38
468.927	2080.38
469.146	2056.38
469.365	1960.38
469.585	2008.38
469.804	1965.38
470.023	2024.38
470.243	2052.38
470.462	2058.38
470.681	1976.38
470.901	2076.38
471.12	2032.38
471.339	1996.38
471.558	1991.38
471.777	1924.38
471.997	1964.38
472.216	2009.38
472.435	1919.38
472.654	1925.38
472.873	2035.38
473.092	2156.38
473.311	2098.38
473.53	1944.38
473.749	1924.38
473.968	1989.38
474.187	2113.38
474.406	2198.38
474.625	2088.38
474.844	2038.38
475.063	2044.38
475.282	2122.38
475.501	2054.38
475.72	2066.38
475.939	2145.38
476.158	2098.38
476.377	2074.38
476.596	2078.38
476.814	2117.38
477.033	2181.38
477.252	2225.38
477.471	2281.38
477.69	2126.38
477.908	2135.38
478.127	2266.38
478.346	2449.38
478.564	2500.38
478.783	2418.38
479.002	2513.38
479.22	2436.38
479.439	2504.38
479.658	2915.38
479.876	2868.38
480.095	2474.38
480.313	2336.38
480.532	2248.38
480.751	2287.38
480.969	2340.38
481.188	2273.38
481.406	2285.38
481.624	2225.38
481.843	2282.38
482.061	2312.38
482.28	2343.38
482.498	2344.38
482.717	2336.38
482.935	2253.38
483.153	2238.38
483.372	2274.38
483.59	2240.38
483.808	2303.38
484.027	2328.38
484.245	2454.38
484.463	2762.38
484.681	3251.38
484.9	2502.38
485.118	2317.38
485.336	2301.38
485.554	2361.38
485.772	2479.38
485.99	2418.38
486.209	2478.38
486.427	2435.38
486.645	2449.38
486.863	2395.38
487.081	2457.38
487.299	2497.38
487.517	2467.38
487.735	2348.38
487.953	2330.38
488.171	2326.38
488.389	2333.38
488.607	2355.38
488.825	2581.38
489.043	2634.38
489.261	2392.38
489.479	2478.38
489.696	2538.38
489.914	2521.38
490.132	2460.38
490.35	2396.38
490.568	2518.38
490.786	2421.38
491.003	2284.38
491.221	2398.38
491.439	2469.38
491.657	2452.38
491.874	2461.38
492.092	2506.38
492.31	2476.38
492.527	2429.38
492.745	2396.38
492.963	2429.38
493.18	2566.38
493.398	2674.38
493.615	2804.38
493.833	2530.38
494.05	2412.38
494.268	2444.38
494.485	2579.38
494.703	2525.38
494.92	2441.38
495.138	2406.38
495.355	2473.38
495.573	2560.38
495.79	2724.38
496.008	2715.38
496.225	2582.38
496.442	2557.38
496.66	2637.38
496.877	2542.38
497.094	2702.38
497.312	2703.38
497.529	2722.38
497.746	2770.38
497.963	3225.38
498.181	3573.38
498.398	3368.38
498.615	3291.38
498.832	3127.38
499.049	3161.38
499.267	3178.38
499.484	3404.38
499.701	3614.38
499.918	3680.38
500.135	3915.38
500.352	4160.38
500.569	4150.38
500.786	4469.38
501.003	4174.38
501.22	3718.38
501.437	3670.38
501.654	3623.38
501.871	3563.38
502.088	3170.38
502.305	3143.38
502.522	3046.38
502.739	2819.38
502.956	2717.38
503.172	2707.38
503.389	2664.38
503.606	2562.38
503.823	2617.38
504.04	2622.38
504.256	2632.38
504.473	2573.38
504.69	2724.38
504.907	2574.38
505.123	2434.38
505.34	2553.38
505.557	3297.38
505.773	2816.38
505.99	2378.38
506.207	2310.38
506.423	2262.38
506.64	2240.38
506.856	2241.38
507.073	2443.38
507.289	2709.38
507.506	2605.38
507.722	2244.38
507.939	2164.38
508.155	2193.38
508.372	2155.38
508.588	2102.38
508.805	2088.38
509.021	2013.38
509.238	1997.38
509.454	2024.38
509.67	2012.38
509.887	1988.38
510.103	1987.38
510.319	2059.38
510.536	2121.38
510.752	2171.38
510.968	2203.38
511.184	2361.38
511.401	2314.38
511.617	2048.38
511.833	1979.38
512.049	1996.38
512.265	1953.38
512.481	1978.38
512.698	2056.38
512.914	2141.38
513.13	2102.38
513.346	1969.38
513.562	1921.38
513.778	1983.38
513.994	2080.38
514.21	2160.38
514.426	2148.38
514.642	2394.38
514.858	2261.38
515.074	2052.38
515.29	1989.38
515.506	2103.38
515.721	2081.38
515.937	2093.38
516.153	2374.38
516.369	2280.38
516.585	2162.38
516.801	2067.38
517.016	2062.38
517.232	2148.38
517.448	2154.38
517.664	2201.38
517.879	2182.38
518.095	2262.38
518.311	2189.38
518.527	2081.38
518.742	2069.38
518.958	1998.38
519.173	1985.38
519.389	2022.38
519.605	2026.38
519.82	2049.38
520.036	2029.38
520.251	1976.38
520.467	2004.38
520.682	2162.38
520.898	2256.38
521.113	2022.38
521.329	1993.38
521.544	2130.38
521.76	2014.38
521.975	1923.38
522.19	1882.38
522.406	1910.38
522.621	2282.38
522.836	2318.38
523.052	1888.38
523.267	1915.38
523.482	1940.38
523.698	1818.38
523.913	1800.38
524.128	1802.38
524.343	1902.38
524.559	1964.38
524.774	1846.38
524.989	1806.38
525.204	1812.38
525.419	1777.38
525.634	1769.38
525.849	1785.38
526.064	1840.38
526.28	1851.38
526.495	1776.38
526.71	1708.38
526.925	1760.38
527.14	1738.38
527.355	1716.38
527.57	1670.38
527.785	1741.38
527.999	1699.38
528.214	1656.38
528.429	1689.38
528.644	1669.38
528.859	1726.38
529.074	1691.38
529.289	1710.38
529.503	1733.38
529.718	1778.38
529.933	1708.38
530.148	1666.38
530.363	1653.38
530.577	1734.38
530.792	1722.38
531.007	1728.38
531.221	1714.38
531.436	1764.38
531.651	1812.38
531.865	1851.38
532.08	1810.38
532.295	1693.38
532.509	1601.38
532.724	1661.38
532.938	1737.38
533.153	1883.38
533.367	1772.38
533.582	1722.38
533.796	1657.38
534.011	1729.38
534.225	1763.38
534.44	1689.38
534.654	1686.38
534.868	1654.38
535.083	1762.38
535.297	1760.38
535.511	1679.38
535.726	1683.38
535.94	1644.38
536.154	1645.38
536.369	1625.38
536.583	1642.38
536.797	1605.38
537.011	1697.38
537.225	1627.38
537.44	1596.38
537.654	1636.38
537.868	1641.38
538.082	1574.38
538.296	1537.38
538.51	1589.38
538.724	1537.38
538.938	1513.38
539.153	1606.38
539.367	1613.38
539.581	1592.38
539.795	1645.38
540.009	1650.38
540.222	1660.38
540.436	1681.38
540.65	1749.38
540.864	1787.38
541.078	1694.38
541.292	1576.38
541.506	1596.38
541.72	1658.38
541.934	1615.38
542.147	1666.38
542.361	1590.38
542.575	1555.38
542.789	1554.38
543.002	1504.38
543.216	1523.38
543.43	1636.38
543.644	1701.38
543.857	1728.38
544.071	1676.38
544.285	1658.38
544.498	1594.38
544.712	1637.38
544.925	1627.38
545.139	1668.38
545.352	1555.38
545.566	1536.38
545.779	1478.38
545.993	1549.38
546.206	1525.38
546.42	1515.38
546.633	1516.38
546.847	1506.38
547.06	1491.38
547.274	1574.38
547.487	1506.38
547.7	1520.38
547.914	1541.38
548.127	1537.38
548.34	1549.38
548.554	1534.38
548.767	1525.38
548.98	1526.38
549.193	1509.38
549.407	1547.38
549.62	1635.38
549.833	1523.38
550.046	1493.38
550.259	1537.38
550.473	1485.38
550.686	1487.38
550.899	1473.38
551.112	1477.38
551.325	1440.38
551.538	1555.38
551.751	1806.38
551.964	1475.38
552.177	1404.38
552.39	1406.38
552.603	1474.38
552.816	1513.38
553.029	1550.38
553.242	1615.38
553.455	1534.38
553.667	1518.38
553.88	1503.38
554.093	1485.38
554.306	1422.38
554.519	1426.38
554.732	1397.38
554.944	1426.38
555.157	1426.38
555.37	1421.38
555.583	1399.38
555.795	1385.38
556.008	1355.38
556.221	1338.38
556.433	1305.38
556.646	1326.38
556.859	1303.38
557.071	1295.38
557.284	1294.38
557.496	1287.38
557.709	1288.38
557.921	1235.38
558.134	1261.38
558.346	1268.38
558.559	1284.38
558.771	1261.38
558.984	1232.38
559.196	1191.38
559.409	1241.38
559.621	1230.38
559.833	1225.38
560.046	1285.38
560.258	1266.38
560.47	1247.38
560.683	1250.38
560.895	1235.38
561.107	1242.38
561.32	1260.38
561.532	1269.38
561.744	1236.38
561.956	1238.38
562.168	1229.38
562.381	1189.38
562.593	1185.38
562.805	1197.38
563.017	1163.38
563.229	1217.38
563.441	1256.38
563.653	1204.38
563.865	1232.38
564.077	1197.38
564.289	1191.38
564.501	1201.38
564.713	1259.38
564.925	1301.38
565.137	1378.38
565.349	1259.38
565.561	1264.38
565.773	1280.38
565.985	1292.38
566.197	1403.38
566.408	1478.38
566.62	1505.38
566.832	1480.38
567.044	1447.38
567.255	1473.38
567.467	1470.38
567.679	1569.38
567.891	1573.38
568.102	1540.38
568.314	1476.38
568.526	1423.38
568.737	1338.38
568.949	1312.38
569.161	1237.38
569.372	1220.38
569.584	1153.38
569.795	1175.38
570.007	1179.38
570.218	1113.38
570.43	1091.38
570.641	1090.38
570.853	1114.38
571.064	1148.38
571.276	1076.38
571.487	1093.38
571.698	1026.38
571.91	1046.38
572.121	1019.38
572.333	1028.38
572.544	1005.38
572.755	975.38
572.966	976.38
573.178	982.38
573.389	972.38
573.6	1002.38
573.811	1088.38
574.023	993.38
574.234	971.38
574.445	918.38
574.656	923.38
574.867	900.38
575.078	940.38
575.289	934.38
575.501	934.38
575.712	925.38
575.923	929.38
576.134	939.38
576.345	885.38
576.556	887.38
576.767	878.38
576.978	880.38
577.188	876.38
577.399	835.38
577.61	873.38
577.821	869.38
578.032	852.38
578.243	828.38
578.454	857.38
578.665	857.38
578.875	820.38
579.086	832.38
579.297	833.38
579.508	882.38
579.718	872.38
579.929	821.38
580.14	826.38
580.35	797.38
580.561	850.38
580.772	882.38
580.982	861.38
581.193	814.38
581.403	788.38
581.614	800.38
581.825	780.38
582.035	823.38
582.246	784.38
582.456	813.38
582.667	797.38
582.877	802.38
583.087	766.38
583.298	766.38
583.508	776.38
583.719	792.38
583.929	770.38
584.139	772.38
584.35	762.38
584.56	757.38
584.77	783.38
584.981	791.38
585.191	791.38
585.401	815.38
585.611	805.38
585.821	758.38
586.032	747.38
586.242	746.38
586.452	743.38
586.662	781.38
586.872	748.38
587.082	765.38
587.292	766.38
587.502	780.38
587.713	777.38
587.923	762.38
588.133	750.38
588.343	786.38
588.553	747.38
588.762	732.38
588.972	731.38
589.182	782.38
589.392	780.38
589.602	738.38
589.812	770.38
590.022	726.38
590.232	742.38
590.441	743.38
590.651	772.38
590.861	763.38
591.071	706.38
591.281	723.38
591.49	721.38
591.7	756.38
591.91	729.38
592.119	737.38
592.329	710.38
592.539	754.38
592.748	780.38
592.958	770.38
593.167	773.38
593.377	781.38
593.587	781.38
593.796	763.38
594.006	776.38
594.215	760.38
594.424	740.38
594.634	778.38
594.843	758.38
595.053	772.38
595.262	740.38
595.472	733.38
595.681	749.38
595.89	715.38
596.1	700.38
596.309	707.38
596.518	683.38
596.727	678.38
596.937	670.38
597.146	665.38
597.355	683.38
597.564	663.38
597.774	655.38
597.983	648.38
598.192	634.38
598.401	656.38
598.61	637.38
598.819	640.38
599.028	634.38
599.237	629.38
599.446	596.38
599.655	605.38
599.864	604.38
600.073	607.38
600.282	593.38
600.491	611.38
600.7	598.38
600.909	592.38
601.118	592.38
601.327	606.38
601.536	603.38
601.745	600.38
601.953	612.38
602.162	582.38
602.371	624.38
602.58	592.38
602.789	612.38
602.997	583.38
603.206	582.38
603.415	601.38
603.623	589.38
603.832	596.38
604.041	570.38
604.249	564.38
604.458	588.38
604.666	589.38
604.875	566.38
605.084	609.38
605.292	601.38
605.501	591.38
605.709	577.38
605.918	584.38
606.126	564.38
606.334	556.38
606.543	543.38
606.751	563.38
606.96	544.38
607.168	555.38
607.376	571.38
607.585	551.38
607.793	530.38
608.001	556.38
608.21	553.38
608.418	570.38
608.626	543.38
608.834	545.38
609.043	531.38
609.251	537.38
609.459	532.38
609.667	556.38
609.875	546.38
610.083	550.38
610.291	584.38
610.499	576.38
610.707	571.38
610.916	555.38
611.124	539.38
611.332	540.38
611.54	537.38
611.748	550.38
611.955	526.38
612.163	531.38
612.371	489.38
612.579	517.38
612.787	516.38
612.995	536.38
613.203	535.38
613.411	505.38
613.618	518.38
613.826	523.38
614.034	551.38
614.242	522.38
614.449	503.38
614.657	536.38
614.865	509.38
615.072	532.38
615.28	514.38
615.488	523.38
615.695	541.38
615.903	537.38
616.111	514.38
616.318	540.38
616.526	527.38
616.733	524.38
616.941	514.38
617.148	517.38
617.356	526.38
617.563	520.38
617.771	500.38
617.978	514.38
618.185	521.38
618.393	501.38
618.6	499.38
618.807	496.38
619.015	500.38
619.222	506.38
619.429	501.38
619.637	493.38
619.844	489.38
620.051	500.38
620.258	456.38
620.466	459.38
620.673	454.38
620.88	443.38
621.087	456.38
621.294	465.38
621.501	467.38
621.708	456.38
621.915	484.38
622.122	487.38
622.329	481.38
622.536	459.38
622.743	457.38
622.95	464.38
623.157	456.38
623.364	442.38
623.571	444.38
623.778	470.38
623.985	463.38
624.192	464.38
624.399	455.38
624.606	470.38
624.812	423.38
625.019	448.38
625.226	420.38
625.433	430.38
625.639	426.38
625.846	422.38
626.053	408.38
626.259	422.38
626.466	405.38
626.673	397.38
626.879	405.38
627.086	401.38
627.293	439.38
627.499	409.38
627.706	412.38
627.912	436.38
628.119	417.38
628.325	405.38
628.532	412.38
628.738	412.38
628.945	379.38
629.151	393.38
629.357	433.38
629.564	404.38
629.77	384.38
629.976	387.38
630.183	403.38
630.389	375.38
630.595	407.38
630.802	400.38
631.008	375.38
631.214	404.38
631.42	392.38
631.627	374.38
631.833	364.38
632.039	378.38
632.245	374.38
632.451	376.38
632.657	374.38
632.863	399.38
633.069	394.38
633.275	370.38
633.481	353.38
633.688	372.38
633.893	336.38
634.099	357.38
634.305	375.38
634.511	330.38
634.717	363.38
634.923	349.38
635.129	365.38
635.335	378.38
635.541	356.38
635.747	352.38
635.952	372.38
636.158	372.38
636.364	349.38
636.57	346.38
636.775	371.38
636.981	365.38
637.187	340.38
637.392	359.38
637.598	345.38
637.804	358.38
638.009	350.38
638.215	351.38
638.421	352.38
638.626	356.38
638.832	349.38
639.037	343.38
639.243	348.38
639.448	336.38
639.654	360.38
639.859	342.38
640.065	340.38
640.27	356.38
640.475	333.38
640.681	337.38
640.886	324.38
641.091	307.38
641.297	331.38
641.502	317.38
641.707	348.38
641.913	326.38
642.118	326.38
642.323	338.38
642.528	309.38
642.733	315.38
642.939	317.38
643.144	343.38
643.349	343.38
643.554	321.38
643.759	339.38
643.964	320.38
644.169	320.38
644.374	314.38
644.579	321.38
644.784	311.38
644.989	324.38
645.194	317.38
645.399	315.38
645.604	320.38
645.809	330.38
646.014	297.38
646.219	310.38
646.423	325.38
646.628	325.38
646.833	317.38
647.038	314.38
647.243	315.38
647.447	313.38
647.652	333.38
647.857	316.38
648.062	313.38
648.266	342.38
648.471	328.38
648.676	312.38
648.88	348.38
649.085	325.38
649.289	314.38
649.494	322.38
649.698	309.38
649.903	295.38
650.107	284.38
650.312	296.38
650.516	285.38
650.721	304.38
650.925	294.38
651.13	282.38
651.334	299.38
651.539	307.38
651.743	280.38
651.947	255.38
652.152	275.38
652.356	265.38
652.56	259.38
652.764	281.38
652.969	250.38
653.173	276.38
653.377	256.38
653.581	244.38
653.785	247.38
653.99	233.38
654.194	244.38
654.398	243.38
654.602	264.38
654.806	238.38
655.01	245.38
655.214	246.38
655.418	235.38
655.622	248.38
655.826	250.38
656.03	265.38
656.234	248.38
656.438	260.38
656.642	266.38
656.846	256.38
657.049	244.38
657.253	202.38
657.457	217.38
657.661	200.38
657.865	184.38
658.068	160.38
658.272	164.38
658.476	162.38
658.68	169.38
658.883	148.38
659.087	148.38
659.291	161.38
659.494	140.38
659.698	134.38
659.901	124.38
660.105	138.38
660.309	118.38
660.512	117.38
660.716	106.38
660.919	106.38
661.123	101.38
661.326	117.38
661.53	110.38
661.733	98.38
661.936	104.38
662.14	95.38
662.343	100.38
662.546	101.38
662.75	100.38
662.953	96.38
663.156	83.38
663.36	93.38
663.563	102.38
663.766	81.38
663.969	93.38
664.173	85.38
664.376	94.38
664.579	87.38
664.782	86.38
664.985	80.38
665.188	78.38
665.391	84.38
665.594	88.38
665.797	98.38
666	87.38
666.203	95.38
666.406	79.38
666.609	87.38
666.812	88.38
667.015	94.38
667.218	78.38
667.421	84.38
667.624	84.38
667.827	70.38
668.03	76.38
668.232	80.38
668.435	85.38
668.638	83.38
668.841	105.38
669.043	93.38
669.246	85.38
669.449	93.38
669.651	78.38
669.854	77.38
670.057	81.38
670.259	75.38
670.462	94.38
670.665	80.38
670.867	75.38
671.07	90.38
671.272	93.38
671.475	89.38
671.677	87.38
671.88	86.38
672.082	80.38
672.284	78.38
672.487	86.38
672.689	97.38
672.892	88.38
