Data from WStandard_LampEnergy8_LIBS07252019.E.O._I.C._HRD10591_16-00-00-930.txt Node
Date: Thu Jul 25 16:00:00 EDT 2019
User: cochatt
Spectrometer: HR+D1059
Trigger mode: 1
Integration Time (sec): 1.000000E-1
Scans to average: 1
Electric dark correction enabled: true
Nonlinearity correction enabled: false
Boxcar width: 0
XAxis mode: Wavelengths
Number of Pixels in Spectrum: 2048
>>>>>Begin Spectral Data<<<<<
223.165	-14.44
223.4	-14.44
223.635	-14.44
223.869	-18.44
224.104	-16.44
224.338	-14.44
224.573	-11.44
224.808	-2.44
225.042	-12.44
225.277	-2.44
225.511	0.56
225.746	-6.44
225.98	-5.44
226.215	14.56
226.449	29.56
226.683	9.56
226.918	23.56
227.152	26.56
227.387	21.56
227.621	35.56
227.856	35.56
228.09	50.56
228.324	48.56
228.559	64.56
228.793	110.56
229.027	200.56
229.262	209.56
229.496	212.56
229.73	214.56
229.964	224.56
230.199	243.56
230.433	254.56
230.667	268.56
230.901	282.56
231.136	256.56
231.37	256.56
231.604	245.56
231.838	239.56
232.072	260.56
232.306	244.56
232.541	258.56
232.775	312.56
233.009	324.56
233.243	309.56
233.477	271.56
233.711	317.56
233.945	293.56
234.179	301.56
234.413	312.56
234.647	336.56
234.881	319.56
235.115	295.56
235.349	284.56
235.583	287.56
235.817	294.56
236.051	300.56
236.285	320.56
236.519	316.56
236.753	366.56
236.987	355.56
237.221	356.56
237.455	361.56
237.689	375.56
237.922	361.56
238.156	356.56
238.39	354.56
238.624	373.56
238.858	371.56
239.091	426.56
239.325	420.56
239.559	483.56
239.793	477.56
240.027	505.56
240.26	512.56
240.494	385.56
240.728	356.56
240.961	378.56
241.195	391.56
241.429	410.56
241.662	421.56
241.896	394.56
242.13	394.56
242.363	416.56
242.597	451.56
242.83	453.56
243.064	466.56
243.298	484.56
243.531	471.56
243.765	438.56
243.998	471.56
244.232	396.56
244.465	386.56
244.699	405.56
244.932	466.56
245.166	510.56
245.399	484.56
245.633	476.56
245.866	436.56
246.099	477.56
246.333	496.56
246.566	485.56
246.8	517.56
247.033	572.56
247.266	546.56
247.5	521.56
247.733	529.56
247.966	554.56
248.2	600.56
248.433	615.56
248.666	601.56
248.899	672.56
249.133	748.56
249.366	837.56
249.599	676.56
249.832	622.56
250.066	604.56
250.299	611.56
250.532	579.56
250.765	544.56
250.998	576.56
251.231	564.56
251.465	600.56
251.698	574.56
251.931	594.56
252.164	599.56
252.397	619.56
252.63	622.56
252.863	535.56
253.096	558.56
253.329	564.56
253.562	579.56
253.795	616.56
254.028	604.56
254.261	584.56
254.494	552.56
254.727	524.56
254.96	566.56
255.193	631.56
255.426	693.56
255.659	746.56
255.892	796.56
256.124	666.56
256.357	625.56
256.59	693.56
256.823	691.56
257.056	708.56
257.289	810.56
257.521	910.56
257.754	804.56
257.987	749.56
258.22	841.56
258.452	821.56
258.685	687.56
258.918	638.56
259.151	650.56
259.383	648.56
259.616	595.56
259.849	633.56
260.081	704.56
260.314	764.56
260.547	790.56
260.779	812.56
261.012	787.56
261.244	679.56
261.477	647.56
261.71	673.56
261.942	714.56
262.175	665.56
262.407	694.56
262.64	660.56
262.872	647.56
263.105	596.56
263.337	615.56
263.57	655.56
263.802	618.56
264.035	580.56
264.267	560.56
264.499	548.56
264.732	621.56
264.964	668.56
265.197	692.56
265.429	705.56
265.661	773.56
265.894	833.56
266.126	848.56
266.358	782.56
266.591	810.56
266.823	868.56
267.055	804.56
267.287	764.56
267.52	757.56
267.752	767.56
267.984	755.56
268.216	809.56
268.448	798.56
268.681	785.56
268.913	722.56
269.145	697.56
269.377	734.56
269.609	732.56
269.841	853.56
270.073	1019.56
270.306	1081.56
270.538	1094.56
270.77	940.56
271.002	834.56
271.234	806.56
271.466	806.56
271.698	904.56
271.93	1078.56
272.162	1045.56
272.394	912.56
272.626	898.56
272.858	791.56
273.09	725.56
273.322	693.56
273.553	672.56
273.785	717.56
274.017	735.56
274.249	751.56
274.481	774.56
274.713	706.56
274.945	666.56
275.176	716.56
275.408	693.56
275.64	686.56
275.872	673.56
276.104	748.56
276.335	844.56
276.567	906.56
276.799	928.56
277.031	829.56
277.262	809.56
277.494	846.56
277.726	922.56
277.957	900.56
278.189	810.56
278.421	748.56
278.652	730.56
278.884	695.56
279.115	728.56
279.347	741.56
279.579	737.56
279.81	764.56
280.042	832.56
280.273	850.56
280.505	864.56
280.736	870.56
280.968	814.56
281.199	742.56
281.431	721.56
281.662	713.56
281.894	705.56
282.125	751.56
282.356	774.56
282.588	781.56
282.819	781.56
283.051	830.56
283.282	871.56
283.513	856.56
283.745	752.56
283.976	702.56
284.207	725.56
284.439	732.56
284.67	744.56
284.901	778.56
285.132	782.56
285.364	759.56
285.595	783.56
285.826	751.56
286.057	756.56
286.288	767.56
286.52	816.56
286.751	866.56
286.982	861.56
287.213	792.56
287.444	775.56
287.675	748.56
287.906	788.56
288.138	819.56
288.369	800.56
288.6	781.56
288.831	750.56
289.062	737.56
289.293	746.56
289.524	761.56
289.755	774.56
289.986	765.56
290.217	741.56
290.448	752.56
290.679	770.56
290.91	783.56
291.141	818.56
291.371	815.56
291.602	816.56
291.833	822.56
292.064	852.56
292.295	818.56
292.526	859.56
292.757	869.56
292.987	830.56
293.218	830.56
293.449	864.56
293.68	983.56
293.91	1030.56
294.141	968.56
294.372	930.56
294.603	955.56
294.833	988.56
295.064	929.56
295.295	837.56
295.525	821.56
295.756	777.56
295.987	739.56
296.217	755.56
296.448	744.56
296.679	752.56
296.909	778.56
297.14	775.56
297.37	793.56
297.601	857.56
297.831	870.56
298.062	866.56
298.292	807.56
298.523	780.56
298.753	807.56
298.984	793.56
299.214	794.56
299.445	827.56
299.675	873.56
299.905	872.56
300.136	823.56
300.366	796.56
300.597	788.56
300.827	788.56
301.057	821.56
301.288	839.56
301.518	854.56
301.748	871.56
301.979	938.56
302.209	927.56
302.439	965.56
302.669	996.56
302.9	964.56
303.13	860.56
303.36	864.56
303.59	848.56
303.82	847.56
304.051	846.56
304.281	869.56
304.511	893.56
304.741	975.56
304.971	1024.56
305.201	1080.56
305.431	979.56
305.661	812.56
305.891	786.56
306.121	768.56
306.352	823.56
306.582	859.56
306.812	871.56
307.042	957.56
307.272	966.56
307.502	989.56
307.731	1039.56
307.961	1102.56
308.191	1013.56
308.421	884.56
308.651	849.56
308.881	839.56
309.111	824.56
309.341	852.56
309.571	828.56
309.8	841.56
310.03	805.56
310.26	815.56
310.49	820.56
310.72	857.56
310.949	897.56
311.179	876.56
311.409	870.56
311.639	851.56
311.868	814.56
312.098	860.56
312.328	831.56
312.557	855.56
312.787	864.56
313.017	879.56
313.246	884.56
313.476	887.56
313.706	897.56
313.935	886.56
314.165	914.56
314.394	918.56
314.624	985.56
314.853	1006.56
315.083	1049.56
315.312	1041.56
315.542	1005.56
315.771	884.56
316.001	915.56
316.23	967.56
316.46	926.56
316.689	930.56
316.919	869.56
317.148	847.56
317.377	880.56
317.607	953.56
317.836	1070.56
318.065	1088.56
318.295	1029.56
318.524	981.56
318.753	962.56
318.983	968.56
319.212	935.56
319.441	928.56
319.67	894.56
319.9	938.56
320.129	975.56
320.358	996.56
320.587	1035.56
320.816	1046.56
321.046	1014.56
321.275	991.56
321.504	970.56
321.733	1017.56
321.962	986.56
322.191	966.56
322.42	907.56
322.649	928.56
322.878	919.56
323.108	931.56
323.337	947.56
323.566	962.56
323.795	967.56
324.024	946.56
324.253	923.56
324.482	964.56
324.71	892.56
324.939	851.56
325.168	892.56
325.397	919.56
325.626	954.56
325.855	969.56
326.084	963.56
326.313	934.56
326.542	965.56
326.77	952.56
326.999	926.56
327.228	924.56
327.457	888.56
327.686	885.56
327.914	896.56
328.143	917.56
328.372	905.56
328.6	920.56
328.829	910.56
329.058	891.56
329.287	906.56
329.515	948.56
329.744	976.56
329.972	999.56
330.201	1041.56
330.43	1013.56
330.658	956.56
330.887	996.56
331.115	1009.56
331.344	1006.56
331.572	958.56
331.801	963.56
332.03	989.56
332.258	960.56
332.486	984.56
332.715	1004.56
332.943	1008.56
333.172	999.56
333.4	1021.56
333.629	1009.56
333.857	1124.56
334.085	1211.56
334.314	1348.56
334.542	1426.56
334.771	1294.56
334.999	1173.56
335.227	1140.56
335.455	1057.56
335.684	1056.56
335.912	1072.56
336.14	1087.56
336.369	1046.56
336.597	1001.56
336.825	984.56
337.053	1068.56
337.281	1119.56
337.51	1161.56
337.738	1158.56
337.966	1078.56
338.194	1013.56
338.422	983.56
338.65	999.56
338.878	974.56
339.106	961.56
339.334	949.56
339.562	951.56
339.79	950.56
340.018	1005.56
340.246	1062.56
340.474	1032.56
340.702	1021.56
340.93	1030.56
341.158	1044.56
341.386	992.56
341.614	982.56
341.842	991.56
342.07	975.56
342.298	983.56
342.526	1032.56
342.754	990.56
342.981	952.56
343.209	944.56
343.437	968.56
343.665	972.56
343.893	998.56
344.12	1069.56
344.348	1058.56
344.576	1001.56
344.804	1000.56
345.031	984.56
345.259	989.56
345.487	924.56
345.714	903.56
345.942	923.56
346.17	898.56
346.397	949.56
346.625	931.56
346.853	905.56
347.08	871.56
347.308	905.56
347.535	911.56
347.763	956.56
347.99	912.56
348.218	892.56
348.445	879.56
348.673	914.56
348.9	950.56
349.128	990.56
349.355	1038.56
349.583	961.56
349.81	927.56
350.037	842.56
350.265	875.56
350.492	894.56
350.72	897.56
350.947	954.56
351.174	946.56
351.402	910.56
351.629	862.56
351.856	870.56
352.083	851.56
352.311	888.56
352.538	890.56
352.765	929.56
352.992	929.56
353.22	897.56
353.447	891.56
353.674	907.56
353.901	906.56
354.128	882.56
354.355	910.56
354.583	974.56
354.81	966.56
355.037	974.56
355.264	960.56
355.491	950.56
355.718	940.56
355.945	914.56
356.172	932.56
356.399	871.56
356.626	902.56
356.853	948.56
357.08	1038.56
357.307	1086.56
357.534	1081.56
357.761	942.56
357.988	884.56
358.215	882.56
358.441	855.56
358.668	897.56
358.895	911.56
359.122	970.56
359.349	1048.56
359.576	1000.56
359.802	937.56
360.029	885.56
360.256	897.56
360.483	927.56
360.709	933.56
360.936	978.56
361.163	1001.56
361.39	1121.56
361.616	1155.56
361.843	1145.56
362.07	1037.56
362.296	938.56
362.523	898.56
362.749	921.56
362.976	941.56
363.203	977.56
363.429	927.56
363.656	924.56
363.882	961.56
364.109	1053.56
364.335	1113.56
364.562	1044.56
364.788	976.56
365.015	933.56
365.241	916.56
365.468	962.56
365.694	991.56
365.92	1014.56
366.147	934.56
366.373	913.56
366.599	916.56
366.826	900.56
367.052	901.56
367.278	917.56
367.505	910.56
367.731	930.56
367.957	953.56
368.184	988.56
368.41	1045.56
368.636	1052.56
368.862	1079.56
369.089	1068.56
369.315	1053.56
369.541	979.56
369.767	940.56
369.993	905.56
370.219	923.56
370.445	956.56
370.672	1008.56
370.898	1073.56
371.124	1033.56
371.35	973.56
371.576	1043.56
371.802	1022.56
372.028	1001.56
372.254	948.56
372.48	954.56
372.706	946.56
372.932	983.56
373.158	966.56
373.384	981.56
373.61	1029.56
373.835	1050.56
374.061	986.56
374.287	994.56
374.513	995.56
374.739	1010.56
374.965	976.56
375.191	995.56
375.416	1031.56
375.642	1017.56
375.868	1109.56
376.094	1105.56
376.319	1048.56
376.545	990.56
376.771	1026.56
376.997	1060.56
377.222	1064.56
377.448	1021.56
377.674	1025.56
377.899	1020.56
378.125	1121.56
378.35	1091.56
378.576	1002.56
378.802	929.56
379.027	945.56
379.253	978.56
379.478	1008.56
379.704	996.56
379.929	982.56
380.155	1020.56
380.38	996.56
380.606	1040.56
380.831	1007.56
381.057	1057.56
381.282	1048.56
381.507	1032.56
381.733	1141.56
381.958	1143.56
382.184	1074.56
382.409	1022.56
382.634	1050.56
382.86	1032.56
383.085	1043.56
383.31	1106.56
383.535	1172.56
383.761	1250.56
383.986	1156.56
384.211	1088.56
384.436	1122.56
384.662	1201.56
384.887	1177.56
385.112	1146.56
385.337	1134.56
385.562	1110.56
385.787	1113.56
386.013	1160.56
386.238	1158.56
386.463	1134.56
386.688	1261.56
386.913	1299.56
387.138	1252.56
387.363	1185.56
387.588	1196.56
387.813	1161.56
388.038	1194.56
388.263	1236.56
388.488	1192.56
388.713	1080.56
388.938	1135.56
389.163	1096.56
389.387	1130.56
389.612	1155.56
389.837	1138.56
390.062	1144.56
390.287	1127.56
390.512	1117.56
390.736	1123.56
390.961	1089.56
391.186	1077.56
391.411	1106.56
391.636	1130.56
391.86	1148.56
392.085	1122.56
392.31	1096.56
392.534	1143.56
392.759	1170.56
392.984	1162.56
393.208	1177.56
393.433	1184.56
393.658	1227.56
393.882	1231.56
394.107	1150.56
394.331	1143.56
394.556	1126.56
394.78	1162.56
395.005	1192.56
395.229	1225.56
395.454	1316.56
395.678	1289.56
395.903	1214.56
396.127	1235.56
396.352	1226.56
396.576	1288.56
396.801	1226.56
397.025	1242.56
397.249	1233.56
397.474	1222.56
397.698	1225.56
397.922	1306.56
398.147	1356.56
398.371	1375.56
398.595	1357.56
398.82	1281.56
399.044	1366.56
399.268	1373.56
399.492	1450.56
399.717	1482.56
399.941	1487.56
400.165	1469.56
400.389	1454.56
400.613	1453.56
400.837	1672.56
401.062	1814.56
401.286	1532.56
401.51	1444.56
401.734	1456.56
401.958	1406.56
402.182	1342.56
402.406	1316.56
402.63	1265.56
402.854	1289.56
403.078	1316.56
403.302	1334.56
403.526	1343.56
403.75	1341.56
403.974	1343.56
404.198	1394.56
404.422	1441.56
404.645	1487.56
404.869	1433.56
405.093	1309.56
405.317	1300.56
405.541	1343.56
405.765	1348.56
405.988	1365.56
406.212	1392.56
406.436	1422.56
406.66	1447.56
406.883	1492.56
407.107	1674.56
407.331	1791.56
407.555	1929.56
407.778	1704.56
408.002	1446.56
408.226	1389.56
408.449	1434.56
408.673	1400.56
408.896	1375.56
409.12	1386.56
409.344	1362.56
409.567	1317.56
409.791	1346.56
410.014	1407.56
410.238	1456.56
410.461	1560.56
410.685	1385.56
410.908	1312.56
411.132	1375.56
411.355	1355.56
411.578	1308.56
411.802	1357.56
412.025	1329.56
412.249	1309.56
412.472	1300.56
412.695	1304.56
412.919	1305.56
413.142	1313.56
413.365	1322.56
413.589	1328.56
413.812	1420.56
414.035	1429.56
414.258	1343.56
414.482	1319.56
414.705	1342.56
414.928	1322.56
415.151	1293.56
415.374	1316.56
415.597	1332.56
415.821	1336.56
416.044	1361.56
416.267	1320.56
416.49	1276.56
416.713	1255.56
416.936	1324.56
417.159	1377.56
417.382	1393.56
417.605	1301.56
417.828	1325.56
418.051	1348.56
418.274	1345.56
418.497	1280.56
418.72	1271.56
418.943	1290.56
419.166	1337.56
419.389	1348.56
419.611	1334.56
419.834	1296.56
420.057	1323.56
420.28	1301.56
420.503	1261.56
420.726	1350.56
420.948	1320.56
421.171	1247.56
421.394	1314.56
421.617	1338.56
421.839	1356.56
422.062	1311.56
422.285	1282.56
422.507	1300.56
422.73	1234.56
422.953	1224.56
423.175	1230.56
423.398	1286.56
423.621	1283.56
423.843	1316.56
424.066	1372.56
424.288	1379.56
424.511	1368.56
424.733	1350.56
424.956	1245.56
425.178	1268.56
425.401	1231.56
425.623	1232.56
425.846	1249.56
426.068	1354.56
426.291	1350.56
426.513	1322.56
426.735	1342.56
426.958	1446.56
427.18	1477.56
427.402	1409.56
427.625	1406.56
427.847	1392.56
428.069	1336.56
428.292	1260.56
428.514	1225.56
428.736	1234.56
428.958	1253.56
429.181	1270.56
429.403	1444.56
429.625	1758.56
429.847	1498.56
430.069	1336.56
430.292	1471.56
430.514	1456.56
430.736	1347.56
430.958	1367.56
431.18	1313.56
431.402	1237.56
431.624	1217.56
431.846	1214.56
432.068	1105.56
432.29	1152.56
432.512	1172.56
432.734	1249.56
432.956	1255.56
433.178	1336.56
433.4	1333.56
433.622	1340.56
433.844	1274.56
434.066	1202.56
434.287	1186.56
434.509	1207.56
434.731	1264.56
434.953	1349.56
435.175	1332.56
435.397	1294.56
435.618	1293.56
435.84	1212.56
436.062	1251.56
436.284	1259.56
436.505	1285.56
436.727	1319.56
436.949	1247.56
437.17	1210.56
437.392	1231.56
437.614	1209.56
437.835	1172.56
438.057	1225.56
438.278	1241.56
438.5	1207.56
438.721	1222.56
438.943	1246.56
439.165	1224.56
439.386	1210.56
439.608	1233.56
439.829	1241.56
440.05	1238.56
440.272	1256.56
440.493	1200.56
440.715	1279.56
440.936	1372.56
441.158	1420.56
441.379	1401.56
441.6	1366.56
441.822	1348.56
442.043	1323.56
442.264	1289.56
442.486	1282.56
442.707	1262.56
442.928	1252.56
443.149	1298.56
443.371	1345.56
443.592	1385.56
443.813	1377.56
444.034	1360.56
444.255	1392.56
444.476	1388.56
444.698	1398.56
444.919	1381.56
445.14	1472.56
445.361	1433.56
445.582	1412.56
445.803	1352.56
446.024	1377.56
446.245	1401.56
446.466	1344.56
446.687	1336.56
446.908	1354.56
447.129	1329.56
447.35	1318.56
447.571	1286.56
447.792	1238.56
448.013	1233.56
448.234	1269.56
448.455	1318.56
448.675	1319.56
448.896	1244.56
449.117	1198.56
449.338	1207.56
449.559	1306.56
449.779	1345.56
450	1445.56
450.221	1472.56
450.442	1418.56
450.662	1265.56
450.883	1168.56
451.104	1190.56
451.324	1205.56
451.545	1219.56
451.766	1185.56
451.986	1143.56
452.207	1110.56
452.428	1106.56
452.648	1104.56
452.869	1118.56
453.089	1137.56
453.31	1113.56
453.53	1158.56
453.751	1114.56
453.971	1027.56
454.192	1068.56
454.412	1181.56
454.633	1156.56
454.853	1098.56
455.073	1114.56
455.294	1081.56
455.514	1062.56
455.734	1070.56
455.955	1081.56
456.175	1081.56
456.395	1081.56
456.616	1077.56
456.836	1082.56
457.056	1065.56
457.276	1068.56
457.497	1044.56
457.717	1027.56
457.937	1042.56
458.157	1040.56
458.377	1051.56
458.598	1027.56
458.818	1051.56
459.038	1127.56
459.258	1139.56
459.478	1133.56
459.698	1101.56
459.918	1168.56
460.138	1220.56
460.358	1233.56
460.578	1231.56
460.798	1266.56
461.018	1355.56
461.238	1301.56
461.458	1267.56
461.678	1228.56
461.898	1188.56
462.118	1182.56
462.338	1254.56
462.558	1266.56
462.777	1266.56
462.997	1327.56
463.217	1346.56
463.437	1354.56
463.657	1288.56
463.876	1258.56
464.096	1251.56
464.316	1285.56
464.536	1271.56
464.755	1258.56
464.975	1303.56
465.195	1279.56
465.414	1310.56
465.634	1290.56
465.854	1308.56
466.073	1421.56
466.293	1347.56
466.512	1200.56
466.732	1172.56
466.951	1255.56
467.171	1238.56
467.391	1193.56
467.61	1223.56
467.829	1236.56
468.049	1352.56
468.268	1440.56
468.488	1324.56
468.707	1256.56
468.927	1243.56
469.146	1189.56
469.365	1187.56
469.585	1244.56
469.804	1236.56
470.023	1253.56
470.243	1257.56
470.462	1230.56
470.681	1213.56
470.901	1233.56
471.12	1269.56
471.339	1271.56
471.558	1215.56
471.777	1196.56
471.997	1208.56
472.216	1169.56
472.435	1114.56
472.654	1118.56
472.873	1163.56
473.092	1230.56
473.311	1175.56
473.53	1146.56
473.749	1114.56
473.968	1150.56
474.187	1204.56
474.406	1235.56
474.625	1203.56
474.844	1220.56
475.063	1219.56
475.282	1232.56
475.501	1182.56
475.72	1188.56
475.939	1283.56
476.158	1242.56
476.377	1212.56
476.596	1200.56
476.814	1224.56
477.033	1236.56
477.252	1256.56
477.471	1302.56
477.69	1303.56
477.908	1315.56
478.127	1355.56
478.346	1422.56
478.564	1395.56
478.783	1406.56
479.002	1451.56
479.22	1416.56
479.439	1469.56
479.658	1592.56
479.876	1516.56
480.095	1382.56
480.313	1360.56
480.532	1298.56
480.751	1317.56
480.969	1317.56
481.188	1243.56
481.406	1270.56
481.624	1236.56
481.843	1235.56
482.061	1279.56
482.28	1344.56
482.498	1384.56
482.717	1286.56
482.935	1296.56
483.153	1379.56
483.372	1391.56
483.59	1391.56
483.808	1327.56
484.027	1400.56
484.245	1422.56
484.463	1719.56
484.681	1915.56
484.9	1482.56
485.118	1344.56
485.336	1371.56
485.554	1354.56
485.772	1391.56
485.99	1369.56
486.209	1394.56
486.427	1416.56
486.645	1413.56
486.863	1391.56
487.081	1453.56
487.299	1460.56
487.517	1432.56
487.735	1444.56
487.953	1493.56
488.171	1505.56
488.389	1439.56
488.607	1421.56
488.825	1586.56
489.043	1537.56
489.261	1400.56
489.479	1477.56
489.696	1472.56
489.914	1439.56
490.132	1426.56
490.35	1416.56
490.568	1521.56
490.786	1521.56
491.003	1475.56
491.221	1566.56
491.439	1579.56
491.657	1609.56
491.874	1636.56
492.092	1694.56
492.31	1661.56
492.527	1676.56
492.745	1610.56
492.963	1590.56
493.18	1634.56
493.398	1708.56
493.615	1698.56
493.833	1594.56
494.05	1569.56
494.268	1573.56
494.485	1572.56
494.703	1547.56
494.92	1530.56
495.138	1526.56
495.355	1552.56
495.573	1611.56
495.79	1696.56
496.008	1712.56
496.225	1599.56
496.442	1616.56
496.66	1614.56
496.877	1587.56
497.094	1605.56
497.312	1634.56
497.529	1621.56
497.746	1668.56
497.963	1838.56
498.181	1989.56
498.398	1901.56
498.615	1826.56
498.832	1768.56
499.049	1737.56
499.267	1758.56
499.484	1881.56
499.701	2058.56
499.918	2035.56
500.135	2222.56
500.352	2399.56
500.569	2344.56
500.786	2554.56
501.003	2300.56
501.22	2133.56
501.437	2078.56
501.654	2053.56
501.871	1986.56
502.088	1786.56
502.305	1788.56
502.522	1666.56
502.739	1580.56
502.956	1564.56
503.172	1537.56
503.389	1495.56
503.606	1493.56
503.823	1480.56
504.04	1498.56
504.256	1503.56
504.473	1506.56
504.69	1494.56
504.907	1444.56
505.123	1417.56
505.34	1542.56
505.557	2010.56
505.773	1684.56
505.99	1422.56
506.207	1298.56
506.423	1312.56
506.64	1309.56
506.856	1320.56
507.073	1501.56
507.289	1596.56
507.506	1482.56
507.722	1290.56
507.939	1248.56
508.155	1250.56
508.372	1269.56
508.588	1224.56
508.805	1164.56
509.021	1176.56
509.238	1144.56
509.454	1179.56
509.67	1157.56
509.887	1128.56
510.103	1163.56
510.319	1157.56
510.536	1194.56
510.752	1223.56
510.968	1202.56
511.184	1298.56
511.401	1233.56
511.617	1113.56
511.833	1101.56
512.049	1109.56
512.265	1103.56
512.481	1100.56
512.698	1156.56
512.914	1194.56
513.13	1206.56
513.346	1141.56
513.562	1131.56
513.778	1112.56
513.994	1156.56
514.21	1188.56
514.426	1203.56
514.642	1295.56
514.858	1217.56
515.074	1134.56
515.29	1134.56
515.506	1199.56
515.721	1181.56
515.937	1189.56
516.153	1286.56
516.369	1244.56
516.585	1192.56
516.801	1158.56
517.016	1153.56
517.232	1196.56
517.448	1192.56
517.664	1198.56
517.879	1215.56
518.095	1270.56
518.311	1240.56
518.527	1166.56
518.742	1152.56
518.958	1126.56
519.173	1144.56
519.389	1174.56
519.605	1162.56
519.82	1200.56
520.036	1182.56
520.251	1142.56
520.467	1157.56
520.682	1246.56
520.898	1236.56
521.113	1124.56
521.329	1145.56
521.544	1187.56
521.76	1145.56
521.975	1094.56
522.19	1084.56
522.406	1107.56
522.621	1405.56
522.836	1282.56
523.052	1120.56
523.267	1105.56
523.482	1116.56
523.698	1086.56
523.913	1037.56
524.128	1088.56
524.343	1174.56
524.559	1139.56
524.774	1122.56
524.989	1088.56
525.204	1076.56
525.419	1038.56
525.634	1011.56
525.849	1044.56
526.064	1053.56
526.28	1076.56
526.495	1048.56
526.71	1007.56
526.925	1034.56
527.14	989.56
527.355	929.56
527.57	984.56
527.785	1054.56
527.999	1014.56
528.214	1006.56
528.429	992.56
528.644	1023.56
528.859	1036.56
529.074	1055.56
529.289	1115.56
529.503	1120.56
529.718	1080.56
529.933	1032.56
530.148	978.56
530.363	982.56
530.577	945.56
530.792	966.56
531.007	979.56
531.221	968.56
531.436	988.56
531.651	1030.56
531.865	1055.56
532.08	1030.56
532.295	985.56
532.509	943.56
532.724	955.56
532.938	1012.56
533.153	1073.56
533.367	1056.56
533.582	1055.56
533.796	1023.56
534.011	1033.56
534.225	1014.56
534.44	976.56
534.654	978.56
534.868	959.56
535.083	1040.56
535.297	1036.56
535.511	993.56
535.726	978.56
535.94	986.56
536.154	964.56
536.369	967.56
536.583	930.56
536.797	924.56
537.011	973.56
537.225	906.56
537.44	912.56
537.654	965.56
537.868	955.56
538.082	905.56
538.296	886.56
538.51	918.56
538.724	931.56
538.938	974.56
539.153	980.56
539.367	986.56
539.581	953.56
539.795	999.56
540.009	937.56
540.222	908.56
540.436	969.56
540.65	1086.56
540.864	1087.56
541.078	1052.56
541.292	1054.56
541.506	1083.56
541.72	1118.56
541.934	1135.56
542.147	1184.56
542.361	1151.56
542.575	1060.56
542.789	1025.56
543.002	954.56
543.216	964.56
543.43	990.56
543.644	1065.56
543.857	1093.56
544.071	1081.56
544.285	1107.56
544.498	1078.56
544.712	1079.56
544.925	1101.56
545.139	1125.56
545.352	1063.56
545.566	1024.56
545.779	1038.56
545.993	1061.56
546.206	1106.56
546.42	1071.56
546.633	1023.56
546.847	1059.56
547.06	1057.56
547.274	1089.56
547.487	1073.56
547.7	1075.56
547.914	1116.56
548.127	1088.56
548.34	1078.56
548.554	1042.56
548.767	1051.56
548.98	1080.56
549.193	1061.56
549.407	1122.56
549.62	1088.56
549.833	1051.56
550.046	1036.56
550.259	1026.56
550.473	1011.56
550.686	1010.56
550.899	1012.56
551.112	977.56
551.325	977.56
551.538	1021.56
551.751	1135.56
551.964	952.56
552.177	942.56
552.39	945.56
552.603	975.56
552.816	1006.56
553.029	1077.56
553.242	1030.56
553.455	1057.56
553.667	1058.56
553.88	1055.56
554.093	1021.56
554.306	987.56
554.519	965.56
554.732	949.56
554.944	966.56
555.157	976.56
555.37	953.56
555.583	927.56
555.795	897.56
556.008	904.56
556.221	862.56
556.433	878.56
556.646	862.56
556.859	867.56
557.071	880.56
557.284	858.56
557.496	885.56
557.709	885.56
557.921	857.56
558.134	872.56
558.346	872.56
558.559	842.56
558.771	845.56
558.984	830.56
559.196	794.56
559.409	804.56
559.621	836.56
559.833	810.56
560.046	835.56
560.258	819.56
560.47	793.56
560.683	822.56
560.895	811.56
561.107	819.56
561.32	838.56
561.532	831.56
561.744	836.56
561.956	848.56
562.168	788.56
562.381	791.56
562.593	788.56
562.805	774.56
563.017	782.56
563.229	765.56
563.441	794.56
563.653	797.56
563.865	788.56
564.077	782.56
564.289	754.56
564.501	769.56
564.713	797.56
564.925	845.56
565.137	893.56
565.349	825.56
565.561	794.56
565.773	806.56
565.985	844.56
566.197	878.56
566.408	906.56
566.62	896.56
566.832	888.56
567.044	917.56
567.255	893.56
567.467	892.56
567.679	925.56
567.891	908.56
568.102	873.56
568.314	865.56
568.526	796.56
568.737	762.56
568.949	726.56
569.161	706.56
569.372	688.56
569.584	685.56
569.795	688.56
570.007	655.56
570.218	660.56
570.43	632.56
570.641	646.56
570.853	656.56
571.064	677.56
571.276	665.56
571.487	673.56
571.698	642.56
571.91	646.56
572.121	612.56
572.333	609.56
572.544	625.56
572.755	573.56
572.966	578.56
573.178	579.56
573.389	605.56
573.6	616.56
573.811	643.56
574.023	576.56
574.234	562.56
574.445	566.56
574.656	567.56
574.867	548.56
575.078	556.56
575.289	566.56
575.501	564.56
575.712	548.56
575.923	558.56
576.134	570.56
576.345	551.56
576.556	550.56
576.767	537.56
576.978	537.56
577.188	531.56
577.399	525.56
577.61	522.56
577.821	509.56
578.032	490.56
578.243	512.56
578.454	524.56
578.665	493.56
578.875	488.56
579.086	481.56
579.297	480.56
579.508	511.56
579.718	492.56
579.929	508.56
580.14	480.56
580.35	484.56
580.561	493.56
580.772	564.56
580.982	507.56
581.193	497.56
581.403	489.56
581.614	473.56
581.825	478.56
582.035	473.56
582.246	503.56
582.456	497.56
582.667	473.56
582.877	461.56
583.087	473.56
583.298	477.56
583.508	474.56
583.719	509.56
583.929	499.56
584.139	466.56
584.35	460.56
584.56	469.56
584.77	473.56
584.981	469.56
585.191	479.56
585.401	481.56
585.611	475.56
585.821	472.56
586.032	454.56
586.242	456.56
586.452	444.56
586.662	465.56
586.872	441.56
587.082	453.56
587.292	470.56
587.502	457.56
587.713	455.56
587.923	448.56
588.133	432.56
588.343	442.56
588.553	426.56
588.762	450.56
588.972	440.56
589.182	451.56
589.392	433.56
589.602	446.56
589.812	438.56
590.022	454.56
590.232	446.56
590.441	440.56
590.651	441.56
590.861	455.56
591.071	436.56
591.281	430.56
591.49	439.56
591.7	424.56
591.91	432.56
592.119	444.56
592.329	445.56
592.539	472.56
592.748	470.56
592.958	467.56
593.167	451.56
593.377	476.56
593.587	490.56
593.796	487.56
594.006	482.56
594.215	486.56
594.424	453.56
594.634	460.56
594.843	481.56
595.053	462.56
595.262	435.56
595.472	448.56
595.681	447.56
595.89	432.56
596.1	431.56
596.309	458.56
596.518	430.56
596.727	429.56
596.937	436.56
597.146	422.56
597.355	409.56
597.564	412.56
597.774	397.56
597.983	365.56
598.192	379.56
598.401	391.56
598.61	387.56
598.819	381.56
599.028	402.56
599.237	389.56
599.446	380.56
599.655	374.56
599.864	389.56
600.073	384.56
600.282	366.56
600.491	379.56
600.7	376.56
600.909	380.56
601.118	376.56
601.327	394.56
601.536	397.56
601.745	402.56
601.953	394.56
602.162	421.56
602.371	419.56
602.58	410.56
602.789	423.56
602.997	406.56
603.206	412.56
603.415	388.56
603.623	397.56
603.832	379.56
604.041	382.56
604.249	394.56
604.458	374.56
604.666	385.56
604.875	382.56
605.084	381.56
605.292	391.56
605.501	398.56
605.709	408.56
605.918	394.56
606.126	408.56
606.334	400.56
606.543	394.56
606.751	395.56
606.96	430.56
607.168	402.56
607.376	400.56
607.585	392.56
607.793	396.56
608.001	399.56
608.21	410.56
608.418	404.56
608.626	382.56
608.834	402.56
609.043	388.56
609.251	402.56
609.459	388.56
609.667	403.56
609.875	393.56
610.083	424.56
610.291	412.56
610.499	408.56
610.707	412.56
610.916	389.56
611.124	395.56
611.332	377.56
611.54	391.56
611.748	378.56
611.955	404.56
612.163	388.56
612.371	398.56
612.579	378.56
612.787	392.56
612.995	400.56
613.203	400.56
613.411	397.56
613.618	376.56
613.826	376.56
614.034	388.56
614.242	376.56
614.449	368.56
614.657	392.56
614.865	381.56
615.072	391.56
615.28	390.56
615.488	399.56
615.695	422.56
615.903	393.56
616.111	397.56
616.318	406.56
616.526	386.56
616.733	384.56
616.941	395.56
617.148	380.56
617.356	377.56
617.563	365.56
617.771	376.56
617.978	369.56
618.185	365.56
618.393	377.56
618.6	352.56
618.807	390.56
619.015	379.56
619.222	370.56
619.429	335.56
619.637	352.56
619.844	328.56
620.051	354.56
620.258	350.56
620.466	328.56
620.673	352.56
620.88	353.56
621.087	356.56
621.294	326.56
621.501	342.56
621.708	332.56
621.915	354.56
622.122	357.56
622.329	346.56
622.536	342.56
622.743	351.56
622.95	336.56
623.157	354.56
623.364	353.56
623.571	331.56
623.778	339.56
623.985	346.56
624.192	363.56
624.399	353.56
624.606	338.56
624.812	333.56
625.019	312.56
625.226	307.56
625.433	329.56
625.639	300.56
625.846	310.56
626.053	292.56
626.259	293.56
626.466	284.56
626.673	286.56
626.879	277.56
627.086	277.56
627.293	293.56
627.499	301.56
627.706	306.56
627.912	315.56
628.119	325.56
628.325	325.56
628.532	317.56
628.738	310.56
628.945	326.56
629.151	290.56
629.357	304.56
629.564	303.56
629.77	306.56
629.976	288.56
630.183	296.56
630.389	284.56
630.595	319.56
630.802	325.56
631.008	311.56
631.214	301.56
631.42	301.56
631.627	306.56
631.833	282.56
632.039	295.56
632.245	294.56
632.451	283.56
632.657	288.56
632.863	300.56
633.069	266.56
633.275	299.56
633.481	275.56
633.688	295.56
633.893	282.56
634.099	276.56
634.305	273.56
634.511	288.56
634.717	256.56
634.923	261.56
635.129	274.56
635.335	266.56
635.541	256.56
635.747	288.56
635.952	288.56
636.158	275.56
636.364	277.56
636.57	270.56
636.775	272.56
636.981	298.56
637.187	285.56
637.392	278.56
637.598	292.56
637.804	268.56
638.009	260.56
638.215	287.56
638.421	256.56
638.626	262.56
638.832	266.56
639.037	270.56
639.243	265.56
639.448	256.56
639.654	287.56
639.859	265.56
640.065	264.56
640.27	275.56
640.475	269.56
640.681	266.56
640.886	257.56
641.091	265.56
641.297	259.56
641.502	259.56
641.707	264.56
641.913	270.56
642.118	274.56
642.323	259.56
642.528	252.56
642.733	259.56
642.939	271.56
643.144	248.56
643.349	258.56
643.554	260.56
643.759	249.56
643.964	247.56
644.169	241.56
644.374	256.56
644.579	261.56
644.784	241.56
644.989	240.56
645.194	257.56
645.399	263.56
645.604	264.56
645.809	257.56
646.014	257.56
646.219	260.56
646.423	252.56
646.628	240.56
646.833	233.56
647.038	257.56
647.243	272.56
647.447	229.56
647.652	258.56
647.857	237.56
648.062	251.56
648.266	246.56
648.471	244.56
648.676	246.56
648.88	252.56
649.085	267.56
649.289	242.56
649.494	241.56
649.698	251.56
649.903	240.56
650.107	262.56
650.312	253.56
650.516	251.56
650.721	237.56
650.925	236.56
651.13	240.56
651.334	237.56
651.539	230.56
651.743	242.56
651.947	228.56
652.152	238.56
652.356	217.56
652.56	219.56
652.764	223.56
652.969	220.56
653.173	219.56
653.377	231.56
653.581	221.56
653.785	221.56
653.99	224.56
654.194	215.56
654.398	217.56
654.602	214.56
654.806	200.56
655.01	206.56
655.214	220.56
655.418	224.56
655.622	221.56
655.826	230.56
656.03	219.56
656.234	252.56
656.438	254.56
656.642	253.56
656.846	263.56
657.049	226.56
657.253	210.56
657.457	191.56
657.661	209.56
657.865	175.56
658.068	173.56
658.272	151.56
658.476	157.56
658.68	164.56
658.883	151.56
659.087	135.56
659.291	153.56
659.494	142.56
659.698	138.56
659.901	133.56
660.105	125.56
660.309	135.56
660.512	124.56
660.716	126.56
660.919	110.56
661.123	108.56
661.326	122.56
661.53	97.56
661.733	96.56
661.936	96.56
662.14	104.56
662.343	111.56
662.546	101.56
662.75	86.56
662.953	85.56
663.156	91.56
663.36	104.56
663.563	84.56
663.766	88.56
663.969	95.56
664.173	83.56
664.376	79.56
664.579	80.56
664.782	85.56
664.985	84.56
665.188	80.56
665.391	72.56
665.594	71.56
665.797	76.56
666	90.56
666.203	86.56
666.406	87.56
666.609	70.56
666.812	76.56
667.015	76.56
667.218	77.56
667.421	83.56
667.624	75.56
667.827	84.56
668.03	88.56
668.232	98.56
668.435	79.56
668.638	77.56
668.841	73.56
669.043	65.56
669.246	69.56
669.449	81.56
669.651	81.56
669.854	76.56
670.057	89.56
670.259	88.56
670.462	72.56
670.665	97.56
670.867	92.56
671.07	78.56
671.272	85.56
671.475	87.56
671.677	84.56
671.88	72.56
672.082	75.56
672.284	69.56
672.487	76.56
672.689	80.56
672.892	88.56
