Data from WStandard_LampEnergy8_LIBS07252019.E.O._I.C._HRD10591_16-00-43-929.txt Node
Date: Thu Jul 25 16:00:43 EDT 2019
User: cochatt
Spectrometer: HR+D1059
Trigger mode: 1
Integration Time (sec): 1.000000E-1
Scans to average: 1
Electric dark correction enabled: true
Nonlinearity correction enabled: false
Boxcar width: 0
XAxis mode: Wavelengths
Number of Pixels in Spectrum: 2048
>>>>>Begin Spectral Data<<<<<
223.165	-11.25
223.4	-11.25
223.635	-11.25
223.869	-27.25
224.104	-21.25
224.338	-10.25
224.573	-6.25
224.808	-13.25
225.042	-15.25
225.277	-7.25
225.511	-0.25
225.746	7.75
225.98	2.75
226.215	4.75
226.449	22.75
226.683	22.75
226.918	14.75
227.152	36.75
227.387	33.75
227.621	41.75
227.856	44.75
228.09	55.75
228.324	49.75
228.559	40.75
228.793	97.75
229.027	201.75
229.262	189.75
229.496	218.75
229.73	205.75
229.964	241.75
230.199	228.75
230.433	245.75
230.667	244.75
230.901	284.75
231.136	252.75
231.37	243.75
231.604	264.75
231.838	260.75
232.072	251.75
232.306	239.75
232.541	265.75
232.775	297.75
233.009	336.75
233.243	302.75
233.477	291.75
233.711	287.75
233.945	292.75
234.179	301.75
234.413	309.75
234.647	325.75
234.881	298.75
235.115	271.75
235.349	284.75
235.583	291.75
235.817	283.75
236.051	278.75
236.285	295.75
236.519	323.75
236.753	331.75
236.987	322.75
237.221	333.75
237.455	367.75
237.689	357.75
237.922	343.75
238.156	350.75
238.39	341.75
238.624	370.75
238.858	393.75
239.091	385.75
239.325	400.75
239.559	449.75
239.793	473.75
240.027	512.75
240.26	478.75
240.494	367.75
240.728	358.75
240.961	371.75
241.195	375.75
241.429	406.75
241.662	403.75
241.896	389.75
242.13	376.75
242.363	427.75
242.597	429.75
242.83	441.75
243.064	421.75
243.298	467.75
243.531	445.75
243.765	446.75
243.998	422.75
244.232	405.75
244.465	371.75
244.699	395.75
244.932	454.75
245.166	501.75
245.399	448.75
245.633	423.75
245.866	429.75
246.099	465.75
246.333	469.75
246.566	480.75
246.8	515.75
247.033	551.75
247.266	511.75
247.5	514.75
247.733	505.75
247.966	557.75
248.2	577.75
248.433	564.75
248.666	598.75
248.899	634.75
249.133	714.75
249.366	791.75
249.599	646.75
249.832	584.75
250.066	610.75
250.299	594.75
250.532	555.75
250.765	509.75
250.998	549.75
251.231	537.75
251.465	579.75
251.698	555.75
251.931	588.75
252.164	572.75
252.397	605.75
252.63	569.75
252.863	525.75
253.096	520.75
253.329	551.75
253.562	573.75
253.795	583.75
254.028	580.75
254.261	564.75
254.494	544.75
254.727	522.75
254.96	571.75
255.193	612.75
255.426	666.75
255.659	769.75
255.892	779.75
256.124	643.75
256.357	641.75
256.59	677.75
256.823	680.75
257.056	671.75
257.289	775.75
257.521	845.75
257.754	785.75
257.987	751.75
258.22	813.75
258.452	771.75
258.685	652.75
258.918	645.75
259.151	634.75
259.383	622.75
259.616	583.75
259.849	590.75
260.081	697.75
260.314	732.75
260.547	807.75
260.779	783.75
261.012	739.75
261.244	660.75
261.477	659.75
261.71	658.75
261.942	663.75
262.175	637.75
262.407	687.75
262.64	623.75
262.872	593.75
263.105	584.75
263.337	615.75
263.57	606.75
263.802	605.75
264.035	580.75
264.267	550.75
264.499	532.75
264.732	607.75
264.964	631.75
265.197	635.75
265.429	681.75
265.661	737.75
265.894	818.75
266.126	847.75
266.358	739.75
266.591	786.75
266.823	820.75
267.055	770.75
267.287	755.75
267.52	739.75
267.752	728.75
267.984	743.75
268.216	792.75
268.448	781.75
268.681	766.75
268.913	701.75
269.145	676.75
269.377	680.75
269.609	723.75
269.841	837.75
270.073	973.75
270.306	1041.75
270.538	1102.75
270.77	918.75
271.002	811.75
271.234	801.75
271.466	793.75
271.698	897.75
271.93	1009.75
272.162	974.75
272.394	915.75
272.626	886.75
272.858	779.75
273.09	685.75
273.322	692.75
273.553	643.75
273.785	666.75
274.017	688.75
274.249	737.75
274.481	742.75
274.713	672.75
274.945	683.75
275.176	691.75
275.408	651.75
275.64	657.75
275.872	657.75
276.104	737.75
276.335	807.75
276.567	860.75
276.799	861.75
277.031	822.75
277.262	786.75
277.494	831.75
277.726	868.75
277.957	842.75
278.189	778.75
278.421	719.75
278.652	731.75
278.884	726.75
279.115	693.75
279.347	720.75
279.579	702.75
279.81	714.75
280.042	792.75
280.273	844.75
280.505	813.75
280.736	841.75
280.968	809.75
281.199	696.75
281.431	703.75
281.662	707.75
281.894	699.75
282.125	728.75
282.356	734.75
282.588	742.75
282.819	757.75
283.051	817.75
283.282	855.75
283.513	823.75
283.745	716.75
283.976	713.75
284.207	715.75
284.439	704.75
284.67	749.75
284.901	771.75
285.132	736.75
285.364	740.75
285.595	772.75
285.826	729.75
286.057	748.75
286.288	729.75
286.52	750.75
286.751	785.75
286.982	835.75
287.213	745.75
287.444	692.75
287.675	715.75
287.906	739.75
288.138	809.75
288.369	764.75
288.6	715.75
288.831	707.75
289.062	738.75
289.293	755.75
289.524	743.75
289.755	743.75
289.986	759.75
290.217	705.75
290.448	709.75
290.679	763.75
290.91	773.75
291.141	759.75
291.371	817.75
291.602	799.75
291.833	775.75
292.064	794.75
292.295	785.75
292.526	790.75
292.757	839.75
292.987	774.75
293.218	793.75
293.449	851.75
293.68	931.75
293.91	982.75
294.141	913.75
294.372	874.75
294.603	929.75
294.833	971.75
295.064	895.75
295.295	804.75
295.525	764.75
295.756	733.75
295.987	698.75
296.217	707.75
296.448	747.75
296.679	741.75
296.909	744.75
297.14	758.75
297.37	798.75
297.601	847.75
297.831	865.75
298.062	872.75
298.292	801.75
298.523	765.75
298.753	772.75
298.984	742.75
299.214	766.75
299.445	787.75
299.675	818.75
299.905	835.75
300.136	769.75
300.366	737.75
300.597	729.75
300.827	731.75
301.057	782.75
301.288	817.75
301.518	829.75
301.748	821.75
301.979	908.75
302.209	925.75
302.439	967.75
302.669	991.75
302.9	893.75
303.13	815.75
303.36	863.75
303.59	829.75
303.82	829.75
304.051	831.75
304.281	843.75
304.511	861.75
304.741	936.75
304.971	985.75
305.201	1039.75
305.431	938.75
305.661	790.75
305.891	730.75
306.121	745.75
306.352	790.75
306.582	802.75
306.812	896.75
307.042	918.75
307.272	937.75
307.502	970.75
307.731	1033.75
307.961	1083.75
308.191	931.75
308.421	872.75
308.651	823.75
308.881	827.75
309.111	789.75
309.341	776.75
309.571	810.75
309.8	775.75
310.03	792.75
310.26	804.75
310.49	797.75
310.72	831.75
310.949	825.75
311.179	862.75
311.409	856.75
311.639	813.75
311.868	823.75
312.098	818.75
312.328	794.75
312.557	807.75
312.787	843.75
313.017	869.75
313.246	855.75
313.476	858.75
313.706	872.75
313.935	861.75
314.165	886.75
314.394	890.75
314.624	961.75
314.853	1021.75
315.083	1037.75
315.312	1027.75
315.542	968.75
315.771	877.75
316.001	913.75
316.23	934.75
316.46	936.75
316.689	904.75
316.919	854.75
317.148	835.75
317.377	868.75
317.607	928.75
317.836	1014.75
318.065	1030.75
318.295	993.75
318.524	937.75
318.753	916.75
318.983	887.75
319.212	913.75
319.441	905.75
319.67	851.75
319.9	919.75
320.129	971.75
320.358	980.75
320.587	1012.75
320.816	962.75
321.046	993.75
321.275	954.75
321.504	982.75
321.733	1033.75
321.962	943.75
322.191	931.75
322.42	899.75
322.649	901.75
322.878	881.75
323.108	902.75
323.337	941.75
323.566	922.75
323.795	925.75
324.024	907.75
324.253	913.75
324.482	934.75
324.71	889.75
324.939	858.75
325.168	883.75
325.397	895.75
325.626	923.75
325.855	921.75
326.084	915.75
326.313	927.75
326.542	933.75
326.77	934.75
326.999	927.75
327.228	908.75
327.457	878.75
327.686	851.75
327.914	882.75
328.143	893.75
328.372	890.75
328.6	906.75
328.829	873.75
329.058	879.75
329.287	875.75
329.515	905.75
329.744	927.75
329.972	989.75
330.201	1044.75
330.43	966.75
330.658	937.75
330.887	990.75
331.115	975.75
331.344	965.75
331.572	944.75
331.801	954.75
332.03	937.75
332.258	986.75
332.486	969.75
332.715	994.75
332.943	968.75
333.172	973.75
333.4	1009.75
333.629	977.75
333.857	1069.75
334.085	1164.75
334.314	1291.75
334.542	1375.75
334.771	1253.75
334.999	1143.75
335.227	1062.75
335.455	1039.75
335.684	1027.75
335.912	1034.75
336.14	1057.75
336.369	1022.75
336.597	1019.75
336.825	982.75
337.053	1028.75
337.281	1033.75
337.51	1118.75
337.738	1165.75
337.966	1050.75
338.194	975.75
338.422	963.75
338.65	949.75
338.878	933.75
339.106	931.75
339.334	912.75
339.562	933.75
339.79	924.75
340.018	982.75
340.246	1034.75
340.474	982.75
340.702	981.75
340.93	1006.75
341.158	971.75
341.386	961.75
341.614	969.75
341.842	983.75
342.07	929.75
342.298	956.75
342.526	948.75
342.754	953.75
342.981	936.75
343.209	950.75
343.437	959.75
343.665	966.75
343.893	999.75
344.12	1012.75
344.348	996.75
344.576	971.75
344.804	992.75
345.031	953.75
345.259	947.75
345.487	915.75
345.714	911.75
345.942	886.75
346.17	905.75
346.397	921.75
346.625	916.75
346.853	846.75
347.08	847.75
347.308	862.75
347.535	907.75
347.763	921.75
347.99	889.75
348.218	870.75
348.445	913.75
348.673	910.75
348.9	906.75
349.128	957.75
349.355	974.75
349.583	961.75
349.81	882.75
350.037	856.75
350.265	842.75
350.492	871.75
350.72	904.75
350.947	899.75
351.174	917.75
351.402	875.75
351.629	867.75
351.856	855.75
352.083	814.75
352.311	833.75
352.538	871.75
352.765	906.75
352.992	915.75
353.22	882.75
353.447	899.75
353.674	898.75
353.901	883.75
354.128	862.75
354.355	859.75
354.583	937.75
354.81	962.75
355.037	931.75
355.264	921.75
355.491	906.75
355.718	889.75
355.945	887.75
356.172	866.75
356.399	874.75
356.626	878.75
356.853	915.75
357.08	1010.75
357.307	1073.75
357.534	1056.75
357.761	915.75
357.988	831.75
358.215	849.75
358.441	848.75
358.668	839.75
358.895	896.75
359.122	939.75
359.349	979.75
359.576	988.75
359.802	899.75
360.029	846.75
360.256	853.75
360.483	860.75
360.709	911.75
360.936	928.75
361.163	995.75
361.39	1072.75
361.616	1112.75
361.843	1097.75
362.07	1018.75
362.296	917.75
362.523	905.75
362.749	897.75
362.976	920.75
363.203	935.75
363.429	910.75
363.656	880.75
363.882	917.75
364.109	1039.75
364.335	1074.75
364.562	982.75
364.788	936.75
365.015	928.75
365.241	869.75
365.468	934.75
365.694	953.75
365.92	958.75
366.147	904.75
366.373	879.75
366.599	882.75
366.826	902.75
367.052	877.75
367.278	866.75
367.505	902.75
367.731	939.75
367.957	947.75
368.184	1013.75
368.41	1017.75
368.636	1032.75
368.862	1023.75
369.089	1020.75
369.315	988.75
369.541	946.75
369.767	921.75
369.993	901.75
370.219	898.75
370.445	918.75
370.672	993.75
370.898	1037.75
371.124	993.75
371.35	970.75
371.576	967.75
371.802	1001.75
372.028	984.75
372.254	917.75
372.48	905.75
372.706	898.75
372.932	880.75
373.158	932.75
373.384	966.75
373.61	958.75
373.835	1011.75
374.061	968.75
374.287	977.75
374.513	943.75
374.739	994.75
374.965	965.75
375.191	957.75
375.416	1003.75
375.642	978.75
375.868	1062.75
376.094	1054.75
376.319	1011.75
376.545	994.75
376.771	1014.75
376.997	1053.75
377.222	1041.75
377.448	988.75
377.674	1021.75
377.899	1009.75
378.125	1050.75
378.35	1025.75
378.576	962.75
378.802	918.75
379.027	929.75
379.253	962.75
379.478	978.75
379.704	968.75
379.929	971.75
380.155	954.75
380.38	974.75
380.606	977.75
380.831	1003.75
381.057	1039.75
381.282	1027.75
381.507	1000.75
381.733	1085.75
381.958	1123.75
382.184	1038.75
382.409	997.75
382.634	1017.75
382.86	997.75
383.085	1004.75
383.31	1071.75
383.535	1131.75
383.761	1205.75
383.986	1118.75
384.211	1073.75
384.436	1112.75
384.662	1132.75
384.887	1140.75
385.112	1101.75
385.337	1106.75
385.562	1055.75
385.787	1128.75
386.013	1116.75
386.238	1117.75
386.463	1130.75
386.688	1231.75
386.913	1267.75
387.138	1238.75
387.363	1145.75
387.588	1147.75
387.813	1141.75
388.038	1159.75
388.263	1177.75
388.488	1141.75
388.713	1078.75
388.938	1057.75
389.163	1062.75
389.387	1132.75
389.612	1071.75
389.837	1098.75
390.062	1110.75
390.287	1103.75
390.512	1108.75
390.736	1074.75
390.961	1076.75
391.186	1066.75
391.411	1045.75
391.636	1099.75
391.86	1119.75
392.085	1120.75
392.31	1104.75
392.534	1093.75
392.759	1097.75
392.984	1119.75
393.208	1113.75
393.433	1142.75
393.658	1192.75
393.882	1184.75
394.107	1158.75
394.331	1144.75
394.556	1067.75
394.78	1133.75
395.005	1144.75
395.229	1194.75
395.454	1288.75
395.678	1269.75
395.903	1211.75
396.127	1136.75
396.352	1169.75
396.576	1198.75
396.801	1233.75
397.025	1223.75
397.249	1217.75
397.474	1201.75
397.698	1171.75
397.922	1231.75
398.147	1269.75
398.371	1309.75
398.595	1343.75
398.82	1256.75
399.044	1313.75
399.268	1352.75
399.492	1413.75
399.717	1438.75
399.941	1470.75
400.165	1410.75
400.389	1383.75
400.613	1405.75
400.837	1645.75
401.062	1789.75
401.286	1468.75
401.51	1406.75
401.734	1411.75
401.958	1386.75
402.182	1293.75
402.406	1266.75
402.63	1266.75
402.854	1259.75
403.078	1283.75
403.302	1309.75
403.526	1328.75
403.75	1340.75
403.974	1368.75
404.198	1327.75
404.422	1377.75
404.645	1435.75
404.869	1383.75
405.093	1292.75
405.317	1285.75
405.541	1321.75
405.765	1325.75
405.988	1329.75
406.212	1355.75
406.436	1347.75
406.66	1437.75
406.883	1407.75
407.107	1582.75
407.331	1783.75
407.555	1885.75
407.778	1649.75
408.002	1427.75
408.226	1383.75
408.449	1380.75
408.673	1378.75
408.896	1339.75
409.12	1322.75
409.344	1342.75
409.567	1301.75
409.791	1319.75
410.014	1369.75
410.238	1411.75
410.461	1458.75
410.685	1345.75
410.908	1306.75
411.132	1309.75
411.355	1331.75
411.578	1315.75
411.802	1318.75
412.025	1317.75
412.249	1311.75
412.472	1255.75
412.695	1266.75
412.919	1233.75
413.142	1246.75
413.365	1279.75
413.589	1335.75
413.812	1361.75
414.035	1398.75
414.258	1277.75
414.482	1266.75
414.705	1274.75
414.928	1268.75
415.151	1256.75
415.374	1274.75
415.597	1289.75
415.821	1303.75
416.044	1329.75
416.267	1302.75
416.49	1211.75
416.713	1217.75
416.936	1272.75
417.159	1354.75
417.382	1314.75
417.605	1257.75
417.828	1274.75
418.051	1295.75
418.274	1264.75
418.497	1245.75
418.72	1255.75
418.943	1246.75
419.166	1291.75
419.389	1315.75
419.611	1269.75
419.834	1265.75
420.057	1268.75
420.28	1240.75
420.503	1267.75
420.726	1300.75
420.948	1289.75
421.171	1200.75
421.394	1261.75
421.617	1320.75
421.839	1300.75
422.062	1287.75
422.285	1267.75
422.507	1270.75
422.73	1248.75
422.953	1189.75
423.175	1192.75
423.398	1246.75
423.621	1240.75
423.843	1245.75
424.066	1277.75
424.288	1335.75
424.511	1368.75
424.733	1342.75
424.956	1209.75
425.178	1223.75
425.401	1233.75
425.623	1231.75
425.846	1194.75
426.068	1279.75
426.291	1315.75
426.513	1283.75
426.735	1317.75
426.958	1401.75
427.18	1431.75
427.402	1357.75
427.625	1389.75
427.847	1321.75
428.069	1234.75
428.292	1213.75
428.514	1214.75
428.736	1191.75
428.958	1191.75
429.181	1226.75
429.403	1424.75
429.625	1702.75
429.847	1445.75
430.069	1242.75
430.292	1376.75
430.514	1412.75
430.736	1305.75
430.958	1331.75
431.18	1240.75
431.402	1199.75
431.624	1176.75
431.846	1161.75
432.068	1098.75
432.29	1135.75
432.512	1159.75
432.734	1207.75
432.956	1247.75
433.178	1314.75
433.4	1299.75
433.622	1266.75
433.844	1218.75
434.066	1183.75
434.287	1154.75
434.509	1149.75
434.731	1247.75
434.953	1319.75
435.175	1279.75
435.397	1239.75
435.618	1209.75
435.84	1190.75
436.062	1167.75
436.284	1263.75
436.505	1235.75
436.727	1264.75
436.949	1250.75
437.17	1195.75
437.392	1197.75
437.614	1165.75
437.835	1152.75
438.057	1174.75
438.278	1208.75
438.5	1189.75
438.721	1185.75
438.943	1192.75
439.165	1215.75
439.386	1211.75
439.608	1221.75
439.829	1229.75
440.05	1212.75
440.272	1217.75
440.493	1219.75
440.715	1237.75
440.936	1313.75
441.158	1407.75
441.379	1360.75
441.6	1351.75
441.822	1307.75
442.043	1323.75
442.264	1259.75
442.486	1230.75
442.707	1222.75
442.928	1252.75
443.149	1262.75
443.371	1337.75
443.592	1337.75
443.813	1351.75
444.034	1317.75
444.255	1330.75
444.476	1355.75
444.698	1384.75
444.919	1367.75
445.14	1437.75
445.361	1425.75
445.582	1400.75
445.803	1335.75
446.024	1339.75
446.245	1368.75
446.466	1332.75
446.687	1291.75
446.908	1299.75
447.129	1293.75
447.35	1261.75
447.571	1255.75
447.792	1205.75
448.013	1208.75
448.234	1253.75
448.455	1291.75
448.675	1267.75
448.896	1178.75
449.117	1168.75
449.338	1220.75
449.559	1246.75
449.779	1302.75
450	1364.75
450.221	1433.75
450.442	1406.75
450.662	1239.75
450.883	1175.75
451.104	1133.75
451.324	1175.75
451.545	1181.75
451.766	1146.75
451.986	1072.75
452.207	1114.75
452.428	1079.75
452.648	1062.75
452.869	1081.75
453.089	1099.75
453.31	1118.75
453.53	1111.75
453.751	1096.75
453.971	1062.75
454.192	1079.75
454.412	1125.75
454.633	1113.75
454.853	1089.75
455.073	1003.75
455.294	1066.75
455.514	1055.75
455.734	1035.75
455.955	1057.75
456.175	1058.75
456.395	1046.75
456.616	1082.75
456.836	1081.75
457.056	1072.75
457.276	1000.75
457.497	1003.75
457.717	1019.75
457.937	1006.75
458.157	1015.75
458.377	1031.75
458.598	981.75
458.818	1005.75
459.038	1073.75
459.258	1133.75
459.478	1113.75
459.698	1107.75
459.918	1091.75
460.138	1178.75
460.358	1179.75
460.578	1205.75
460.798	1262.75
461.018	1305.75
461.238	1247.75
461.458	1238.75
461.678	1225.75
461.898	1215.75
462.118	1151.75
462.338	1200.75
462.558	1232.75
462.777	1242.75
462.997	1263.75
463.217	1317.75
463.437	1315.75
463.657	1257.75
463.876	1219.75
464.096	1227.75
464.316	1243.75
464.536	1229.75
464.755	1288.75
464.975	1247.75
465.195	1268.75
465.414	1290.75
465.634	1283.75
465.854	1256.75
466.073	1338.75
466.293	1287.75
466.512	1161.75
466.732	1189.75
466.951	1224.75
467.171	1189.75
467.391	1139.75
467.61	1137.75
467.829	1173.75
468.049	1285.75
468.268	1376.75
468.488	1313.75
468.707	1258.75
468.927	1174.75
469.146	1189.75
469.365	1192.75
469.585	1243.75
469.804	1206.75
470.023	1222.75
470.243	1205.75
470.462	1206.75
470.681	1194.75
470.901	1175.75
471.12	1162.75
471.339	1217.75
471.558	1177.75
471.777	1148.75
471.997	1185.75
472.216	1162.75
472.435	1093.75
472.654	1091.75
472.873	1122.75
473.092	1232.75
473.311	1151.75
473.53	1105.75
473.749	1105.75
473.968	1129.75
474.187	1182.75
474.406	1217.75
474.625	1172.75
474.844	1171.75
475.063	1190.75
475.282	1210.75
475.501	1154.75
475.72	1183.75
475.939	1247.75
476.158	1216.75
476.377	1157.75
476.596	1161.75
476.814	1181.75
477.033	1178.75
477.252	1255.75
477.471	1262.75
477.69	1249.75
477.908	1254.75
478.127	1322.75
478.346	1383.75
478.564	1364.75
478.783	1381.75
479.002	1410.75
479.22	1362.75
479.439	1407.75
479.658	1540.75
479.876	1465.75
480.095	1328.75
480.313	1320.75
480.532	1293.75
480.751	1287.75
480.969	1289.75
481.188	1218.75
481.406	1238.75
481.624	1161.75
481.843	1242.75
482.061	1275.75
482.28	1276.75
482.498	1311.75
482.717	1253.75
482.935	1296.75
483.153	1325.75
483.372	1332.75
483.59	1327.75
483.808	1313.75
484.027	1325.75
484.245	1405.75
484.463	1709.75
484.681	1816.75
484.9	1459.75
485.118	1323.75
485.336	1293.75
485.554	1337.75
485.772	1357.75
485.99	1310.75
486.209	1346.75
486.427	1358.75
486.645	1365.75
486.863	1347.75
487.081	1405.75
487.299	1418.75
487.517	1419.75
487.735	1424.75
487.953	1459.75
488.171	1455.75
488.389	1442.75
488.607	1402.75
488.825	1561.75
489.043	1515.75
489.261	1359.75
489.479	1425.75
489.696	1442.75
489.914	1436.75
490.132	1431.75
490.35	1430.75
490.568	1485.75
490.786	1441.75
491.003	1452.75
491.221	1483.75
491.439	1533.75
491.657	1533.75
491.874	1608.75
492.092	1606.75
492.31	1648.75
492.527	1646.75
492.745	1555.75
492.963	1543.75
493.18	1602.75
493.398	1683.75
493.615	1646.75
493.833	1564.75
494.05	1492.75
494.268	1541.75
494.485	1572.75
494.703	1524.75
494.92	1486.75
495.138	1506.75
495.355	1523.75
495.573	1574.75
495.79	1618.75
496.008	1603.75
496.225	1570.75
496.442	1563.75
496.66	1567.75
496.877	1524.75
497.094	1591.75
497.312	1594.75
497.529	1590.75
497.746	1600.75
497.963	1795.75
498.181	1899.75
498.398	1859.75
498.615	1818.75
498.832	1740.75
499.049	1711.75
499.267	1735.75
499.484	1840.75
499.701	1991.75
499.918	2005.75
500.135	2135.75
500.352	2291.75
500.569	2273.75
500.786	2470.75
501.003	2235.75
501.22	2074.75
501.437	1987.75
501.654	2011.75
501.871	1917.75
502.088	1731.75
502.305	1698.75
502.522	1641.75
502.739	1596.75
502.956	1529.75
503.172	1539.75
503.389	1461.75
503.606	1455.75
503.823	1429.75
504.04	1460.75
504.256	1481.75
504.473	1470.75
504.69	1479.75
504.907	1398.75
505.123	1390.75
505.34	1490.75
505.557	1909.75
505.773	1541.75
505.99	1338.75
506.207	1289.75
506.423	1261.75
506.64	1227.75
506.856	1301.75
507.073	1404.75
507.289	1555.75
507.506	1464.75
507.722	1269.75
507.939	1215.75
508.155	1250.75
508.372	1187.75
508.588	1161.75
508.805	1137.75
509.021	1117.75
509.238	1153.75
509.454	1117.75
509.67	1100.75
509.887	1101.75
510.103	1070.75
510.319	1115.75
510.536	1144.75
510.752	1200.75
510.968	1168.75
511.184	1252.75
511.401	1223.75
511.617	1103.75
511.833	1064.75
512.049	1050.75
512.265	1060.75
512.481	1062.75
512.698	1129.75
512.914	1184.75
513.13	1135.75
513.346	1105.75
513.562	1062.75
513.778	1065.75
513.994	1144.75
514.21	1155.75
514.426	1160.75
514.642	1271.75
514.858	1186.75
515.074	1119.75
515.29	1075.75
515.506	1103.75
515.721	1161.75
515.937	1169.75
516.153	1264.75
516.369	1232.75
516.585	1127.75
516.801	1128.75
517.016	1151.75
517.232	1163.75
517.448	1154.75
517.664	1204.75
517.879	1187.75
518.095	1215.75
518.311	1170.75
518.527	1156.75
518.742	1126.75
518.958	1090.75
519.173	1087.75
519.389	1112.75
519.605	1143.75
519.82	1162.75
520.036	1163.75
520.251	1099.75
520.467	1133.75
520.682	1205.75
520.898	1211.75
521.113	1078.75
521.329	1080.75
521.544	1147.75
521.76	1115.75
521.975	1089.75
522.19	1056.75
522.406	1081.75
522.621	1325.75
522.836	1275.75
523.052	1069.75
523.267	1036.75
523.482	1085.75
523.698	1055.75
523.913	1025.75
524.128	1064.75
524.343	1147.75
524.559	1130.75
524.774	1073.75
524.989	1033.75
525.204	1048.75
525.419	994.75
525.634	1012.75
525.849	989.75
526.064	1007.75
526.28	1036.75
526.495	976.75
526.71	962.75
526.925	955.75
527.14	959.75
527.355	919.75
527.57	970.75
527.785	1011.75
527.999	944.75
528.214	977.75
528.429	962.75
528.644	1002.75
528.859	1045.75
529.074	1044.75
529.289	1065.75
529.503	1078.75
529.718	1045.75
529.933	997.75
530.148	958.75
530.363	954.75
530.577	949.75
530.792	967.75
531.007	963.75
531.221	953.75
531.436	962.75
531.651	990.75
531.865	1045.75
532.08	990.75
532.295	924.75
532.509	915.75
532.724	928.75
532.938	981.75
533.153	1058.75
533.367	1007.75
533.582	984.75
533.796	981.75
534.011	995.75
534.225	946.75
534.44	932.75
534.654	943.75
534.868	915.75
535.083	996.75
535.297	994.75
535.511	982.75
535.726	978.75
535.94	978.75
536.154	969.75
536.369	904.75
536.583	896.75
536.797	915.75
537.011	978.75
537.225	900.75
537.44	901.75
537.654	949.75
537.868	941.75
538.082	864.75
538.296	889.75
538.51	901.75
538.724	916.75
538.938	930.75
539.153	973.75
539.367	967.75
539.581	926.75
539.795	969.75
540.009	932.75
540.222	961.75
540.436	945.75
540.65	1014.75
540.864	1065.75
541.078	1041.75
541.292	1001.75
541.506	1042.75
541.72	1071.75
541.934	1124.75
542.147	1146.75
542.361	1097.75
542.575	1018.75
542.789	993.75
543.002	950.75
543.216	956.75
543.43	992.75
543.644	1026.75
543.857	1091.75
544.071	1077.75
544.285	1087.75
544.498	1070.75
544.712	1063.75
544.925	1069.75
545.139	1125.75
545.352	1070.75
545.566	1035.75
545.779	1018.75
545.993	1027.75
546.206	1081.75
546.42	1048.75
546.633	1032.75
546.847	1060.75
547.06	1038.75
547.274	1056.75
547.487	1061.75
547.7	1061.75
547.914	1083.75
548.127	1074.75
548.34	1039.75
548.554	1016.75
548.767	1041.75
548.98	1043.75
549.193	1026.75
549.407	1090.75
549.62	1077.75
549.833	1019.75
550.046	1001.75
550.259	1009.75
550.473	978.75
550.686	1004.75
550.899	971.75
551.112	985.75
551.325	921.75
551.538	995.75
551.751	1090.75
551.964	912.75
552.177	901.75
552.39	950.75
552.603	980.75
552.816	986.75
553.029	1018.75
553.242	1045.75
553.455	1027.75
553.667	992.75
553.88	1024.75
554.093	1013.75
554.306	975.75
554.519	944.75
554.732	943.75
554.944	972.75
555.157	936.75
555.37	914.75
555.583	892.75
555.795	901.75
556.008	879.75
556.221	838.75
556.433	855.75
556.646	866.75
556.859	849.75
557.071	850.75
557.284	858.75
557.496	878.75
557.709	844.75
557.921	840.75
558.134	825.75
558.346	859.75
558.559	847.75
558.771	835.75
558.984	817.75
559.196	799.75
559.409	809.75
559.621	786.75
559.833	793.75
560.046	790.75
560.258	777.75
560.47	812.75
560.683	807.75
560.895	828.75
561.107	780.75
561.32	795.75
561.532	789.75
561.744	805.75
561.956	790.75
562.168	762.75
562.381	769.75
562.593	766.75
562.805	787.75
563.017	749.75
563.229	775.75
563.441	784.75
563.653	754.75
563.865	755.75
564.077	750.75
564.289	772.75
564.501	794.75
564.713	774.75
564.925	793.75
565.137	852.75
565.349	820.75
565.561	775.75
565.773	784.75
565.985	797.75
566.197	839.75
566.408	861.75
566.62	889.75
566.832	871.75
567.044	865.75
567.255	887.75
567.467	865.75
567.679	891.75
567.891	885.75
568.102	855.75
568.314	830.75
568.526	750.75
568.737	731.75
568.949	726.75
569.161	686.75
569.372	660.75
569.584	680.75
569.795	690.75
570.007	655.75
570.218	657.75
570.43	631.75
570.641	637.75
570.853	653.75
571.064	661.75
571.276	651.75
571.487	607.75
571.698	622.75
571.91	609.75
572.121	647.75
572.333	588.75
572.544	586.75
572.755	566.75
572.966	566.75
573.178	579.75
573.389	582.75
573.6	586.75
573.811	625.75
574.023	561.75
574.234	568.75
574.445	553.75
574.656	542.75
574.867	548.75
575.078	536.75
575.289	542.75
575.501	517.75
575.712	523.75
575.923	548.75
576.134	543.75
576.345	533.75
576.556	535.75
576.767	528.75
576.978	523.75
577.188	499.75
577.399	512.75
577.61	493.75
577.821	496.75
578.032	502.75
578.243	484.75
578.454	513.75
578.665	471.75
578.875	481.75
579.086	463.75
579.297	470.75
579.508	508.75
579.718	523.75
579.929	507.75
580.14	479.75
580.35	470.75
580.561	505.75
580.772	560.75
580.982	510.75
581.193	482.75
581.403	465.75
581.614	473.75
581.825	466.75
582.035	462.75
582.246	472.75
582.456	469.75
582.667	466.75
582.877	460.75
583.087	459.75
583.298	457.75
583.508	444.75
583.719	458.75
583.929	445.75
584.139	474.75
584.35	431.75
584.56	452.75
584.77	446.75
584.981	463.75
585.191	448.75
585.401	455.75
585.611	442.75
585.821	443.75
586.032	448.75
586.242	444.75
586.452	426.75
586.662	445.75
586.872	446.75
587.082	449.75
587.292	440.75
587.502	441.75
587.713	445.75
587.923	442.75
588.133	425.75
588.343	431.75
588.553	421.75
588.762	433.75
588.972	442.75
589.182	442.75
589.392	417.75
589.602	448.75
589.812	412.75
590.022	407.75
590.232	414.75
590.441	431.75
590.651	442.75
590.861	431.75
591.071	421.75
591.281	423.75
591.49	425.75
591.7	418.75
591.91	448.75
592.119	444.75
592.329	438.75
592.539	454.75
592.748	420.75
592.958	440.75
593.167	443.75
593.377	468.75
593.587	453.75
593.796	455.75
594.006	454.75
594.215	449.75
594.424	460.75
594.634	460.75
594.843	432.75
595.053	467.75
595.262	450.75
595.472	455.75
595.681	443.75
595.89	430.75
596.1	418.75
596.309	414.75
596.518	409.75
596.727	439.75
596.937	403.75
597.146	426.75
597.355	421.75
597.564	395.75
597.774	392.75
597.983	393.75
598.192	366.75
598.401	373.75
598.61	397.75
598.819	384.75
599.028	387.75
599.237	374.75
599.446	401.75
599.655	379.75
599.864	378.75
600.073	361.75
600.282	365.75
600.491	369.75
600.7	372.75
600.909	375.75
601.118	373.75
601.327	391.75
601.536	426.75
601.745	409.75
601.953	389.75
602.162	409.75
602.371	393.75
602.58	400.75
602.789	399.75
602.997	418.75
603.206	400.75
603.415	401.75
603.623	409.75
603.832	397.75
604.041	400.75
604.249	371.75
604.458	367.75
604.666	374.75
604.875	366.75
605.084	389.75
605.292	400.75
605.501	418.75
605.709	413.75
605.918	389.75
606.126	393.75
606.334	394.75
606.543	407.75
606.751	378.75
606.96	409.75
607.168	379.75
607.376	393.75
607.585	387.75
607.793	383.75
608.001	383.75
608.21	394.75
608.418	394.75
608.626	387.75
608.834	377.75
609.043	379.75
609.251	397.75
609.459	386.75
609.667	396.75
609.875	401.75
610.083	392.75
610.291	405.75
610.499	407.75
610.707	395.75
610.916	392.75
611.124	376.75
611.332	390.75
611.54	396.75
611.748	405.75
611.955	367.75
612.163	375.75
612.371	381.75
612.579	378.75
612.787	393.75
612.995	391.75
613.203	392.75
613.411	385.75
613.618	389.75
613.826	383.75
614.034	375.75
614.242	378.75
614.449	375.75
614.657	375.75
614.865	379.75
615.072	366.75
615.28	393.75
615.488	402.75
615.695	387.75
615.903	383.75
616.111	378.75
616.318	374.75
616.526	379.75
616.733	388.75
616.941	369.75
617.148	375.75
617.356	372.75
617.563	355.75
617.771	359.75
617.978	350.75
618.185	363.75
618.393	357.75
618.6	355.75
618.807	378.75
619.015	367.75
619.222	342.75
619.429	363.75
619.637	351.75
619.844	335.75
620.051	344.75
620.258	341.75
620.466	351.75
620.673	349.75
620.88	335.75
621.087	345.75
621.294	336.75
621.501	320.75
621.708	349.75
621.915	335.75
622.122	338.75
622.329	331.75
622.536	344.75
622.743	354.75
622.95	359.75
623.157	336.75
623.364	335.75
623.571	360.75
623.778	342.75
623.985	351.75
624.192	341.75
624.399	340.75
624.606	330.75
624.812	329.75
625.019	326.75
625.226	322.75
625.433	333.75
625.639	297.75
625.846	282.75
626.053	282.75
626.259	291.75
626.466	297.75
626.673	277.75
626.879	306.75
627.086	309.75
627.293	308.75
627.499	302.75
627.706	300.75
627.912	316.75
628.119	319.75
628.325	326.75
628.532	314.75
628.738	313.75
628.945	307.75
629.151	305.75
629.357	305.75
629.564	296.75
629.77	282.75
629.976	275.75
630.183	300.75
630.389	286.75
630.595	298.75
630.802	314.75
631.008	279.75
631.214	284.75
631.42	297.75
631.627	281.75
631.833	288.75
632.039	273.75
632.245	281.75
632.451	297.75
632.657	269.75
632.863	279.75
633.069	305.75
633.275	268.75
633.481	251.75
633.688	283.75
633.893	276.75
634.099	289.75
634.305	279.75
634.511	253.75
634.717	258.75
634.923	263.75
635.129	247.75
635.335	258.75
635.541	263.75
635.747	265.75
635.952	285.75
636.158	276.75
636.364	273.75
636.57	283.75
636.775	276.75
636.981	278.75
637.187	265.75
637.392	271.75
637.598	279.75
637.804	283.75
638.009	276.75
638.215	272.75
638.421	268.75
638.626	271.75
638.832	269.75
639.037	265.75
639.243	257.75
639.448	264.75
639.654	277.75
639.859	255.75
640.065	251.75
640.27	267.75
640.475	265.75
640.681	255.75
640.886	254.75
641.091	273.75
641.297	252.75
641.502	259.75
641.707	269.75
641.913	254.75
642.118	256.75
642.323	263.75
642.528	269.75
642.733	244.75
642.939	258.75
643.144	242.75
643.349	252.75
643.554	263.75
643.759	268.75
643.964	252.75
644.169	249.75
644.374	251.75
644.579	261.75
644.784	257.75
644.989	272.75
645.194	258.75
645.399	259.75
645.604	249.75
645.809	240.75
646.014	233.75
646.219	233.75
646.423	248.75
646.628	231.75
646.833	246.75
647.038	253.75
647.243	241.75
647.447	253.75
647.652	254.75
647.857	250.75
648.062	254.75
648.266	259.75
648.471	244.75
648.676	255.75
648.88	272.75
649.085	245.75
649.289	246.75
649.494	253.75
649.698	242.75
649.903	243.75
650.107	242.75
650.312	256.75
650.516	239.75
650.721	232.75
650.925	234.75
651.13	214.75
651.334	244.75
651.539	231.75
651.743	223.75
651.947	238.75
652.152	215.75
652.356	232.75
652.56	219.75
652.764	214.75
652.969	218.75
653.173	225.75
653.377	220.75
653.581	220.75
653.785	209.75
653.99	201.75
654.194	209.75
654.398	235.75
654.602	210.75
654.806	182.75
655.01	209.75
655.214	241.75
655.418	219.75
655.622	213.75
655.826	238.75
656.03	233.75
656.234	228.75
656.438	257.75
656.642	268.75
656.846	250.75
657.049	223.75
657.253	210.75
657.457	204.75
657.661	189.75
657.865	187.75
658.068	160.75
658.272	153.75
658.476	161.75
658.68	162.75
658.883	158.75
659.087	136.75
659.291	145.75
659.494	132.75
659.698	149.75
659.901	121.75
660.105	121.75
660.309	125.75
660.512	120.75
660.716	109.75
660.919	122.75
661.123	122.75
661.326	123.75
661.53	115.75
661.733	112.75
661.936	103.75
662.14	105.75
662.343	117.75
662.546	95.75
662.75	99.75
662.953	104.75
663.156	100.75
663.36	90.75
663.563	86.75
663.766	95.75
663.969	85.75
664.173	78.75
664.376	84.75
664.579	87.75
664.782	90.75
664.985	74.75
665.188	85.75
665.391	75.75
665.594	79.75
665.797	82.75
666	84.75
666.203	104.75
666.406	79.75
666.609	83.75
666.812	95.75
667.015	74.75
667.218	84.75
667.421	67.75
667.624	80.75
667.827	80.75
668.03	93.75
668.232	95.75
668.435	73.75
668.638	77.75
668.841	80.75
669.043	78.75
669.246	82.75
669.449	79.75
669.651	75.75
669.854	75.75
670.057	75.75
670.259	89.75
670.462	77.75
670.665	74.75
670.867	74.75
671.07	75.75
671.272	80.75
671.475	68.75
671.677	83.75
671.88	83.75
672.082	90.75
672.284	65.75
672.487	71.75
672.689	89.75
672.892	79.75
