Data from WStandard_LampEnergy8_LIBS07252019.E.O._I.C._HRD10591_16-00-09-929.txt Node
Date: Thu Jul 25 16:00:09 EDT 2019
User: cochatt
Spectrometer: HR+D1059
Trigger mode: 1
Integration Time (sec): 1.000000E-1
Scans to average: 1
Electric dark correction enabled: true
Nonlinearity correction enabled: false
Boxcar width: 0
XAxis mode: Wavelengths
Number of Pixels in Spectrum: 2048
>>>>>Begin Spectral Data<<<<<
223.165	-21.44
223.4	-21.44
223.635	-21.44
223.869	-13.44
224.104	-24.44
224.338	-18.44
224.573	-26.44
224.808	-22.44
225.042	-3.44
225.277	10.56
225.511	-0.44
225.746	4.56
225.98	9.56
226.215	20.56
226.449	14.56
226.683	21.56
226.918	22.56
227.152	26.56
227.387	28.56
227.621	56.56
227.856	47.56
228.09	56.56
228.324	47.56
228.559	54.56
228.793	78.56
229.027	203.56
229.262	218.56
229.496	223.56
229.73	226.56
229.964	234.56
230.199	262.56
230.433	275.56
230.667	272.56
230.901	281.56
231.136	276.56
231.37	256.56
231.604	260.56
231.838	256.56
232.072	259.56
232.306	262.56
232.541	272.56
232.775	320.56
233.009	326.56
233.243	325.56
233.477	282.56
233.711	306.56
233.945	313.56
234.179	316.56
234.413	315.56
234.647	333.56
234.881	308.56
235.115	308.56
235.349	289.56
235.583	310.56
235.817	307.56
236.051	320.56
236.285	309.56
236.519	328.56
236.753	357.56
236.987	357.56
237.221	364.56
237.455	367.56
237.689	365.56
237.922	350.56
238.156	343.56
238.39	344.56
238.624	375.56
238.858	369.56
239.091	412.56
239.325	428.56
239.559	453.56
239.793	502.56
240.027	514.56
240.26	505.56
240.494	389.56
240.728	373.56
240.961	382.56
241.195	383.56
241.429	445.56
241.662	414.56
241.896	376.56
242.13	397.56
242.363	437.56
242.597	477.56
242.83	460.56
243.064	457.56
243.298	478.56
243.531	470.56
243.765	454.56
243.998	447.56
244.232	420.56
244.465	414.56
244.699	408.56
244.932	460.56
245.166	518.56
245.399	476.56
245.633	469.56
245.866	451.56
246.099	473.56
246.333	500.56
246.566	496.56
246.8	542.56
247.033	588.56
247.266	563.56
247.5	528.56
247.733	541.56
247.966	580.56
248.2	621.56
248.433	600.56
248.666	631.56
248.899	670.56
249.133	764.56
249.366	838.56
249.599	689.56
249.832	635.56
250.066	610.56
250.299	621.56
250.532	597.56
250.765	549.56
250.998	572.56
251.231	572.56
251.465	603.56
251.698	599.56
251.931	599.56
252.164	604.56
252.397	618.56
252.63	630.56
252.863	560.56
253.096	536.56
253.329	576.56
253.562	586.56
253.795	628.56
254.028	624.56
254.261	588.56
254.494	562.56
254.727	559.56
254.96	598.56
255.193	646.56
255.426	720.56
255.659	794.56
255.892	788.56
256.124	660.56
256.357	669.56
256.59	725.56
256.823	706.56
257.056	718.56
257.289	831.56
257.521	896.56
257.754	808.56
257.987	783.56
258.22	859.56
258.452	812.56
258.685	687.56
258.918	683.56
259.151	677.56
259.383	644.56
259.616	592.56
259.849	636.56
260.081	702.56
260.314	786.56
260.547	836.56
260.779	827.56
261.012	784.56
261.244	710.56
261.477	668.56
261.71	679.56
261.942	693.56
262.175	667.56
262.407	674.56
262.64	655.56
262.872	615.56
263.105	613.56
263.337	645.56
263.57	636.56
263.802	639.56
264.035	616.56
264.267	575.56
264.499	572.56
264.732	641.56
264.964	654.56
265.197	666.56
265.429	709.56
265.661	795.56
265.894	843.56
266.126	850.56
266.358	801.56
266.591	808.56
266.823	865.56
267.055	788.56
267.287	760.56
267.52	762.56
267.752	765.56
267.984	770.56
268.216	783.56
268.448	824.56
268.681	790.56
268.913	730.56
269.145	725.56
269.377	703.56
269.609	755.56
269.841	906.56
270.073	1007.56
270.306	1098.56
270.538	1144.56
270.77	980.56
271.002	824.56
271.234	846.56
271.466	842.56
271.698	933.56
271.93	1086.56
272.162	1020.56
272.394	941.56
272.626	910.56
272.858	789.56
273.09	700.56
273.322	715.56
273.553	679.56
273.785	733.56
274.017	704.56
274.249	738.56
274.481	748.56
274.713	715.56
274.945	705.56
275.176	728.56
275.408	694.56
275.64	698.56
275.872	690.56
276.104	739.56
276.335	843.56
276.567	905.56
276.799	894.56
277.031	845.56
277.262	825.56
277.494	833.56
277.726	901.56
277.957	894.56
278.189	812.56
278.421	766.56
278.652	758.56
278.884	744.56
279.115	734.56
279.347	746.56
279.579	741.56
279.81	771.56
280.042	820.56
280.273	875.56
280.505	867.56
280.736	891.56
280.968	830.56
281.199	749.56
281.431	712.56
281.662	693.56
281.894	700.56
282.125	729.56
282.356	755.56
282.588	781.56
282.819	796.56
283.051	861.56
283.282	912.56
283.513	862.56
283.745	768.56
283.976	724.56
284.207	724.56
284.439	730.56
284.67	742.56
284.901	800.56
285.132	806.56
285.364	780.56
285.595	804.56
285.826	790.56
286.057	760.56
286.288	733.56
286.52	805.56
286.751	873.56
286.982	837.56
287.213	784.56
287.444	726.56
287.675	752.56
287.906	800.56
288.138	826.56
288.369	792.56
288.6	758.56
288.831	750.56
289.062	738.56
289.293	776.56
289.524	796.56
289.755	799.56
289.986	796.56
290.217	752.56
290.448	769.56
290.679	796.56
290.91	799.56
291.141	795.56
291.371	822.56
291.602	805.56
291.833	842.56
292.064	852.56
292.295	835.56
292.526	850.56
292.757	871.56
292.987	822.56
293.218	825.56
293.449	876.56
293.68	1008.56
293.91	1041.56
294.141	986.56
294.372	899.56
294.603	935.56
294.833	979.56
295.064	936.56
295.295	814.56
295.525	809.56
295.756	758.56
295.987	751.56
296.217	769.56
296.448	789.56
296.679	792.56
296.909	785.56
297.14	774.56
297.37	798.56
297.601	873.56
297.831	907.56
298.062	883.56
298.292	825.56
298.523	822.56
298.753	803.56
298.984	802.56
299.214	830.56
299.445	858.56
299.675	864.56
299.905	838.56
300.136	810.56
300.366	786.56
300.597	776.56
300.827	775.56
301.057	809.56
301.288	847.56
301.518	872.56
301.748	852.56
301.979	925.56
302.209	936.56
302.439	1001.56
302.669	1052.56
302.9	928.56
303.13	871.56
303.36	849.56
303.59	885.56
303.82	871.56
304.051	868.56
304.281	852.56
304.511	909.56
304.741	938.56
304.971	1056.56
305.201	1079.56
305.431	959.56
305.661	820.56
305.891	759.56
306.121	783.56
306.352	793.56
306.582	859.56
306.812	905.56
307.042	971.56
307.272	950.56
307.502	989.56
307.731	1063.56
307.961	1091.56
308.191	1000.56
308.421	892.56
308.651	841.56
308.881	852.56
309.111	839.56
309.341	875.56
309.571	828.56
309.8	855.56
310.03	807.56
310.26	863.56
310.49	855.56
310.72	867.56
310.949	888.56
311.179	877.56
311.409	884.56
311.639	846.56
311.868	846.56
312.098	863.56
312.328	884.56
312.557	850.56
312.787	843.56
313.017	860.56
313.246	872.56
313.476	873.56
313.706	949.56
313.935	906.56
314.165	910.56
314.394	963.56
314.624	1007.56
314.853	1047.56
315.083	1019.56
315.312	1080.56
315.542	980.56
315.771	902.56
316.001	930.56
316.23	984.56
316.46	962.56
316.689	934.56
316.919	896.56
317.148	866.56
317.377	902.56
317.607	982.56
317.836	1061.56
318.065	1077.56
318.295	1028.56
318.524	983.56
318.753	950.56
318.983	936.56
319.212	917.56
319.441	922.56
319.67	934.56
319.9	942.56
320.129	1015.56
320.358	1020.56
320.587	1046.56
320.816	1028.56
321.046	1020.56
321.275	967.56
321.504	1006.56
321.733	1028.56
321.962	1005.56
322.191	954.56
322.42	957.56
322.649	932.56
322.878	904.56
323.108	938.56
323.337	994.56
323.566	968.56
323.795	933.56
324.024	970.56
324.253	944.56
324.482	935.56
324.71	909.56
324.939	867.56
325.168	906.56
325.397	948.56
325.626	1004.56
325.855	950.56
326.084	954.56
326.313	939.56
326.542	981.56
326.77	980.56
326.999	950.56
327.228	907.56
327.457	873.56
327.686	886.56
327.914	937.56
328.143	938.56
328.372	951.56
328.6	958.56
328.829	909.56
329.058	893.56
329.287	898.56
329.515	942.56
329.744	974.56
329.972	1006.56
330.201	1047.56
330.43	1023.56
330.658	996.56
330.887	1015.56
331.115	1008.56
331.344	998.56
331.572	980.56
331.801	976.56
332.03	982.56
332.258	982.56
332.486	990.56
332.715	1018.56
332.943	1036.56
333.172	981.56
333.4	993.56
333.629	1036.56
333.857	1098.56
334.085	1237.56
334.314	1414.56
334.542	1444.56
334.771	1300.56
334.999	1186.56
335.227	1106.56
335.455	1085.56
335.684	1062.56
335.912	1146.56
336.14	1131.56
336.369	1091.56
336.597	1054.56
336.825	1030.56
337.053	1061.56
337.281	1093.56
337.51	1147.56
337.738	1208.56
337.966	1104.56
338.194	1031.56
338.422	996.56
338.65	1003.56
338.878	988.56
339.106	952.56
339.334	969.56
339.562	941.56
339.79	956.56
340.018	1032.56
340.246	1037.56
340.474	1062.56
340.702	1008.56
340.93	1056.56
341.158	1032.56
341.386	1002.56
341.614	985.56
341.842	974.56
342.07	996.56
342.298	999.56
342.526	972.56
342.754	980.56
342.981	984.56
343.209	983.56
343.437	964.56
343.665	961.56
343.893	1041.56
344.12	1068.56
344.348	1068.56
344.576	998.56
344.804	958.56
345.031	1012.56
345.259	994.56
345.487	936.56
345.714	931.56
345.942	920.56
346.17	902.56
346.397	969.56
346.625	962.56
346.853	914.56
347.08	887.56
347.308	882.56
347.535	933.56
347.763	961.56
347.99	956.56
348.218	918.56
348.445	927.56
348.673	926.56
348.9	990.56
349.128	1002.56
349.355	1006.56
349.583	983.56
349.81	934.56
350.037	855.56
350.265	875.56
350.492	879.56
350.72	899.56
350.947	938.56
351.174	956.56
351.402	918.56
351.629	880.56
351.856	892.56
352.083	865.56
352.311	866.56
352.538	909.56
352.765	991.56
352.992	954.56
353.22	936.56
353.447	917.56
353.674	937.56
353.901	904.56
354.128	915.56
354.355	963.56
354.583	950.56
354.81	974.56
355.037	967.56
355.264	965.56
355.491	936.56
355.718	964.56
355.945	957.56
356.172	893.56
356.399	893.56
356.626	907.56
356.853	962.56
357.08	1081.56
357.307	1146.56
357.534	1077.56
357.761	946.56
357.988	903.56
358.215	884.56
358.441	898.56
358.668	867.56
358.895	898.56
359.122	978.56
359.349	1039.56
359.576	1000.56
359.802	936.56
360.029	913.56
360.256	910.56
360.483	912.56
360.709	960.56
360.936	985.56
361.163	1062.56
361.39	1112.56
361.616	1182.56
361.843	1164.56
362.07	1080.56
362.296	968.56
362.523	907.56
362.749	936.56
362.976	949.56
363.203	954.56
363.429	918.56
363.656	915.56
363.882	955.56
364.109	1084.56
364.335	1103.56
364.562	1046.56
364.788	962.56
365.015	940.56
365.241	908.56
365.468	946.56
365.694	991.56
365.92	1010.56
366.147	960.56
366.373	908.56
366.599	879.56
366.826	900.56
367.052	917.56
367.278	925.56
367.505	963.56
367.731	981.56
367.957	974.56
368.184	1005.56
368.41	1059.56
368.636	1063.56
368.862	1058.56
369.089	1054.56
369.315	1026.56
369.541	1000.56
369.767	955.56
369.993	935.56
370.219	945.56
370.445	963.56
370.672	1045.56
370.898	1088.56
371.124	1039.56
371.35	998.56
371.576	1046.56
371.802	1050.56
372.028	1020.56
372.254	968.56
372.48	927.56
372.706	959.56
372.932	944.56
373.158	980.56
373.384	969.56
373.61	1028.56
373.835	1042.56
374.061	988.56
374.287	1011.56
374.513	980.56
374.739	998.56
374.965	988.56
375.191	991.56
375.416	997.56
375.642	1031.56
375.868	1085.56
376.094	1102.56
376.319	1050.56
376.545	979.56
376.771	1026.56
376.997	1095.56
377.222	1058.56
377.448	1047.56
377.674	1034.56
377.899	1074.56
378.125	1107.56
378.35	1111.56
378.576	1016.56
378.802	971.56
379.027	980.56
379.253	972.56
379.478	1000.56
379.704	1008.56
379.929	990.56
380.155	998.56
380.38	1027.56
380.606	992.56
380.831	1017.56
381.057	1080.56
381.282	1082.56
381.507	1048.56
381.733	1148.56
381.958	1182.56
382.184	1074.56
382.409	1024.56
382.634	1034.56
382.86	1056.56
383.085	1036.56
383.31	1076.56
383.535	1199.56
383.761	1233.56
383.986	1175.56
384.211	1148.56
384.436	1149.56
384.662	1167.56
384.887	1190.56
385.112	1159.56
385.337	1172.56
385.562	1150.56
385.787	1148.56
386.013	1193.56
386.238	1152.56
386.463	1181.56
386.688	1261.56
386.913	1299.56
387.138	1244.56
387.363	1198.56
387.588	1199.56
387.813	1135.56
388.038	1174.56
388.263	1212.56
388.488	1152.56
388.713	1088.56
388.938	1087.56
389.163	1093.56
389.387	1110.56
389.612	1131.56
389.837	1113.56
390.062	1143.56
390.287	1150.56
390.512	1158.56
390.736	1088.56
390.961	1110.56
391.186	1084.56
391.411	1111.56
391.636	1152.56
391.86	1106.56
392.085	1143.56
392.31	1132.56
392.534	1136.56
392.759	1178.56
392.984	1151.56
393.208	1159.56
393.433	1190.56
393.658	1226.56
393.882	1268.56
394.107	1142.56
394.331	1150.56
394.556	1134.56
394.78	1150.56
395.005	1206.56
395.229	1231.56
395.454	1314.56
395.678	1294.56
395.903	1251.56
396.127	1210.56
396.352	1241.56
396.576	1266.56
396.801	1229.56
397.025	1217.56
397.249	1243.56
397.474	1236.56
397.698	1218.56
397.922	1269.56
398.147	1347.56
398.371	1388.56
398.595	1312.56
398.82	1300.56
399.044	1323.56
399.268	1423.56
399.492	1492.56
399.717	1504.56
399.941	1515.56
400.165	1501.56
400.389	1448.56
400.613	1488.56
400.837	1664.56
401.062	1809.56
401.286	1534.56
401.51	1440.56
401.734	1459.56
401.958	1424.56
402.182	1352.56
402.406	1275.56
402.63	1294.56
402.854	1303.56
403.078	1323.56
403.302	1321.56
403.526	1345.56
403.75	1376.56
403.974	1356.56
404.198	1366.56
404.422	1433.56
404.645	1467.56
404.869	1423.56
405.093	1332.56
405.317	1305.56
405.541	1354.56
405.765	1375.56
405.988	1387.56
406.212	1406.56
406.436	1432.56
406.66	1491.56
406.883	1516.56
407.107	1670.56
407.331	1827.56
407.555	1868.56
407.778	1690.56
408.002	1464.56
408.226	1455.56
408.449	1423.56
408.673	1360.56
408.896	1426.56
409.12	1416.56
409.344	1370.56
409.567	1340.56
409.791	1383.56
410.014	1398.56
410.238	1513.56
410.461	1490.56
410.685	1399.56
410.908	1332.56
411.132	1366.56
411.355	1345.56
411.578	1372.56
411.802	1324.56
412.025	1375.56
412.249	1334.56
412.472	1308.56
412.695	1275.56
412.919	1314.56
413.142	1302.56
413.365	1329.56
413.589	1354.56
413.812	1412.56
414.035	1437.56
414.258	1343.56
414.482	1294.56
414.705	1324.56
414.928	1302.56
415.151	1312.56
415.374	1367.56
415.597	1332.56
415.821	1364.56
416.044	1334.56
416.267	1375.56
416.49	1288.56
416.713	1250.56
416.936	1349.56
417.159	1368.56
417.382	1373.56
417.605	1293.56
417.828	1338.56
418.051	1387.56
418.274	1285.56
418.497	1259.56
418.72	1286.56
418.943	1303.56
419.166	1342.56
419.389	1356.56
419.611	1314.56
419.834	1294.56
420.057	1324.56
420.28	1288.56
420.503	1275.56
420.726	1339.56
420.948	1307.56
421.171	1272.56
421.394	1306.56
421.617	1342.56
421.839	1357.56
422.062	1310.56
422.285	1276.56
422.507	1280.56
422.73	1279.56
422.953	1243.56
423.175	1248.56
423.398	1272.56
423.621	1273.56
423.843	1312.56
424.066	1360.56
424.288	1374.56
424.511	1412.56
424.733	1364.56
424.956	1277.56
425.178	1253.56
425.401	1259.56
425.623	1262.56
425.846	1247.56
426.068	1364.56
426.291	1384.56
426.513	1316.56
426.735	1336.56
426.958	1446.56
427.18	1500.56
427.402	1392.56
427.625	1446.56
427.847	1389.56
428.069	1317.56
428.292	1260.56
428.514	1241.56
428.736	1244.56
428.958	1288.56
429.181	1280.56
429.403	1451.56
429.625	1771.56
429.847	1462.56
430.069	1327.56
430.292	1444.56
430.514	1458.56
430.736	1351.56
430.958	1392.56
431.18	1295.56
431.402	1270.56
431.624	1224.56
431.846	1175.56
432.068	1151.56
432.29	1154.56
432.512	1185.56
432.734	1263.56
432.956	1260.56
433.178	1340.56
433.4	1336.56
433.622	1342.56
433.844	1271.56
434.066	1200.56
434.287	1210.56
434.509	1208.56
434.731	1340.56
434.953	1360.56
435.175	1356.56
435.397	1286.56
435.618	1298.56
435.84	1248.56
436.062	1242.56
436.284	1299.56
436.505	1320.56
436.727	1338.56
436.949	1298.56
437.17	1246.56
437.392	1255.56
437.614	1204.56
437.835	1180.56
438.057	1253.56
438.278	1266.56
438.5	1225.56
438.721	1216.56
438.943	1276.56
439.165	1259.56
439.386	1246.56
439.608	1263.56
439.829	1309.56
440.05	1293.56
440.272	1231.56
440.493	1252.56
440.715	1278.56
440.936	1352.56
441.158	1443.56
441.379	1370.56
441.6	1392.56
441.822	1366.56
442.043	1363.56
442.264	1354.56
442.486	1265.56
442.707	1270.56
442.928	1288.56
443.149	1314.56
443.371	1356.56
443.592	1400.56
443.813	1357.56
444.034	1352.56
444.255	1354.56
444.476	1391.56
444.698	1423.56
444.919	1438.56
445.14	1524.56
445.361	1445.56
445.582	1478.56
445.803	1429.56
446.024	1401.56
446.245	1417.56
446.466	1378.56
446.687	1370.56
446.908	1368.56
447.129	1356.56
447.35	1324.56
447.571	1330.56
447.792	1222.56
448.013	1251.56
448.234	1250.56
448.455	1309.56
448.675	1343.56
448.896	1225.56
449.117	1198.56
449.338	1217.56
449.559	1302.56
449.779	1312.56
450	1466.56
450.221	1493.56
450.442	1426.56
450.662	1326.56
450.883	1207.56
451.104	1179.56
451.324	1199.56
451.545	1212.56
451.766	1179.56
451.986	1127.56
452.207	1144.56
452.428	1116.56
452.648	1104.56
452.869	1132.56
453.089	1147.56
453.31	1151.56
453.53	1173.56
453.751	1127.56
453.971	1063.56
454.192	1120.56
454.412	1158.56
454.633	1128.56
454.853	1122.56
455.073	1064.56
455.294	1078.56
455.514	1072.56
455.734	1100.56
455.955	1090.56
456.175	1063.56
456.395	1069.56
456.616	1105.56
456.836	1076.56
457.056	1114.56
457.276	1089.56
457.497	1068.56
457.717	1013.56
457.937	1042.56
458.157	1063.56
458.377	1071.56
458.598	1052.56
458.818	1046.56
459.038	1121.56
459.258	1155.56
459.478	1138.56
459.698	1113.56
459.918	1156.56
460.138	1225.56
460.358	1253.56
460.578	1268.56
460.798	1300.56
461.018	1356.56
461.238	1314.56
461.458	1277.56
461.678	1238.56
461.898	1226.56
462.118	1215.56
462.338	1273.56
462.558	1263.56
462.777	1282.56
462.997	1338.56
463.217	1381.56
463.437	1324.56
463.657	1296.56
463.876	1260.56
464.096	1253.56
464.316	1268.56
464.536	1322.56
464.755	1335.56
464.975	1332.56
465.195	1305.56
465.414	1336.56
465.634	1328.56
465.854	1304.56
466.073	1375.56
466.293	1342.56
466.512	1217.56
466.732	1240.56
466.951	1238.56
467.171	1238.56
467.391	1191.56
467.61	1188.56
467.829	1205.56
468.049	1332.56
468.268	1471.56
468.488	1320.56
468.707	1265.56
468.927	1236.56
469.146	1219.56
469.365	1219.56
469.585	1242.56
469.804	1209.56
470.023	1268.56
470.243	1239.56
470.462	1266.56
470.681	1239.56
470.901	1243.56
471.12	1268.56
471.339	1271.56
471.558	1192.56
471.777	1200.56
471.997	1208.56
472.216	1177.56
472.435	1154.56
472.654	1154.56
472.873	1195.56
473.092	1246.56
473.311	1172.56
473.53	1149.56
473.749	1151.56
473.968	1198.56
474.187	1258.56
474.406	1279.56
474.625	1230.56
474.844	1215.56
475.063	1209.56
475.282	1210.56
475.501	1210.56
475.72	1223.56
475.939	1315.56
476.158	1221.56
476.377	1256.56
476.596	1266.56
476.814	1226.56
477.033	1222.56
477.252	1284.56
477.471	1334.56
477.69	1303.56
477.908	1275.56
478.127	1356.56
478.346	1415.56
478.564	1436.56
478.783	1428.56
479.002	1468.56
479.22	1459.56
479.439	1478.56
479.658	1598.56
479.876	1527.56
480.095	1394.56
480.313	1376.56
480.532	1290.56
480.751	1332.56
480.969	1339.56
481.188	1293.56
481.406	1245.56
481.624	1228.56
481.843	1265.56
482.061	1282.56
482.28	1338.56
482.498	1348.56
482.717	1335.56
482.935	1309.56
483.153	1372.56
483.372	1405.56
483.59	1390.56
483.808	1346.56
484.027	1395.56
484.245	1460.56
484.463	1736.56
484.681	1906.56
484.9	1460.56
485.118	1364.56
485.336	1345.56
485.554	1415.56
485.772	1386.56
485.99	1360.56
486.209	1396.56
486.427	1406.56
486.645	1413.56
486.863	1415.56
487.081	1501.56
487.299	1480.56
487.517	1498.56
487.735	1496.56
487.953	1529.56
488.171	1509.56
488.389	1462.56
488.607	1468.56
488.825	1580.56
489.043	1574.56
489.261	1447.56
489.479	1467.56
489.696	1451.56
489.914	1486.56
490.132	1465.56
490.35	1483.56
490.568	1523.56
490.786	1510.56
491.003	1464.56
491.221	1566.56
491.439	1601.56
491.657	1606.56
491.874	1618.56
492.092	1673.56
492.31	1743.56
492.527	1671.56
492.745	1645.56
492.963	1606.56
493.18	1613.56
493.398	1696.56
493.615	1710.56
493.833	1611.56
494.05	1538.56
494.268	1582.56
494.485	1629.56
494.703	1554.56
494.92	1533.56
495.138	1552.56
495.355	1574.56
495.573	1622.56
495.79	1698.56
496.008	1675.56
496.225	1602.56
496.442	1603.56
496.66	1624.56
496.877	1586.56
497.094	1678.56
497.312	1634.56
497.529	1600.56
497.746	1668.56
497.963	1873.56
498.181	1962.56
498.398	1886.56
498.615	1853.56
498.832	1754.56
499.049	1759.56
499.267	1788.56
499.484	1883.56
499.701	2058.56
499.918	2090.56
500.135	2220.56
500.352	2332.56
500.569	2374.56
500.786	2541.56
501.003	2284.56
501.22	2138.56
501.437	2050.56
501.654	2091.56
501.871	2003.56
502.088	1806.56
502.305	1757.56
502.522	1678.56
502.739	1594.56
502.956	1582.56
503.172	1552.56
503.389	1508.56
503.606	1490.56
503.823	1490.56
504.04	1487.56
504.256	1507.56
504.473	1479.56
504.69	1563.56
504.907	1477.56
505.123	1389.56
505.34	1560.56
505.557	1999.56
505.773	1626.56
505.99	1413.56
506.207	1300.56
506.423	1296.56
506.64	1302.56
506.856	1314.56
507.073	1481.56
507.289	1600.56
507.506	1530.56
507.722	1322.56
507.939	1275.56
508.155	1260.56
508.372	1254.56
508.588	1210.56
508.805	1190.56
509.021	1181.56
509.238	1182.56
509.454	1140.56
509.67	1160.56
509.887	1159.56
510.103	1148.56
510.319	1170.56
510.536	1227.56
510.752	1226.56
510.968	1202.56
511.184	1289.56
511.401	1220.56
511.617	1132.56
511.833	1104.56
512.049	1099.56
512.265	1128.56
512.481	1093.56
512.698	1200.56
512.914	1224.56
513.13	1196.56
513.346	1155.56
513.562	1110.56
513.778	1152.56
513.994	1184.56
514.21	1208.56
514.426	1224.56
514.642	1302.56
514.858	1238.56
515.074	1148.56
515.29	1117.56
515.506	1160.56
515.721	1149.56
515.937	1188.56
516.153	1334.56
516.369	1283.56
516.585	1196.56
516.801	1123.56
517.016	1172.56
517.232	1183.56
517.448	1215.56
517.664	1240.56
517.879	1222.56
518.095	1257.56
518.311	1214.56
518.527	1181.56
518.742	1179.56
518.958	1135.56
519.173	1132.56
519.389	1192.56
519.605	1177.56
519.82	1189.56
520.036	1199.56
520.251	1149.56
520.467	1178.56
520.682	1253.56
520.898	1270.56
521.113	1164.56
521.329	1160.56
521.544	1202.56
521.76	1140.56
521.975	1110.56
522.19	1092.56
522.406	1112.56
522.621	1380.56
522.836	1310.56
523.052	1123.56
523.267	1110.56
523.482	1087.56
523.698	1080.56
523.913	1064.56
524.128	1070.56
524.343	1147.56
524.559	1180.56
524.774	1111.56
524.989	1066.56
525.204	1092.56
525.419	1072.56
525.634	1077.56
525.849	1062.56
526.064	1074.56
526.28	1064.56
526.495	1003.56
526.71	1002.56
526.925	1028.56
527.14	1003.56
527.355	980.56
527.57	980.56
527.785	1059.56
527.999	1006.56
528.214	1009.56
528.429	1022.56
528.644	1048.56
528.859	1065.56
529.074	1066.56
529.289	1118.56
529.503	1086.56
529.718	1091.56
529.933	1040.56
530.148	977.56
530.363	981.56
530.577	998.56
530.792	998.56
531.007	1018.56
531.221	977.56
531.436	1022.56
531.651	1036.56
531.865	1076.56
532.08	1029.56
532.295	988.56
532.509	939.56
532.724	967.56
532.938	1014.56
533.153	1055.56
533.367	1047.56
533.582	1036.56
533.796	1011.56
534.011	1025.56
534.225	980.56
534.44	975.56
534.654	962.56
534.868	981.56
535.083	1030.56
535.297	1052.56
535.511	1016.56
535.726	971.56
535.94	996.56
536.154	982.56
536.369	956.56
536.583	944.56
536.797	928.56
537.011	981.56
537.225	911.56
537.44	947.56
537.654	980.56
537.868	955.56
538.082	911.56
538.296	919.56
538.51	920.56
538.724	965.56
538.938	988.56
539.153	1021.56
539.367	1000.56
539.581	959.56
539.795	983.56
540.009	954.56
540.222	955.56
540.436	991.56
540.65	1077.56
540.864	1082.56
541.078	1077.56
541.292	1041.56
541.506	1082.56
541.72	1116.56
541.934	1116.56
542.147	1180.56
542.361	1164.56
542.575	1092.56
542.789	1020.56
543.002	981.56
543.216	973.56
543.43	1007.56
543.644	1050.56
543.857	1116.56
544.071	1092.56
544.285	1110.56
544.498	1118.56
544.712	1091.56
544.925	1082.56
545.139	1154.56
545.352	1095.56
545.566	1036.56
545.779	1062.56
545.993	1095.56
546.206	1102.56
546.42	1038.56
546.633	1043.56
546.847	1052.56
547.06	1064.56
547.274	1077.56
547.487	1067.56
547.7	1101.56
547.914	1089.56
548.127	1133.56
548.34	1075.56
548.554	1074.56
548.767	1081.56
548.98	1095.56
549.193	1084.56
549.407	1096.56
549.62	1139.56
549.833	1054.56
550.046	1063.56
550.259	1078.56
550.473	1064.56
550.686	1054.56
550.899	1008.56
551.112	990.56
551.325	997.56
551.538	1032.56
551.751	1130.56
551.964	931.56
552.177	932.56
552.39	967.56
552.603	1026.56
552.816	1010.56
553.029	1060.56
553.242	1087.56
553.455	1064.56
553.667	1023.56
553.88	1026.56
554.093	1021.56
554.306	978.56
554.519	981.56
554.732	959.56
554.944	972.56
555.157	969.56
555.37	979.56
555.583	945.56
555.795	926.56
556.008	900.56
556.221	877.56
556.433	898.56
556.646	854.56
556.859	842.56
557.071	871.56
557.284	921.56
557.496	884.56
557.709	880.56
557.921	894.56
558.134	895.56
558.346	890.56
558.559	898.56
558.771	861.56
558.984	822.56
559.196	820.56
559.409	804.56
559.621	815.56
559.833	804.56
560.046	877.56
560.258	810.56
560.47	831.56
560.683	818.56
560.895	861.56
561.107	844.56
561.32	848.56
561.532	843.56
561.744	806.56
561.956	833.56
562.168	817.56
562.381	772.56
562.593	764.56
562.805	805.56
563.017	762.56
563.229	792.56
563.441	821.56
563.653	791.56
563.865	759.56
564.077	788.56
564.289	781.56
564.501	782.56
564.713	804.56
564.925	844.56
565.137	904.56
565.349	810.56
565.561	809.56
565.773	811.56
565.985	840.56
566.197	869.56
566.408	914.56
566.62	892.56
566.832	921.56
567.044	908.56
567.255	911.56
567.467	929.56
567.679	930.56
567.891	904.56
568.102	874.56
568.314	882.56
568.526	810.56
568.737	778.56
568.949	741.56
569.161	702.56
569.372	685.56
569.584	677.56
569.795	675.56
570.007	678.56
570.218	668.56
570.43	659.56
570.641	677.56
570.853	679.56
571.064	685.56
571.276	667.56
571.487	666.56
571.698	646.56
571.91	635.56
572.121	632.56
572.333	604.56
572.544	591.56
572.755	603.56
572.966	600.56
573.178	556.56
573.389	562.56
573.6	621.56
573.811	649.56
574.023	570.56
574.234	590.56
574.445	576.56
574.656	578.56
574.867	577.56
575.078	577.56
575.289	594.56
575.501	560.56
575.712	558.56
575.923	557.56
576.134	566.56
576.345	568.56
576.556	567.56
576.767	547.56
576.978	531.56
577.188	554.56
577.399	532.56
577.61	532.56
577.821	520.56
578.032	526.56
578.243	523.56
578.454	514.56
578.665	511.56
578.875	496.56
579.086	510.56
579.297	513.56
579.508	538.56
579.718	512.56
579.929	500.56
580.14	485.56
580.35	503.56
580.561	522.56
580.772	572.56
580.982	515.56
581.193	485.56
581.403	506.56
581.614	497.56
581.825	491.56
582.035	487.56
582.246	483.56
582.456	506.56
582.667	478.56
582.877	478.56
583.087	461.56
583.298	463.56
583.508	457.56
583.719	496.56
583.929	473.56
584.139	475.56
584.35	480.56
584.56	469.56
584.77	477.56
584.981	467.56
585.191	468.56
585.401	474.56
585.611	470.56
585.821	485.56
586.032	451.56
586.242	443.56
586.452	437.56
586.662	462.56
586.872	453.56
587.082	462.56
587.292	473.56
587.502	490.56
587.713	478.56
587.923	453.56
588.133	429.56
588.343	460.56
588.553	452.56
588.762	449.56
588.972	457.56
589.182	447.56
589.392	452.56
589.602	454.56
589.812	461.56
590.022	424.56
590.232	447.56
590.441	460.56
590.651	442.56
590.861	451.56
591.071	446.56
591.281	446.56
591.49	435.56
591.7	454.56
591.91	455.56
592.119	435.56
592.329	449.56
592.539	464.56
592.748	450.56
592.958	468.56
593.167	467.56
593.377	444.56
593.587	484.56
593.796	477.56
594.006	456.56
594.215	485.56
594.424	474.56
594.634	492.56
594.843	484.56
595.053	462.56
595.262	459.56
595.472	465.56
595.681	459.56
595.89	434.56
596.1	440.56
596.309	429.56
596.518	448.56
596.727	452.56
596.937	439.56
597.146	418.56
597.355	442.56
597.564	439.56
597.774	404.56
597.983	408.56
598.192	416.56
598.401	403.56
598.61	409.56
598.819	400.56
599.028	406.56
599.237	403.56
599.446	389.56
599.655	384.56
599.864	395.56
600.073	390.56
600.282	402.56
600.491	388.56
600.7	380.56
600.909	392.56
601.118	402.56
601.327	398.56
601.536	412.56
601.745	406.56
601.953	410.56
602.162	433.56
602.371	420.56
602.58	418.56
602.789	414.56
602.997	423.56
603.206	410.56
603.415	406.56
603.623	420.56
603.832	408.56
604.041	412.56
604.249	389.56
604.458	378.56
604.666	404.56
604.875	373.56
605.084	377.56
605.292	397.56
605.501	405.56
605.709	416.56
605.918	408.56
606.126	411.56
606.334	411.56
606.543	400.56
606.751	398.56
606.96	432.56
607.168	406.56
607.376	392.56
607.585	395.56
607.793	399.56
608.001	392.56
608.21	414.56
608.418	415.56
608.626	408.56
608.834	416.56
609.043	407.56
609.251	413.56
609.459	402.56
609.667	416.56
609.875	404.56
610.083	425.56
610.291	419.56
610.499	413.56
610.707	426.56
610.916	404.56
611.124	401.56
611.332	408.56
611.54	372.56
611.748	392.56
611.955	398.56
612.163	408.56
612.371	427.56
612.579	393.56
612.787	395.56
612.995	404.56
613.203	401.56
613.411	404.56
613.618	381.56
613.826	395.56
614.034	386.56
614.242	387.56
614.449	406.56
614.657	424.56
614.865	400.56
615.072	394.56
615.28	386.56
615.488	394.56
615.695	397.56
615.903	406.56
616.111	387.56
616.318	402.56
616.526	398.56
616.733	382.56
616.941	392.56
617.148	356.56
617.356	371.56
617.563	374.56
617.771	394.56
617.978	375.56
618.185	378.56
618.393	367.56
618.6	384.56
618.807	382.56
619.015	387.56
619.222	379.56
619.429	347.56
619.637	352.56
619.844	352.56
620.051	383.56
620.258	352.56
620.466	378.56
620.673	342.56
620.88	353.56
621.087	345.56
621.294	342.56
621.501	351.56
621.708	337.56
621.915	340.56
622.122	364.56
622.329	372.56
622.536	351.56
622.743	354.56
622.95	361.56
623.157	351.56
623.364	355.56
623.571	362.56
623.778	371.56
623.985	347.56
624.192	358.56
624.399	345.56
624.606	340.56
624.812	331.56
625.019	350.56
625.226	341.56
625.433	328.56
625.639	335.56
625.846	325.56
626.053	313.56
626.259	303.56
626.466	289.56
626.673	300.56
626.879	278.56
627.086	311.56
627.293	322.56
627.499	312.56
627.706	322.56
627.912	302.56
628.119	318.56
628.325	329.56
628.532	317.56
628.738	310.56
628.945	308.56
629.151	315.56
629.357	325.56
629.564	328.56
629.77	300.56
629.976	296.56
630.183	312.56
630.389	287.56
630.595	307.56
630.802	331.56
631.008	316.56
631.214	306.56
631.42	298.56
631.627	302.56
631.833	276.56
632.039	301.56
632.245	299.56
632.451	289.56
632.657	288.56
632.863	306.56
633.069	320.56
633.275	295.56
633.481	282.56
633.688	269.56
633.893	286.56
634.099	293.56
634.305	276.56
634.511	270.56
634.717	296.56
634.923	253.56
635.129	235.56
635.335	263.56
635.541	260.56
635.747	288.56
635.952	284.56
636.158	285.56
636.364	285.56
636.57	296.56
636.775	294.56
636.981	271.56
637.187	272.56
637.392	280.56
637.598	306.56
637.804	307.56
638.009	293.56
638.215	300.56
638.421	268.56
638.626	275.56
638.832	253.56
639.037	260.56
639.243	268.56
639.448	262.56
639.654	269.56
639.859	271.56
640.065	261.56
640.27	283.56
640.475	268.56
640.681	258.56
640.886	272.56
641.091	275.56
641.297	284.56
641.502	262.56
641.707	271.56
641.913	281.56
642.118	260.56
642.323	268.56
642.528	272.56
642.733	269.56
642.939	240.56
643.144	233.56
643.349	279.56
643.554	272.56
643.759	283.56
643.964	251.56
644.169	265.56
644.374	259.56
644.579	263.56
644.784	273.56
644.989	282.56
645.194	268.56
645.399	268.56
645.604	267.56
645.809	280.56
646.014	245.56
646.219	247.56
646.423	264.56
646.628	250.56
646.833	260.56
647.038	268.56
647.243	253.56
647.447	252.56
647.652	282.56
647.857	246.56
648.062	260.56
648.266	246.56
648.471	289.56
648.676	286.56
648.88	250.56
649.085	267.56
649.289	263.56
649.494	237.56
649.698	260.56
649.903	264.56
650.107	252.56
650.312	245.56
650.516	260.56
650.721	256.56
650.925	251.56
651.13	231.56
651.334	239.56
651.539	259.56
651.743	250.56
651.947	242.56
652.152	226.56
652.356	214.56
652.56	250.56
652.764	243.56
652.969	228.56
653.173	232.56
653.377	228.56
653.581	230.56
653.785	226.56
653.99	223.56
654.194	229.56
654.398	235.56
654.602	228.56
654.806	225.56
655.01	219.56
655.214	221.56
655.418	236.56
655.622	216.56
655.826	235.56
656.03	246.56
656.234	247.56
656.438	266.56
656.642	260.56
656.846	234.56
657.049	237.56
657.253	205.56
657.457	215.56
657.661	203.56
657.865	192.56
658.068	183.56
658.272	152.56
658.476	164.56
658.68	160.56
658.883	141.56
659.087	160.56
659.291	143.56
659.494	134.56
659.698	148.56
659.901	140.56
660.105	128.56
660.309	136.56
660.512	127.56
660.716	108.56
660.919	130.56
661.123	124.56
661.326	110.56
661.53	118.56
661.733	106.56
661.936	100.56
662.14	91.56
662.343	93.56
662.546	106.56
662.75	91.56
662.953	98.56
663.156	99.56
663.36	94.56
663.563	96.56
663.766	78.56
663.969	82.56
664.173	87.56
664.376	87.56
664.579	93.56
664.782	101.56
664.985	84.56
665.188	102.56
665.391	92.56
665.594	70.56
665.797	78.56
666	76.56
666.203	95.56
666.406	74.56
666.609	95.56
666.812	80.56
667.015	79.56
667.218	79.56
667.421	82.56
667.624	89.56
667.827	102.56
668.03	90.56
668.232	84.56
668.435	86.56
668.638	94.56
668.841	99.56
669.043	81.56
669.246	89.56
669.449	84.56
669.651	86.56
669.854	83.56
670.057	90.56
670.259	102.56
670.462	89.56
670.665	92.56
670.867	86.56
671.07	87.56
671.272	89.56
671.475	92.56
671.677	84.56
671.88	94.56
672.082	97.56
672.284	82.56
672.487	98.56
672.689	90.56
672.892	82.56
