Data from WStandard_LampEnergy8_LIBS07252019.E.O._I.C._HRD10591_16-00-29-930.txt Node
Date: Thu Jul 25 16:00:29 EDT 2019
User: cochatt
Spectrometer: HR+D1059
Trigger mode: 1
Integration Time (sec): 1.000000E-1
Scans to average: 1
Electric dark correction enabled: true
Nonlinearity correction enabled: false
Boxcar width: 0
XAxis mode: Wavelengths
Number of Pixels in Spectrum: 2048
>>>>>Begin Spectral Data<<<<<
223.165	-9.88
223.4	-9.88
223.635	-9.88
223.869	-19.88
224.104	-8.88
224.338	-17.88
224.573	-16.88
224.808	-26.88
225.042	-8.88
225.277	11.12
225.511	-30.88
225.746	5.12
225.98	5.12
226.215	24.12
226.449	15.12
226.683	23.12
226.918	26.12
227.152	30.12
227.387	49.12
227.621	39.12
227.856	44.12
228.09	48.12
228.324	56.12
228.559	61.12
228.793	91.12
229.027	191.12
229.262	202.12
229.496	217.12
229.73	218.12
229.964	235.12
230.199	229.12
230.433	249.12
230.667	278.12
230.901	288.12
231.136	272.12
231.37	269.12
231.604	251.12
231.838	238.12
232.072	268.12
232.306	260.12
232.541	265.12
232.775	292.12
233.009	324.12
233.243	310.12
233.477	263.12
233.711	277.12
233.945	315.12
234.179	297.12
234.413	321.12
234.647	343.12
234.881	304.12
235.115	293.12
235.349	298.12
235.583	304.12
235.817	304.12
236.051	287.12
236.285	291.12
236.519	330.12
236.753	352.12
236.987	346.12
237.221	338.12
237.455	377.12
237.689	367.12
237.922	342.12
238.156	336.12
238.39	327.12
238.624	358.12
238.858	388.12
239.091	406.12
239.325	413.12
239.559	460.12
239.793	473.12
240.027	485.12
240.26	489.12
240.494	373.12
240.728	355.12
240.961	376.12
241.195	384.12
241.429	419.12
241.662	422.12
241.896	370.12
242.13	383.12
242.363	418.12
242.597	448.12
242.83	436.12
243.064	447.12
243.298	475.12
243.531	459.12
243.765	434.12
243.998	444.12
244.232	408.12
244.465	382.12
244.699	420.12
244.932	468.12
245.166	495.12
245.399	462.12
245.633	420.12
245.866	443.12
246.099	447.12
246.333	470.12
246.566	486.12
246.8	538.12
247.033	554.12
247.266	533.12
247.5	526.12
247.733	518.12
247.966	567.12
248.2	580.12
248.433	595.12
248.666	603.12
248.899	651.12
249.133	721.12
249.366	800.12
249.599	657.12
249.832	574.12
250.066	613.12
250.299	622.12
250.532	580.12
250.765	515.12
250.998	554.12
251.231	556.12
251.465	567.12
251.698	565.12
251.931	547.12
252.164	561.12
252.397	611.12
252.63	593.12
252.863	524.12
253.096	521.12
253.329	562.12
253.562	581.12
253.795	593.12
254.028	585.12
254.261	548.12
254.494	553.12
254.727	547.12
254.96	558.12
255.193	602.12
255.426	691.12
255.659	759.12
255.892	776.12
256.124	640.12
256.357	647.12
256.59	696.12
256.823	693.12
257.056	698.12
257.289	820.12
257.521	891.12
257.754	790.12
257.987	752.12
258.22	800.12
258.452	800.12
258.685	652.12
258.918	654.12
259.151	654.12
259.383	637.12
259.616	570.12
259.849	603.12
260.081	646.12
260.314	724.12
260.547	790.12
260.779	787.12
261.012	742.12
261.244	670.12
261.477	647.12
261.71	670.12
261.942	672.12
262.175	632.12
262.407	676.12
262.64	630.12
262.872	612.12
263.105	605.12
263.337	622.12
263.57	617.12
263.802	612.12
264.035	567.12
264.267	559.12
264.499	554.12
264.732	571.12
264.964	626.12
265.197	650.12
265.429	693.12
265.661	754.12
265.894	830.12
266.126	827.12
266.358	758.12
266.591	803.12
266.823	826.12
267.055	755.12
267.287	738.12
267.52	743.12
267.752	740.12
267.984	737.12
268.216	756.12
268.448	802.12
268.681	800.12
268.913	708.12
269.145	681.12
269.377	671.12
269.609	728.12
269.841	871.12
270.073	979.12
270.306	1046.12
270.538	1063.12
270.77	914.12
271.002	809.12
271.234	790.12
271.466	794.12
271.698	895.12
271.93	1011.12
272.162	989.12
272.394	918.12
272.626	871.12
272.858	776.12
273.09	692.12
273.322	706.12
273.553	652.12
273.785	689.12
274.017	711.12
274.249	764.12
274.481	716.12
274.713	692.12
274.945	678.12
275.176	674.12
275.408	667.12
275.64	665.12
275.872	674.12
276.104	727.12
276.335	817.12
276.567	889.12
276.799	846.12
277.031	827.12
277.262	800.12
277.494	824.12
277.726	863.12
277.957	858.12
278.189	798.12
278.421	728.12
278.652	702.12
278.884	702.12
279.115	709.12
279.347	745.12
279.579	702.12
279.81	754.12
280.042	804.12
280.273	853.12
280.505	852.12
280.736	862.12
280.968	786.12
281.199	711.12
281.431	692.12
281.662	692.12
281.894	712.12
282.125	734.12
282.356	737.12
282.588	746.12
282.819	747.12
283.051	808.12
283.282	838.12
283.513	825.12
283.745	758.12
283.976	706.12
284.207	683.12
284.439	696.12
284.67	753.12
284.901	762.12
285.132	751.12
285.364	734.12
285.595	747.12
285.826	745.12
286.057	732.12
286.288	731.12
286.52	775.12
286.751	831.12
286.982	829.12
287.213	743.12
287.444	720.12
287.675	700.12
287.906	761.12
288.138	805.12
288.369	776.12
288.6	727.12
288.831	725.12
289.062	725.12
289.293	747.12
289.524	758.12
289.755	752.12
289.986	791.12
290.217	710.12
290.448	724.12
290.679	743.12
290.91	776.12
291.141	794.12
291.371	786.12
291.602	792.12
291.833	803.12
292.064	816.12
292.295	784.12
292.526	812.12
292.757	849.12
292.987	801.12
293.218	782.12
293.449	848.12
293.68	946.12
293.91	950.12
294.141	919.12
294.372	886.12
294.603	924.12
294.833	930.12
295.064	868.12
295.295	800.12
295.525	775.12
295.756	737.12
295.987	699.12
296.217	744.12
296.448	770.12
296.679	743.12
296.909	728.12
297.14	737.12
297.37	786.12
297.601	838.12
297.831	874.12
298.062	841.12
298.292	804.12
298.523	756.12
298.753	738.12
298.984	800.12
299.214	815.12
299.445	804.12
299.675	825.12
299.905	824.12
300.136	792.12
300.366	752.12
300.597	751.12
300.827	738.12
301.057	819.12
301.288	822.12
301.518	835.12
301.748	858.12
301.979	875.12
302.209	875.12
302.439	952.12
302.669	968.12
302.9	894.12
303.13	840.12
303.36	842.12
303.59	887.12
303.82	840.12
304.051	833.12
304.281	859.12
304.511	860.12
304.741	961.12
304.971	1010.12
305.201	1023.12
305.431	969.12
305.661	814.12
305.891	760.12
306.121	741.12
306.352	781.12
306.582	849.12
306.812	865.12
307.042	933.12
307.272	964.12
307.502	970.12
307.731	1022.12
307.961	1074.12
308.191	938.12
308.421	847.12
308.651	816.12
308.881	817.12
309.111	790.12
309.341	787.12
309.571	818.12
309.8	826.12
310.03	806.12
310.26	797.12
310.49	804.12
310.72	831.12
310.949	843.12
311.179	857.12
311.409	857.12
311.639	826.12
311.868	821.12
312.098	838.12
312.328	818.12
312.557	798.12
312.787	843.12
313.017	850.12
313.246	848.12
313.476	874.12
313.706	890.12
313.935	865.12
314.165	872.12
314.394	899.12
314.624	944.12
314.853	1027.12
315.083	1037.12
315.312	1028.12
315.542	976.12
315.771	910.12
316.001	900.12
316.23	935.12
316.46	930.12
316.689	914.12
316.919	860.12
317.148	834.12
317.377	883.12
317.607	938.12
317.836	1039.12
318.065	1046.12
318.295	987.12
318.524	984.12
318.753	927.12
318.983	904.12
319.212	917.12
319.441	898.12
319.67	902.12
319.9	929.12
320.129	986.12
320.358	987.12
320.587	1026.12
320.816	1005.12
321.046	1006.12
321.275	950.12
321.504	990.12
321.733	1028.12
321.962	985.12
322.191	940.12
322.42	921.12
322.649	879.12
322.878	898.12
323.108	917.12
323.337	942.12
323.566	949.12
323.795	957.12
324.024	924.12
324.253	921.12
324.482	960.12
324.71	875.12
324.939	835.12
325.168	891.12
325.397	906.12
325.626	950.12
325.855	944.12
326.084	916.12
326.313	896.12
326.542	929.12
326.77	960.12
326.999	950.12
327.228	935.12
327.457	875.12
327.686	879.12
327.914	901.12
328.143	912.12
328.372	915.12
328.6	911.12
328.829	926.12
329.058	910.12
329.287	891.12
329.515	952.12
329.744	940.12
329.972	987.12
330.201	1012.12
330.43	995.12
330.658	965.12
330.887	967.12
331.115	967.12
331.344	968.12
331.572	956.12
331.801	945.12
332.03	969.12
332.258	979.12
332.486	1009.12
332.715	993.12
332.943	981.12
333.172	973.12
333.4	971.12
333.629	988.12
333.857	1074.12
334.085	1183.12
334.314	1351.12
334.542	1419.12
334.771	1266.12
334.999	1154.12
335.227	1082.12
335.455	1036.12
335.684	1026.12
335.912	1067.12
336.14	1066.12
336.369	1037.12
336.597	986.12
336.825	991.12
337.053	1011.12
337.281	1091.12
337.51	1129.12
337.738	1112.12
337.966	1067.12
338.194	992.12
338.422	968.12
338.65	943.12
338.878	946.12
339.106	918.12
339.334	959.12
339.562	946.12
339.79	964.12
340.018	988.12
340.246	1027.12
340.474	999.12
340.702	998.12
340.93	1017.12
341.158	976.12
341.386	999.12
341.614	988.12
341.842	981.12
342.07	976.12
342.298	976.12
342.526	972.12
342.754	963.12
342.981	932.12
343.209	971.12
343.437	961.12
343.665	954.12
343.893	990.12
344.12	1011.12
344.348	1024.12
344.576	976.12
344.804	994.12
345.031	970.12
345.259	958.12
345.487	907.12
345.714	846.12
345.942	865.12
346.17	908.12
346.397	937.12
346.625	923.12
346.853	888.12
347.08	854.12
347.308	880.12
347.535	892.12
347.763	946.12
347.99	920.12
348.218	864.12
348.445	857.12
348.673	908.12
348.9	944.12
349.128	989.12
349.355	995.12
349.583	945.12
349.81	901.12
350.037	841.12
350.265	856.12
350.492	838.12
350.72	878.12
350.947	942.12
351.174	930.12
351.402	894.12
351.629	848.12
351.856	833.12
352.083	842.12
352.311	833.12
352.538	880.12
352.765	903.12
352.992	927.12
353.22	882.12
353.447	875.12
353.674	912.12
353.901	888.12
354.128	898.12
354.355	886.12
354.583	919.12
354.81	938.12
355.037	934.12
355.264	937.12
355.491	927.12
355.718	904.12
355.945	905.12
356.172	860.12
356.399	869.12
356.626	882.12
356.853	938.12
357.08	1011.12
357.307	1090.12
357.534	1072.12
357.761	938.12
357.988	872.12
358.215	867.12
358.441	890.12
358.668	885.12
358.895	900.12
359.122	931.12
359.349	1016.12
359.576	996.12
359.802	936.12
360.029	874.12
360.256	858.12
360.483	888.12
360.709	936.12
360.936	973.12
361.163	1012.12
361.39	1094.12
361.616	1162.12
361.843	1130.12
362.07	1026.12
362.296	913.12
362.523	903.12
362.749	872.12
362.976	922.12
363.203	941.12
363.429	914.12
363.656	884.12
363.882	901.12
364.109	1048.12
364.335	1107.12
364.562	1027.12
364.788	937.12
365.015	907.12
365.241	869.12
365.468	880.12
365.694	950.12
365.92	965.12
366.147	925.12
366.373	890.12
366.599	894.12
366.826	892.12
367.052	897.12
367.278	925.12
367.505	934.12
367.731	917.12
367.957	952.12
368.184	971.12
368.41	1049.12
368.636	1058.12
368.862	1045.12
369.089	1040.12
369.315	980.12
369.541	938.12
369.767	915.12
369.993	924.12
370.219	890.12
370.445	925.12
370.672	1015.12
370.898	1025.12
371.124	1031.12
371.35	958.12
371.576	1024.12
371.802	1021.12
372.028	1001.12
372.254	975.12
372.48	914.12
372.706	918.12
372.932	929.12
373.158	936.12
373.384	935.12
373.61	1015.12
373.835	1014.12
374.061	980.12
374.287	982.12
374.513	964.12
374.739	959.12
374.965	976.12
375.191	1001.12
375.416	1017.12
375.642	995.12
375.868	1096.12
376.094	1079.12
376.319	1009.12
376.545	1001.12
376.771	983.12
376.997	1068.12
377.222	1016.12
377.448	996.12
377.674	1022.12
377.899	1035.12
378.125	1077.12
378.35	1064.12
378.576	972.12
378.802	933.12
379.027	976.12
379.253	972.12
379.478	965.12
379.704	955.12
379.929	943.12
380.155	1003.12
380.38	958.12
380.606	993.12
380.831	1003.12
381.057	1031.12
381.282	1014.12
381.507	1032.12
381.733	1112.12
381.958	1115.12
382.184	1038.12
382.409	1030.12
382.634	1016.12
382.86	1015.12
383.085	982.12
383.31	1076.12
383.535	1163.12
383.761	1206.12
383.986	1132.12
384.211	1107.12
384.436	1111.12
384.662	1155.12
384.887	1168.12
385.112	1122.12
385.337	1123.12
385.562	1112.12
385.787	1090.12
386.013	1128.12
386.238	1139.12
386.463	1135.12
386.688	1233.12
386.913	1324.12
387.138	1226.12
387.363	1138.12
387.588	1155.12
387.813	1131.12
388.038	1159.12
388.263	1198.12
388.488	1122.12
388.713	1061.12
388.938	1091.12
389.163	1083.12
389.387	1089.12
389.612	1083.12
389.837	1109.12
390.062	1123.12
390.287	1122.12
390.512	1111.12
390.736	1062.12
390.961	1058.12
391.186	1084.12
391.411	1068.12
391.636	1110.12
391.86	1099.12
392.085	1118.12
392.31	1104.12
392.534	1105.12
392.759	1141.12
392.984	1124.12
393.208	1104.12
393.433	1159.12
393.658	1222.12
393.882	1192.12
394.107	1134.12
394.331	1098.12
394.556	1100.12
394.78	1114.12
395.005	1191.12
395.229	1214.12
395.454	1287.12
395.678	1281.12
395.903	1228.12
396.127	1170.12
396.352	1200.12
396.576	1217.12
396.801	1262.12
397.025	1202.12
397.249	1242.12
397.474	1234.12
397.698	1212.12
397.922	1281.12
398.147	1299.12
398.371	1311.12
398.595	1327.12
398.82	1257.12
399.044	1334.12
399.268	1364.12
399.492	1412.12
399.717	1473.12
399.941	1447.12
400.165	1466.12
400.389	1415.12
400.613	1438.12
400.837	1595.12
401.062	1785.12
401.286	1496.12
401.51	1412.12
401.734	1428.12
401.958	1395.12
402.182	1289.12
402.406	1316.12
402.63	1232.12
402.854	1282.12
403.078	1284.12
403.302	1288.12
403.526	1311.12
403.75	1315.12
403.974	1361.12
404.198	1366.12
404.422	1403.12
404.645	1454.12
404.869	1403.12
405.093	1311.12
405.317	1290.12
405.541	1331.12
405.765	1337.12
405.988	1311.12
406.212	1367.12
406.436	1387.12
406.66	1408.12
406.883	1466.12
407.107	1662.12
407.331	1754.12
407.555	1876.12
407.778	1659.12
408.002	1430.12
408.226	1381.12
408.449	1377.12
408.673	1376.12
408.896	1357.12
409.12	1363.12
409.344	1342.12
409.567	1327.12
409.791	1359.12
410.014	1356.12
410.238	1458.12
410.461	1506.12
410.685	1376.12
410.908	1311.12
411.132	1334.12
411.355	1318.12
411.578	1307.12
411.802	1312.12
412.025	1346.12
412.249	1327.12
412.472	1288.12
412.695	1288.12
412.919	1294.12
413.142	1262.12
413.365	1284.12
413.589	1339.12
413.812	1392.12
414.035	1398.12
414.258	1339.12
414.482	1274.12
414.705	1284.12
414.928	1286.12
415.151	1278.12
415.374	1256.12
415.597	1319.12
415.821	1314.12
416.044	1336.12
416.267	1302.12
416.49	1251.12
416.713	1251.12
416.936	1304.12
417.159	1343.12
417.382	1352.12
417.605	1276.12
417.828	1286.12
418.051	1301.12
418.274	1295.12
418.497	1252.12
418.72	1271.12
418.943	1262.12
419.166	1330.12
419.389	1346.12
419.611	1307.12
419.834	1239.12
420.057	1316.12
420.28	1261.12
420.503	1259.12
420.726	1282.12
420.948	1316.12
421.171	1255.12
421.394	1246.12
421.617	1284.12
421.839	1342.12
422.062	1318.12
422.285	1237.12
422.507	1258.12
422.73	1199.12
422.953	1240.12
423.175	1214.12
423.398	1251.12
423.621	1255.12
423.843	1250.12
424.066	1291.12
424.288	1354.12
424.511	1424.12
424.733	1330.12
424.956	1225.12
425.178	1198.12
425.401	1265.12
425.623	1265.12
425.846	1290.12
426.068	1312.12
426.291	1321.12
426.513	1316.12
426.735	1341.12
426.958	1441.12
427.18	1448.12
427.402	1315.12
427.625	1391.12
427.847	1329.12
428.069	1275.12
428.292	1251.12
428.514	1226.12
428.736	1215.12
428.958	1220.12
429.181	1288.12
429.403	1418.12
429.625	1706.12
429.847	1460.12
430.069	1242.12
430.292	1414.12
430.514	1386.12
430.736	1309.12
430.958	1370.12
431.18	1294.12
431.402	1226.12
431.624	1175.12
431.846	1150.12
432.068	1117.12
432.29	1124.12
432.512	1171.12
432.734	1234.12
432.956	1219.12
433.178	1321.12
433.4	1281.12
433.622	1296.12
433.844	1218.12
434.066	1180.12
434.287	1161.12
434.509	1188.12
434.731	1243.12
434.953	1353.12
435.175	1319.12
435.397	1274.12
435.618	1264.12
435.84	1193.12
436.062	1193.12
436.284	1264.12
436.505	1268.12
436.727	1312.12
436.949	1234.12
437.17	1215.12
437.392	1221.12
437.614	1215.12
437.835	1172.12
438.057	1225.12
438.278	1221.12
438.5	1198.12
438.721	1238.12
438.943	1201.12
439.165	1228.12
439.386	1198.12
439.608	1219.12
439.829	1243.12
440.05	1246.12
440.272	1262.12
440.493	1233.12
440.715	1265.12
440.936	1354.12
441.158	1418.12
441.379	1395.12
441.6	1343.12
441.822	1328.12
442.043	1291.12
442.264	1309.12
442.486	1221.12
442.707	1267.12
442.928	1230.12
443.149	1311.12
443.371	1340.12
443.592	1373.12
443.813	1344.12
444.034	1315.12
444.255	1334.12
444.476	1379.12
444.698	1377.12
444.919	1362.12
445.14	1411.12
445.361	1412.12
445.582	1420.12
445.803	1384.12
446.024	1375.12
446.245	1400.12
446.466	1380.12
446.687	1304.12
446.908	1316.12
447.129	1332.12
447.35	1305.12
447.571	1272.12
447.792	1218.12
448.013	1256.12
448.234	1260.12
448.455	1290.12
448.675	1286.12
448.896	1222.12
449.117	1183.12
449.338	1226.12
449.559	1210.12
449.779	1316.12
450	1402.12
450.221	1452.12
450.442	1396.12
450.662	1250.12
450.883	1154.12
451.104	1168.12
451.324	1184.12
451.545	1210.12
451.766	1162.12
451.986	1145.12
452.207	1099.12
452.428	1092.12
452.648	1085.12
452.869	1101.12
453.089	1096.12
453.31	1131.12
453.53	1140.12
453.751	1094.12
453.971	1042.12
454.192	1088.12
454.412	1146.12
454.633	1146.12
454.853	1106.12
455.073	1044.12
455.294	1053.12
455.514	1059.12
455.734	1086.12
455.955	1082.12
456.175	1041.12
456.395	1046.12
456.616	1053.12
456.836	1073.12
457.056	1056.12
457.276	1067.12
457.497	1040.12
457.717	1006.12
457.937	1002.12
458.157	1036.12
458.377	1011.12
458.598	1037.12
458.818	1046.12
459.038	1082.12
459.258	1137.12
459.478	1114.12
459.698	1100.12
459.918	1144.12
460.138	1178.12
460.358	1198.12
460.578	1219.12
460.798	1250.12
461.018	1327.12
461.238	1254.12
461.458	1232.12
461.678	1246.12
461.898	1187.12
462.118	1182.12
462.338	1220.12
462.558	1247.12
462.777	1273.12
462.997	1300.12
463.217	1347.12
463.437	1311.12
463.657	1279.12
463.876	1247.12
464.096	1265.12
464.316	1246.12
464.536	1304.12
464.755	1271.12
464.975	1297.12
465.195	1233.12
465.414	1265.12
465.634	1313.12
465.854	1264.12
466.073	1339.12
466.293	1310.12
466.512	1184.12
466.732	1175.12
466.951	1224.12
467.171	1220.12
467.391	1182.12
467.61	1162.12
467.829	1211.12
468.049	1288.12
468.268	1432.12
468.488	1312.12
468.707	1227.12
468.927	1228.12
469.146	1207.12
469.365	1192.12
469.585	1210.12
469.804	1224.12
470.023	1204.12
470.243	1232.12
470.462	1177.12
470.681	1202.12
470.901	1218.12
471.12	1203.12
471.339	1191.12
471.558	1199.12
471.777	1168.12
471.997	1179.12
472.216	1161.12
472.435	1084.12
472.654	1127.12
472.873	1153.12
473.092	1205.12
473.311	1146.12
473.53	1136.12
473.749	1107.12
473.968	1148.12
474.187	1212.12
474.406	1248.12
474.625	1177.12
474.844	1153.12
475.063	1191.12
475.282	1191.12
475.501	1175.12
475.72	1191.12
475.939	1256.12
476.158	1228.12
476.377	1184.12
476.596	1205.12
476.814	1210.12
477.033	1201.12
477.252	1248.12
477.471	1286.12
477.69	1262.12
477.908	1278.12
478.127	1338.12
478.346	1398.12
478.564	1392.12
478.783	1402.12
479.002	1413.12
479.22	1356.12
479.439	1446.12
479.658	1580.12
479.876	1511.12
480.095	1325.12
480.313	1310.12
480.532	1281.12
480.751	1268.12
480.969	1269.12
481.188	1269.12
481.406	1237.12
481.624	1213.12
481.843	1252.12
482.061	1267.12
482.28	1290.12
482.498	1332.12
482.717	1276.12
482.935	1299.12
483.153	1302.12
483.372	1330.12
483.59	1334.12
483.808	1344.12
484.027	1321.12
484.245	1390.12
484.463	1678.12
484.681	1823.12
484.9	1478.12
485.118	1324.12
485.336	1333.12
485.554	1324.12
485.772	1394.12
485.99	1344.12
486.209	1378.12
486.427	1368.12
486.645	1373.12
486.863	1378.12
487.081	1435.12
487.299	1429.12
487.517	1399.12
487.735	1434.12
487.953	1454.12
488.171	1486.12
488.389	1463.12
488.607	1438.12
488.825	1595.12
489.043	1473.12
489.261	1396.12
489.479	1462.12
489.696	1453.12
489.914	1429.12
490.132	1415.12
490.35	1414.12
490.568	1486.12
490.786	1503.12
491.003	1437.12
491.221	1523.12
491.439	1565.12
491.657	1559.12
491.874	1570.12
492.092	1658.12
492.31	1680.12
492.527	1649.12
492.745	1559.12
492.963	1561.12
493.18	1605.12
493.398	1678.12
493.615	1660.12
493.833	1578.12
494.05	1514.12
494.268	1549.12
494.485	1612.12
494.703	1535.12
494.92	1527.12
495.138	1523.12
495.355	1512.12
495.573	1578.12
495.79	1643.12
496.008	1644.12
496.225	1559.12
496.442	1606.12
496.66	1584.12
496.877	1586.12
497.094	1594.12
497.312	1604.12
497.529	1595.12
497.746	1622.12
497.963	1818.12
498.181	1937.12
498.398	1881.12
498.615	1800.12
498.832	1735.12
499.049	1746.12
499.267	1784.12
499.484	1861.12
499.701	1994.12
499.918	2028.12
500.135	2151.12
500.352	2271.12
500.569	2282.12
500.786	2448.12
501.003	2272.12
501.22	2089.12
501.437	2011.12
501.654	2052.12
501.871	1934.12
502.088	1727.12
502.305	1720.12
502.522	1651.12
502.739	1577.12
502.956	1541.12
503.172	1504.12
503.389	1470.12
503.606	1444.12
503.823	1450.12
504.04	1484.12
504.256	1462.12
504.473	1484.12
504.69	1511.12
504.907	1428.12
505.123	1395.12
505.34	1519.12
505.557	1927.12
505.773	1572.12
505.99	1369.12
506.207	1318.12
506.423	1298.12
506.64	1286.12
506.856	1278.12
507.073	1491.12
507.289	1584.12
507.506	1456.12
507.722	1284.12
507.939	1239.12
508.155	1245.12
508.372	1238.12
508.588	1214.12
508.805	1167.12
509.021	1127.12
509.238	1122.12
509.454	1124.12
509.67	1146.12
509.887	1094.12
510.103	1102.12
510.319	1097.12
510.536	1201.12
510.752	1226.12
510.968	1185.12
511.184	1268.12
511.401	1204.12
511.617	1113.12
511.833	1088.12
512.049	1063.12
512.265	1071.12
512.481	1065.12
512.698	1109.12
512.914	1166.12
513.13	1143.12
513.346	1153.12
513.562	1084.12
513.778	1099.12
513.994	1162.12
514.21	1166.12
514.426	1187.12
514.642	1293.12
514.858	1218.12
515.074	1132.12
515.29	1115.12
515.506	1139.12
515.721	1160.12
515.937	1146.12
516.153	1287.12
516.369	1208.12
516.585	1148.12
516.801	1110.12
517.016	1127.12
517.232	1202.12
517.448	1176.12
517.664	1171.12
517.879	1204.12
518.095	1254.12
518.311	1213.12
518.527	1157.12
518.742	1114.12
518.958	1107.12
519.173	1120.12
519.389	1145.12
519.605	1135.12
519.82	1149.12
520.036	1159.12
520.251	1139.12
520.467	1145.12
520.682	1200.12
520.898	1232.12
521.113	1123.12
521.329	1066.12
521.544	1191.12
521.76	1109.12
521.975	1108.12
522.19	1074.12
522.406	1067.12
522.621	1311.12
522.836	1306.12
523.052	1081.12
523.267	1064.12
523.482	1073.12
523.698	1039.12
523.913	1032.12
524.128	1052.12
524.343	1141.12
524.559	1158.12
524.774	1076.12
524.989	1051.12
525.204	1028.12
525.419	1022.12
525.634	1055.12
525.849	1039.12
526.064	1071.12
526.28	1042.12
526.495	981.12
526.71	979.12
526.925	965.12
527.14	963.12
527.355	952.12
527.57	938.12
527.785	985.12
527.999	1013.12
528.214	976.12
528.429	971.12
528.644	1016.12
528.859	1049.12
529.074	1062.12
529.289	1104.12
529.503	1098.12
529.718	1072.12
529.933	1026.12
530.148	978.12
530.363	958.12
530.577	1004.12
530.792	978.12
531.007	972.12
531.221	951.12
531.436	967.12
531.651	1019.12
531.865	1032.12
532.08	1000.12
532.295	951.12
532.509	931.12
532.724	908.12
532.938	992.12
533.153	1016.12
533.367	1018.12
533.582	1044.12
533.796	996.12
534.011	1012.12
534.225	988.12
534.44	940.12
534.654	969.12
534.868	951.12
535.083	985.12
535.297	1004.12
535.511	966.12
535.726	962.12
535.94	1008.12
536.154	953.12
536.369	914.12
536.583	916.12
536.797	914.12
537.011	928.12
537.225	923.12
537.44	902.12
537.654	934.12
537.868	945.12
538.082	864.12
538.296	864.12
538.51	912.12
538.724	900.12
538.938	958.12
539.153	985.12
539.367	955.12
539.581	948.12
539.795	972.12
540.009	937.12
540.222	944.12
540.436	973.12
540.65	1044.12
540.864	1056.12
541.078	1025.12
541.292	985.12
541.506	1033.12
541.72	1074.12
541.934	1091.12
542.147	1204.12
542.361	1098.12
542.575	1048.12
542.789	997.12
543.002	933.12
543.216	940.12
543.43	1000.12
543.644	1022.12
543.857	1080.12
544.071	1076.12
544.285	1100.12
544.498	1086.12
544.712	1081.12
544.925	1075.12
545.139	1095.12
545.352	1050.12
545.566	1053.12
545.779	1048.12
545.993	1095.12
546.206	1064.12
546.42	1041.12
546.633	1027.12
546.847	1059.12
547.06	1050.12
547.274	1048.12
547.487	1078.12
547.7	1104.12
547.914	1075.12
548.127	1049.12
548.34	1031.12
548.554	1053.12
548.767	1061.12
548.98	1020.12
549.193	1058.12
549.407	1082.12
549.62	1092.12
549.833	1033.12
550.046	1015.12
550.259	1039.12
550.473	1027.12
550.686	1002.12
550.899	976.12
551.112	974.12
551.325	951.12
551.538	1025.12
551.751	1119.12
551.964	918.12
552.177	898.12
552.39	954.12
552.603	963.12
552.816	1011.12
553.029	1042.12
553.242	1082.12
553.455	1059.12
553.667	1020.12
553.88	1023.12
554.093	997.12
554.306	976.12
554.519	954.12
554.732	950.12
554.944	961.12
555.157	974.12
555.37	924.12
555.583	911.12
555.795	883.12
556.008	897.12
556.221	862.12
556.433	865.12
556.646	865.12
556.859	873.12
557.071	871.12
557.284	875.12
557.496	877.12
557.709	839.12
557.921	829.12
558.134	846.12
558.346	816.12
558.559	830.12
558.771	833.12
558.984	811.12
559.196	799.12
559.409	826.12
559.621	802.12
559.833	821.12
560.046	828.12
560.258	822.12
560.47	816.12
560.683	827.12
560.895	827.12
561.107	797.12
561.32	800.12
561.532	836.12
561.744	804.12
561.956	809.12
562.168	776.12
562.381	754.12
562.593	781.12
562.805	770.12
563.017	739.12
563.229	798.12
563.441	770.12
563.653	751.12
563.865	753.12
564.077	783.12
564.289	758.12
564.501	776.12
564.713	791.12
564.925	816.12
565.137	857.12
565.349	808.12
565.561	788.12
565.773	784.12
565.985	831.12
566.197	847.12
566.408	894.12
566.62	883.12
566.832	906.12
567.044	895.12
567.255	882.12
567.467	856.12
567.679	918.12
567.891	891.12
568.102	858.12
568.314	849.12
568.526	795.12
568.737	774.12
568.949	724.12
569.161	692.12
569.372	668.12
569.584	649.12
569.795	677.12
570.007	662.12
570.218	648.12
570.43	637.12
570.641	630.12
570.853	642.12
571.064	658.12
571.276	651.12
571.487	642.12
571.698	642.12
571.91	640.12
572.121	635.12
572.333	612.12
572.544	605.12
572.755	588.12
572.966	593.12
573.178	561.12
573.389	566.12
573.6	599.12
573.811	637.12
574.023	586.12
574.234	574.12
574.445	559.12
574.656	539.12
574.867	543.12
575.078	566.12
575.289	563.12
575.501	535.12
575.712	535.12
575.923	541.12
576.134	560.12
576.345	553.12
576.556	543.12
576.767	539.12
576.978	521.12
577.188	530.12
577.399	524.12
577.61	518.12
577.821	518.12
578.032	495.12
578.243	524.12
578.454	533.12
578.665	500.12
578.875	481.12
579.086	467.12
579.297	484.12
579.508	501.12
579.718	483.12
579.929	498.12
580.14	481.12
580.35	464.12
580.561	500.12
580.772	559.12
580.982	515.12
581.193	504.12
581.403	481.12
581.614	481.12
581.825	466.12
582.035	481.12
582.246	468.12
582.456	494.12
582.667	472.12
582.877	478.12
583.087	471.12
583.298	458.12
583.508	453.12
583.719	439.12
583.929	443.12
584.139	469.12
584.35	437.12
584.56	431.12
584.77	463.12
584.981	459.12
585.191	480.12
585.401	464.12
585.611	481.12
585.821	453.12
586.032	467.12
586.242	443.12
586.452	452.12
586.662	454.12
586.872	444.12
587.082	439.12
587.292	459.12
587.502	456.12
587.713	478.12
587.923	439.12
588.133	443.12
588.343	441.12
588.553	454.12
588.762	447.12
588.972	451.12
589.182	439.12
589.392	433.12
589.602	442.12
589.812	417.12
590.022	415.12
590.232	433.12
590.441	451.12
590.651	447.12
590.861	436.12
591.071	423.12
591.281	438.12
591.49	431.12
591.7	427.12
591.91	417.12
592.119	425.12
592.329	442.12
592.539	454.12
592.748	420.12
592.958	453.12
593.167	448.12
593.377	459.12
593.587	452.12
593.796	480.12
594.006	473.12
594.215	467.12
594.424	459.12
594.634	456.12
594.843	454.12
595.053	463.12
595.262	451.12
595.472	462.12
595.681	458.12
595.89	436.12
596.1	413.12
596.309	412.12
596.518	418.12
596.727	441.12
596.937	434.12
597.146	408.12
597.355	416.12
597.564	393.12
597.774	396.12
597.983	399.12
598.192	394.12
598.401	386.12
598.61	387.12
598.819	393.12
599.028	407.12
599.237	388.12
599.446	392.12
599.655	391.12
599.864	378.12
600.073	375.12
600.282	372.12
600.491	388.12
600.7	351.12
600.909	382.12
601.118	388.12
601.327	391.12
601.536	394.12
601.745	392.12
601.953	392.12
602.162	405.12
602.371	416.12
602.58	384.12
602.789	404.12
602.997	393.12
603.206	404.12
603.415	390.12
603.623	408.12
603.832	395.12
604.041	400.12
604.249	386.12
604.458	370.12
604.666	378.12
604.875	390.12
605.084	386.12
605.292	412.12
605.501	424.12
605.709	404.12
605.918	396.12
606.126	412.12
606.334	410.12
606.543	394.12
606.751	402.12
606.96	394.12
607.168	391.12
607.376	385.12
607.585	372.12
607.793	378.12
608.001	384.12
608.21	401.12
608.418	388.12
608.626	368.12
608.834	380.12
609.043	381.12
609.251	380.12
609.459	380.12
609.667	392.12
609.875	387.12
610.083	402.12
610.291	410.12
610.499	414.12
610.707	404.12
610.916	387.12
611.124	387.12
611.332	406.12
611.54	409.12
611.748	381.12
611.955	382.12
612.163	384.12
612.371	393.12
612.579	396.12
612.787	380.12
612.995	390.12
613.203	392.12
613.411	384.12
613.618	388.12
613.826	386.12
614.034	371.12
614.242	390.12
614.449	396.12
614.657	367.12
614.865	374.12
615.072	377.12
615.28	369.12
615.488	387.12
615.695	408.12
615.903	386.12
616.111	363.12
616.318	386.12
616.526	372.12
616.733	407.12
616.941	375.12
617.148	376.12
617.356	378.12
617.563	358.12
617.771	359.12
617.978	353.12
618.185	362.12
618.393	353.12
618.6	372.12
618.807	369.12
619.015	374.12
619.222	353.12
619.429	353.12
619.637	342.12
619.844	336.12
620.051	341.12
620.258	351.12
620.466	328.12
620.673	347.12
620.88	322.12
621.087	335.12
621.294	327.12
621.501	333.12
621.708	327.12
621.915	337.12
622.122	344.12
622.329	360.12
622.536	360.12
622.743	335.12
622.95	338.12
623.157	351.12
623.364	329.12
623.571	348.12
623.778	329.12
623.985	345.12
624.192	362.12
624.399	345.12
624.606	342.12
624.812	324.12
625.019	343.12
625.226	328.12
625.433	316.12
625.639	312.12
625.846	290.12
626.053	304.12
626.259	294.12
626.466	302.12
626.673	300.12
626.879	296.12
627.086	296.12
627.293	298.12
627.499	297.12
627.706	309.12
627.912	316.12
628.119	307.12
628.325	336.12
628.532	315.12
628.738	326.12
628.945	309.12
629.151	314.12
629.357	319.12
629.564	307.12
629.77	305.12
629.976	281.12
630.183	282.12
630.389	294.12
630.595	298.12
630.802	291.12
631.008	293.12
631.214	288.12
631.42	274.12
631.627	286.12
631.833	275.12
632.039	287.12
632.245	282.12
632.451	304.12
632.657	276.12
632.863	301.12
633.069	278.12
633.275	279.12
633.481	266.12
633.688	293.12
633.893	279.12
634.099	273.12
634.305	274.12
634.511	264.12
634.717	254.12
634.923	269.12
635.129	269.12
635.335	255.12
635.541	251.12
635.747	264.12
635.952	262.12
636.158	258.12
636.364	278.12
636.57	270.12
636.775	275.12
636.981	282.12
637.187	263.12
637.392	296.12
637.598	254.12
637.804	282.12
638.009	278.12
638.215	297.12
638.421	274.12
638.626	244.12
638.832	276.12
639.037	269.12
639.243	277.12
639.448	261.12
639.654	256.12
639.859	262.12
640.065	258.12
640.27	254.12
640.475	253.12
640.681	278.12
640.886	268.12
641.091	261.12
641.297	255.12
641.502	266.12
641.707	276.12
641.913	261.12
642.118	271.12
642.323	258.12
642.528	248.12
642.733	262.12
642.939	239.12
643.144	263.12
643.349	250.12
643.554	258.12
643.759	252.12
643.964	244.12
644.169	246.12
644.374	238.12
644.579	258.12
644.784	266.12
644.989	255.12
645.194	252.12
645.399	251.12
645.604	254.12
645.809	267.12
646.014	234.12
646.219	247.12
646.423	243.12
646.628	258.12
646.833	262.12
647.038	246.12
647.243	245.12
647.447	245.12
647.652	263.12
647.857	265.12
648.062	238.12
648.266	251.12
648.471	249.12
648.676	258.12
648.88	251.12
649.085	254.12
649.289	242.12
649.494	240.12
649.698	241.12
649.903	233.12
650.107	238.12
650.312	255.12
650.516	248.12
650.721	236.12
650.925	230.12
651.13	231.12
651.334	232.12
651.539	226.12
651.743	243.12
651.947	226.12
652.152	217.12
652.356	237.12
652.56	212.12
652.764	243.12
652.969	232.12
653.173	217.12
653.377	219.12
653.581	239.12
653.785	232.12
653.99	225.12
654.194	216.12
654.398	208.12
654.602	205.12
654.806	205.12
655.01	212.12
655.214	212.12
655.418	214.12
655.622	226.12
655.826	220.12
656.03	240.12
656.234	255.12
656.438	256.12
656.642	277.12
656.846	249.12
657.049	230.12
657.253	232.12
657.457	199.12
657.661	201.12
657.865	182.12
658.068	152.12
658.272	165.12
658.476	158.12
658.68	147.12
658.883	160.12
659.087	142.12
659.291	142.12
659.494	137.12
659.698	127.12
659.901	116.12
660.105	132.12
660.309	137.12
660.512	119.12
660.716	111.12
660.919	111.12
661.123	130.12
661.326	92.12
661.53	101.12
661.733	102.12
661.936	116.12
662.14	109.12
662.343	98.12
662.546	88.12
662.75	90.12
662.953	75.12
663.156	85.12
663.36	94.12
663.563	82.12
663.766	92.12
663.969	84.12
664.173	88.12
664.376	75.12
664.579	99.12
664.782	87.12
664.985	91.12
665.188	81.12
665.391	81.12
665.594	87.12
665.797	82.12
666	83.12
666.203	76.12
666.406	62.12
666.609	85.12
666.812	86.12
667.015	81.12
667.218	81.12
667.421	90.12
667.624	82.12
667.827	87.12
668.03	73.12
668.232	82.12
668.435	85.12
668.638	87.12
668.841	88.12
669.043	97.12
669.246	86.12
669.449	77.12
669.651	79.12
669.854	85.12
670.057	74.12
670.259	86.12
670.462	79.12
670.665	90.12
670.867	92.12
671.07	83.12
671.272	78.12
671.475	86.12
671.677	84.12
671.88	81.12
672.082	79.12
672.284	86.12
672.487	82.12
672.689	90.12
672.892	96.12
