Data from WStandard_LampEnergy5.5LIBS07252019.E.O._I.C._HRD10591_16-06-39-919.txt Node
Date: Thu Jul 25 16:06:39 EDT 2019
User: cochatt
Spectrometer: HR+D1059
Trigger mode: 1
Integration Time (sec): 1.000000E-1
Scans to average: 1
Electric dark correction enabled: true
Nonlinearity correction enabled: false
Boxcar width: 0
XAxis mode: Wavelengths
Number of Pixels in Spectrum: 2048
>>>>>Begin Spectral Data<<<<<
223.165	-16.12
223.4	-16.12
223.635	-16.12
223.869	-16.12
224.104	-25.12
224.338	-25.12
224.573	-23.12
224.808	-13.12
225.042	-7.12
225.277	-10.12
225.511	-0.12
225.746	7.88
225.98	7.88
226.215	19.88
226.449	11.88
226.683	27.88
226.918	29.88
227.152	30.88
227.387	40.88
227.621	33.88
227.856	32.88
228.09	52.88
228.324	39.88
228.559	59.88
228.793	152.88
229.027	360.88
229.262	377.88
229.496	415.88
229.73	385.88
229.964	443.88
230.199	451.88
230.433	452.88
230.667	517.88
230.901	521.88
231.136	497.88
231.37	456.88
231.604	451.88
231.838	458.88
232.072	479.88
232.306	432.88
232.541	466.88
232.775	561.88
233.009	604.88
233.243	595.88
233.477	540.88
233.711	541.88
233.945	542.88
234.179	529.88
234.413	597.88
234.647	647.88
234.881	613.88
235.115	546.88
235.349	558.88
235.583	536.88
235.817	552.88
236.051	531.88
236.285	557.88
236.519	566.88
236.753	669.88
236.987	674.88
237.221	674.88
237.455	755.88
237.689	727.88
237.922	689.88
238.156	655.88
238.39	646.88
238.624	694.88
238.858	724.88
239.091	752.88
239.325	771.88
239.559	912.88
239.793	937.88
240.027	1021.88
240.26	1033.88
240.494	781.88
240.728	681.88
240.961	688.88
241.195	727.88
241.429	834.88
241.662	838.88
241.896	767.88
242.13	782.88
242.363	862.88
242.597	898.88
242.83	851.88
243.064	895.88
243.298	994.88
243.531	943.88
243.765	919.88
243.998	901.88
244.232	797.88
244.465	763.88
244.699	791.88
244.932	887.88
245.166	1031.88
245.399	978.88
245.633	893.88
245.866	858.88
246.099	928.88
246.333	951.88
246.566	971.88
246.8	1047.88
247.033	1165.88
247.266	1092.88
247.5	1046.88
247.733	1035.88
247.966	1088.88
248.2	1212.88
248.433	1183.88
248.666	1222.88
248.899	1329.88
249.133	1501.88
249.366	1743.88
249.599	1410.88
249.832	1238.88
250.066	1254.88
250.299	1263.88
250.532	1221.88
250.765	1086.88
250.998	1120.88
251.231	1192.88
251.465	1254.88
251.698	1161.88
251.931	1153.88
252.164	1188.88
252.397	1209.88
252.63	1251.88
252.863	1084.88
253.096	1036.88
253.329	1165.88
253.562	1175.88
253.795	1264.88
254.028	1232.88
254.261	1173.88
254.494	1155.88
254.727	1081.88
254.96	1129.88
255.193	1235.88
255.426	1409.88
255.659	1657.88
255.892	1659.88
256.124	1370.88
256.357	1287.88
256.59	1433.88
256.823	1409.88
257.056	1406.88
257.289	1721.88
257.521	1905.88
257.754	1650.88
257.987	1542.88
258.22	1757.88
258.452	1703.88
258.685	1395.88
258.918	1346.88
259.151	1360.88
259.383	1308.88
259.616	1203.88
259.849	1269.88
260.081	1390.88
260.314	1540.88
260.547	1691.88
260.779	1734.88
261.012	1629.88
261.244	1463.88
261.477	1361.88
261.71	1393.88
261.942	1401.88
262.175	1382.88
262.407	1409.88
262.64	1357.88
262.872	1263.88
263.105	1221.88
263.337	1285.88
263.57	1305.88
263.802	1286.88
264.035	1207.88
264.267	1153.88
264.499	1134.88
264.732	1221.88
264.964	1297.88
265.197	1302.88
265.429	1403.88
265.661	1553.88
265.894	1710.88
266.126	1785.88
266.358	1581.88
266.591	1621.88
266.823	1804.88
267.055	1606.88
267.287	1574.88
267.52	1561.88
267.752	1547.88
267.984	1557.88
268.216	1577.88
268.448	1658.88
268.681	1620.88
268.913	1498.88
269.145	1434.88
269.377	1360.88
269.609	1497.88
269.841	1729.88
270.073	1953.88
270.306	2242.88
270.538	2409.88
270.77	2014.88
271.002	1723.88
271.234	1642.88
271.466	1640.88
271.698	1813.88
271.93	2218.88
272.162	2178.88
272.394	1939.88
272.626	1861.88
272.858	1651.88
273.09	1465.88
273.322	1415.88
273.553	1356.88
273.785	1388.88
274.017	1429.88
274.249	1537.88
274.481	1568.88
274.713	1416.88
274.945	1395.88
275.176	1389.88
275.408	1434.88
275.64	1383.88
275.872	1354.88
276.104	1401.88
276.335	1648.88
276.567	1878.88
276.799	1912.88
277.031	1667.88
277.262	1578.88
277.494	1669.88
277.726	1848.88
277.957	1826.88
278.189	1662.88
278.421	1505.88
278.652	1455.88
278.884	1479.88
279.115	1453.88
279.347	1477.88
279.579	1459.88
279.81	1451.88
280.042	1591.88
280.273	1777.88
280.505	1774.88
280.736	1801.88
280.968	1709.88
281.199	1518.88
281.431	1455.88
281.662	1423.88
281.894	1420.88
282.125	1482.88
282.356	1547.88
282.588	1557.88
282.819	1502.88
283.051	1655.88
283.282	1761.88
283.513	1720.88
283.745	1498.88
283.976	1398.88
284.207	1382.88
284.439	1477.88
284.67	1471.88
284.901	1512.88
285.132	1559.88
285.364	1507.88
285.595	1533.88
285.826	1511.88
286.057	1490.88
286.288	1469.88
286.52	1571.88
286.751	1679.88
286.982	1715.88
287.213	1579.88
287.444	1442.88
287.675	1447.88
287.906	1496.88
288.138	1617.88
288.369	1622.88
288.6	1498.88
288.831	1456.88
289.062	1493.88
289.293	1498.88
289.524	1513.88
289.755	1564.88
289.986	1562.88
290.217	1438.88
290.448	1477.88
290.679	1521.88
290.91	1523.88
291.141	1562.88
291.371	1611.88
291.602	1617.88
291.833	1574.88
292.064	1645.88
292.295	1605.88
292.526	1670.88
292.757	1737.88
292.987	1634.88
293.218	1567.88
293.449	1642.88
293.68	1878.88
293.91	2033.88
294.141	1858.88
294.372	1770.88
294.603	1765.88
294.833	1863.88
295.064	1809.88
295.295	1637.88
295.525	1629.88
295.756	1479.88
295.987	1377.88
296.217	1450.88
296.448	1488.88
296.679	1517.88
296.909	1501.88
297.14	1459.88
297.37	1503.88
297.601	1581.88
297.831	1711.88
298.062	1733.88
298.292	1605.88
298.523	1493.88
298.753	1482.88
298.984	1494.88
299.214	1519.88
299.445	1533.88
299.675	1601.88
299.905	1574.88
300.136	1560.88
300.366	1526.88
300.597	1481.88
300.827	1461.88
301.057	1522.88
301.288	1618.88
301.518	1622.88
301.748	1619.88
301.979	1728.88
302.209	1715.88
302.439	1861.88
302.669	1949.88
302.9	1839.88
303.13	1633.88
303.36	1624.88
303.59	1656.88
303.82	1644.88
304.051	1600.88
304.281	1648.88
304.511	1619.88
304.741	1702.88
304.971	1917.88
305.201	2083.88
305.431	1944.88
305.661	1588.88
305.891	1453.88
306.121	1454.88
306.352	1482.88
306.582	1575.88
306.812	1711.88
307.042	1802.88
307.272	1791.88
307.502	1845.88
307.731	2001.88
307.961	2160.88
308.191	1998.88
308.421	1732.88
308.651	1600.88
308.881	1537.88
309.111	1561.88
309.341	1529.88
309.571	1573.88
309.8	1559.88
310.03	1565.88
310.26	1566.88
310.49	1565.88
310.72	1587.88
310.949	1655.88
311.179	1654.88
311.409	1640.88
311.639	1631.88
311.868	1563.88
312.098	1587.88
312.328	1606.88
312.557	1595.88
312.787	1572.88
313.017	1649.88
313.246	1668.88
313.476	1619.88
313.706	1693.88
313.935	1687.88
314.165	1652.88
314.394	1715.88
314.624	1810.88
314.853	1903.88
315.083	2022.88
315.312	2086.88
315.542	1913.88
315.771	1695.88
316.001	1666.88
316.23	1803.88
316.46	1765.88
316.689	1736.88
316.919	1671.88
317.148	1593.88
317.377	1618.88
317.607	1728.88
317.836	1999.88
318.065	2037.88
318.295	2001.88
318.524	1856.88
318.753	1807.88
318.983	1758.88
319.212	1727.88
319.441	1700.88
319.67	1697.88
319.9	1716.88
320.129	1805.88
320.358	1909.88
320.587	1937.88
320.816	1915.88
321.046	1899.88
321.275	1809.88
321.504	1763.88
321.733	1938.88
321.962	1876.88
322.191	1746.88
322.42	1703.88
322.649	1683.88
322.878	1709.88
323.108	1713.88
323.337	1785.88
323.566	1794.88
323.795	1789.88
324.024	1797.88
324.253	1726.88
324.482	1789.88
324.71	1734.88
324.939	1601.88
325.168	1638.88
325.397	1728.88
325.626	1777.88
325.855	1780.88
326.084	1743.88
326.313	1724.88
326.542	1777.88
326.77	1793.88
326.999	1811.88
327.228	1771.88
327.457	1648.88
327.686	1647.88
327.914	1685.88
328.143	1736.88
328.372	1719.88
328.6	1716.88
328.829	1709.88
329.058	1688.88
329.287	1667.88
329.515	1728.88
329.744	1763.88
329.972	1824.88
330.201	1866.88
330.43	1888.88
330.658	1828.88
330.887	1805.88
331.115	1846.88
331.344	1862.88
331.572	1814.88
331.801	1809.88
332.03	1786.88
332.258	1822.88
332.486	1829.88
332.715	1860.88
332.943	1850.88
333.172	1817.88
333.4	1854.88
333.629	1885.88
333.857	1993.88
334.085	2180.88
334.314	2468.88
334.542	2741.88
334.771	2548.88
334.999	2210.88
335.227	2073.88
335.455	1994.88
335.684	1953.88
335.912	1980.88
336.14	2067.88
336.369	2059.88
336.597	1855.88
336.825	1853.88
337.053	1954.88
337.281	1989.88
337.51	2104.88
337.738	2160.88
337.966	2109.88
338.194	1939.88
338.422	1826.88
338.65	1822.88
338.878	1829.88
339.106	1739.88
339.334	1706.88
339.562	1735.88
339.79	1758.88
340.018	1859.88
340.246	1941.88
340.474	1941.88
340.702	1861.88
340.93	1888.88
341.158	1887.88
341.386	1868.88
341.614	1801.88
341.842	1823.88
342.07	1804.88
342.298	1833.88
342.526	1826.88
342.754	1807.88
342.981	1776.88
343.209	1791.88
343.437	1752.88
343.665	1781.88
343.893	1842.88
344.12	1910.88
344.348	1921.88
344.576	1869.88
344.804	1802.88
345.031	1797.88
345.259	1800.88
345.487	1742.88
345.714	1681.88
345.942	1665.88
346.17	1667.88
346.397	1706.88
346.625	1731.88
346.853	1667.88
347.08	1594.88
347.308	1626.88
347.535	1669.88
347.763	1719.88
347.99	1687.88
348.218	1655.88
348.445	1660.88
348.673	1643.88
348.9	1715.88
349.128	1722.88
349.355	1825.88
349.583	1778.88
349.81	1743.88
350.037	1581.88
350.265	1554.88
350.492	1569.88
350.72	1654.88
350.947	1637.88
351.174	1729.88
351.402	1634.88
351.629	1555.88
351.856	1534.88
352.083	1557.88
352.311	1557.88
352.538	1593.88
352.765	1678.88
352.992	1744.88
353.22	1641.88
353.447	1586.88
353.674	1665.88
353.901	1674.88
354.128	1603.88
354.355	1587.88
354.583	1654.88
354.81	1719.88
355.037	1702.88
355.264	1693.88
355.491	1672.88
355.718	1677.88
355.945	1658.88
356.172	1615.88
356.399	1580.88
356.626	1562.88
356.853	1651.88
357.08	1737.88
357.307	1965.88
357.534	1982.88
357.761	1717.88
357.988	1572.88
358.215	1566.88
358.441	1570.88
358.668	1588.88
358.895	1581.88
359.122	1650.88
359.349	1829.88
359.576	1854.88
359.802	1678.88
360.029	1616.88
360.256	1596.88
360.483	1639.88
360.709	1653.88
360.936	1693.88
361.163	1757.88
361.39	1953.88
361.616	2073.88
361.843	2071.88
362.07	1903.88
362.296	1669.88
362.523	1639.88
362.749	1636.88
362.976	1665.88
363.203	1656.88
363.429	1621.88
363.656	1581.88
363.882	1608.88
364.109	1821.88
364.335	2011.88
364.562	1824.88
364.788	1736.88
365.015	1666.88
365.241	1594.88
365.468	1670.88
365.694	1712.88
365.92	1809.88
366.147	1769.88
366.373	1608.88
366.599	1537.88
366.826	1592.88
367.052	1603.88
367.278	1631.88
367.505	1613.88
367.731	1678.88
367.957	1685.88
368.184	1673.88
368.41	1809.88
368.636	1837.88
368.862	1808.88
369.089	1851.88
369.315	1824.88
369.541	1741.88
369.767	1670.88
369.993	1599.88
370.219	1619.88
370.445	1706.88
370.672	1729.88
370.898	1843.88
371.124	1865.88
371.35	1719.88
371.576	1799.88
371.802	1839.88
372.028	1774.88
372.254	1706.88
372.48	1693.88
372.706	1658.88
372.932	1633.88
373.158	1694.88
373.384	1731.88
373.61	1743.88
373.835	1833.88
374.061	1773.88
374.287	1738.88
374.513	1704.88
374.739	1771.88
374.965	1762.88
375.191	1759.88
375.416	1801.88
375.642	1777.88
375.868	1867.88
376.094	1923.88
376.319	1846.88
376.545	1719.88
376.771	1733.88
376.997	1851.88
377.222	1813.88
377.448	1761.88
377.674	1816.88
377.899	1778.88
378.125	1865.88
378.35	1878.88
378.576	1769.88
378.802	1694.88
379.027	1670.88
379.253	1687.88
379.478	1710.88
379.704	1721.88
379.929	1713.88
380.155	1734.88
380.38	1725.88
380.606	1766.88
380.831	1725.88
381.057	1795.88
381.282	1857.88
381.507	1781.88
381.733	1918.88
381.958	1975.88
382.184	1855.88
382.409	1768.88
382.634	1817.88
382.86	1769.88
383.085	1744.88
383.31	1825.88
383.535	1960.88
383.761	2091.88
383.986	2034.88
384.211	1980.88
384.436	1898.88
384.662	1984.88
384.887	2106.88
385.112	1978.88
385.337	2008.88
385.562	1978.88
385.787	1965.88
386.013	2055.88
386.238	2031.88
386.463	1997.88
386.688	2102.88
386.913	2222.88
387.138	2227.88
387.363	2063.88
387.588	2042.88
387.813	2021.88
388.038	2043.88
388.263	2089.88
388.488	2015.88
388.713	1863.88
388.938	1894.88
389.163	1907.88
389.387	1947.88
389.612	1941.88
389.837	2004.88
390.062	2002.88
390.287	1972.88
390.512	1985.88
390.736	1915.88
390.961	1902.88
391.186	1864.88
391.411	1903.88
391.636	1951.88
391.86	1986.88
392.085	1957.88
392.31	1939.88
392.534	1936.88
392.759	1988.88
392.984	1956.88
393.208	1997.88
393.433	2086.88
393.658	2200.88
393.882	2179.88
394.107	2006.88
394.331	1977.88
394.556	1949.88
394.78	1994.88
395.005	2073.88
395.229	2086.88
395.454	2227.88
395.678	2255.88
395.903	2206.88
396.127	2085.88
396.352	2082.88
396.576	2159.88
396.801	2181.88
397.025	2165.88
397.249	2177.88
397.474	2183.88
397.698	2106.88
397.922	2200.88
398.147	2250.88
398.371	2349.88
398.595	2310.88
398.82	2286.88
399.044	2349.88
399.268	2405.88
399.492	2583.88
399.717	2676.88
399.941	2708.88
400.165	2572.88
400.389	2525.88
400.613	2466.88
400.837	2757.88
401.062	3155.88
401.286	2728.88
401.51	2458.88
401.734	2535.88
401.958	2443.88
402.182	2346.88
402.406	2296.88
402.63	2225.88
402.854	2218.88
403.078	2274.88
403.302	2352.88
403.526	2377.88
403.75	2376.88
403.974	2359.88
404.198	2309.88
404.422	2443.88
404.645	2527.88
404.869	2542.88
405.093	2310.88
405.317	2265.88
405.541	2357.88
405.765	2403.88
405.988	2341.88
406.212	2427.88
406.436	2451.88
406.66	2553.88
406.883	2533.88
407.107	2801.88
407.331	3045.88
407.555	3286.88
407.778	3073.88
408.002	2534.88
408.226	2494.88
408.449	2520.88
408.673	2394.88
408.896	2418.88
409.12	2449.88
409.344	2385.88
409.567	2314.88
409.791	2331.88
410.014	2380.88
410.238	2499.88
410.461	2623.88
410.685	2428.88
410.908	2279.88
411.132	2337.88
411.355	2346.88
411.578	2249.88
411.802	2261.88
412.025	2324.88
412.249	2260.88
412.472	2233.88
412.695	2194.88
412.919	2250.88
413.142	2225.88
413.365	2213.88
413.589	2355.88
413.812	2385.88
414.035	2467.88
414.258	2291.88
414.482	2253.88
414.705	2267.88
414.928	2227.88
415.151	2237.88
415.374	2297.88
415.597	2303.88
415.821	2290.88
416.044	2424.88
416.267	2422.88
416.49	2216.88
416.713	2122.88
416.936	2167.88
417.159	2303.88
417.382	2329.88
417.605	2237.88
417.828	2277.88
418.051	2308.88
418.274	2262.88
418.497	2193.88
418.72	2167.88
418.943	2138.88
419.166	2259.88
419.389	2404.88
419.611	2274.88
419.834	2213.88
420.057	2238.88
420.28	2125.88
420.503	2178.88
420.726	2222.88
420.948	2226.88
421.171	2118.88
421.394	2156.88
421.617	2208.88
421.839	2229.88
422.062	2201.88
422.285	2115.88
422.507	2117.88
422.73	2102.88
422.953	2091.88
423.175	2074.88
423.398	2150.88
423.621	2176.88
423.843	2153.88
424.066	2223.88
424.288	2278.88
424.511	2297.88
424.733	2271.88
424.956	2077.88
425.178	2009.88
425.401	2101.88
425.623	2115.88
425.846	2115.88
426.068	2197.88
426.291	2241.88
426.513	2195.88
426.735	2182.88
426.958	2335.88
427.18	2461.88
427.402	2270.88
427.625	2312.88
427.847	2339.88
428.069	2174.88
428.292	2150.88
428.514	2070.88
428.736	2025.88
428.958	2082.88
429.181	2111.88
429.403	2329.88
429.625	2912.88
429.847	2542.88
430.069	2173.88
430.292	2346.88
430.514	2462.88
430.736	2243.88
430.958	2345.88
431.18	2250.88
431.402	2088.88
431.624	2065.88
431.846	2116.88
432.068	2029.88
432.29	2066.88
432.512	2089.88
432.734	2144.88
432.956	2173.88
433.178	2251.88
433.4	2242.88
433.622	2249.88
433.844	2097.88
434.066	2025.88
434.287	2078.88
434.509	2149.88
434.731	2278.88
434.953	2384.88
435.175	2385.88
435.397	2197.88
435.618	2239.88
435.84	2230.88
436.062	2183.88
436.284	2186.88
436.505	2234.88
436.727	2224.88
436.949	2175.88
437.17	2113.88
437.392	2077.88
437.614	2136.88
437.835	2072.88
438.057	2168.88
438.278	2270.88
438.5	2122.88
438.721	2085.88
438.943	2129.88
439.165	2077.88
439.386	1982.88
439.608	2043.88
439.829	2081.88
440.05	2094.88
440.272	2099.88
440.493	2020.88
440.715	2055.88
440.936	2182.88
441.158	2468.88
441.379	2350.88
441.6	2305.88
441.822	2284.88
442.043	2285.88
442.264	2201.88
442.486	2061.88
442.707	2065.88
442.928	2047.88
443.149	2107.88
443.371	2290.88
443.592	2378.88
443.813	2319.88
444.034	2285.88
444.255	2302.88
444.476	2323.88
444.698	2387.88
444.919	2332.88
445.14	2458.88
445.361	2438.88
445.582	2487.88
445.803	2362.88
446.024	2278.88
446.245	2407.88
446.466	2330.88
446.687	2217.88
446.908	2207.88
447.129	2146.88
447.35	2155.88
447.571	2154.88
447.792	2011.88
448.013	2019.88
448.234	2064.88
448.455	2213.88
448.675	2217.88
448.896	2012.88
449.117	1969.88
449.338	1993.88
449.559	2079.88
449.779	2217.88
450	2438.88
450.221	2646.88
450.442	2586.88
450.662	2238.88
450.883	1984.88
451.104	1950.88
451.324	2011.88
451.545	2034.88
451.766	2010.88
451.986	1952.88
452.207	1937.88
452.428	1841.88
452.648	1881.88
452.869	1862.88
453.089	2006.88
453.31	2043.88
453.53	2120.88
453.751	1978.88
453.971	1906.88
454.192	1952.88
454.412	2056.88
454.633	2006.88
454.853	1919.88
455.073	1810.88
455.294	1841.88
455.514	1830.88
455.734	1817.88
455.955	1859.88
456.175	1819.88
456.395	1862.88
456.616	1924.88
456.836	1955.88
457.056	1887.88
457.276	1944.88
457.497	1857.88
457.717	1809.88
457.937	1855.88
458.157	1862.88
458.377	1864.88
458.598	1900.88
458.818	1849.88
459.038	2001.88
459.258	2117.88
459.478	2095.88
459.698	2022.88
459.918	2120.88
460.138	2198.88
460.358	2220.88
460.578	2259.88
460.798	2328.88
461.018	2459.88
461.238	2329.88
461.458	2239.88
461.678	2288.88
461.898	2196.88
462.118	2128.88
462.338	2213.88
462.558	2268.88
462.777	2230.88
462.997	2358.88
463.217	2502.88
463.437	2477.88
463.657	2306.88
463.876	2247.88
464.096	2165.88
464.316	2243.88
464.536	2319.88
464.755	2327.88
464.975	2362.88
465.195	2276.88
465.414	2392.88
465.634	2333.88
465.854	2203.88
466.073	2339.88
466.293	2305.88
466.512	2059.88
466.732	2032.88
466.951	2120.88
467.171	2121.88
467.391	2034.88
467.61	1969.88
467.829	1984.88
468.049	2192.88
468.268	2408.88
468.488	2245.88
468.707	2141.88
468.927	2102.88
469.146	2073.88
469.365	2018.88
469.585	2037.88
469.804	2055.88
470.023	2034.88
470.243	2085.88
470.462	2033.88
470.681	2007.88
470.901	2025.88
471.12	2092.88
471.339	2002.88
471.558	1933.88
471.777	1944.88
471.997	1989.88
472.216	1980.88
472.435	1901.88
472.654	1986.88
472.873	2043.88
473.092	2178.88
473.311	2129.88
473.53	1939.88
473.749	1915.88
473.968	2045.88
474.187	2093.88
474.406	2235.88
474.625	2134.88
474.844	2074.88
475.063	2044.88
475.282	2119.88
475.501	2059.88
475.72	2054.88
475.939	2187.88
476.158	2129.88
476.377	2077.88
476.596	2081.88
476.814	2143.88
477.033	2158.88
477.252	2268.88
477.471	2316.88
477.69	2151.88
477.908	2147.88
478.127	2258.88
478.346	2438.88
478.564	2479.88
478.783	2439.88
479.002	2483.88
479.22	2437.88
479.439	2533.88
479.658	2842.88
479.876	2789.88
480.095	2461.88
480.313	2399.88
480.532	2309.88
480.751	2339.88
480.969	2414.88
481.188	2351.88
481.406	2275.88
481.624	2227.88
481.843	2259.88
482.061	2342.88
482.28	2376.88
482.498	2384.88
482.717	2390.88
482.935	2262.88
483.153	2253.88
483.372	2291.88
483.59	2213.88
483.808	2285.88
484.027	2341.88
484.245	2449.88
484.463	2849.88
484.681	3270.88
484.9	2479.88
485.118	2302.88
485.336	2305.88
485.554	2365.88
485.772	2519.88
485.99	2477.88
486.209	2475.88
486.427	2444.88
486.645	2488.88
486.863	2384.88
487.081	2504.88
487.299	2495.88
487.517	2453.88
487.735	2346.88
487.953	2337.88
488.171	2376.88
488.389	2366.88
488.607	2373.88
488.825	2593.88
489.043	2640.88
489.261	2378.88
489.479	2479.88
489.696	2533.88
489.914	2481.88
490.132	2461.88
490.35	2390.88
490.568	2491.88
490.786	2397.88
491.003	2325.88
491.221	2341.88
491.439	2486.88
491.657	2435.88
491.874	2480.88
492.092	2497.88
492.31	2494.88
492.527	2424.88
492.745	2423.88
492.963	2437.88
493.18	2520.88
493.398	2680.88
493.615	2748.88
493.833	2546.88
494.05	2471.88
494.268	2464.88
494.485	2567.88
494.703	2511.88
494.92	2471.88
495.138	2415.88
495.355	2485.88
495.573	2605.88
495.79	2748.88
496.008	2804.88
496.225	2607.88
496.442	2604.88
496.66	2666.88
496.877	2589.88
497.094	2688.88
497.312	2736.88
497.529	2683.88
497.746	2726.88
497.963	3193.88
498.181	3603.88
498.398	3365.88
498.615	3330.88
498.832	3186.88
499.049	3147.88
499.267	3198.88
499.484	3391.88
499.701	3699.88
499.918	3657.88
500.135	3975.88
500.352	4302.88
500.569	4234.88
500.786	4450.88
501.003	4265.88
501.22	3767.88
501.437	3708.88
501.654	3754.88
501.871	3635.88
502.088	3173.88
502.305	3125.88
502.522	3054.88
502.739	2781.88
502.956	2797.88
503.172	2782.88
503.389	2642.88
503.606	2629.88
503.823	2631.88
504.04	2606.88
504.256	2631.88
504.473	2657.88
504.69	2727.88
504.907	2601.88
505.123	2444.88
505.34	2558.88
505.557	3329.88
505.773	2854.88
505.99	2453.88
506.207	2286.88
506.423	2251.88
506.64	2224.88
506.856	2263.88
507.073	2532.88
507.289	2710.88
507.506	2591.88
507.722	2250.88
507.939	2158.88
508.155	2138.88
508.372	2231.88
508.588	2123.88
508.805	2053.88
509.021	2057.88
509.238	2033.88
509.454	2022.88
509.67	2065.88
509.887	2001.88
510.103	2005.88
510.319	2061.88
510.536	2107.88
510.752	2205.88
510.968	2178.88
511.184	2356.88
511.401	2345.88
511.617	2039.88
511.833	1968.88
512.049	1971.88
512.265	1974.88
512.481	1963.88
512.698	2001.88
512.914	2210.88
513.13	2103.88
513.346	1970.88
513.562	1974.88
513.778	1985.88
513.994	2081.88
514.21	2143.88
514.426	2131.88
514.642	2414.88
514.858	2290.88
515.074	2093.88
515.29	1965.88
515.506	2058.88
515.721	2107.88
515.937	2103.88
516.153	2378.88
516.369	2301.88
516.585	2169.88
516.801	2048.88
517.016	2025.88
517.232	2135.88
517.448	2211.88
517.664	2231.88
517.879	2224.88
518.095	2336.88
518.311	2195.88
518.527	2127.88
518.742	2072.88
518.958	1990.88
519.173	2027.88
519.389	2016.88
519.605	2014.88
519.82	2052.88
520.036	2057.88
520.251	2034.88
520.467	2018.88
520.682	2146.88
520.898	2226.88
521.113	2029.88
521.329	1977.88
521.544	2114.88
521.76	1996.88
521.975	1943.88
522.19	1914.88
522.406	1910.88
522.621	2236.88
522.836	2339.88
523.052	1904.88
523.267	1874.88
523.482	1905.88
523.698	1834.88
523.913	1797.88
524.128	1833.88
524.343	1976.88
524.559	1993.88
524.774	1845.88
524.989	1808.88
525.204	1801.88
525.419	1815.88
525.634	1764.88
525.849	1796.88
526.064	1834.88
526.28	1804.88
526.495	1734.88
526.71	1775.88
526.925	1753.88
527.14	1747.88
527.355	1730.88
527.57	1716.88
527.785	1784.88
527.999	1770.88
528.214	1712.88
528.429	1709.88
528.644	1692.88
528.859	1717.88
529.074	1717.88
529.289	1738.88
529.503	1746.88
529.718	1774.88
529.933	1755.88
530.148	1659.88
530.363	1639.88
530.577	1703.88
530.792	1775.88
531.007	1773.88
531.221	1711.88
531.436	1773.88
531.651	1782.88
531.865	1855.88
532.08	1789.88
532.295	1704.88
532.509	1649.88
532.724	1673.88
532.938	1746.88
533.153	1877.88
533.367	1808.88
533.582	1755.88
533.796	1720.88
534.011	1719.88
534.225	1742.88
534.44	1708.88
534.654	1654.88
534.868	1681.88
535.083	1798.88
535.297	1791.88
535.511	1721.88
535.726	1721.88
535.94	1694.88
536.154	1637.88
536.369	1673.88
536.583	1629.88
536.797	1655.88
537.011	1703.88
537.225	1609.88
537.44	1573.88
537.654	1690.88
537.868	1617.88
538.082	1525.88
538.296	1489.88
538.51	1545.88
538.724	1557.88
538.938	1568.88
539.153	1628.88
539.367	1608.88
539.581	1603.88
539.795	1693.88
540.009	1651.88
540.222	1631.88
540.436	1676.88
540.65	1822.88
540.864	1816.88
541.078	1728.88
541.292	1591.88
541.506	1620.88
541.72	1592.88
541.934	1616.88
542.147	1672.88
542.361	1673.88
542.575	1571.88
542.789	1567.88
543.002	1511.88
543.216	1535.88
543.43	1602.88
543.644	1672.88
543.857	1713.88
544.071	1700.88
544.285	1641.88
544.498	1621.88
544.712	1611.88
544.925	1698.88
545.139	1656.88
545.352	1575.88
545.566	1531.88
545.779	1523.88
545.993	1542.88
546.206	1565.88
546.42	1524.88
546.633	1453.88
546.847	1497.88
547.06	1503.88
547.274	1571.88
547.487	1474.88
547.7	1501.88
547.914	1503.88
548.127	1545.88
548.34	1579.88
548.554	1568.88
548.767	1544.88
548.98	1532.88
549.193	1550.88
549.407	1626.88
549.62	1609.88
549.833	1536.88
550.046	1497.88
550.259	1535.88
550.473	1483.88
550.686	1505.88
550.899	1490.88
551.112	1468.88
551.325	1438.88
551.538	1542.88
551.751	1816.88
551.964	1482.88
552.177	1451.88
552.39	1482.88
552.603	1517.88
552.816	1511.88
553.029	1527.88
553.242	1615.88
553.455	1540.88
553.667	1539.88
553.88	1532.88
554.093	1486.88
554.306	1417.88
554.519	1405.88
554.732	1396.88
554.944	1408.88
555.157	1424.88
555.37	1414.88
555.583	1392.88
555.795	1380.88
556.008	1396.88
556.221	1333.88
556.433	1305.88
556.646	1301.88
556.859	1314.88
557.071	1271.88
557.284	1301.88
557.496	1291.88
557.709	1246.88
557.921	1245.88
558.134	1250.88
558.346	1261.88
558.559	1269.88
558.771	1267.88
558.984	1223.88
559.196	1213.88
559.409	1237.88
559.621	1204.88
559.833	1262.88
560.046	1249.88
560.258	1269.88
560.47	1232.88
560.683	1229.88
560.895	1270.88
561.107	1241.88
561.32	1272.88
561.532	1290.88
561.744	1261.88
561.956	1253.88
562.168	1181.88
562.381	1188.88
562.593	1235.88
562.805	1209.88
563.017	1177.88
563.229	1214.88
563.441	1236.88
563.653	1205.88
563.865	1231.88
564.077	1203.88
564.289	1222.88
564.501	1225.88
564.713	1263.88
564.925	1285.88
565.137	1381.88
565.349	1278.88
565.561	1297.88
565.773	1309.88
565.985	1317.88
566.197	1362.88
566.408	1474.88
566.62	1466.88
566.832	1493.88
567.044	1500.88
567.255	1486.88
567.467	1486.88
567.679	1546.88
567.891	1567.88
568.102	1526.88
568.314	1522.88
568.526	1410.88
568.737	1352.88
568.949	1312.88
569.161	1248.88
569.372	1192.88
569.584	1194.88
569.795	1191.88
570.007	1145.88
570.218	1121.88
570.43	1112.88
570.641	1131.88
570.853	1108.88
571.064	1105.88
571.276	1097.88
571.487	1103.88
571.698	1060.88
571.91	1043.88
572.121	1029.88
572.333	1009.88
572.544	991.88
572.755	983.88
572.966	957.88
573.178	975.88
573.389	979.88
573.6	1045.88
573.811	1080.88
574.023	1001.88
574.234	954.88
574.445	969.88
574.656	901.88
574.867	931.88
575.078	956.88
575.289	957.88
575.501	906.88
575.712	929.88
575.923	934.88
576.134	919.88
576.345	898.88
576.556	880.88
576.767	894.88
576.978	896.88
577.188	867.88
577.399	849.88
577.61	871.88
577.821	874.88
578.032	833.88
578.243	836.88
578.454	853.88
578.665	834.88
578.875	810.88
579.086	814.88
579.297	817.88
579.508	840.88
579.718	845.88
579.929	858.88
580.14	824.88
580.35	824.88
580.561	843.88
580.772	902.88
580.982	838.88
581.193	809.88
581.403	802.88
581.614	817.88
581.825	813.88
582.035	810.88
582.246	797.88
582.456	829.88
582.667	826.88
582.877	806.88
583.087	783.88
583.298	769.88
583.508	814.88
583.719	783.88
583.929	789.88
584.139	785.88
584.35	763.88
584.56	767.88
584.77	755.88
584.981	798.88
585.191	787.88
585.401	817.88
585.611	791.88
585.821	766.88
586.032	753.88
586.242	757.88
586.452	714.88
586.662	765.88
586.872	771.88
587.082	753.88
587.292	753.88
587.502	769.88
587.713	770.88
587.923	767.88
588.133	733.88
588.343	753.88
588.553	747.88
588.762	751.88
588.972	758.88
589.182	746.88
589.392	735.88
589.602	775.88
589.812	743.88
590.022	721.88
590.232	722.88
590.441	750.88
590.651	749.88
590.861	757.88
591.071	701.88
591.281	727.88
591.49	718.88
591.7	713.88
591.91	765.88
592.119	751.88
592.329	768.88
592.539	747.88
592.748	758.88
592.958	763.88
593.167	786.88
593.377	786.88
593.587	774.88
593.796	755.88
594.006	781.88
594.215	777.88
594.424	765.88
594.634	762.88
594.843	753.88
595.053	780.88
595.262	752.88
595.472	743.88
595.681	726.88
595.89	707.88
596.1	682.88
596.309	721.88
596.518	695.88
596.727	715.88
596.937	672.88
597.146	651.88
597.355	660.88
597.564	657.88
597.774	658.88
597.983	638.88
598.192	627.88
598.401	630.88
598.61	628.88
598.819	623.88
599.028	637.88
599.237	622.88
599.446	608.88
599.655	621.88
599.864	623.88
600.073	626.88
600.282	618.88
600.491	607.88
600.7	602.88
600.909	600.88
601.118	607.88
601.327	603.88
601.536	626.88
601.745	622.88
601.953	606.88
602.162	592.88
602.371	612.88
602.58	608.88
602.789	620.88
602.997	598.88
603.206	586.88
603.415	580.88
603.623	608.88
603.832	601.88
604.041	578.88
604.249	596.88
604.458	576.88
604.666	577.88
604.875	574.88
605.084	582.88
605.292	578.88
605.501	577.88
605.709	561.88
605.918	558.88
606.126	564.88
606.334	568.88
606.543	567.88
606.751	552.88
606.96	583.88
607.168	566.88
607.376	558.88
607.585	554.88
607.793	547.88
608.001	569.88
608.21	551.88
608.418	541.88
608.626	534.88
608.834	540.88
609.043	538.88
609.251	545.88
609.459	566.88
609.667	559.88
609.875	562.88
610.083	553.88
610.291	560.88
610.499	563.88
610.707	552.88
610.916	547.88
611.124	546.88
611.332	526.88
611.54	541.88
611.748	535.88
611.955	542.88
612.163	501.88
612.371	534.88
612.579	527.88
612.787	518.88
612.995	535.88
613.203	530.88
613.411	520.88
613.618	549.88
613.826	529.88
614.034	521.88
614.242	522.88
614.449	513.88
614.657	521.88
614.865	535.88
615.072	535.88
615.28	549.88
615.488	533.88
615.695	547.88
615.903	543.88
616.111	522.88
616.318	510.88
616.526	520.88
616.733	510.88
616.941	512.88
617.148	513.88
617.356	514.88
617.563	501.88
617.771	518.88
617.978	504.88
618.185	476.88
618.393	509.88
618.6	508.88
618.807	520.88
619.015	506.88
619.222	488.88
619.429	498.88
619.637	482.88
619.844	478.88
620.051	473.88
620.258	482.88
620.466	463.88
620.673	475.88
620.88	456.88
621.087	480.88
621.294	468.88
621.501	447.88
621.708	466.88
621.915	456.88
622.122	480.88
622.329	482.88
622.536	475.88
622.743	463.88
622.95	464.88
623.157	454.88
623.364	461.88
623.571	451.88
623.778	451.88
623.985	465.88
624.192	461.88
624.399	468.88
624.606	430.88
624.812	456.88
625.019	437.88
625.226	437.88
625.433	414.88
625.639	445.88
625.846	447.88
626.053	407.88
626.259	427.88
626.466	421.88
626.673	424.88
626.879	408.88
627.086	405.88
627.293	420.88
627.499	406.88
627.706	431.88
627.912	420.88
628.119	414.88
628.325	404.88
628.532	399.88
628.738	395.88
628.945	417.88
629.151	397.88
629.357	430.88
629.564	440.88
629.77	394.88
629.976	387.88
630.183	383.88
630.389	395.88
630.595	432.88
630.802	420.88
631.008	390.88
631.214	390.88
631.42	373.88
631.627	376.88
631.833	369.88
632.039	372.88
632.245	368.88
632.451	365.88
632.657	374.88
632.863	370.88
633.069	388.88
633.275	392.88
633.481	382.88
633.688	361.88
633.893	383.88
634.099	387.88
634.305	356.88
634.511	350.88
634.717	377.88
634.923	341.88
635.129	346.88
635.335	361.88
635.541	352.88
635.747	376.88
635.952	354.88
636.158	373.88
636.364	367.88
636.57	354.88
636.775	358.88
636.981	358.88
637.187	345.88
637.392	359.88
637.598	369.88
637.804	365.88
638.009	338.88
638.215	361.88
638.421	331.88
638.626	344.88
638.832	336.88
639.037	323.88
639.243	322.88
639.448	326.88
639.654	359.88
639.859	337.88
640.065	339.88
640.27	350.88
640.475	337.88
640.681	334.88
640.886	331.88
641.091	323.88
641.297	323.88
641.502	337.88
641.707	314.88
641.913	322.88
642.118	341.88
642.323	321.88
642.528	336.88
642.733	299.88
642.939	321.88
643.144	321.88
643.349	325.88
643.554	329.88
643.759	333.88
643.964	321.88
644.169	307.88
644.374	301.88
644.579	324.88
644.784	328.88
644.989	315.88
645.194	305.88
645.399	302.88
645.604	329.88
645.809	309.88
646.014	317.88
646.219	313.88
646.423	313.88
646.628	305.88
646.833	329.88
647.038	326.88
647.243	306.88
647.447	284.88
647.652	316.88
647.857	289.88
648.062	328.88
648.266	319.88
648.471	319.88
648.676	296.88
648.88	322.88
649.085	313.88
649.289	313.88
649.494	306.88
649.698	330.88
649.903	292.88
650.107	304.88
650.312	295.88
650.516	285.88
650.721	288.88
650.925	298.88
651.13	286.88
651.334	290.88
651.539	262.88
651.743	297.88
651.947	250.88
652.152	277.88
652.356	257.88
652.56	265.88
652.764	261.88
652.969	258.88
653.173	273.88
653.377	243.88
653.581	276.88
653.785	252.88
653.99	256.88
654.194	254.88
654.398	239.88
654.602	232.88
654.806	244.88
655.01	223.88
655.214	233.88
655.418	241.88
655.622	236.88
655.826	228.88
656.03	253.88
656.234	266.88
656.438	275.88
656.642	289.88
656.846	245.88
657.049	237.88
657.253	226.88
657.457	212.88
657.661	185.88
657.865	192.88
658.068	189.88
658.272	180.88
658.476	167.88
658.68	167.88
658.883	154.88
659.087	150.88
659.291	144.88
659.494	128.88
659.698	127.88
659.901	121.88
660.105	119.88
660.309	126.88
660.512	139.88
660.716	116.88
660.919	116.88
661.123	101.88
661.326	113.88
661.53	98.88
661.733	109.88
661.936	111.88
662.14	90.88
662.343	98.88
662.546	81.88
662.75	81.88
662.953	92.88
663.156	86.88
663.36	92.88
663.563	85.88
663.766	94.88
663.969	85.88
664.173	91.88
664.376	94.88
664.579	77.88
664.782	79.88
664.985	74.88
665.188	82.88
665.391	76.88
665.594	87.88
665.797	71.88
666	73.88
666.203	77.88
666.406	78.88
666.609	87.88
666.812	78.88
667.015	90.88
667.218	87.88
667.421	81.88
667.624	79.88
667.827	67.88
668.03	83.88
668.232	68.88
668.435	81.88
668.638	79.88
668.841	80.88
669.043	87.88
669.246	81.88
669.449	69.88
669.651	85.88
669.854	69.88
670.057	78.88
670.259	79.88
670.462	88.88
670.665	83.88
670.867	85.88
671.07	80.88
671.272	72.88
671.475	82.88
671.677	78.88
671.88	87.88
672.082	86.88
672.284	97.88
672.487	85.88
672.689	74.88
672.892	75.88
