Data from WStandard_LampEnergy5.5LIBS07252019.E.O._I.C._HRD10591_16-06-55-920.txt Node
Date: Thu Jul 25 16:06:55 EDT 2019
User: cochatt
Spectrometer: HR+D1059
Trigger mode: 1
Integration Time (sec): 1.000000E-1
Scans to average: 1
Electric dark correction enabled: true
Nonlinearity correction enabled: false
Boxcar width: 0
XAxis mode: Wavelengths
Number of Pixels in Spectrum: 2048
>>>>>Begin Spectral Data<<<<<
223.165	-23.12
223.4	-23.12
223.635	-23.12
223.869	-24.12
224.104	-23.12
224.338	-14.12
224.573	-12.12
224.808	-3.12
225.042	-6.12
225.277	-14.12
225.511	8.88
225.746	-6.12
225.98	6.88
226.215	22.88
226.449	17.88
226.683	8.88
226.918	31.88
227.152	28.88
227.387	23.88
227.621	51.88
227.856	52.88
228.09	48.88
228.324	53.88
228.559	54.88
228.793	136.88
229.027	367.88
229.262	361.88
229.496	387.88
229.73	394.88
229.964	444.88
230.199	456.88
230.433	472.88
230.667	490.88
230.901	530.88
231.136	499.88
231.37	476.88
231.604	453.88
231.838	479.88
232.072	469.88
232.306	449.88
232.541	474.88
232.775	549.88
233.009	601.88
233.243	589.88
233.477	522.88
233.711	547.88
233.945	564.88
234.179	536.88
234.413	578.88
234.647	666.88
234.881	612.88
235.115	534.88
235.349	543.88
235.583	582.88
235.817	565.88
236.051	538.88
236.285	545.88
236.519	598.88
236.753	684.88
236.987	679.88
237.221	679.88
237.455	750.88
237.689	731.88
237.922	695.88
238.156	651.88
238.39	693.88
238.624	695.88
238.858	741.88
239.091	769.88
239.325	805.88
239.559	918.88
239.793	934.88
240.027	1060.88
240.26	1010.88
240.494	759.88
240.728	722.88
240.961	709.88
241.195	734.88
241.429	826.88
241.662	820.88
241.896	784.88
242.13	790.88
242.363	842.88
242.597	912.88
242.83	870.88
243.064	891.88
243.298	957.88
243.531	915.88
243.765	944.88
243.998	938.88
244.232	804.88
244.465	757.88
244.699	786.88
244.932	895.88
245.166	1056.88
245.399	968.88
245.633	878.88
245.866	886.88
246.099	933.88
246.333	949.88
246.566	935.88
246.8	1041.88
247.033	1176.88
247.266	1076.88
247.5	1077.88
247.733	1065.88
247.966	1110.88
248.2	1236.88
248.433	1193.88
248.666	1225.88
248.899	1325.88
249.133	1508.88
249.366	1760.88
249.599	1429.88
249.832	1263.88
250.066	1304.88
250.299	1294.88
250.532	1211.88
250.765	1063.88
250.998	1151.88
251.231	1197.88
251.465	1231.88
251.698	1197.88
251.931	1205.88
252.164	1187.88
252.397	1254.88
252.63	1252.88
252.863	1091.88
253.096	1090.88
253.329	1164.88
253.562	1160.88
253.795	1276.88
254.028	1286.88
254.261	1179.88
254.494	1160.88
254.727	1119.88
254.96	1146.88
255.193	1233.88
255.426	1415.88
255.659	1585.88
255.892	1663.88
256.124	1385.88
256.357	1321.88
256.59	1436.88
256.823	1407.88
257.056	1398.88
257.289	1719.88
257.521	1904.88
257.754	1706.88
257.987	1595.88
258.22	1798.88
258.452	1735.88
258.685	1425.88
258.918	1363.88
259.151	1383.88
259.383	1320.88
259.616	1194.88
259.849	1231.88
260.081	1407.88
260.314	1545.88
260.547	1707.88
260.779	1721.88
261.012	1601.88
261.244	1452.88
261.477	1367.88
261.71	1424.88
261.942	1419.88
262.175	1359.88
262.407	1484.88
262.64	1356.88
262.872	1289.88
263.105	1210.88
263.337	1245.88
263.57	1279.88
263.802	1301.88
264.035	1220.88
264.267	1154.88
264.499	1146.88
264.732	1202.88
264.964	1287.88
265.197	1341.88
265.429	1370.88
265.661	1575.88
265.894	1733.88
266.126	1827.88
266.358	1562.88
266.591	1632.88
266.823	1799.88
267.055	1643.88
267.287	1568.88
267.52	1583.88
267.752	1513.88
267.984	1525.88
268.216	1602.88
268.448	1693.88
268.681	1621.88
268.913	1541.88
269.145	1404.88
269.377	1379.88
269.609	1504.88
269.841	1725.88
270.073	2036.88
270.306	2264.88
270.538	2394.88
270.77	2053.88
271.002	1724.88
271.234	1622.88
271.466	1661.88
271.698	1791.88
271.93	2223.88
272.162	2252.88
272.394	2003.88
272.626	1917.88
272.858	1703.88
273.09	1456.88
273.322	1459.88
273.553	1339.88
273.785	1375.88
274.017	1421.88
274.249	1565.88
274.481	1587.88
274.713	1426.88
274.945	1401.88
275.176	1399.88
275.408	1379.88
275.64	1360.88
275.872	1355.88
276.104	1443.88
276.335	1668.88
276.567	1883.88
276.799	1883.88
277.031	1682.88
277.262	1582.88
277.494	1639.88
277.726	1867.88
277.957	1817.88
278.189	1691.88
278.421	1538.88
278.652	1482.88
278.884	1446.88
279.115	1494.88
279.347	1506.88
279.579	1485.88
279.81	1442.88
280.042	1604.88
280.273	1765.88
280.505	1774.88
280.736	1803.88
280.968	1698.88
281.199	1451.88
281.431	1409.88
281.662	1454.88
281.894	1431.88
282.125	1466.88
282.356	1523.88
282.588	1513.88
282.819	1519.88
283.051	1633.88
283.282	1807.88
283.513	1735.88
283.745	1514.88
283.976	1378.88
284.207	1401.88
284.439	1457.88
284.67	1468.88
284.901	1504.88
285.132	1522.88
285.364	1493.88
285.595	1549.88
285.826	1508.88
286.057	1491.88
286.288	1477.88
286.52	1542.88
286.751	1662.88
286.982	1699.88
287.213	1587.88
287.444	1457.88
287.675	1449.88
287.906	1525.88
288.138	1625.88
288.369	1592.88
288.6	1492.88
288.831	1459.88
289.062	1457.88
289.293	1512.88
289.524	1494.88
289.755	1586.88
289.986	1573.88
290.217	1462.88
290.448	1415.88
290.679	1478.88
290.91	1544.88
291.141	1574.88
291.371	1651.88
291.602	1599.88
291.833	1591.88
292.064	1657.88
292.295	1629.88
292.526	1644.88
292.757	1715.88
292.987	1625.88
293.218	1504.88
293.449	1650.88
293.68	1873.88
293.91	2037.88
294.141	1867.88
294.372	1769.88
294.603	1743.88
294.833	1883.88
295.064	1806.88
295.295	1646.88
295.525	1620.88
295.756	1483.88
295.987	1388.88
296.217	1457.88
296.448	1463.88
296.679	1458.88
296.909	1487.88
297.14	1463.88
297.37	1513.88
297.601	1588.88
297.831	1698.88
298.062	1768.88
298.292	1581.88
298.523	1492.88
298.753	1521.88
298.984	1546.88
299.214	1516.88
299.445	1591.88
299.675	1635.88
299.905	1612.88
300.136	1565.88
300.366	1512.88
300.597	1448.88
300.827	1454.88
301.057	1541.88
301.288	1599.88
301.518	1647.88
301.748	1646.88
301.979	1731.88
302.209	1701.88
302.439	1819.88
302.669	1937.88
302.9	1826.88
303.13	1639.88
303.36	1610.88
303.59	1706.88
303.82	1607.88
304.051	1597.88
304.281	1636.88
304.511	1607.88
304.741	1733.88
304.971	1883.88
305.201	2057.88
305.431	1926.88
305.661	1603.88
305.891	1405.88
306.121	1409.88
306.352	1485.88
306.582	1584.88
306.812	1697.88
307.042	1826.88
307.272	1813.88
307.502	1816.88
307.731	1996.88
307.961	2141.88
308.191	1992.88
308.421	1671.88
308.651	1577.88
308.881	1590.88
309.111	1576.88
309.341	1550.88
309.571	1563.88
309.8	1589.88
310.03	1540.88
310.26	1547.88
310.49	1538.88
310.72	1563.88
310.949	1662.88
311.179	1702.88
311.409	1634.88
311.639	1619.88
311.868	1563.88
312.098	1578.88
312.328	1599.88
312.557	1572.88
312.787	1582.88
313.017	1636.88
313.246	1641.88
313.476	1639.88
313.706	1712.88
313.935	1645.88
314.165	1676.88
314.394	1707.88
314.624	1803.88
314.853	1895.88
315.083	2008.88
315.312	2020.88
315.542	1939.88
315.771	1713.88
316.001	1656.88
316.23	1780.88
316.46	1819.88
316.689	1759.88
316.919	1687.88
317.148	1587.88
317.377	1571.88
317.607	1736.88
317.836	1946.88
318.065	2018.88
318.295	1940.88
318.524	1863.88
318.753	1783.88
318.983	1780.88
319.212	1721.88
319.441	1707.88
319.67	1698.88
319.9	1728.88
320.129	1787.88
320.358	1843.88
320.587	1919.88
320.816	1917.88
321.046	1896.88
321.275	1812.88
321.504	1761.88
321.733	1927.88
321.962	1881.88
322.191	1719.88
322.42	1720.88
322.649	1722.88
322.878	1719.88
323.108	1702.88
323.337	1760.88
323.566	1767.88
323.795	1763.88
324.024	1759.88
324.253	1724.88
324.482	1775.88
324.71	1698.88
324.939	1613.88
325.168	1631.88
325.397	1688.88
325.626	1798.88
325.855	1788.88
326.084	1697.88
326.313	1724.88
326.542	1732.88
326.77	1802.88
326.999	1825.88
327.228	1719.88
327.457	1603.88
327.686	1615.88
327.914	1654.88
328.143	1707.88
328.372	1693.88
328.6	1694.88
328.829	1689.88
329.058	1668.88
329.287	1668.88
329.515	1714.88
329.744	1726.88
329.972	1801.88
330.201	1896.88
330.43	1868.88
330.658	1814.88
330.887	1836.88
331.115	1784.88
331.344	1853.88
331.572	1782.88
331.801	1780.88
332.03	1797.88
332.258	1824.88
332.486	1852.88
332.715	1849.88
332.943	1848.88
333.172	1768.88
333.4	1826.88
333.629	1850.88
333.857	1938.88
334.085	2136.88
334.314	2363.88
334.542	2711.88
334.771	2489.88
334.999	2193.88
335.227	2032.88
335.455	1935.88
335.684	1919.88
335.912	1980.88
336.14	2071.88
336.369	1965.88
336.597	1799.88
336.825	1847.88
337.053	1878.88
337.281	1959.88
337.51	2067.88
337.738	2170.88
337.966	2080.88
338.194	1880.88
338.422	1800.88
338.65	1793.88
338.878	1801.88
339.106	1744.88
339.334	1719.88
339.562	1689.88
339.79	1716.88
340.018	1864.88
340.246	1909.88
340.474	1931.88
340.702	1872.88
340.93	1869.88
341.158	1872.88
341.386	1826.88
341.614	1823.88
341.842	1783.88
342.07	1786.88
342.298	1791.88
342.526	1803.88
342.754	1782.88
342.981	1770.88
343.209	1775.88
343.437	1791.88
343.665	1784.88
343.893	1834.88
344.12	1886.88
344.348	1917.88
344.576	1892.88
344.804	1809.88
345.031	1777.88
345.259	1783.88
345.487	1760.88
345.714	1656.88
345.942	1606.88
346.17	1635.88
346.397	1689.88
346.625	1739.88
346.853	1569.88
347.08	1571.88
347.308	1617.88
347.535	1620.88
347.763	1720.88
347.99	1711.88
348.218	1611.88
348.445	1653.88
348.673	1683.88
348.9	1668.88
349.128	1743.88
349.355	1871.88
349.583	1757.88
349.81	1671.88
350.037	1555.88
350.265	1572.88
350.492	1573.88
350.72	1605.88
350.947	1660.88
351.174	1721.88
351.402	1621.88
351.629	1558.88
351.856	1528.88
352.083	1507.88
352.311	1521.88
352.538	1592.88
352.765	1688.88
352.992	1720.88
353.22	1615.88
353.447	1591.88
353.674	1649.88
353.901	1676.88
354.128	1614.88
354.355	1597.88
354.583	1622.88
354.81	1728.88
355.037	1679.88
355.264	1703.88
355.491	1659.88
355.718	1667.88
355.945	1647.88
356.172	1625.88
356.399	1598.88
356.626	1616.88
356.853	1608.88
357.08	1753.88
357.307	1974.88
357.534	2003.88
357.761	1757.88
357.988	1579.88
358.215	1565.88
358.441	1570.88
358.668	1553.88
358.895	1608.88
359.122	1667.88
359.349	1878.88
359.576	1897.88
359.802	1642.88
360.029	1603.88
360.256	1576.88
360.483	1561.88
360.709	1658.88
360.936	1685.88
361.163	1734.88
361.39	1900.88
361.616	2084.88
361.843	1988.88
362.07	1881.88
362.296	1685.88
362.523	1616.88
362.749	1588.88
362.976	1655.88
363.203	1679.88
363.429	1599.88
363.656	1583.88
363.882	1632.88
364.109	1791.88
364.335	1969.88
364.562	1863.88
364.788	1751.88
365.015	1657.88
365.241	1617.88
365.468	1620.88
365.694	1709.88
365.92	1818.88
366.147	1722.88
366.373	1605.88
366.599	1589.88
366.826	1536.88
367.052	1608.88
367.278	1605.88
367.505	1651.88
367.731	1647.88
367.957	1667.88
368.184	1709.88
368.41	1822.88
368.636	1828.88
368.862	1884.88
369.089	1844.88
369.315	1787.88
369.541	1717.88
369.767	1630.88
369.993	1596.88
370.219	1607.88
370.445	1637.88
370.672	1747.88
370.898	1857.88
371.124	1834.88
371.35	1730.88
371.576	1743.88
371.802	1863.88
372.028	1776.88
372.254	1714.88
372.48	1651.88
372.706	1639.88
372.932	1638.88
373.158	1655.88
373.384	1676.88
373.61	1756.88
373.835	1836.88
374.061	1738.88
374.287	1727.88
374.513	1743.88
374.739	1714.88
374.965	1719.88
375.191	1766.88
375.416	1720.88
375.642	1764.88
375.868	1881.88
376.094	1923.88
376.319	1861.88
376.545	1679.88
376.771	1743.88
376.997	1797.88
377.222	1837.88
377.448	1749.88
377.674	1783.88
377.899	1771.88
378.125	1875.88
378.35	1858.88
378.576	1711.88
378.802	1655.88
379.027	1613.88
379.253	1669.88
379.478	1681.88
379.704	1715.88
379.929	1714.88
380.155	1685.88
380.38	1744.88
380.606	1759.88
380.831	1700.88
381.057	1803.88
381.282	1851.88
381.507	1753.88
381.733	1839.88
381.958	2005.88
382.184	1775.88
382.409	1721.88
382.634	1803.88
382.86	1803.88
383.085	1768.88
383.31	1803.88
383.535	1992.88
383.761	2073.88
383.986	1996.88
384.211	1945.88
384.436	1913.88
384.662	1990.88
384.887	2069.88
385.112	1983.88
385.337	1975.88
385.562	1957.88
385.787	1969.88
386.013	2008.88
386.238	1987.88
386.463	1970.88
386.688	2100.88
386.913	2216.88
387.138	2173.88
387.363	2019.88
387.588	1963.88
387.813	1973.88
388.038	1997.88
388.263	2111.88
388.488	2079.88
388.713	1860.88
388.938	1875.88
389.163	1931.88
389.387	1954.88
389.612	1899.88
389.837	1963.88
390.062	1971.88
390.287	1976.88
390.512	1925.88
390.736	1875.88
390.961	1877.88
391.186	1826.88
391.411	1859.88
391.636	1895.88
391.86	1913.88
392.085	1900.88
392.31	1899.88
392.534	1997.88
392.759	1984.88
392.984	1944.88
393.208	1976.88
393.433	2039.88
393.658	2113.88
393.882	2141.88
394.107	1980.88
394.331	1946.88
394.556	1904.88
394.78	1926.88
395.005	2003.88
395.229	2067.88
395.454	2270.88
395.678	2275.88
395.903	2105.88
396.127	2039.88
396.352	2055.88
396.576	2177.88
396.801	2141.88
397.025	2212.88
397.249	2179.88
397.474	2098.88
397.698	2065.88
397.922	2119.88
398.147	2237.88
398.371	2344.88
398.595	2370.88
398.82	2189.88
399.044	2302.88
399.268	2335.88
399.492	2514.88
399.717	2558.88
399.941	2595.88
400.165	2556.88
400.389	2483.88
400.613	2433.88
400.837	2678.88
401.062	3099.88
401.286	2729.88
401.51	2361.88
401.734	2526.88
401.958	2495.88
402.182	2323.88
402.406	2252.88
402.63	2150.88
402.854	2215.88
403.078	2218.88
403.302	2266.88
403.526	2269.88
403.75	2367.88
403.974	2316.88
404.198	2352.88
404.422	2407.88
404.645	2486.88
404.869	2511.88
405.093	2313.88
405.317	2226.88
405.541	2299.88
405.765	2334.88
405.988	2314.88
406.212	2351.88
406.436	2386.88
406.66	2487.88
406.883	2509.88
407.107	2796.88
407.331	3073.88
407.555	3233.88
407.778	3021.88
408.002	2502.88
408.226	2402.88
408.449	2441.88
408.673	2386.88
408.896	2377.88
409.12	2414.88
409.344	2385.88
409.567	2288.88
409.791	2315.88
410.014	2414.88
410.238	2454.88
410.461	2592.88
410.685	2372.88
410.908	2222.88
411.132	2330.88
411.355	2263.88
411.578	2263.88
411.802	2256.88
412.025	2331.88
412.249	2267.88
412.472	2215.88
412.695	2160.88
412.919	2179.88
413.142	2185.88
413.365	2218.88
413.589	2277.88
413.812	2354.88
414.035	2451.88
414.258	2239.88
414.482	2201.88
414.705	2193.88
414.928	2199.88
415.151	2231.88
415.374	2177.88
415.597	2263.88
415.821	2232.88
416.044	2296.88
416.267	2393.88
416.49	2146.88
416.713	2045.88
416.936	2150.88
417.159	2233.88
417.382	2286.88
417.605	2165.88
417.828	2207.88
418.051	2244.88
418.274	2213.88
418.497	2119.88
418.72	2132.88
418.943	2118.88
419.166	2274.88
419.389	2331.88
419.611	2247.88
419.834	2124.88
420.057	2200.88
420.28	2155.88
420.503	2121.88
420.726	2208.88
420.948	2172.88
421.171	2095.88
421.394	2132.88
421.617	2205.88
421.839	2199.88
422.062	2166.88
422.285	2117.88
422.507	2089.88
422.73	2100.88
422.953	2065.88
423.175	2061.88
423.398	2081.88
423.621	2117.88
423.843	2109.88
424.066	2166.88
424.288	2231.88
424.511	2280.88
424.733	2248.88
424.956	2036.88
425.178	2037.88
425.401	2065.88
425.623	2079.88
425.846	2066.88
426.068	2162.88
426.291	2217.88
426.513	2187.88
426.735	2171.88
426.958	2255.88
427.18	2426.88
427.402	2260.88
427.625	2315.88
427.847	2340.88
428.069	2172.88
428.292	2116.88
428.514	2035.88
428.736	2044.88
428.958	2057.88
429.181	2088.88
429.403	2347.88
429.625	2921.88
429.847	2584.88
430.069	2163.88
430.292	2337.88
430.514	2440.88
430.736	2227.88
430.958	2386.88
431.18	2247.88
431.402	2077.88
431.624	2027.88
431.846	2017.88
432.068	1988.88
432.29	2097.88
432.512	2109.88
432.734	2128.88
432.956	2146.88
433.178	2244.88
433.4	2214.88
433.622	2237.88
433.844	2054.88
434.066	1997.88
434.287	2103.88
434.509	2090.88
434.731	2234.88
434.953	2353.88
435.175	2291.88
435.397	2153.88
435.618	2164.88
435.84	2186.88
436.062	2166.88
436.284	2154.88
436.505	2158.88
436.727	2219.88
436.949	2166.88
437.17	2101.88
437.392	2067.88
437.614	2093.88
437.835	2052.88
438.057	2153.88
438.278	2245.88
438.5	2077.88
438.721	2012.88
438.943	2043.88
439.165	2032.88
439.386	1982.88
439.608	2019.88
439.829	2065.88
440.05	2066.88
440.272	2039.88
440.493	2012.88
440.715	2039.88
440.936	2207.88
441.158	2429.88
441.379	2364.88
441.6	2285.88
441.822	2216.88
442.043	2174.88
442.264	2196.88
442.486	2059.88
442.707	2042.88
442.928	2012.88
443.149	2064.88
443.371	2252.88
443.592	2315.88
443.813	2254.88
444.034	2225.88
444.255	2287.88
444.476	2335.88
444.698	2334.88
444.919	2311.88
445.14	2389.88
445.361	2387.88
445.582	2477.88
445.803	2323.88
446.024	2251.88
446.245	2327.88
446.466	2266.88
446.687	2122.88
446.908	2155.88
447.129	2103.88
447.35	2143.88
447.571	2136.88
447.792	2040.88
448.013	2010.88
448.234	2020.88
448.455	2198.88
448.675	2183.88
448.896	1995.88
449.117	1977.88
449.338	2052.88
449.559	2121.88
449.779	2244.88
450	2428.88
450.221	2630.88
450.442	2503.88
450.662	2228.88
450.883	1966.88
451.104	1918.88
451.324	1957.88
451.545	2060.88
451.766	2016.88
451.986	1912.88
452.207	1886.88
452.428	1832.88
452.648	1810.88
452.869	1862.88
453.089	2074.88
453.31	2039.88
453.53	2086.88
453.751	1975.88
453.971	1852.88
454.192	1911.88
454.412	2063.88
454.633	2004.88
454.853	1962.88
455.073	1804.88
455.294	1772.88
455.514	1788.88
455.734	1800.88
455.955	1880.88
456.175	1848.88
456.395	1839.88
456.616	1894.88
456.836	1912.88
457.056	1875.88
457.276	1871.88
457.497	1853.88
457.717	1776.88
457.937	1811.88
458.157	1844.88
458.377	1868.88
458.598	1842.88
458.818	1866.88
459.038	1977.88
459.258	2112.88
459.478	2106.88
459.698	2068.88
459.918	2050.88
460.138	2154.88
460.358	2183.88
460.578	2179.88
460.798	2329.88
461.018	2403.88
461.238	2308.88
461.458	2186.88
461.678	2198.88
461.898	2169.88
462.118	2117.88
462.338	2191.88
462.558	2189.88
462.777	2237.88
462.997	2336.88
463.217	2465.88
463.437	2398.88
463.657	2251.88
463.876	2204.88
464.096	2179.88
464.316	2211.88
464.536	2273.88
464.755	2281.88
464.975	2273.88
465.195	2186.88
465.414	2335.88
465.634	2327.88
465.854	2220.88
466.073	2372.88
466.293	2305.88
466.512	2057.88
466.732	2021.88
466.951	2069.88
467.171	2102.88
467.391	1997.88
467.61	1970.88
467.829	1971.88
468.049	2123.88
468.268	2425.88
468.488	2271.88
468.707	2144.88
468.927	2113.88
469.146	2018.88
469.365	1995.88
469.585	2009.88
469.804	1979.88
470.023	2025.88
470.243	2088.88
470.462	2044.88
470.681	1959.88
470.901	2022.88
471.12	1990.88
471.339	2007.88
471.558	1957.88
471.777	1902.88
471.997	1955.88
472.216	1934.88
472.435	1906.88
472.654	1989.88
472.873	2060.88
473.092	2185.88
473.311	2061.88
473.53	1958.88
473.749	1915.88
473.968	1995.88
474.187	2114.88
474.406	2204.88
474.625	2084.88
474.844	2014.88
475.063	2055.88
475.282	2097.88
475.501	2044.88
475.72	2041.88
475.939	2227.88
476.158	2132.88
476.377	1993.88
476.596	2040.88
476.814	2116.88
477.033	2091.88
477.252	2223.88
477.471	2260.88
477.69	2125.88
477.908	2128.88
478.127	2237.88
478.346	2389.88
478.564	2428.88
478.783	2392.88
479.002	2489.88
479.22	2412.88
479.439	2538.88
479.658	2777.88
479.876	2835.88
480.095	2449.88
480.313	2349.88
480.532	2188.88
480.751	2275.88
480.969	2348.88
481.188	2321.88
481.406	2293.88
481.624	2231.88
481.843	2224.88
482.061	2287.88
482.28	2315.88
482.498	2380.88
482.717	2323.88
482.935	2228.88
483.153	2264.88
483.372	2255.88
483.59	2221.88
483.808	2277.88
484.027	2305.88
484.245	2479.88
484.463	2775.88
484.681	3265.88
484.9	2530.88
485.118	2285.88
485.336	2276.88
485.554	2329.88
485.772	2479.88
485.99	2396.88
486.209	2438.88
486.427	2382.88
486.645	2401.88
486.863	2367.88
487.081	2457.88
487.299	2520.88
487.517	2428.88
487.735	2335.88
487.953	2335.88
488.171	2278.88
488.389	2303.88
488.607	2286.88
488.825	2617.88
489.043	2637.88
489.261	2330.88
489.479	2476.88
489.696	2506.88
489.914	2493.88
490.132	2477.88
490.35	2427.88
490.568	2465.88
490.786	2405.88
491.003	2316.88
491.221	2387.88
491.439	2458.88
491.657	2427.88
491.874	2448.88
492.092	2429.88
492.31	2436.88
492.527	2431.88
492.745	2394.88
492.963	2402.88
493.18	2497.88
493.398	2655.88
493.615	2783.88
493.833	2535.88
494.05	2442.88
494.268	2441.88
494.485	2521.88
494.703	2466.88
494.92	2444.88
495.138	2429.88
495.355	2458.88
495.573	2540.88
495.79	2664.88
496.008	2713.88
496.225	2561.88
496.442	2599.88
496.66	2664.88
496.877	2558.88
497.094	2700.88
497.312	2699.88
497.529	2648.88
497.746	2719.88
497.963	3107.88
498.181	3587.88
498.398	3341.88
498.615	3259.88
498.832	3163.88
499.049	3121.88
499.267	3080.88
499.484	3270.88
499.701	3592.88
499.918	3623.88
500.135	3807.88
500.352	4097.88
500.569	4095.88
500.786	4367.88
501.003	4053.88
501.22	3693.88
501.437	3627.88
501.654	3582.88
501.871	3518.88
502.088	3066.88
502.305	3093.88
502.522	2991.88
502.739	2826.88
502.956	2737.88
503.172	2701.88
503.389	2589.88
503.606	2555.88
503.823	2604.88
504.04	2611.88
504.256	2597.88
504.473	2600.88
504.69	2673.88
504.907	2529.88
505.123	2422.88
505.34	2520.88
505.557	3314.88
505.773	2856.88
505.99	2375.88
506.207	2255.88
506.423	2241.88
506.64	2238.88
506.856	2195.88
507.073	2517.88
507.289	2661.88
507.506	2610.88
507.722	2245.88
507.939	2127.88
508.155	2170.88
508.372	2161.88
508.588	2129.88
508.805	2021.88
509.021	2019.88
509.238	2015.88
509.454	2003.88
509.67	1991.88
509.887	1968.88
510.103	1959.88
510.319	2023.88
510.536	2107.88
510.752	2183.88
510.968	2141.88
511.184	2313.88
511.401	2235.88
511.617	1955.88
511.833	1972.88
512.049	1929.88
512.265	1979.88
512.481	1927.88
512.698	1997.88
512.914	2161.88
513.13	2127.88
513.346	1962.88
513.562	1924.88
513.778	1947.88
513.994	2043.88
514.21	2160.88
514.426	2131.88
514.642	2388.88
514.858	2250.88
515.074	2069.88
515.29	1942.88
515.506	2059.88
515.721	2060.88
515.937	2067.88
516.153	2349.88
516.369	2292.88
516.585	2155.88
516.801	2047.88
517.016	2042.88
517.232	2101.88
517.448	2198.88
517.664	2143.88
517.879	2146.88
518.095	2243.88
518.311	2154.88
518.527	2051.88
518.742	1998.88
518.958	1948.88
519.173	1951.88
519.389	2021.88
519.605	2013.88
519.82	2041.88
520.036	2051.88
520.251	2000.88
520.467	2003.88
520.682	2153.88
520.898	2247.88
521.113	1967.88
521.329	1937.88
521.544	2146.88
521.76	2043.88
521.975	1903.88
522.19	1859.88
522.406	1840.88
522.621	2265.88
522.836	2353.88
523.052	1890.88
523.267	1865.88
523.482	1921.88
523.698	1801.88
523.913	1755.88
524.128	1810.88
524.343	1918.88
524.559	1961.88
524.774	1785.88
524.989	1804.88
525.204	1778.88
525.419	1781.88
525.634	1763.88
525.849	1793.88
526.064	1825.88
526.28	1848.88
526.495	1758.88
526.71	1714.88
526.925	1743.88
527.14	1731.88
527.355	1680.88
527.57	1689.88
527.785	1770.88
527.999	1729.88
528.214	1695.88
528.429	1652.88
528.644	1697.88
528.859	1697.88
529.074	1715.88
529.289	1725.88
529.503	1741.88
529.718	1740.88
529.933	1696.88
530.148	1637.88
530.363	1625.88
530.577	1700.88
530.792	1733.88
531.007	1756.88
531.221	1700.88
531.436	1743.88
531.651	1819.88
531.865	1869.88
532.08	1784.88
532.295	1693.88
532.509	1590.88
532.724	1626.88
532.938	1689.88
533.153	1847.88
533.367	1778.88
533.582	1722.88
533.796	1676.88
534.011	1705.88
534.225	1720.88
534.44	1650.88
534.654	1651.88
534.868	1654.88
535.083	1685.88
535.297	1756.88
535.511	1669.88
535.726	1667.88
535.94	1680.88
536.154	1652.88
536.369	1629.88
536.583	1649.88
536.797	1583.88
537.011	1683.88
537.225	1570.88
537.44	1549.88
537.654	1705.88
537.868	1611.88
538.082	1544.88
538.296	1520.88
538.51	1522.88
538.724	1551.88
538.938	1547.88
539.153	1577.88
539.367	1640.88
539.581	1571.88
539.795	1687.88
540.009	1629.88
540.222	1621.88
540.436	1617.88
540.65	1776.88
540.864	1817.88
541.078	1683.88
541.292	1549.88
541.506	1569.88
541.72	1603.88
541.934	1552.88
542.147	1644.88
542.361	1608.88
542.575	1554.88
542.789	1542.88
543.002	1520.88
543.216	1519.88
543.43	1645.88
543.644	1670.88
543.857	1716.88
544.071	1644.88
544.285	1628.88
544.498	1600.88
544.712	1592.88
544.925	1573.88
545.139	1643.88
545.352	1560.88
545.566	1503.88
545.779	1476.88
545.993	1521.88
546.206	1545.88
546.42	1470.88
546.633	1459.88
546.847	1492.88
547.06	1460.88
547.274	1490.88
547.487	1507.88
547.7	1475.88
547.914	1533.88
548.127	1525.88
548.34	1507.88
548.554	1523.88
548.767	1507.88
548.98	1549.88
549.193	1523.88
549.407	1605.88
549.62	1612.88
549.833	1512.88
550.046	1497.88
550.259	1505.88
550.473	1488.88
550.686	1473.88
550.899	1466.88
551.112	1449.88
551.325	1426.88
551.538	1537.88
551.751	1828.88
551.964	1418.88
552.177	1395.88
552.39	1422.88
552.603	1497.88
552.816	1493.88
553.029	1518.88
553.242	1557.88
553.455	1477.88
553.667	1471.88
553.88	1508.88
554.093	1490.88
554.306	1431.88
554.519	1374.88
554.732	1377.88
554.944	1385.88
555.157	1449.88
555.37	1421.88
555.583	1382.88
555.795	1362.88
556.008	1317.88
556.221	1304.88
556.433	1291.88
556.646	1293.88
556.859	1292.88
557.071	1284.88
557.284	1258.88
557.496	1283.88
557.709	1251.88
557.921	1258.88
558.134	1241.88
558.346	1242.88
558.559	1216.88
558.771	1225.88
558.984	1220.88
559.196	1179.88
559.409	1203.88
559.621	1216.88
559.833	1205.88
560.046	1265.88
560.258	1266.88
560.47	1210.88
560.683	1228.88
560.895	1215.88
561.107	1264.88
561.32	1246.88
561.532	1247.88
561.744	1199.88
561.956	1246.88
562.168	1196.88
562.381	1156.88
562.593	1158.88
562.805	1201.88
563.017	1199.88
563.229	1182.88
563.441	1244.88
563.653	1165.88
563.865	1210.88
564.077	1221.88
564.289	1187.88
564.501	1217.88
564.713	1226.88
564.925	1241.88
565.137	1392.88
565.349	1268.88
565.561	1269.88
565.773	1293.88
565.985	1270.88
566.197	1353.88
566.408	1457.88
566.62	1451.88
566.832	1443.88
567.044	1419.88
567.255	1432.88
567.467	1469.88
567.679	1492.88
567.891	1519.88
568.102	1499.88
568.314	1418.88
568.526	1380.88
568.737	1337.88
568.949	1247.88
569.161	1178.88
569.372	1196.88
569.584	1145.88
569.795	1192.88
570.007	1147.88
570.218	1090.88
570.43	1089.88
570.641	1079.88
570.853	1105.88
571.064	1108.88
571.276	1061.88
571.487	1051.88
571.698	1032.88
571.91	995.88
572.121	1012.88
572.333	1004.88
572.544	982.88
572.755	943.88
572.966	961.88
573.178	960.88
573.389	953.88
573.6	980.88
573.811	1058.88
574.023	981.88
574.234	964.88
574.445	946.88
574.656	905.88
574.867	920.88
575.078	891.88
575.289	921.88
575.501	900.88
575.712	898.88
575.923	915.88
576.134	905.88
576.345	889.88
576.556	862.88
576.767	871.88
576.978	858.88
577.188	878.88
577.399	842.88
577.61	845.88
577.821	845.88
578.032	830.88
578.243	861.88
578.454	824.88
578.665	837.88
578.875	825.88
579.086	799.88
579.297	830.88
579.508	868.88
579.718	838.88
579.929	856.88
580.14	795.88
580.35	802.88
580.561	854.88
580.772	892.88
580.982	829.88
581.193	823.88
581.403	792.88
581.614	759.88
581.825	773.88
582.035	775.88
582.246	765.88
582.456	786.88
582.667	793.88
582.877	775.88
583.087	779.88
583.298	745.88
583.508	787.88
583.719	801.88
583.929	777.88
584.139	756.88
584.35	746.88
584.56	732.88
584.77	772.88
584.981	746.88
585.191	759.88
585.401	811.88
585.611	795.88
585.821	751.88
586.032	739.88
586.242	742.88
586.452	731.88
586.662	761.88
586.872	731.88
587.082	732.88
587.292	771.88
587.502	793.88
587.713	721.88
587.923	745.88
588.133	734.88
588.343	749.88
588.553	717.88
588.762	738.88
588.972	722.88
589.182	743.88
589.392	746.88
589.602	727.88
589.812	746.88
590.022	717.88
590.232	680.88
590.441	720.88
590.651	724.88
590.861	751.88
591.071	705.88
591.281	699.88
591.49	720.88
591.7	720.88
591.91	727.88
592.119	736.88
592.329	747.88
592.539	771.88
592.748	745.88
592.958	738.88
593.167	747.88
593.377	755.88
593.587	789.88
593.796	790.88
594.006	780.88
594.215	745.88
594.424	773.88
594.634	764.88
594.843	741.88
595.053	770.88
595.262	741.88
595.472	713.88
595.681	733.88
595.89	693.88
596.1	689.88
596.309	684.88
596.518	664.88
596.727	685.88
596.937	667.88
597.146	641.88
597.355	665.88
597.564	660.88
597.774	623.88
597.983	633.88
598.192	625.88
598.401	618.88
598.61	618.88
598.819	624.88
599.028	613.88
599.237	624.88
599.446	594.88
599.655	636.88
599.864	617.88
600.073	599.88
600.282	599.88
600.491	592.88
600.7	581.88
600.909	571.88
601.118	602.88
601.327	602.88
601.536	597.88
601.745	590.88
601.953	592.88
602.162	587.88
602.371	607.88
602.58	581.88
602.789	602.88
602.997	595.88
603.206	600.88
603.415	568.88
603.623	589.88
603.832	576.88
604.041	563.88
604.249	570.88
604.458	567.88
604.666	577.88
604.875	559.88
605.084	593.88
605.292	585.88
605.501	589.88
605.709	576.88
605.918	566.88
606.126	565.88
606.334	552.88
606.543	553.88
606.751	555.88
606.96	562.88
607.168	542.88
607.376	537.88
607.585	549.88
607.793	578.88
608.001	561.88
608.21	550.88
608.418	542.88
608.626	516.88
608.834	544.88
609.043	543.88
609.251	523.88
609.459	533.88
609.667	543.88
609.875	555.88
610.083	545.88
610.291	554.88
610.499	543.88
610.707	531.88
610.916	525.88
611.124	534.88
611.332	538.88
611.54	529.88
611.748	524.88
611.955	517.88
612.163	524.88
612.371	505.88
612.579	533.88
612.787	505.88
612.995	533.88
613.203	515.88
613.411	481.88
613.618	535.88
613.826	513.88
614.034	515.88
614.242	513.88
614.449	522.88
614.657	515.88
614.865	511.88
615.072	522.88
615.28	514.88
615.488	519.88
615.695	548.88
615.903	535.88
616.111	523.88
616.318	498.88
616.526	514.88
616.733	532.88
616.941	490.88
617.148	481.88
617.356	487.88
617.563	497.88
617.771	511.88
617.978	472.88
618.185	489.88
618.393	472.88
618.6	473.88
618.807	500.88
619.015	502.88
619.222	468.88
619.429	472.88
619.637	475.88
619.844	470.88
620.051	476.88
620.258	482.88
620.466	456.88
620.673	454.88
620.88	437.88
621.087	448.88
621.294	433.88
621.501	447.88
621.708	441.88
621.915	461.88
622.122	467.88
622.329	463.88
622.536	468.88
622.743	446.88
622.95	439.88
623.157	452.88
623.364	444.88
623.571	417.88
623.778	473.88
623.985	459.88
624.192	438.88
624.399	439.88
624.606	434.88
624.812	424.88
625.019	439.88
625.226	439.88
625.433	427.88
625.639	435.88
625.846	425.88
626.053	382.88
626.259	409.88
626.466	395.88
626.673	416.88
626.879	419.88
627.086	403.88
627.293	405.88
627.499	411.88
627.706	396.88
627.912	408.88
628.119	410.88
628.325	409.88
628.532	405.88
628.738	404.88
628.945	399.88
629.151	415.88
629.357	434.88
629.564	416.88
629.77	379.88
629.976	389.88
630.183	371.88
630.389	394.88
630.595	423.88
630.802	387.88
631.008	369.88
631.214	364.88
631.42	367.88
631.627	373.88
631.833	351.88
632.039	368.88
632.245	380.88
632.451	364.88
632.657	364.88
632.863	369.88
633.069	370.88
633.275	360.88
633.481	371.88
633.688	350.88
633.893	375.88
634.099	353.88
634.305	351.88
634.511	338.88
634.717	351.88
634.923	341.88
635.129	349.88
635.335	348.88
635.541	357.88
635.747	364.88
635.952	353.88
636.158	361.88
636.364	373.88
636.57	333.88
636.775	340.88
636.981	339.88
637.187	359.88
637.392	337.88
637.598	357.88
637.804	355.88
638.009	350.88
638.215	338.88
638.421	317.88
638.626	344.88
638.832	348.88
639.037	331.88
639.243	340.88
639.448	352.88
639.654	324.88
639.859	320.88
640.065	316.88
640.27	325.88
640.475	319.88
640.681	331.88
640.886	331.88
641.091	335.88
641.297	317.88
641.502	306.88
641.707	303.88
641.913	323.88
642.118	327.88
642.323	304.88
642.528	338.88
642.733	315.88
642.939	313.88
643.144	303.88
643.349	318.88
643.554	325.88
643.759	324.88
643.964	315.88
644.169	322.88
644.374	329.88
644.579	327.88
644.784	325.88
644.989	305.88
645.194	323.88
645.399	333.88
645.604	300.88
645.809	307.88
646.014	311.88
646.219	314.88
646.423	311.88
646.628	311.88
646.833	304.88
647.038	311.88
647.243	318.88
647.447	320.88
647.652	326.88
647.857	294.88
648.062	318.88
648.266	313.88
648.471	294.88
648.676	315.88
648.88	317.88
649.085	318.88
649.289	295.88
649.494	311.88
649.698	283.88
649.903	293.88
650.107	299.88
650.312	274.88
650.516	273.88
650.721	286.88
650.925	269.88
651.13	275.88
651.334	284.88
651.539	271.88
651.743	257.88
651.947	279.88
652.152	270.88
652.356	257.88
652.56	260.88
652.764	263.88
652.969	262.88
653.173	231.88
653.377	259.88
653.581	248.88
653.785	236.88
653.99	244.88
654.194	251.88
654.398	226.88
654.602	257.88
654.806	233.88
655.01	226.88
655.214	230.88
655.418	229.88
655.622	228.88
655.826	234.88
656.03	234.88
656.234	255.88
656.438	261.88
656.642	260.88
656.846	251.88
657.049	265.88
657.253	219.88
657.457	205.88
657.661	204.88
657.865	190.88
658.068	177.88
658.272	166.88
658.476	157.88
658.68	150.88
658.883	140.88
659.087	130.88
659.291	145.88
659.494	159.88
659.698	147.88
659.901	127.88
660.105	124.88
660.309	136.88
660.512	120.88
660.716	131.88
660.919	103.88
661.123	119.88
661.326	104.88
661.53	105.88
661.733	101.88
661.936	98.88
662.14	93.88
662.343	81.88
662.546	94.88
662.75	96.88
662.953	86.88
663.156	95.88
663.36	86.88
663.563	96.88
663.766	95.88
663.969	94.88
664.173	97.88
664.376	84.88
664.579	84.88
664.782	93.88
664.985	76.88
665.188	90.88
665.391	91.88
665.594	77.88
665.797	76.88
666	87.88
666.203	83.88
666.406	83.88
666.609	84.88
666.812	88.88
667.015	90.88
667.218	83.88
667.421	80.88
667.624	76.88
667.827	86.88
668.03	83.88
668.232	79.88
668.435	84.88
668.638	75.88
668.841	87.88
669.043	75.88
669.246	76.88
669.449	78.88
669.651	69.88
669.854	98.88
670.057	81.88
670.259	83.88
670.462	92.88
670.665	60.88
670.867	67.88
671.07	88.88
671.272	81.88
671.475	101.88
671.677	87.88
671.88	76.88
672.082	74.88
672.284	92.88
672.487	77.88
672.689	83.88
672.892	82.88
