Data from WStandard_LampEnergy5.5LIBS07252019.E.O._I.C._HRD10591_16-08-55-920.txt Node
Date: Thu Jul 25 16:08:55 EDT 2019
User: cochatt
Spectrometer: HR+D1059
Trigger mode: 1
Integration Time (sec): 1.000000E-1
Scans to average: 1
Electric dark correction enabled: true
Nonlinearity correction enabled: false
Boxcar width: 0
XAxis mode: Wavelengths
Number of Pixels in Spectrum: 2048
>>>>>Begin Spectral Data<<<<<
223.165	-10.81
223.4	-10.81
223.635	-10.81
223.869	-8.81
224.104	-10.81
224.338	-22.81
224.573	-13.81
224.808	-11.81
225.042	-18.81
225.277	-13.81
225.511	6.19
225.746	15.19
225.98	-2.81
226.215	16.19
226.449	11.19
226.683	10.19
226.918	38.19
227.152	17.19
227.387	28.19
227.621	35.19
227.856	49.19
228.09	49.19
228.324	46.19
228.559	67.19
228.793	137.19
229.027	352.19
229.262	364.19
229.496	379.19
229.73	379.19
229.964	427.19
230.199	448.19
230.433	461.19
230.667	478.19
230.901	540.19
231.136	458.19
231.37	456.19
231.604	448.19
231.838	454.19
232.072	470.19
232.306	439.19
232.541	486.19
232.775	523.19
233.009	559.19
233.243	569.19
233.477	505.19
233.711	514.19
233.945	564.19
234.179	500.19
234.413	587.19
234.647	634.19
234.881	558.19
235.115	533.19
235.349	551.19
235.583	559.19
235.817	553.19
236.051	525.19
236.285	536.19
236.519	547.19
236.753	642.19
236.987	648.19
237.221	639.19
237.455	744.19
237.689	687.19
237.922	672.19
238.156	635.19
238.39	663.19
238.624	654.19
238.858	747.19
239.091	733.19
239.325	773.19
239.559	893.19
239.793	936.19
240.027	1021.19
240.26	1004.19
240.494	719.19
240.728	679.19
240.961	720.19
241.195	713.19
241.429	799.19
241.662	805.19
241.896	756.19
242.13	748.19
242.363	858.19
242.597	926.19
242.83	860.19
243.064	826.19
243.298	940.19
243.531	899.19
243.765	884.19
243.998	912.19
244.232	779.19
244.465	766.19
244.699	743.19
244.932	855.19
245.166	1003.19
245.399	974.19
245.633	869.19
245.866	870.19
246.099	932.19
246.333	925.19
246.566	908.19
246.8	1039.19
247.033	1130.19
247.266	1056.19
247.5	1003.19
247.733	1009.19
247.966	1091.19
248.2	1176.19
248.433	1167.19
248.666	1201.19
248.899	1279.19
249.133	1474.19
249.366	1677.19
249.599	1369.19
249.832	1195.19
250.066	1225.19
250.299	1281.19
250.532	1169.19
250.765	1059.19
250.998	1113.19
251.231	1167.19
251.465	1217.19
251.698	1157.19
251.931	1174.19
252.164	1145.19
252.397	1226.19
252.63	1240.19
252.863	1070.19
253.096	1060.19
253.329	1085.19
253.562	1145.19
253.795	1231.19
254.028	1230.19
254.261	1151.19
254.494	1161.19
254.727	1069.19
254.96	1126.19
255.193	1219.19
255.426	1393.19
255.659	1603.19
255.892	1636.19
256.124	1340.19
256.357	1298.19
256.59	1389.19
256.823	1411.19
257.056	1389.19
257.289	1675.19
257.521	1843.19
257.754	1651.19
257.987	1543.19
258.22	1706.19
258.452	1691.19
258.685	1374.19
258.918	1323.19
259.151	1336.19
259.383	1314.19
259.616	1122.19
259.849	1197.19
260.081	1363.19
260.314	1499.19
260.547	1678.19
260.779	1687.19
261.012	1578.19
261.244	1386.19
261.477	1305.19
261.71	1395.19
261.942	1387.19
262.175	1335.19
262.407	1415.19
262.64	1356.19
262.872	1242.19
263.105	1195.19
263.337	1237.19
263.57	1230.19
263.802	1244.19
264.035	1187.19
264.267	1132.19
264.499	1078.19
264.732	1180.19
264.964	1245.19
265.197	1305.19
265.429	1369.19
265.661	1516.19
265.894	1693.19
266.126	1781.19
266.358	1558.19
266.591	1587.19
266.823	1745.19
267.055	1580.19
267.287	1542.19
267.52	1523.19
267.752	1477.19
267.984	1522.19
268.216	1583.19
268.448	1615.19
268.681	1635.19
268.913	1490.19
269.145	1382.19
269.377	1340.19
269.609	1462.19
269.841	1641.19
270.073	1972.19
270.306	2158.19
270.538	2350.19
270.77	1996.19
271.002	1660.19
271.234	1625.19
271.466	1604.19
271.698	1756.19
271.93	2132.19
272.162	2152.19
272.394	1901.19
272.626	1834.19
272.858	1649.19
273.09	1413.19
273.322	1373.19
273.553	1345.19
273.785	1351.19
274.017	1411.19
274.249	1525.19
274.481	1533.19
274.713	1421.19
274.945	1330.19
275.176	1411.19
275.408	1379.19
275.64	1345.19
275.872	1320.19
276.104	1424.19
276.335	1621.19
276.567	1817.19
276.799	1831.19
277.031	1671.19
277.262	1551.19
277.494	1611.19
277.726	1794.19
277.957	1765.19
278.189	1633.19
278.421	1507.19
278.652	1459.19
278.884	1403.19
279.115	1412.19
279.347	1484.19
279.579	1467.19
279.81	1413.19
280.042	1568.19
280.273	1723.19
280.505	1730.19
280.736	1747.19
280.968	1697.19
281.199	1478.19
281.431	1410.19
281.662	1464.19
281.894	1417.19
282.125	1428.19
282.356	1499.19
282.588	1493.19
282.819	1459.19
283.051	1592.19
283.282	1741.19
283.513	1697.19
283.745	1479.19
283.976	1388.19
284.207	1378.19
284.439	1389.19
284.67	1447.19
284.901	1446.19
285.132	1569.19
285.364	1498.19
285.595	1522.19
285.826	1507.19
286.057	1465.19
286.288	1439.19
286.52	1500.19
286.751	1620.19
286.982	1669.19
287.213	1557.19
287.444	1455.19
287.675	1416.19
287.906	1515.19
288.138	1621.19
288.369	1547.19
288.6	1481.19
288.831	1423.19
289.062	1450.19
289.293	1450.19
289.524	1471.19
289.755	1529.19
289.986	1555.19
290.217	1403.19
290.448	1454.19
290.679	1485.19
290.91	1504.19
291.141	1545.19
291.371	1554.19
291.602	1557.19
291.833	1545.19
292.064	1599.19
292.295	1596.19
292.526	1610.19
292.757	1677.19
292.987	1575.19
293.218	1512.19
293.449	1615.19
293.68	1837.19
293.91	1999.19
294.141	1837.19
294.372	1697.19
294.603	1807.19
294.833	1872.19
295.064	1781.19
295.295	1593.19
295.525	1562.19
295.756	1440.19
295.987	1389.19
296.217	1427.19
296.448	1443.19
296.679	1444.19
296.909	1462.19
297.14	1481.19
297.37	1460.19
297.601	1561.19
297.831	1664.19
298.062	1684.19
298.292	1557.19
298.523	1453.19
298.753	1458.19
298.984	1483.19
299.214	1487.19
299.445	1587.19
299.675	1598.19
299.905	1570.19
300.136	1509.19
300.366	1509.19
300.597	1470.19
300.827	1414.19
301.057	1504.19
301.288	1573.19
301.518	1582.19
301.748	1594.19
301.979	1713.19
302.209	1686.19
302.439	1809.19
302.669	1902.19
302.9	1754.19
303.13	1602.19
303.36	1633.19
303.59	1629.19
303.82	1633.19
304.051	1586.19
304.281	1567.19
304.511	1609.19
304.741	1691.19
304.971	1850.19
305.201	2039.19
305.431	1909.19
305.661	1541.19
305.891	1407.19
306.121	1413.19
306.352	1469.19
306.582	1542.19
306.812	1677.19
307.042	1759.19
307.272	1770.19
307.502	1807.19
307.731	1926.19
307.961	2105.19
308.191	1958.19
308.421	1693.19
308.651	1574.19
308.881	1571.19
309.111	1568.19
309.341	1509.19
309.571	1530.19
309.8	1539.19
310.03	1510.19
310.26	1524.19
310.49	1502.19
310.72	1509.19
310.949	1657.19
311.179	1633.19
311.409	1621.19
311.639	1595.19
311.868	1570.19
312.098	1556.19
312.328	1558.19
312.557	1518.19
312.787	1557.19
313.017	1654.19
313.246	1622.19
313.476	1600.19
313.706	1663.19
313.935	1644.19
314.165	1633.19
314.394	1678.19
314.624	1741.19
314.853	1837.19
315.083	1909.19
315.312	2007.19
315.542	1893.19
315.771	1682.19
316.001	1637.19
316.23	1764.19
316.46	1750.19
316.689	1730.19
316.919	1629.19
317.148	1562.19
317.377	1617.19
317.607	1677.19
317.836	1915.19
318.065	1960.19
318.295	1900.19
318.524	1822.19
318.753	1755.19
318.983	1759.19
319.212	1716.19
319.441	1684.19
319.67	1680.19
319.9	1701.19
320.129	1762.19
320.358	1826.19
320.587	1913.19
320.816	1936.19
321.046	1862.19
321.275	1716.19
321.504	1741.19
321.733	1933.19
321.962	1828.19
322.191	1701.19
322.42	1700.19
322.649	1700.19
322.878	1673.19
323.108	1701.19
323.337	1778.19
323.566	1695.19
323.795	1730.19
324.024	1764.19
324.253	1692.19
324.482	1706.19
324.71	1682.19
324.939	1572.19
325.168	1645.19
325.397	1698.19
325.626	1768.19
325.855	1738.19
326.084	1685.19
326.313	1695.19
326.542	1716.19
326.77	1770.19
326.999	1756.19
327.228	1713.19
327.457	1633.19
327.686	1569.19
327.914	1632.19
328.143	1674.19
328.372	1692.19
328.6	1658.19
328.829	1678.19
329.058	1655.19
329.287	1644.19
329.515	1685.19
329.744	1715.19
329.972	1798.19
330.201	1873.19
330.43	1825.19
330.658	1785.19
330.887	1842.19
331.115	1817.19
331.344	1792.19
331.572	1774.19
331.801	1750.19
332.03	1790.19
332.258	1756.19
332.486	1805.19
332.715	1829.19
332.943	1838.19
333.172	1762.19
333.4	1801.19
333.629	1847.19
333.857	1953.19
334.085	2113.19
334.314	2364.19
334.542	2671.19
334.771	2429.19
334.999	2156.19
335.227	2014.19
335.455	1945.19
335.684	1900.19
335.912	1921.19
336.14	2035.19
336.369	1985.19
336.597	1849.19
336.825	1814.19
337.053	1874.19
337.281	1938.19
337.51	2069.19
337.738	2145.19
337.966	2047.19
338.194	1863.19
338.422	1818.19
338.65	1794.19
338.878	1763.19
339.106	1722.19
339.334	1701.19
339.562	1664.19
339.79	1720.19
340.018	1814.19
340.246	1899.19
340.474	1906.19
340.702	1797.19
340.93	1834.19
341.158	1828.19
341.386	1797.19
341.614	1796.19
341.842	1748.19
342.07	1802.19
342.298	1838.19
342.526	1803.19
342.754	1719.19
342.981	1757.19
343.209	1786.19
343.437	1729.19
343.665	1755.19
343.893	1767.19
344.12	1942.19
344.348	1896.19
344.576	1803.19
344.804	1784.19
345.031	1753.19
345.259	1775.19
345.487	1736.19
345.714	1620.19
345.942	1637.19
346.17	1659.19
346.397	1717.19
346.625	1714.19
346.853	1632.19
347.08	1583.19
347.308	1575.19
347.535	1617.19
347.763	1677.19
347.99	1690.19
348.218	1609.19
348.445	1614.19
348.673	1639.19
348.9	1692.19
349.128	1678.19
349.355	1791.19
349.583	1771.19
349.81	1677.19
350.037	1518.19
350.265	1542.19
350.492	1545.19
350.72	1605.19
350.947	1652.19
351.174	1668.19
351.402	1586.19
351.629	1551.19
351.856	1524.19
352.083	1494.19
352.311	1538.19
352.538	1585.19
352.765	1637.19
352.992	1726.19
353.22	1639.19
353.447	1590.19
353.674	1611.19
353.901	1663.19
354.128	1582.19
354.355	1575.19
354.583	1657.19
354.81	1706.19
355.037	1687.19
355.264	1687.19
355.491	1612.19
355.718	1617.19
355.945	1615.19
356.172	1611.19
356.399	1579.19
356.626	1554.19
356.853	1640.19
357.08	1741.19
357.307	1913.19
357.534	1911.19
357.761	1706.19
357.988	1583.19
358.215	1524.19
358.441	1569.19
358.668	1601.19
358.895	1559.19
359.122	1628.19
359.349	1848.19
359.576	1805.19
359.802	1608.19
360.029	1567.19
360.256	1577.19
360.483	1609.19
360.709	1614.19
360.936	1713.19
361.163	1701.19
361.39	1856.19
361.616	2068.19
361.843	1970.19
362.07	1890.19
362.296	1634.19
362.523	1572.19
362.749	1569.19
362.976	1629.19
363.203	1660.19
363.429	1621.19
363.656	1547.19
363.882	1603.19
364.109	1754.19
364.335	1939.19
364.562	1831.19
364.788	1717.19
365.015	1681.19
365.241	1607.19
365.468	1628.19
365.694	1695.19
365.92	1768.19
366.147	1725.19
366.373	1609.19
366.599	1531.19
366.826	1567.19
367.052	1587.19
367.278	1595.19
367.505	1618.19
367.731	1640.19
367.957	1636.19
368.184	1690.19
368.41	1811.19
368.636	1818.19
368.862	1784.19
369.089	1846.19
369.315	1751.19
369.541	1690.19
369.767	1641.19
369.993	1617.19
370.219	1606.19
370.445	1637.19
370.672	1741.19
370.898	1785.19
371.124	1815.19
371.35	1685.19
371.576	1733.19
371.802	1794.19
372.028	1746.19
372.254	1690.19
372.48	1627.19
372.706	1619.19
372.932	1643.19
373.158	1673.19
373.384	1671.19
373.61	1727.19
373.835	1789.19
374.061	1718.19
374.287	1700.19
374.513	1689.19
374.739	1733.19
374.965	1716.19
375.191	1772.19
375.416	1774.19
375.642	1779.19
375.868	1811.19
376.094	1905.19
376.319	1838.19
376.545	1697.19
376.771	1717.19
376.997	1791.19
377.222	1801.19
377.448	1756.19
377.674	1754.19
377.899	1757.19
378.125	1889.19
378.35	1873.19
378.576	1683.19
378.802	1615.19
379.027	1669.19
379.253	1671.19
379.478	1690.19
379.704	1639.19
379.929	1659.19
380.155	1679.19
380.38	1721.19
380.606	1717.19
380.831	1725.19
381.057	1752.19
381.282	1815.19
381.507	1768.19
381.733	1877.19
381.958	1986.19
382.184	1829.19
382.409	1761.19
382.634	1794.19
382.86	1783.19
383.085	1773.19
383.31	1835.19
383.535	1948.19
383.761	2062.19
383.986	2010.19
384.211	1924.19
384.436	1900.19
384.662	1951.19
384.887	2049.19
385.112	1981.19
385.337	1966.19
385.562	1915.19
385.787	1983.19
386.013	1990.19
386.238	1978.19
386.463	1958.19
386.688	2100.19
386.913	2202.19
387.138	2140.19
387.363	2049.19
387.588	2034.19
387.813	1990.19
388.038	2006.19
388.263	2070.19
388.488	2023.19
388.713	1816.19
388.938	1870.19
389.163	1853.19
389.387	1918.19
389.612	1888.19
389.837	1976.19
390.062	1933.19
390.287	1961.19
390.512	1970.19
390.736	1889.19
390.961	1897.19
391.186	1850.19
391.411	1866.19
391.636	1909.19
391.86	1912.19
392.085	1921.19
392.31	1891.19
392.534	1927.19
392.759	1949.19
392.984	1933.19
393.208	1995.19
393.433	1960.19
393.658	2034.19
393.882	2094.19
394.107	2012.19
394.331	1925.19
394.556	1911.19
394.78	1945.19
395.005	2027.19
395.229	2076.19
395.454	2237.19
395.678	2204.19
395.903	2125.19
396.127	2023.19
396.352	2055.19
396.576	2120.19
396.801	2120.19
397.025	2114.19
397.249	2100.19
397.474	2062.19
397.698	2091.19
397.922	2097.19
398.147	2261.19
398.371	2317.19
398.595	2294.19
398.82	2209.19
399.044	2249.19
399.268	2367.19
399.492	2531.19
399.717	2586.19
399.941	2586.19
400.165	2535.19
400.389	2506.19
400.613	2471.19
400.837	2687.19
401.062	3121.19
401.286	2701.19
401.51	2401.19
401.734	2541.19
401.958	2449.19
402.182	2284.19
402.406	2205.19
402.63	2220.19
402.854	2206.19
403.078	2221.19
403.302	2313.19
403.526	2302.19
403.75	2299.19
403.974	2306.19
404.198	2320.19
404.422	2356.19
404.645	2468.19
404.869	2485.19
405.093	2268.19
405.317	2235.19
405.541	2282.19
405.765	2348.19
405.988	2325.19
406.212	2338.19
406.436	2363.19
406.66	2474.19
406.883	2454.19
407.107	2755.19
407.331	2987.19
407.555	3270.19
407.778	2973.19
408.002	2530.19
408.226	2454.19
408.449	2471.19
408.673	2377.19
408.896	2368.19
409.12	2411.19
409.344	2402.19
409.567	2266.19
409.791	2331.19
410.014	2378.19
410.238	2458.19
410.461	2566.19
410.685	2396.19
410.908	2241.19
411.132	2307.19
411.355	2301.19
411.578	2292.19
411.802	2274.19
412.025	2292.19
412.249	2218.19
412.472	2195.19
412.695	2148.19
412.919	2211.19
413.142	2163.19
413.365	2205.19
413.589	2228.19
413.812	2336.19
414.035	2414.19
414.258	2213.19
414.482	2188.19
414.705	2204.19
414.928	2164.19
415.151	2226.19
415.374	2214.19
415.597	2281.19
415.821	2249.19
416.044	2313.19
416.267	2326.19
416.49	2110.19
416.713	2114.19
416.936	2197.19
417.159	2252.19
417.382	2243.19
417.605	2176.19
417.828	2195.19
418.051	2231.19
418.274	2207.19
418.497	2128.19
418.72	2107.19
418.943	2106.19
419.166	2261.19
419.389	2383.19
419.611	2246.19
419.834	2179.19
420.057	2207.19
420.28	2145.19
420.503	2121.19
420.726	2148.19
420.948	2194.19
421.171	2086.19
421.394	2082.19
421.617	2178.19
421.839	2179.19
422.062	2132.19
422.285	2064.19
422.507	2124.19
422.73	2028.19
422.953	2046.19
423.175	2039.19
423.398	2085.19
423.621	2081.19
423.843	2131.19
424.066	2139.19
424.288	2232.19
424.511	2252.19
424.733	2224.19
424.956	2014.19
425.178	2012.19
425.401	2029.19
425.623	2042.19
425.846	2007.19
426.068	2164.19
426.291	2217.19
426.513	2168.19
426.735	2174.19
426.958	2287.19
427.18	2390.19
427.402	2200.19
427.625	2317.19
427.847	2317.19
428.069	2161.19
428.292	2129.19
428.514	2014.19
428.736	1986.19
428.958	2007.19
429.181	2083.19
429.403	2293.19
429.625	2841.19
429.847	2508.19
430.069	2079.19
430.292	2307.19
430.514	2396.19
430.736	2206.19
430.958	2316.19
431.18	2222.19
431.402	2053.19
431.624	2094.19
431.846	2029.19
432.068	1995.19
432.29	1989.19
432.512	2060.19
432.734	2118.19
432.956	2141.19
433.178	2230.19
433.4	2189.19
433.622	2181.19
433.844	2107.19
434.066	2039.19
434.287	2040.19
434.509	2149.19
434.731	2208.19
434.953	2317.19
435.175	2243.19
435.397	2151.19
435.618	2139.19
435.84	2189.19
436.062	2153.19
436.284	2135.19
436.505	2113.19
436.727	2189.19
436.949	2108.19
437.17	2070.19
437.392	2044.19
437.614	2052.19
437.835	2015.19
438.057	2141.19
438.278	2255.19
438.5	2031.19
438.721	2073.19
438.943	2033.19
439.165	2054.19
439.386	1994.19
439.608	2066.19
439.829	2000.19
440.05	2056.19
440.272	2005.19
440.493	1986.19
440.715	2046.19
440.936	2144.19
441.158	2417.19
441.379	2339.19
441.6	2238.19
441.822	2192.19
442.043	2151.19
442.264	2170.19
442.486	2059.19
442.707	2090.19
442.928	2035.19
443.149	2099.19
443.371	2251.19
443.592	2270.19
443.813	2261.19
444.034	2234.19
444.255	2230.19
444.476	2300.19
444.698	2373.19
444.919	2251.19
445.14	2365.19
445.361	2355.19
445.582	2435.19
445.803	2327.19
446.024	2287.19
446.245	2297.19
446.466	2208.19
446.687	2131.19
446.908	2131.19
447.129	2054.19
447.35	2147.19
447.571	2096.19
447.792	2038.19
448.013	1995.19
448.234	2012.19
448.455	2139.19
448.675	2116.19
448.896	1999.19
449.117	1974.19
449.338	1998.19
449.559	2077.19
449.779	2220.19
450	2370.19
450.221	2647.19
450.442	2495.19
450.662	2173.19
450.883	1961.19
451.104	1964.19
451.324	1986.19
451.545	2050.19
451.766	1990.19
451.986	1917.19
452.207	1932.19
452.428	1780.19
452.648	1786.19
452.869	1891.19
453.089	2002.19
453.31	1980.19
453.53	2066.19
453.751	2001.19
453.971	1876.19
454.192	1903.19
454.412	2029.19
454.633	1939.19
454.853	1888.19
455.073	1765.19
455.294	1754.19
455.514	1801.19
455.734	1849.19
455.955	1857.19
456.175	1864.19
456.395	1826.19
456.616	1878.19
456.836	1921.19
457.056	1877.19
457.276	1843.19
457.497	1862.19
457.717	1740.19
457.937	1792.19
458.157	1877.19
458.377	1834.19
458.598	1803.19
458.818	1861.19
459.038	1957.19
459.258	2028.19
459.478	2065.19
459.698	2012.19
459.918	2076.19
460.138	2157.19
460.358	2195.19
460.578	2191.19
460.798	2221.19
461.018	2392.19
461.238	2281.19
461.458	2199.19
461.678	2219.19
461.898	2130.19
462.118	2107.19
462.338	2174.19
462.558	2207.19
462.777	2209.19
462.997	2286.19
463.217	2395.19
463.437	2420.19
463.657	2231.19
463.876	2243.19
464.096	2185.19
464.316	2209.19
464.536	2247.19
464.755	2282.19
464.975	2301.19
465.195	2252.19
465.414	2349.19
465.634	2361.19
465.854	2185.19
466.073	2291.19
466.293	2285.19
466.512	1987.19
466.732	1996.19
466.951	2091.19
467.171	2068.19
467.391	1962.19
467.61	1953.19
467.829	1962.19
468.049	2067.19
468.268	2382.19
468.488	2238.19
468.707	2114.19
468.927	2036.19
469.146	2028.19
469.365	1979.19
469.585	1993.19
469.804	1980.19
470.023	1984.19
470.243	2017.19
470.462	2041.19
470.681	1921.19
470.901	2020.19
471.12	2009.19
471.339	1975.19
471.558	1915.19
471.777	1876.19
471.997	1937.19
472.216	1963.19
472.435	1895.19
472.654	1933.19
472.873	2028.19
473.092	2151.19
473.311	2099.19
473.53	1910.19
473.749	1925.19
473.968	1974.19
474.187	2074.19
474.406	2165.19
474.625	2033.19
474.844	2036.19
475.063	2036.19
475.282	2071.19
475.501	2020.19
475.72	2016.19
475.939	2169.19
476.158	2058.19
476.377	2026.19
476.596	2035.19
476.814	2087.19
477.033	2108.19
477.252	2188.19
477.471	2224.19
477.69	2153.19
477.908	2118.19
478.127	2231.19
478.346	2423.19
478.564	2455.19
478.783	2394.19
479.002	2425.19
479.22	2378.19
479.439	2523.19
479.658	2806.19
479.876	2792.19
480.095	2431.19
480.313	2352.19
480.532	2235.19
480.751	2259.19
480.969	2278.19
481.188	2308.19
481.406	2212.19
481.624	2148.19
481.843	2233.19
482.061	2268.19
482.28	2311.19
482.498	2334.19
482.717	2322.19
482.935	2227.19
483.153	2241.19
483.372	2264.19
483.59	2227.19
483.808	2245.19
484.027	2292.19
484.245	2363.19
484.463	2812.19
484.681	3154.19
484.9	2486.19
485.118	2257.19
485.336	2281.19
485.554	2382.19
485.772	2456.19
485.99	2461.19
486.209	2477.19
486.427	2422.19
486.645	2411.19
486.863	2378.19
487.081	2420.19
487.299	2518.19
487.517	2447.19
487.735	2340.19
487.953	2325.19
488.171	2283.19
488.389	2310.19
488.607	2282.19
488.825	2548.19
489.043	2598.19
489.261	2327.19
489.479	2483.19
489.696	2493.19
489.914	2476.19
490.132	2418.19
490.35	2382.19
490.568	2427.19
490.786	2337.19
491.003	2270.19
491.221	2329.19
491.439	2450.19
491.657	2444.19
491.874	2414.19
492.092	2410.19
492.31	2430.19
492.527	2427.19
492.745	2362.19
492.963	2401.19
493.18	2492.19
493.398	2623.19
493.615	2693.19
493.833	2511.19
494.05	2431.19
494.268	2451.19
494.485	2497.19
494.703	2468.19
494.92	2405.19
495.138	2441.19
495.355	2422.19
495.573	2540.19
495.79	2705.19
496.008	2754.19
496.225	2548.19
496.442	2581.19
496.66	2579.19
496.877	2550.19
497.094	2646.19
497.312	2685.19
497.529	2635.19
497.746	2717.19
497.963	3137.19
498.181	3534.19
498.398	3280.19
498.615	3179.19
498.832	3178.19
499.049	3092.19
499.267	3122.19
499.484	3361.19
499.701	3534.19
499.918	3603.19
500.135	3795.19
500.352	4154.19
500.569	4117.19
500.786	4294.19
501.003	4066.19
501.22	3714.19
501.437	3617.19
501.654	3572.19
501.871	3512.19
502.088	3087.19
502.305	3089.19
502.522	2999.19
502.739	2794.19
502.956	2694.19
503.172	2678.19
503.389	2613.19
503.606	2558.19
503.823	2621.19
504.04	2615.19
504.256	2563.19
504.473	2603.19
504.69	2678.19
504.907	2551.19
505.123	2398.19
505.34	2521.19
505.557	3251.19
505.773	2764.19
505.99	2395.19
506.207	2223.19
506.423	2181.19
506.64	2177.19
506.856	2235.19
507.073	2506.19
507.289	2706.19
507.506	2565.19
507.722	2177.19
507.939	2098.19
508.155	2151.19
508.372	2157.19
508.588	2098.19
508.805	2036.19
509.021	2043.19
509.238	2018.19
509.454	2012.19
509.67	2012.19
509.887	1981.19
510.103	1976.19
510.319	2017.19
510.536	2087.19
510.752	2195.19
510.968	2150.19
511.184	2288.19
511.401	2232.19
511.617	1958.19
511.833	1943.19
512.049	1925.19
512.265	1935.19
512.481	1947.19
512.698	2035.19
512.914	2179.19
513.13	2051.19
513.346	1955.19
513.562	1890.19
513.778	1944.19
513.994	2083.19
514.21	2129.19
514.426	2158.19
514.642	2354.19
514.858	2259.19
515.074	2053.19
515.29	1995.19
515.506	2063.19
515.721	2052.19
515.937	2053.19
516.153	2402.19
516.369	2299.19
516.585	2121.19
516.801	2041.19
517.016	2070.19
517.232	2110.19
517.448	2132.19
517.664	2163.19
517.879	2156.19
518.095	2249.19
518.311	2159.19
518.527	2047.19
518.742	2015.19
518.958	1994.19
519.173	1995.19
519.389	1991.19
519.605	2006.19
519.82	2027.19
520.036	2047.19
520.251	1989.19
520.467	1949.19
520.682	2155.19
520.898	2214.19
521.113	2026.19
521.329	1939.19
521.544	2103.19
521.76	2035.19
521.975	1903.19
522.19	1881.19
522.406	1865.19
522.621	2226.19
522.836	2221.19
523.052	1877.19
523.267	1865.19
523.482	1924.19
523.698	1807.19
523.913	1732.19
524.128	1791.19
524.343	1926.19
524.559	1968.19
524.774	1767.19
524.989	1767.19
525.204	1753.19
525.419	1779.19
525.634	1747.19
525.849	1835.19
526.064	1793.19
526.28	1847.19
526.495	1741.19
526.71	1754.19
526.925	1769.19
527.14	1727.19
527.355	1729.19
527.57	1694.19
527.785	1750.19
527.999	1710.19
528.214	1677.19
528.429	1626.19
528.644	1667.19
528.859	1696.19
529.074	1666.19
529.289	1657.19
529.503	1721.19
529.718	1738.19
529.933	1706.19
530.148	1646.19
530.363	1659.19
530.577	1675.19
530.792	1730.19
531.007	1722.19
531.221	1712.19
531.436	1737.19
531.651	1813.19
531.865	1878.19
532.08	1800.19
532.295	1674.19
532.509	1619.19
532.724	1663.19
532.938	1746.19
533.153	1857.19
533.367	1782.19
533.582	1697.19
533.796	1656.19
534.011	1701.19
534.225	1697.19
534.44	1704.19
534.654	1657.19
534.868	1665.19
535.083	1754.19
535.297	1729.19
535.511	1669.19
535.726	1661.19
535.94	1694.19
536.154	1658.19
536.369	1663.19
536.583	1645.19
536.797	1633.19
537.011	1638.19
537.225	1584.19
537.44	1543.19
537.654	1674.19
537.868	1599.19
538.082	1531.19
538.296	1516.19
538.51	1513.19
538.724	1550.19
538.938	1531.19
539.153	1588.19
539.367	1592.19
539.581	1571.19
539.795	1701.19
540.009	1649.19
540.222	1624.19
540.436	1621.19
540.65	1772.19
540.864	1778.19
541.078	1678.19
541.292	1570.19
541.506	1550.19
541.72	1611.19
541.934	1583.19
542.147	1611.19
542.361	1587.19
542.575	1557.19
542.789	1534.19
543.002	1483.19
543.216	1554.19
543.43	1591.19
543.644	1642.19
543.857	1728.19
544.071	1661.19
544.285	1613.19
544.498	1559.19
544.712	1593.19
544.925	1593.19
545.139	1638.19
545.352	1537.19
545.566	1511.19
545.779	1491.19
545.993	1531.19
546.206	1594.19
546.42	1482.19
546.633	1472.19
546.847	1483.19
547.06	1468.19
547.274	1485.19
547.487	1451.19
547.7	1474.19
547.914	1491.19
548.127	1535.19
548.34	1511.19
548.554	1492.19
548.767	1501.19
548.98	1491.19
549.193	1459.19
549.407	1567.19
549.62	1572.19
549.833	1499.19
550.046	1490.19
550.259	1502.19
550.473	1490.19
550.686	1454.19
550.899	1487.19
551.112	1430.19
551.325	1435.19
551.538	1523.19
551.751	1730.19
551.964	1450.19
552.177	1420.19
552.39	1430.19
552.603	1466.19
552.816	1444.19
553.029	1543.19
553.242	1575.19
553.455	1528.19
553.667	1481.19
553.88	1485.19
554.093	1465.19
554.306	1396.19
554.519	1390.19
554.732	1354.19
554.944	1345.19
555.157	1421.19
555.37	1377.19
555.583	1359.19
555.795	1377.19
556.008	1319.19
556.221	1334.19
556.433	1286.19
556.646	1286.19
556.859	1298.19
557.071	1247.19
557.284	1282.19
557.496	1301.19
557.709	1239.19
557.921	1231.19
558.134	1253.19
558.346	1238.19
558.559	1225.19
558.771	1236.19
558.984	1215.19
559.196	1204.19
559.409	1221.19
559.621	1199.19
559.833	1193.19
560.046	1236.19
560.258	1202.19
560.47	1229.19
560.683	1220.19
560.895	1213.19
561.107	1178.19
561.32	1223.19
561.532	1221.19
561.744	1231.19
561.956	1241.19
562.168	1175.19
562.381	1171.19
562.593	1196.19
562.805	1176.19
563.017	1185.19
563.229	1195.19
563.441	1238.19
563.653	1164.19
563.865	1222.19
564.077	1210.19
564.289	1152.19
564.501	1198.19
564.713	1253.19
564.925	1295.19
565.137	1412.19
565.349	1301.19
565.561	1276.19
565.773	1272.19
565.985	1285.19
566.197	1345.19
566.408	1448.19
566.62	1473.19
566.832	1423.19
567.044	1481.19
567.255	1458.19
567.467	1492.19
567.679	1534.19
567.891	1549.19
568.102	1489.19
568.314	1427.19
568.526	1378.19
568.737	1381.19
568.949	1283.19
569.161	1198.19
569.372	1169.19
569.584	1151.19
569.795	1181.19
570.007	1164.19
570.218	1117.19
570.43	1113.19
570.641	1107.19
570.853	1119.19
571.064	1085.19
571.276	1071.19
571.487	1047.19
571.698	1016.19
571.91	1025.19
572.121	1010.19
572.333	1018.19
572.544	985.19
572.755	983.19
572.966	985.19
573.178	955.19
573.389	958.19
573.6	1044.19
573.811	1074.19
574.023	981.19
574.234	961.19
574.445	960.19
574.656	938.19
574.867	895.19
575.078	939.19
575.289	934.19
575.501	895.19
575.712	902.19
575.923	894.19
576.134	901.19
576.345	893.19
576.556	873.19
576.767	915.19
576.978	876.19
577.188	833.19
577.399	845.19
577.61	868.19
577.821	854.19
578.032	840.19
578.243	845.19
578.454	829.19
578.665	834.19
578.875	823.19
579.086	829.19
579.297	829.19
579.508	868.19
579.718	838.19
579.929	825.19
580.14	809.19
580.35	836.19
580.561	833.19
580.772	902.19
580.982	843.19
581.193	805.19
581.403	790.19
581.614	768.19
581.825	787.19
582.035	804.19
582.246	783.19
582.456	780.19
582.667	794.19
582.877	765.19
583.087	748.19
583.298	750.19
583.508	775.19
583.719	774.19
583.929	768.19
584.139	776.19
584.35	747.19
584.56	767.19
584.77	782.19
584.981	771.19
585.191	765.19
585.401	794.19
585.611	781.19
585.821	758.19
586.032	749.19
586.242	729.19
586.452	731.19
586.662	761.19
586.872	745.19
587.082	730.19
587.292	770.19
587.502	749.19
587.713	758.19
587.923	746.19
588.133	742.19
588.343	778.19
588.553	741.19
588.762	733.19
588.972	734.19
589.182	760.19
589.392	747.19
589.602	742.19
589.812	740.19
590.022	724.19
590.232	716.19
590.441	701.19
590.651	754.19
590.861	718.19
591.071	697.19
591.281	726.19
591.49	716.19
591.7	707.19
591.91	742.19
592.119	755.19
592.329	718.19
592.539	760.19
592.748	768.19
592.958	763.19
593.167	778.19
593.377	769.19
593.587	781.19
593.796	753.19
594.006	762.19
594.215	773.19
594.424	767.19
594.634	741.19
594.843	753.19
595.053	757.19
595.262	729.19
595.472	716.19
595.681	708.19
595.89	703.19
596.1	701.19
596.309	689.19
596.518	667.19
596.727	695.19
596.937	697.19
597.146	662.19
597.355	635.19
597.564	637.19
597.774	611.19
597.983	645.19
598.192	628.19
598.401	605.19
598.61	629.19
598.819	619.19
599.028	649.19
599.237	611.19
599.446	604.19
599.655	604.19
599.864	596.19
600.073	585.19
600.282	592.19
600.491	609.19
600.7	575.19
600.909	585.19
601.118	582.19
601.327	582.19
601.536	611.19
601.745	586.19
601.953	591.19
602.162	597.19
602.371	611.19
602.58	601.19
602.789	597.19
602.997	579.19
603.206	575.19
603.415	588.19
603.623	575.19
603.832	574.19
604.041	567.19
604.249	577.19
604.458	566.19
604.666	560.19
604.875	572.19
605.084	567.19
605.292	589.19
605.501	595.19
605.709	555.19
605.918	569.19
606.126	545.19
606.334	547.19
606.543	536.19
606.751	546.19
606.96	547.19
607.168	572.19
607.376	542.19
607.585	541.19
607.793	526.19
608.001	551.19
608.21	531.19
608.418	563.19
608.626	541.19
608.834	526.19
609.043	541.19
609.251	531.19
609.459	541.19
609.667	577.19
609.875	553.19
610.083	543.19
610.291	558.19
610.499	557.19
610.707	535.19
610.916	534.19
611.124	513.19
611.332	534.19
611.54	533.19
611.748	525.19
611.955	532.19
612.163	519.19
612.371	526.19
612.579	509.19
612.787	499.19
612.995	519.19
613.203	494.19
613.411	500.19
613.618	502.19
613.826	533.19
614.034	535.19
614.242	508.19
614.449	501.19
614.657	524.19
614.865	513.19
615.072	523.19
615.28	529.19
615.488	510.19
615.695	538.19
615.903	501.19
616.111	513.19
616.318	507.19
616.526	504.19
616.733	499.19
616.941	503.19
617.148	500.19
617.356	509.19
617.563	518.19
617.771	489.19
617.978	493.19
618.185	483.19
618.393	497.19
618.6	492.19
618.807	486.19
619.015	478.19
619.222	487.19
619.429	481.19
619.637	481.19
619.844	456.19
620.051	499.19
620.258	488.19
620.466	473.19
620.673	466.19
620.88	441.19
621.087	446.19
621.294	447.19
621.501	463.19
621.708	436.19
621.915	491.19
622.122	468.19
622.329	485.19
622.536	456.19
622.743	439.19
622.95	456.19
623.157	460.19
623.364	470.19
623.571	457.19
623.778	440.19
623.985	447.19
624.192	423.19
624.399	444.19
624.606	443.19
624.812	444.19
625.019	435.19
625.226	414.19
625.433	447.19
625.639	425.19
625.846	419.19
626.053	411.19
626.259	423.19
626.466	430.19
626.673	405.19
626.879	389.19
627.086	379.19
627.293	398.19
627.499	391.19
627.706	405.19
627.912	407.19
628.119	395.19
628.325	399.19
628.532	398.19
628.738	409.19
628.945	389.19
629.151	392.19
629.357	414.19
629.564	408.19
629.77	398.19
629.976	390.19
630.183	388.19
630.389	400.19
630.595	417.19
630.802	405.19
631.008	385.19
631.214	380.19
631.42	388.19
631.627	372.19
631.833	381.19
632.039	368.19
632.245	382.19
632.451	374.19
632.657	374.19
632.863	385.19
633.069	381.19
633.275	371.19
633.481	366.19
633.688	373.19
633.893	357.19
634.099	371.19
634.305	355.19
634.511	352.19
634.717	356.19
634.923	352.19
635.129	335.19
635.335	351.19
635.541	349.19
635.747	361.19
635.952	363.19
636.158	348.19
636.364	355.19
636.57	362.19
636.775	351.19
636.981	348.19
637.187	341.19
637.392	345.19
637.598	349.19
637.804	349.19
638.009	347.19
638.215	345.19
638.421	333.19
638.626	332.19
638.832	344.19
639.037	320.19
639.243	326.19
639.448	326.19
639.654	317.19
639.859	322.19
640.065	339.19
640.27	341.19
640.475	316.19
640.681	317.19
640.886	330.19
641.091	322.19
641.297	332.19
641.502	333.19
641.707	323.19
641.913	302.19
642.118	319.19
642.323	315.19
642.528	324.19
642.733	321.19
642.939	318.19
643.144	309.19
643.349	309.19
643.554	309.19
643.759	315.19
643.964	297.19
644.169	313.19
644.374	311.19
644.579	325.19
644.784	323.19
644.989	318.19
645.194	321.19
645.399	295.19
645.604	288.19
645.809	317.19
646.014	317.19
646.219	312.19
646.423	320.19
646.628	305.19
646.833	303.19
647.038	309.19
647.243	305.19
647.447	325.19
647.652	298.19
647.857	293.19
648.062	303.19
648.266	307.19
648.471	296.19
648.676	329.19
648.88	304.19
649.085	299.19
649.289	293.19
649.494	303.19
649.698	318.19
649.903	294.19
650.107	306.19
650.312	321.19
650.516	289.19
650.721	293.19
650.925	282.19
651.13	286.19
651.334	276.19
651.539	289.19
651.743	275.19
651.947	266.19
652.152	274.19
652.356	280.19
652.56	266.19
652.764	249.19
652.969	269.19
653.173	238.19
653.377	260.19
653.581	243.19
653.785	247.19
653.99	266.19
654.194	228.19
654.398	235.19
654.602	251.19
654.806	229.19
655.01	246.19
655.214	225.19
655.418	229.19
655.622	259.19
655.826	245.19
656.03	253.19
656.234	277.19
656.438	271.19
656.642	267.19
656.846	257.19
657.049	258.19
657.253	224.19
657.457	220.19
657.661	203.19
657.865	180.19
658.068	184.19
658.272	166.19
658.476	157.19
658.68	159.19
658.883	158.19
659.087	144.19
659.291	135.19
659.494	133.19
659.698	139.19
659.901	135.19
660.105	134.19
660.309	118.19
660.512	125.19
660.716	126.19
660.919	113.19
661.123	124.19
661.326	101.19
661.53	96.19
661.733	93.19
661.936	108.19
662.14	106.19
662.343	85.19
662.546	99.19
662.75	101.19
662.953	92.19
663.156	91.19
663.36	85.19
663.563	86.19
663.766	78.19
663.969	89.19
664.173	88.19
664.376	89.19
664.579	83.19
664.782	92.19
664.985	93.19
665.188	75.19
665.391	77.19
665.594	65.19
665.797	85.19
666	92.19
666.203	96.19
666.406	94.19
666.609	79.19
666.812	106.19
667.015	90.19
667.218	79.19
667.421	75.19
667.624	78.19
667.827	80.19
668.03	83.19
668.232	79.19
668.435	85.19
668.638	94.19
668.841	90.19
669.043	69.19
669.246	88.19
669.449	101.19
669.651	86.19
669.854	82.19
670.057	89.19
670.259	82.19
670.462	86.19
670.665	86.19
670.867	86.19
671.07	83.19
671.272	89.19
671.475	82.19
671.677	87.19
671.88	90.19
672.082	77.19
672.284	95.19
672.487	86.19
672.689	85.19
672.892	92.19
