Data from WStandard_LampEnergy8_LIBS07252019.E.O._I.C._HRD10591_16-00-12-930.txt Node
Date: Thu Jul 25 16:00:12 EDT 2019
User: cochatt
Spectrometer: HR+D1059
Trigger mode: 1
Integration Time (sec): 1.000000E-1
Scans to average: 1
Electric dark correction enabled: true
Nonlinearity correction enabled: false
Boxcar width: 0
XAxis mode: Wavelengths
Number of Pixels in Spectrum: 2048
>>>>>Begin Spectral Data<<<<<
223.165	-14.88
223.4	-14.88
223.635	-14.88
223.869	-10.88
224.104	-14.88
224.338	-10.88
224.573	-12.88
224.808	-26.88
225.042	-4.88
225.277	5.12
225.511	-1.88
225.746	8.12
225.98	16.12
226.215	7.12
226.449	14.12
226.683	11.12
226.918	16.12
227.152	20.12
227.387	42.12
227.621	37.12
227.856	35.12
228.09	43.12
228.324	47.12
228.559	42.12
228.793	87.12
229.027	204.12
229.262	202.12
229.496	213.12
229.73	198.12
229.964	240.12
230.199	260.12
230.433	267.12
230.667	286.12
230.901	266.12
231.136	274.12
231.37	252.12
231.604	250.12
231.838	270.12
232.072	261.12
232.306	265.12
232.541	268.12
232.775	299.12
233.009	326.12
233.243	308.12
233.477	282.12
233.711	296.12
233.945	301.12
234.179	306.12
234.413	331.12
234.647	335.12
234.881	318.12
235.115	287.12
235.349	292.12
235.583	298.12
235.817	300.12
236.051	293.12
236.285	306.12
236.519	320.12
236.753	328.12
236.987	352.12
237.221	359.12
237.455	363.12
237.689	367.12
237.922	346.12
238.156	334.12
238.39	331.12
238.624	372.12
238.858	384.12
239.091	379.12
239.325	410.12
239.559	440.12
239.793	479.12
240.027	502.12
240.26	490.12
240.494	362.12
240.728	373.12
240.961	372.12
241.195	394.12
241.429	394.12
241.662	402.12
241.896	383.12
242.13	393.12
242.363	446.12
242.597	460.12
242.83	442.12
243.064	449.12
243.298	466.12
243.531	445.12
243.765	454.12
243.998	433.12
244.232	402.12
244.465	411.12
244.699	399.12
244.932	426.12
245.166	486.12
245.399	491.12
245.633	453.12
245.866	462.12
246.099	471.12
246.333	483.12
246.566	496.12
246.8	535.12
247.033	564.12
247.266	546.12
247.5	498.12
247.733	551.12
247.966	548.12
248.2	611.12
248.433	580.12
248.666	595.12
248.899	647.12
249.133	736.12
249.366	784.12
249.599	662.12
249.832	610.12
250.066	574.12
250.299	624.12
250.532	575.12
250.765	535.12
250.998	552.12
251.231	565.12
251.465	593.12
251.698	564.12
251.931	585.12
252.164	590.12
252.397	607.12
252.63	608.12
252.863	545.12
253.096	532.12
253.329	585.12
253.562	562.12
253.795	600.12
254.028	590.12
254.261	558.12
254.494	568.12
254.727	545.12
254.96	558.12
255.193	601.12
255.426	712.12
255.659	772.12
255.892	779.12
256.124	682.12
256.357	645.12
256.59	688.12
256.823	674.12
257.056	694.12
257.289	810.12
257.521	871.12
257.754	792.12
257.987	780.12
258.22	822.12
258.452	808.12
258.685	680.12
258.918	679.12
259.151	666.12
259.383	611.12
259.616	583.12
259.849	615.12
260.081	691.12
260.314	773.12
260.547	825.12
260.779	817.12
261.012	734.12
261.244	670.12
261.477	650.12
261.71	653.12
261.942	668.12
262.175	660.12
262.407	683.12
262.64	658.12
262.872	648.12
263.105	612.12
263.337	616.12
263.57	624.12
263.802	618.12
264.035	581.12
264.267	583.12
264.499	545.12
264.732	612.12
264.964	655.12
265.197	658.12
265.429	673.12
265.661	763.12
265.894	818.12
266.126	840.12
266.358	778.12
266.591	815.12
266.823	849.12
267.055	789.12
267.287	760.12
267.52	729.12
267.752	741.12
267.984	771.12
268.216	820.12
268.448	816.12
268.681	752.12
268.913	699.12
269.145	694.12
269.377	683.12
269.609	736.12
269.841	863.12
270.073	995.12
270.306	1080.12
270.538	1101.12
270.77	932.12
271.002	851.12
271.234	821.12
271.466	812.12
271.698	900.12
271.93	1054.12
272.162	999.12
272.394	926.12
272.626	891.12
272.858	792.12
273.09	686.12
273.322	688.12
273.553	671.12
273.785	691.12
274.017	718.12
274.249	744.12
274.481	744.12
274.713	690.12
274.945	692.12
275.176	719.12
275.408	677.12
275.64	690.12
275.872	666.12
276.104	734.12
276.335	824.12
276.567	921.12
276.799	904.12
277.031	818.12
277.262	822.12
277.494	815.12
277.726	892.12
277.957	892.12
278.189	806.12
278.421	752.12
278.652	729.12
278.884	737.12
279.115	730.12
279.347	735.12
279.579	708.12
279.81	738.12
280.042	803.12
280.273	862.12
280.505	853.12
280.736	872.12
280.968	803.12
281.199	761.12
281.431	703.12
281.662	699.12
281.894	722.12
282.125	728.12
282.356	750.12
282.588	776.12
282.819	790.12
283.051	834.12
283.282	874.12
283.513	855.12
283.745	721.12
283.976	719.12
284.207	709.12
284.439	732.12
284.67	754.12
284.901	753.12
285.132	776.12
285.364	777.12
285.595	771.12
285.826	759.12
286.057	723.12
286.288	764.12
286.52	771.12
286.751	820.12
286.982	845.12
287.213	757.12
287.444	733.12
287.675	751.12
287.906	779.12
288.138	830.12
288.369	789.12
288.6	728.12
288.831	716.12
289.062	725.12
289.293	745.12
289.524	779.12
289.755	792.12
289.986	792.12
290.217	707.12
290.448	727.12
290.679	768.12
290.91	775.12
291.141	791.12
291.371	818.12
291.602	789.12
291.833	809.12
292.064	827.12
292.295	827.12
292.526	816.12
292.757	861.12
292.987	792.12
293.218	804.12
293.449	875.12
293.68	954.12
293.91	995.12
294.141	932.12
294.372	916.12
294.603	973.12
294.833	967.12
295.064	895.12
295.295	804.12
295.525	789.12
295.756	723.12
295.987	704.12
296.217	754.12
296.448	745.12
296.679	778.12
296.909	772.12
297.14	747.12
297.37	792.12
297.601	831.12
297.831	877.12
298.062	878.12
298.292	803.12
298.523	788.12
298.753	786.12
298.984	766.12
299.214	792.12
299.445	820.12
299.675	830.12
299.905	822.12
300.136	779.12
300.366	762.12
300.597	761.12
300.827	779.12
301.057	800.12
301.288	851.12
301.518	822.12
301.748	870.12
301.979	892.12
302.209	926.12
302.439	972.12
302.669	988.12
302.9	918.12
303.13	858.12
303.36	857.12
303.59	853.12
303.82	846.12
304.051	849.12
304.281	849.12
304.511	869.12
304.741	947.12
304.971	1020.12
305.201	1080.12
305.431	950.12
305.661	822.12
305.891	755.12
306.121	786.12
306.352	802.12
306.582	867.12
306.812	901.12
307.042	908.12
307.272	937.12
307.502	1003.12
307.731	1038.12
307.961	1067.12
308.191	974.12
308.421	854.12
308.651	849.12
308.881	858.12
309.111	819.12
309.341	822.12
309.571	850.12
309.8	828.12
310.03	793.12
310.26	827.12
310.49	820.12
310.72	864.12
310.949	920.12
311.179	886.12
311.409	842.12
311.639	845.12
311.868	833.12
312.098	817.12
312.328	867.12
312.557	847.12
312.787	859.12
313.017	847.12
313.246	858.12
313.476	860.12
313.706	865.12
313.935	857.12
314.165	881.12
314.394	914.12
314.624	958.12
314.853	1032.12
315.083	1052.12
315.312	1068.12
315.542	972.12
315.771	927.12
316.001	899.12
316.23	928.12
316.46	934.12
316.689	950.12
316.919	881.12
317.148	864.12
317.377	888.12
317.607	969.12
317.836	1059.12
318.065	1038.12
318.295	999.12
318.524	955.12
318.753	954.12
318.983	936.12
319.212	939.12
319.441	888.12
319.67	901.12
319.9	932.12
320.129	987.12
320.358	995.12
320.587	1052.12
320.816	1046.12
321.046	1016.12
321.275	945.12
321.504	978.12
321.733	1041.12
321.962	1016.12
322.191	926.12
322.42	910.12
322.649	894.12
322.878	904.12
323.108	936.12
323.337	943.12
323.566	935.12
323.795	956.12
324.024	918.12
324.253	942.12
324.482	929.12
324.71	905.12
324.939	872.12
325.168	904.12
325.397	922.12
325.626	935.12
325.855	928.12
326.084	942.12
326.313	949.12
326.542	954.12
326.77	969.12
326.999	991.12
327.228	924.12
327.457	844.12
327.686	857.12
327.914	890.12
328.143	916.12
328.372	918.12
328.6	906.12
328.829	901.12
329.058	871.12
329.287	926.12
329.515	917.12
329.744	931.12
329.972	983.12
330.201	1028.12
330.43	1007.12
330.658	962.12
330.887	987.12
331.115	985.12
331.344	977.12
331.572	970.12
331.801	975.12
332.03	991.12
332.258	958.12
332.486	987.12
332.715	1003.12
332.943	993.12
333.172	997.12
333.4	1012.12
333.629	1031.12
333.857	1109.12
334.085	1215.12
334.314	1386.12
334.542	1383.12
334.771	1286.12
334.999	1138.12
335.227	1091.12
335.455	1076.12
335.684	1063.12
335.912	1072.12
336.14	1137.12
336.369	1037.12
336.597	982.12
336.825	1002.12
337.053	1028.12
337.281	1060.12
337.51	1152.12
337.738	1131.12
337.966	1094.12
338.194	997.12
338.422	987.12
338.65	971.12
338.878	949.12
339.106	955.12
339.334	935.12
339.562	915.12
339.79	972.12
340.018	990.12
340.246	1047.12
340.474	1031.12
340.702	968.12
340.93	1001.12
341.158	993.12
341.386	975.12
341.614	960.12
341.842	995.12
342.07	970.12
342.298	1009.12
342.526	998.12
342.754	978.12
342.981	956.12
343.209	965.12
343.437	932.12
343.665	980.12
343.893	980.12
344.12	1056.12
344.348	1059.12
344.576	1011.12
344.804	978.12
345.031	983.12
345.259	951.12
345.487	967.12
345.714	917.12
345.942	887.12
346.17	927.12
346.397	903.12
346.625	906.12
346.853	857.12
347.08	869.12
347.308	893.12
347.535	894.12
347.763	915.12
347.99	916.12
348.218	872.12
348.445	892.12
348.673	940.12
348.9	930.12
349.128	967.12
349.355	986.12
349.583	967.12
349.81	916.12
350.037	875.12
350.265	848.12
350.492	880.12
350.72	906.12
350.947	930.12
351.174	949.12
351.402	897.12
351.629	846.12
351.856	856.12
352.083	838.12
352.311	878.12
352.538	894.12
352.765	924.12
352.992	962.12
353.22	894.12
353.447	874.12
353.674	886.12
353.901	942.12
354.128	891.12
354.355	898.12
354.583	941.12
354.81	968.12
355.037	949.12
355.264	938.12
355.491	932.12
355.718	927.12
355.945	894.12
356.172	870.12
356.399	884.12
356.626	872.12
356.853	940.12
357.08	1012.12
357.307	1094.12
357.534	1067.12
357.761	952.12
357.988	892.12
358.215	851.12
358.441	856.12
358.668	891.12
358.895	918.12
359.122	982.12
359.349	1037.12
359.576	1006.12
359.802	903.12
360.029	884.12
360.256	879.12
360.483	930.12
360.709	950.12
360.936	973.12
361.163	990.12
361.39	1072.12
361.616	1156.12
361.843	1156.12
362.07	1060.12
362.296	938.12
362.523	933.12
362.749	931.12
362.976	956.12
363.203	956.12
363.429	903.12
363.656	909.12
363.882	939.12
364.109	1035.12
364.335	1090.12
364.562	1010.12
364.788	942.12
365.015	906.12
365.241	891.12
365.468	919.12
365.694	979.12
365.92	985.12
366.147	985.12
366.373	865.12
366.599	876.12
366.826	882.12
367.052	869.12
367.278	883.12
367.505	922.12
367.731	959.12
367.957	951.12
368.184	952.12
368.41	995.12
368.636	1059.12
368.862	1051.12
369.089	1034.12
369.315	983.12
369.541	950.12
369.767	944.12
369.993	914.12
370.219	946.12
370.445	970.12
370.672	1039.12
370.898	1036.12
371.124	1034.12
371.35	1014.12
371.576	1018.12
371.802	1058.12
372.028	969.12
372.254	963.12
372.48	935.12
372.706	911.12
372.932	939.12
373.158	952.12
373.384	972.12
373.61	982.12
373.835	1032.12
374.061	992.12
374.287	979.12
374.513	983.12
374.739	939.12
374.965	1027.12
375.191	999.12
375.416	1001.12
375.642	1010.12
375.868	1062.12
376.094	1066.12
376.319	1049.12
376.545	1010.12
376.771	999.12
376.997	1060.12
377.222	1027.12
377.448	1035.12
377.674	1027.12
377.899	1018.12
378.125	1080.12
378.35	1053.12
378.576	1008.12
378.802	956.12
379.027	946.12
379.253	973.12
379.478	990.12
379.704	983.12
379.929	974.12
380.155	970.12
380.38	988.12
380.606	1002.12
380.831	1006.12
381.057	1067.12
381.282	1055.12
381.507	1049.12
381.733	1104.12
381.958	1129.12
382.184	1059.12
382.409	994.12
382.634	1017.12
382.86	1014.12
383.085	1053.12
383.31	1074.12
383.535	1179.12
383.761	1218.12
383.986	1166.12
384.211	1116.12
384.436	1120.12
384.662	1180.12
384.887	1149.12
385.112	1121.12
385.337	1111.12
385.562	1140.12
385.787	1122.12
386.013	1152.12
386.238	1136.12
386.463	1165.12
386.688	1209.12
386.913	1269.12
387.138	1239.12
387.363	1154.12
387.588	1142.12
387.813	1157.12
388.038	1204.12
388.263	1216.12
388.488	1148.12
388.713	1102.12
388.938	1082.12
389.163	1113.12
389.387	1108.12
389.612	1107.12
389.837	1130.12
390.062	1150.12
390.287	1160.12
390.512	1119.12
390.736	1094.12
390.961	1072.12
391.186	1109.12
391.411	1083.12
391.636	1125.12
391.86	1136.12
392.085	1110.12
392.31	1101.12
392.534	1125.12
392.759	1138.12
392.984	1156.12
393.208	1146.12
393.433	1179.12
393.658	1225.12
393.882	1215.12
394.107	1131.12
394.331	1135.12
394.556	1128.12
394.78	1156.12
395.005	1222.12
395.229	1243.12
395.454	1289.12
395.678	1275.12
395.903	1183.12
396.127	1183.12
396.352	1191.12
396.576	1254.12
396.801	1232.12
397.025	1216.12
397.249	1238.12
397.474	1215.12
397.698	1206.12
397.922	1238.12
398.147	1328.12
398.371	1354.12
398.595	1308.12
398.82	1274.12
399.044	1296.12
399.268	1369.12
399.492	1432.12
399.717	1484.12
399.941	1488.12
400.165	1472.12
400.389	1427.12
400.613	1410.12
400.837	1650.12
401.062	1764.12
401.286	1510.12
401.51	1437.12
401.734	1467.12
401.958	1369.12
402.182	1346.12
402.406	1295.12
402.63	1288.12
402.854	1302.12
403.078	1274.12
403.302	1322.12
403.526	1346.12
403.75	1314.12
403.974	1348.12
404.198	1357.12
404.422	1434.12
404.645	1470.12
404.869	1415.12
405.093	1340.12
405.317	1311.12
405.541	1344.12
405.765	1358.12
405.988	1344.12
406.212	1353.12
406.436	1372.12
406.66	1460.12
406.883	1481.12
407.107	1672.12
407.331	1786.12
407.555	1914.12
407.778	1646.12
408.002	1437.12
408.226	1394.12
408.449	1400.12
408.673	1401.12
408.896	1364.12
409.12	1376.12
409.344	1368.12
409.567	1335.12
409.791	1336.12
410.014	1379.12
410.238	1445.12
410.461	1510.12
410.685	1379.12
410.908	1294.12
411.132	1351.12
411.355	1356.12
411.578	1313.12
411.802	1360.12
412.025	1353.12
412.249	1329.12
412.472	1308.12
412.695	1330.12
412.919	1298.12
413.142	1314.12
413.365	1302.12
413.589	1327.12
413.812	1398.12
414.035	1403.12
414.258	1347.12
414.482	1290.12
414.705	1296.12
414.928	1340.12
415.151	1272.12
415.374	1294.12
415.597	1310.12
415.821	1367.12
416.044	1349.12
416.267	1330.12
416.49	1291.12
416.713	1280.12
416.936	1307.12
417.159	1351.12
417.382	1370.12
417.605	1318.12
417.828	1289.12
418.051	1327.12
418.274	1310.12
418.497	1272.12
418.72	1296.12
418.943	1275.12
419.166	1319.12
419.389	1369.12
419.611	1282.12
419.834	1273.12
420.057	1305.12
420.28	1275.12
420.503	1282.12
420.726	1310.12
420.948	1290.12
421.171	1253.12
421.394	1286.12
421.617	1324.12
421.839	1322.12
422.062	1296.12
422.285	1307.12
422.507	1253.12
422.73	1264.12
422.953	1213.12
423.175	1214.12
423.398	1248.12
423.621	1251.12
423.843	1277.12
424.066	1351.12
424.288	1386.12
424.511	1381.12
424.733	1355.12
424.956	1255.12
425.178	1274.12
425.401	1266.12
425.623	1294.12
425.846	1250.12
426.068	1326.12
426.291	1330.12
426.513	1304.12
426.735	1317.12
426.958	1439.12
427.18	1468.12
427.402	1330.12
427.625	1401.12
427.847	1362.12
428.069	1256.12
428.292	1242.12
428.514	1232.12
428.736	1243.12
428.958	1239.12
429.181	1274.12
429.403	1444.12
429.625	1696.12
429.847	1432.12
430.069	1278.12
430.292	1413.12
430.514	1468.12
430.736	1336.12
430.958	1362.12
431.18	1279.12
431.402	1214.12
431.624	1177.12
431.846	1144.12
432.068	1115.12
432.29	1147.12
432.512	1164.12
432.734	1252.12
432.956	1264.12
433.178	1328.12
433.4	1336.12
433.622	1306.12
433.844	1266.12
434.066	1205.12
434.287	1185.12
434.509	1222.12
434.731	1303.12
434.953	1350.12
435.175	1346.12
435.397	1296.12
435.618	1249.12
435.84	1237.12
436.062	1206.12
436.284	1264.12
436.505	1281.12
436.727	1310.12
436.949	1254.12
437.17	1226.12
437.392	1222.12
437.614	1178.12
437.835	1183.12
438.057	1188.12
438.278	1236.12
438.5	1225.12
438.721	1210.12
438.943	1198.12
439.165	1238.12
439.386	1240.12
439.608	1238.12
439.829	1224.12
440.05	1280.12
440.272	1240.12
440.493	1239.12
440.715	1258.12
440.936	1331.12
441.158	1436.12
441.379	1374.12
441.6	1366.12
441.822	1355.12
442.043	1344.12
442.264	1314.12
442.486	1243.12
442.707	1273.12
442.928	1291.12
443.149	1299.12
443.371	1370.12
443.592	1327.12
443.813	1339.12
444.034	1333.12
444.255	1339.12
444.476	1349.12
444.698	1360.12
444.919	1399.12
445.14	1458.12
445.361	1460.12
445.582	1454.12
445.803	1425.12
446.024	1340.12
446.245	1385.12
446.466	1364.12
446.687	1330.12
446.908	1312.12
447.129	1278.12
447.35	1302.12
447.571	1285.12
447.792	1257.12
448.013	1193.12
448.234	1267.12
448.455	1298.12
448.675	1313.12
448.896	1212.12
449.117	1194.12
449.338	1216.12
449.559	1269.12
449.779	1322.12
450	1412.12
450.221	1464.12
450.442	1400.12
450.662	1223.12
450.883	1173.12
451.104	1162.12
451.324	1183.12
451.545	1215.12
451.766	1170.12
451.986	1123.12
452.207	1127.12
452.428	1096.12
452.648	1070.12
452.869	1090.12
453.089	1137.12
453.31	1137.12
453.53	1155.12
453.751	1101.12
453.971	1095.12
454.192	1065.12
454.412	1128.12
454.633	1131.12
454.853	1106.12
455.073	1052.12
455.294	1046.12
455.514	1076.12
455.734	1092.12
455.955	1079.12
456.175	1076.12
456.395	1067.12
456.616	1096.12
456.836	1078.12
457.056	1056.12
457.276	1078.12
457.497	1040.12
457.717	1024.12
457.937	1061.12
458.157	1065.12
458.377	1050.12
458.598	1038.12
458.818	1026.12
459.038	1124.12
459.258	1141.12
459.478	1146.12
459.698	1074.12
459.918	1170.12
460.138	1203.12
460.358	1234.12
460.578	1232.12
460.798	1280.12
461.018	1347.12
461.238	1303.12
461.458	1264.12
461.678	1248.12
461.898	1210.12
462.118	1199.12
462.338	1242.12
462.558	1280.12
462.777	1258.12
462.997	1301.12
463.217	1366.12
463.437	1286.12
463.657	1304.12
463.876	1262.12
464.096	1240.12
464.316	1261.12
464.536	1283.12
464.755	1276.12
464.975	1268.12
465.195	1248.12
465.414	1283.12
465.634	1298.12
465.854	1236.12
466.073	1339.12
466.293	1334.12
466.512	1217.12
466.732	1195.12
466.951	1259.12
467.171	1203.12
467.391	1178.12
467.61	1176.12
467.829	1219.12
468.049	1298.12
468.268	1444.12
468.488	1303.12
468.707	1261.12
468.927	1237.12
469.146	1220.12
469.365	1192.12
469.585	1208.12
469.804	1210.12
470.023	1213.12
470.243	1227.12
470.462	1238.12
470.681	1204.12
470.901	1203.12
471.12	1198.12
471.339	1219.12
471.558	1179.12
471.777	1163.12
471.997	1185.12
472.216	1152.12
472.435	1097.12
472.654	1106.12
472.873	1148.12
473.092	1236.12
473.311	1196.12
473.53	1106.12
473.749	1145.12
473.968	1176.12
474.187	1219.12
474.406	1228.12
474.625	1200.12
474.844	1178.12
475.063	1183.12
475.282	1219.12
475.501	1178.12
475.72	1178.12
475.939	1267.12
476.158	1243.12
476.377	1203.12
476.596	1219.12
476.814	1197.12
477.033	1192.12
477.252	1239.12
477.471	1302.12
477.69	1249.12
477.908	1262.12
478.127	1332.12
478.346	1426.12
478.564	1400.12
478.783	1392.12
479.002	1379.12
479.22	1409.12
479.439	1439.12
479.658	1566.12
479.876	1517.12
480.095	1356.12
480.313	1352.12
480.532	1290.12
480.751	1293.12
480.969	1302.12
481.188	1270.12
481.406	1250.12
481.624	1209.12
481.843	1241.12
482.061	1319.12
482.28	1357.12
482.498	1330.12
482.717	1312.12
482.935	1270.12
483.153	1372.12
483.372	1340.12
483.59	1352.12
483.808	1337.12
484.027	1343.12
484.245	1443.12
484.463	1728.12
484.681	1848.12
484.9	1448.12
485.118	1383.12
485.336	1299.12
485.554	1360.12
485.772	1399.12
485.99	1370.12
486.209	1360.12
486.427	1376.12
486.645	1369.12
486.863	1407.12
487.081	1460.12
487.299	1485.12
487.517	1462.12
487.735	1463.12
487.953	1491.12
488.171	1466.12
488.389	1450.12
488.607	1456.12
488.825	1612.12
489.043	1512.12
489.261	1405.12
489.479	1488.12
489.696	1464.12
489.914	1463.12
490.132	1427.12
490.35	1481.12
490.568	1522.12
490.786	1491.12
491.003	1455.12
491.221	1538.12
491.439	1604.12
491.657	1578.12
491.874	1618.12
492.092	1675.12
492.31	1698.12
492.527	1628.12
492.745	1642.12
492.963	1613.12
493.18	1595.12
493.398	1669.12
493.615	1699.12
493.833	1614.12
494.05	1523.12
494.268	1527.12
494.485	1579.12
494.703	1579.12
494.92	1516.12
495.138	1525.12
495.355	1523.12
495.573	1580.12
495.79	1692.12
496.008	1647.12
496.225	1546.12
496.442	1598.12
496.66	1579.12
496.877	1605.12
497.094	1619.12
497.312	1641.12
497.529	1618.12
497.746	1663.12
497.963	1840.12
498.181	1998.12
498.398	1862.12
498.615	1818.12
498.832	1777.12
499.049	1760.12
499.267	1749.12
499.484	1866.12
499.701	2006.12
499.918	2038.12
500.135	2201.12
500.352	2337.12
500.569	2336.12
500.786	2520.12
501.003	2297.12
501.22	2119.12
501.437	2003.12
501.654	2064.12
501.871	2036.12
502.088	1750.12
502.305	1728.12
502.522	1660.12
502.739	1593.12
502.956	1569.12
503.172	1590.12
503.389	1482.12
503.606	1463.12
503.823	1491.12
504.04	1478.12
504.256	1488.12
504.473	1499.12
504.69	1507.12
504.907	1452.12
505.123	1394.12
505.34	1518.12
505.557	1990.12
505.773	1619.12
505.99	1390.12
506.207	1312.12
506.423	1293.12
506.64	1297.12
506.856	1313.12
507.073	1482.12
507.289	1588.12
507.506	1472.12
507.722	1292.12
507.939	1266.12
508.155	1238.12
508.372	1239.12
508.588	1202.12
508.805	1158.12
509.021	1185.12
509.238	1132.12
509.454	1144.12
509.67	1113.12
509.887	1110.12
510.103	1119.12
510.319	1167.12
510.536	1207.12
510.752	1233.12
510.968	1198.12
511.184	1252.12
511.401	1213.12
511.617	1111.12
511.833	1086.12
512.049	1074.12
512.265	1100.12
512.481	1108.12
512.698	1127.12
512.914	1208.12
513.13	1187.12
513.346	1111.12
513.562	1110.12
513.778	1125.12
513.994	1165.12
514.21	1174.12
514.426	1238.12
514.642	1282.12
514.858	1229.12
515.074	1158.12
515.29	1118.12
515.506	1154.12
515.721	1179.12
515.937	1214.12
516.153	1291.12
516.369	1266.12
516.585	1205.12
516.801	1136.12
517.016	1164.12
517.232	1172.12
517.448	1193.12
517.664	1234.12
517.879	1213.12
518.095	1256.12
518.311	1200.12
518.527	1174.12
518.742	1161.12
518.958	1122.12
519.173	1125.12
519.389	1171.12
519.605	1176.12
519.82	1162.12
520.036	1186.12
520.251	1140.12
520.467	1157.12
520.682	1202.12
520.898	1255.12
521.113	1134.12
521.329	1104.12
521.544	1175.12
521.76	1160.12
521.975	1081.12
522.19	1102.12
522.406	1122.12
522.621	1394.12
522.836	1293.12
523.052	1096.12
523.267	1111.12
523.482	1085.12
523.698	1068.12
523.913	1048.12
524.128	1079.12
524.343	1112.12
524.559	1176.12
524.774	1095.12
524.989	1060.12
525.204	1041.12
525.419	1049.12
525.634	1051.12
525.849	1085.12
526.064	1056.12
526.28	1067.12
526.495	1011.12
526.71	967.12
526.925	972.12
527.14	980.12
527.355	980.12
527.57	945.12
527.785	1002.12
527.999	983.12
528.214	975.12
528.429	1003.12
528.644	1012.12
528.859	1060.12
529.074	1084.12
529.289	1090.12
529.503	1086.12
529.718	1087.12
529.933	1008.12
530.148	1003.12
530.363	968.12
530.577	963.12
530.792	975.12
531.007	970.12
531.221	978.12
531.436	973.12
531.651	1023.12
531.865	1070.12
532.08	1002.12
532.295	948.12
532.509	946.12
532.724	924.12
532.938	996.12
533.153	1063.12
533.367	1029.12
533.582	1014.12
533.796	990.12
534.011	1003.12
534.225	983.12
534.44	963.12
534.654	937.12
534.868	968.12
535.083	1014.12
535.297	1009.12
535.511	970.12
535.726	978.12
535.94	952.12
536.154	960.12
536.369	935.12
536.583	908.12
536.797	935.12
537.011	940.12
537.225	892.12
537.44	906.12
537.654	967.12
537.868	916.12
538.082	872.12
538.296	895.12
538.51	906.12
538.724	934.12
538.938	942.12
539.153	981.12
539.367	1003.12
539.581	952.12
539.795	982.12
540.009	951.12
540.222	932.12
540.436	959.12
540.65	1070.12
540.864	1066.12
541.078	1072.12
541.292	1045.12
541.506	1049.12
541.72	1125.12
541.934	1124.12
542.147	1166.12
542.361	1131.12
542.575	1074.12
542.789	1000.12
543.002	966.12
543.216	953.12
543.43	1004.12
543.644	1074.12
543.857	1110.12
544.071	1077.12
544.285	1079.12
544.498	1075.12
544.712	1086.12
544.925	1103.12
545.139	1113.12
545.352	1049.12
545.566	1042.12
545.779	1042.12
545.993	1071.12
546.206	1106.12
546.42	1076.12
546.633	1024.12
546.847	1052.12
547.06	1078.12
547.274	1058.12
547.487	1074.12
547.7	1072.12
547.914	1061.12
548.127	1099.12
548.34	1087.12
548.554	1064.12
548.767	1072.12
548.98	1051.12
549.193	1046.12
549.407	1103.12
549.62	1086.12
549.833	1040.12
550.046	1015.12
550.259	1045.12
550.473	1004.12
550.686	1010.12
550.899	991.12
551.112	966.12
551.325	966.12
551.538	1014.12
551.751	1100.12
551.964	897.12
552.177	904.12
552.39	953.12
552.603	988.12
552.816	1028.12
553.029	1066.12
553.242	1036.12
553.455	1027.12
553.667	1049.12
553.88	1024.12
554.093	999.12
554.306	978.12
554.519	959.12
554.732	971.12
554.944	1003.12
555.157	978.12
555.37	977.12
555.583	956.12
555.795	896.12
556.008	899.12
556.221	852.12
556.433	882.12
556.646	878.12
556.859	878.12
557.071	854.12
557.284	868.12
557.496	871.12
557.709	851.12
557.921	841.12
558.134	817.12
558.346	850.12
558.559	851.12
558.771	832.12
558.984	834.12
559.196	809.12
559.409	785.12
559.621	777.12
559.833	789.12
560.046	810.12
560.258	819.12
560.47	822.12
560.683	826.12
560.895	819.12
561.107	812.12
561.32	849.12
561.532	802.12
561.744	811.12
561.956	816.12
562.168	790.12
562.381	798.12
562.593	794.12
562.805	761.12
563.017	758.12
563.229	792.12
563.441	814.12
563.653	776.12
563.865	801.12
564.077	777.12
564.289	752.12
564.501	782.12
564.713	780.12
564.925	819.12
565.137	903.12
565.349	824.12
565.561	812.12
565.773	784.12
565.985	792.12
566.197	878.12
566.408	893.12
566.62	890.12
566.832	891.12
567.044	903.12
567.255	881.12
567.467	885.12
567.679	914.12
567.891	915.12
568.102	905.12
568.314	857.12
568.526	814.12
568.737	773.12
568.949	750.12
569.161	704.12
569.372	680.12
569.584	679.12
569.795	670.12
570.007	640.12
570.218	656.12
570.43	633.12
570.641	668.12
570.853	640.12
571.064	696.12
571.276	682.12
571.487	667.12
571.698	635.12
571.91	657.12
572.121	642.12
572.333	589.12
572.544	604.12
572.755	583.12
572.966	565.12
573.178	564.12
573.389	566.12
573.6	587.12
573.811	628.12
574.023	576.12
574.234	573.12
574.445	566.12
574.656	544.12
574.867	536.12
575.078	550.12
575.289	559.12
575.501	550.12
575.712	534.12
575.923	544.12
576.134	574.12
576.345	551.12
576.556	555.12
576.767	544.12
576.978	528.12
577.188	524.12
577.399	518.12
577.61	514.12
577.821	528.12
578.032	511.12
578.243	538.12
578.454	499.12
578.665	517.12
578.875	478.12
579.086	484.12
579.297	498.12
579.508	510.12
579.718	486.12
579.929	504.12
580.14	478.12
580.35	494.12
580.561	517.12
580.772	557.12
580.982	515.12
581.193	491.12
581.403	497.12
581.614	465.12
581.825	488.12
582.035	464.12
582.246	459.12
582.456	508.12
582.667	475.12
582.877	471.12
583.087	468.12
583.298	462.12
583.508	477.12
583.719	474.12
583.929	462.12
584.139	475.12
584.35	440.12
584.56	468.12
584.77	489.12
584.981	475.12
585.191	463.12
585.401	485.12
585.611	466.12
585.821	460.12
586.032	432.12
586.242	432.12
586.452	443.12
586.662	459.12
586.872	462.12
587.082	448.12
587.292	456.12
587.502	466.12
587.713	451.12
587.923	458.12
588.133	440.12
588.343	448.12
588.553	453.12
588.762	433.12
588.972	446.12
589.182	453.12
589.392	451.12
589.602	462.12
589.812	451.12
590.022	446.12
590.232	451.12
590.441	432.12
590.651	446.12
590.861	420.12
591.071	430.12
591.281	427.12
591.49	430.12
591.7	450.12
591.91	451.12
592.119	441.12
592.329	453.12
592.539	468.12
592.748	444.12
592.958	451.12
593.167	456.12
593.377	468.12
593.587	457.12
593.796	459.12
594.006	465.12
594.215	464.12
594.424	453.12
594.634	451.12
594.843	455.12
595.053	473.12
595.262	451.12
595.472	443.12
595.681	444.12
595.89	430.12
596.1	439.12
596.309	438.12
596.518	421.12
596.727	427.12
596.937	398.12
597.146	398.12
597.355	406.12
597.564	425.12
597.774	410.12
597.983	418.12
598.192	392.12
598.401	396.12
598.61	386.12
598.819	390.12
599.028	387.12
599.237	392.12
599.446	375.12
599.655	380.12
599.864	375.12
600.073	380.12
600.282	390.12
600.491	384.12
600.7	366.12
600.909	375.12
601.118	394.12
601.327	402.12
601.536	406.12
601.745	402.12
601.953	413.12
602.162	414.12
602.371	410.12
602.58	414.12
602.789	396.12
602.997	405.12
603.206	390.12
603.415	392.12
603.623	396.12
603.832	407.12
604.041	395.12
604.249	389.12
604.458	375.12
604.666	395.12
604.875	388.12
605.084	380.12
605.292	410.12
605.501	401.12
605.709	409.12
605.918	397.12
606.126	396.12
606.334	410.12
606.543	392.12
606.751	402.12
606.96	396.12
607.168	383.12
607.376	387.12
607.585	390.12
607.793	387.12
608.001	391.12
608.21	402.12
608.418	395.12
608.626	404.12
608.834	405.12
609.043	401.12
609.251	405.12
609.459	400.12
609.667	397.12
609.875	406.12
610.083	407.12
610.291	434.12
610.499	396.12
610.707	391.12
610.916	410.12
611.124	407.12
611.332	402.12
611.54	396.12
611.748	397.12
611.955	396.12
612.163	384.12
612.371	406.12
612.579	374.12
612.787	405.12
612.995	380.12
613.203	373.12
613.411	374.12
613.618	389.12
613.826	382.12
614.034	380.12
614.242	409.12
614.449	384.12
614.657	386.12
614.865	382.12
615.072	385.12
615.28	399.12
615.488	380.12
615.695	400.12
615.903	401.12
616.111	383.12
616.318	385.12
616.526	393.12
616.733	373.12
616.941	381.12
617.148	385.12
617.356	388.12
617.563	378.12
617.771	362.12
617.978	386.12
618.185	360.12
618.393	360.12
618.6	376.12
618.807	366.12
619.015	372.12
619.222	369.12
619.429	351.12
619.637	348.12
619.844	334.12
620.051	337.12
620.258	351.12
620.466	347.12
620.673	352.12
620.88	343.12
621.087	328.12
621.294	341.12
621.501	340.12
621.708	358.12
621.915	357.12
622.122	356.12
622.329	362.12
622.536	359.12
622.743	354.12
622.95	371.12
623.157	336.12
623.364	357.12
623.571	344.12
623.778	331.12
623.985	345.12
624.192	327.12
624.399	333.12
624.606	330.12
624.812	332.12
625.019	324.12
625.226	328.12
625.433	316.12
625.639	312.12
625.846	294.12
626.053	290.12
626.259	290.12
626.466	305.12
626.673	286.12
626.879	288.12
627.086	289.12
627.293	297.12
627.499	299.12
627.706	309.12
627.912	312.12
628.119	322.12
628.325	322.12
628.532	310.12
628.738	318.12
628.945	316.12
629.151	296.12
629.357	319.12
629.564	297.12
629.77	300.12
629.976	298.12
630.183	296.12
630.389	311.12
630.595	302.12
630.802	313.12
631.008	323.12
631.214	302.12
631.42	290.12
631.627	299.12
631.833	288.12
632.039	305.12
632.245	293.12
632.451	281.12
632.657	286.12
632.863	297.12
633.069	293.12
633.275	288.12
633.481	286.12
633.688	291.12
633.893	282.12
634.099	270.12
634.305	264.12
634.511	251.12
634.717	272.12
634.923	254.12
635.129	271.12
635.335	266.12
635.541	282.12
635.747	291.12
635.952	264.12
636.158	307.12
636.364	280.12
636.57	290.12
636.775	279.12
636.981	279.12
637.187	274.12
637.392	268.12
637.598	273.12
637.804	273.12
638.009	283.12
638.215	299.12
638.421	280.12
638.626	262.12
638.832	262.12
639.037	270.12
639.243	274.12
639.448	266.12
639.654	246.12
639.859	248.12
640.065	264.12
640.27	262.12
640.475	258.12
640.681	257.12
640.886	268.12
641.091	262.12
641.297	265.12
641.502	244.12
641.707	274.12
641.913	246.12
642.118	290.12
642.323	262.12
642.528	278.12
642.733	249.12
642.939	259.12
643.144	270.12
643.349	281.12
643.554	236.12
643.759	249.12
643.964	246.12
644.169	266.12
644.374	250.12
644.579	240.12
644.784	259.12
644.989	250.12
645.194	242.12
645.399	256.12
645.604	251.12
645.809	250.12
646.014	255.12
646.219	246.12
646.423	276.12
646.628	265.12
646.833	251.12
647.038	256.12
647.243	261.12
647.447	232.12
647.652	246.12
647.857	256.12
648.062	263.12
648.266	252.12
648.471	258.12
648.676	239.12
648.88	258.12
649.085	244.12
649.289	250.12
649.494	259.12
649.698	251.12
649.903	253.12
650.107	260.12
650.312	242.12
650.516	238.12
650.721	250.12
650.925	238.12
651.13	245.12
651.334	238.12
651.539	238.12
651.743	235.12
651.947	222.12
652.152	252.12
652.356	234.12
652.56	224.12
652.764	231.12
652.969	231.12
653.173	247.12
653.377	208.12
653.581	223.12
653.785	219.12
653.99	213.12
654.194	208.12
654.398	226.12
654.602	227.12
654.806	226.12
655.01	219.12
655.214	218.12
655.418	211.12
655.622	222.12
655.826	227.12
656.03	227.12
656.234	257.12
656.438	245.12
656.642	260.12
656.846	254.12
657.049	238.12
657.253	212.12
657.457	202.12
657.661	189.12
657.865	169.12
658.068	176.12
658.272	186.12
658.476	167.12
658.68	156.12
658.883	162.12
659.087	163.12
659.291	141.12
659.494	127.12
659.698	144.12
659.901	124.12
660.105	137.12
660.309	129.12
660.512	113.12
660.716	117.12
660.919	121.12
661.123	109.12
661.326	112.12
661.53	117.12
661.733	98.12
661.936	107.12
662.14	98.12
662.343	104.12
662.546	90.12
662.75	93.12
662.953	86.12
663.156	90.12
663.36	75.12
663.563	76.12
663.766	100.12
663.969	78.12
664.173	88.12
664.376	93.12
664.579	95.12
664.782	87.12
664.985	83.12
665.188	80.12
665.391	86.12
665.594	84.12
665.797	82.12
666	85.12
666.203	89.12
666.406	82.12
666.609	84.12
666.812	103.12
667.015	90.12
667.218	84.12
667.421	74.12
667.624	87.12
667.827	87.12
668.03	94.12
668.232	87.12
668.435	78.12
668.638	74.12
668.841	81.12
669.043	76.12
669.246	78.12
669.449	78.12
669.651	75.12
669.854	71.12
670.057	82.12
670.259	82.12
670.462	79.12
670.665	84.12
670.867	72.12
671.07	87.12
671.272	75.12
671.475	79.12
671.677	84.12
671.88	81.12
672.082	86.12
672.284	81.12
672.487	69.12
672.689	72.12
672.892	89.12
