Data from WStandard_LampEnergy5.5LIBS07252019.E.O._I.C._HRD10591_16-08-43-920.txt Node
Date: Thu Jul 25 16:08:43 EDT 2019
User: cochatt
Spectrometer: HR+D1059
Trigger mode: 1
Integration Time (sec): 1.000000E-1
Scans to average: 1
Electric dark correction enabled: true
Nonlinearity correction enabled: false
Boxcar width: 0
XAxis mode: Wavelengths
Number of Pixels in Spectrum: 2048
>>>>>Begin Spectral Data<<<<<
223.165	-14.19
223.4	-14.19
223.635	-14.19
223.869	-20.19
224.104	-12.19
224.338	-9.19
224.573	-23.19
224.808	-17.19
225.042	-2.19
225.277	10.81
225.511	3.81
225.746	-10.19
225.98	9.81
226.215	18.81
226.449	6.81
226.683	18.81
226.918	14.81
227.152	24.81
227.387	37.81
227.621	45.81
227.856	49.81
228.09	52.81
228.324	60.81
228.559	65.81
228.793	149.81
229.027	375.81
229.262	363.81
229.496	365.81
229.73	373.81
229.964	418.81
230.199	440.81
230.433	451.81
230.667	492.81
230.901	512.81
231.136	470.81
231.37	444.81
231.604	452.81
231.838	450.81
232.072	452.81
232.306	428.81
232.541	460.81
232.775	516.81
233.009	604.81
233.243	563.81
233.477	522.81
233.711	530.81
233.945	564.81
234.179	520.81
234.413	568.81
234.647	618.81
234.881	564.81
235.115	521.81
235.349	530.81
235.583	550.81
235.817	556.81
236.051	551.81
236.285	523.81
236.519	583.81
236.753	657.81
236.987	662.81
237.221	644.81
237.455	728.81
237.689	692.81
237.922	654.81
238.156	628.81
238.39	636.81
238.624	681.81
238.858	704.81
239.091	721.81
239.325	765.81
239.559	876.81
239.793	932.81
240.027	1001.81
240.26	990.81
240.494	739.81
240.728	708.81
240.961	693.81
241.195	704.81
241.429	782.81
241.662	782.81
241.896	701.81
242.13	735.81
242.363	786.81
242.597	846.81
242.83	840.81
243.064	845.81
243.298	894.81
243.531	914.81
243.765	899.81
243.998	907.81
244.232	786.81
244.465	777.81
244.699	777.81
244.932	863.81
245.166	1001.81
245.399	935.81
245.633	866.81
245.866	873.81
246.099	894.81
246.333	912.81
246.566	937.81
246.8	1020.81
247.033	1116.81
247.266	1004.81
247.5	1008.81
247.733	1013.81
247.966	1061.81
248.2	1193.81
248.433	1118.81
248.666	1166.81
248.899	1258.81
249.133	1438.81
249.366	1662.81
249.599	1358.81
249.832	1166.81
250.066	1200.81
250.299	1242.81
250.532	1163.81
250.765	1063.81
250.998	1102.81
251.231	1170.81
251.465	1181.81
251.698	1107.81
251.931	1124.81
252.164	1133.81
252.397	1216.81
252.63	1200.81
252.863	1080.81
253.096	1039.81
253.329	1118.81
253.562	1164.81
253.795	1261.81
254.028	1236.81
254.261	1145.81
254.494	1138.81
254.727	1082.81
254.96	1106.81
255.193	1179.81
255.426	1327.81
255.659	1536.81
255.892	1619.81
256.124	1337.81
256.357	1271.81
256.59	1373.81
256.823	1363.81
257.056	1297.81
257.289	1638.81
257.521	1790.81
257.754	1626.81
257.987	1499.81
258.22	1708.81
258.452	1668.81
258.685	1332.81
258.918	1312.81
259.151	1357.81
259.383	1285.81
259.616	1122.81
259.849	1186.81
260.081	1360.81
260.314	1447.81
260.547	1639.81
260.779	1662.81
261.012	1515.81
261.244	1370.81
261.477	1302.81
261.71	1396.81
261.942	1373.81
262.175	1323.81
262.407	1396.81
262.64	1309.81
262.872	1250.81
263.105	1216.81
263.337	1223.81
263.57	1271.81
263.802	1248.81
264.035	1195.81
264.267	1114.81
264.499	1093.81
264.732	1187.81
264.964	1261.81
265.197	1302.81
265.429	1354.81
265.661	1506.81
265.894	1638.81
266.126	1745.81
266.358	1536.81
266.591	1604.81
266.823	1709.81
267.055	1533.81
267.287	1529.81
267.52	1506.81
267.752	1472.81
267.984	1528.81
268.216	1573.81
268.448	1604.81
268.681	1597.81
268.913	1467.81
269.145	1361.81
269.377	1350.81
269.609	1485.81
269.841	1659.81
270.073	1979.81
270.306	2165.81
270.538	2376.81
270.77	1984.81
271.002	1696.81
271.234	1585.81
271.466	1574.81
271.698	1746.81
271.93	2056.81
272.162	2126.81
272.394	1897.81
272.626	1845.81
272.858	1657.81
273.09	1398.81
273.322	1352.81
273.553	1362.81
273.785	1373.81
274.017	1364.81
274.249	1536.81
274.481	1500.81
274.713	1383.81
274.945	1353.81
275.176	1368.81
275.408	1378.81
275.64	1325.81
275.872	1331.81
276.104	1412.81
276.335	1586.81
276.567	1836.81
276.799	1863.81
277.031	1659.81
277.262	1565.81
277.494	1598.81
277.726	1780.81
277.957	1776.81
278.189	1614.81
278.421	1468.81
278.652	1441.81
278.884	1409.81
279.115	1416.81
279.347	1459.81
279.579	1443.81
279.81	1429.81
280.042	1578.81
280.273	1701.81
280.505	1703.81
280.736	1777.81
280.968	1666.81
281.199	1481.81
281.431	1369.81
281.662	1384.81
281.894	1372.81
282.125	1411.81
282.356	1472.81
282.588	1495.81
282.819	1460.81
283.051	1643.81
283.282	1737.81
283.513	1682.81
283.745	1452.81
283.976	1359.81
284.207	1384.81
284.439	1416.81
284.67	1444.81
284.901	1454.81
285.132	1505.81
285.364	1456.81
285.595	1500.81
285.826	1495.81
286.057	1485.81
286.288	1457.81
286.52	1474.81
286.751	1616.81
286.982	1675.81
287.213	1559.81
287.444	1433.81
287.675	1398.81
287.906	1473.81
288.138	1578.81
288.369	1537.81
288.6	1483.81
288.831	1439.81
289.062	1443.81
289.293	1462.81
289.524	1440.81
289.755	1525.81
289.986	1554.81
290.217	1386.81
290.448	1458.81
290.679	1469.81
290.91	1468.81
291.141	1562.81
291.371	1564.81
291.602	1565.81
291.833	1553.81
292.064	1607.81
292.295	1590.81
292.526	1593.81
292.757	1685.81
292.987	1585.81
293.218	1489.81
293.449	1622.81
293.68	1826.81
293.91	1930.81
294.141	1796.81
294.372	1668.81
294.603	1755.81
294.833	1892.81
295.064	1759.81
295.295	1598.81
295.525	1543.81
295.756	1486.81
295.987	1358.81
296.217	1399.81
296.448	1449.81
296.679	1472.81
296.909	1435.81
297.14	1446.81
297.37	1465.81
297.601	1520.81
297.831	1666.81
298.062	1651.81
298.292	1502.81
298.523	1467.81
298.753	1504.81
298.984	1474.81
299.214	1489.81
299.445	1490.81
299.675	1567.81
299.905	1543.81
300.136	1513.81
300.366	1488.81
300.597	1450.81
300.827	1413.81
301.057	1496.81
301.288	1594.81
301.518	1580.81
301.748	1605.81
301.979	1699.81
302.209	1696.81
302.439	1792.81
302.669	1899.81
302.9	1774.81
303.13	1574.81
303.36	1570.81
303.59	1653.81
303.82	1612.81
304.051	1582.81
304.281	1580.81
304.511	1573.81
304.741	1684.81
304.971	1866.81
305.201	2039.81
305.431	1881.81
305.661	1540.81
305.891	1386.81
306.121	1376.81
306.352	1462.81
306.582	1534.81
306.812	1599.81
307.042	1743.81
307.272	1739.81
307.502	1766.81
307.731	1934.81
307.961	2064.81
308.191	1928.81
308.421	1677.81
308.651	1597.81
308.881	1541.81
309.111	1496.81
309.341	1505.81
309.571	1538.81
309.8	1565.81
310.03	1515.81
310.26	1492.81
310.49	1532.81
310.72	1556.81
310.949	1632.81
311.179	1654.81
311.409	1620.81
311.639	1616.81
311.868	1548.81
312.098	1544.81
312.328	1556.81
312.557	1528.81
312.787	1562.81
313.017	1590.81
313.246	1571.81
313.476	1592.81
313.706	1652.81
313.935	1660.81
314.165	1614.81
314.394	1671.81
314.624	1737.81
314.853	1812.81
315.083	1899.81
315.312	1995.81
315.542	1845.81
315.771	1668.81
316.001	1613.81
316.23	1764.81
316.46	1722.81
316.689	1714.81
316.919	1635.81
317.148	1595.81
317.377	1594.81
317.607	1668.81
317.836	1882.81
318.065	1971.81
318.295	1913.81
318.524	1796.81
318.753	1736.81
318.983	1726.81
319.212	1740.81
319.441	1692.81
319.67	1631.81
319.9	1663.81
320.129	1768.81
320.358	1889.81
320.587	1906.81
320.816	1864.81
321.046	1831.81
321.275	1736.81
321.504	1730.81
321.733	1874.81
321.962	1846.81
322.191	1708.81
322.42	1678.81
322.649	1692.81
322.878	1649.81
323.108	1691.81
323.337	1716.81
323.566	1752.81
323.795	1699.81
324.024	1708.81
324.253	1664.81
324.482	1717.81
324.71	1678.81
324.939	1588.81
325.168	1599.81
325.397	1668.81
325.626	1755.81
325.855	1759.81
326.084	1699.81
326.313	1691.81
326.542	1694.81
326.77	1754.81
326.999	1732.81
327.228	1722.81
327.457	1620.81
327.686	1590.81
327.914	1643.81
328.143	1689.81
328.372	1640.81
328.6	1698.81
328.829	1662.81
329.058	1652.81
329.287	1605.81
329.515	1681.81
329.744	1741.81
329.972	1753.81
330.201	1908.81
330.43	1814.81
330.658	1776.81
330.887	1807.81
331.115	1799.81
331.344	1802.81
331.572	1788.81
331.801	1757.81
332.03	1773.81
332.258	1778.81
332.486	1803.81
332.715	1788.81
332.943	1841.81
333.172	1742.81
333.4	1801.81
333.629	1842.81
333.857	1905.81
334.085	2077.81
334.314	2372.81
334.542	2567.81
334.771	2390.81
334.999	2132.81
335.227	2014.81
335.455	1958.81
335.684	1871.81
335.912	1948.81
336.14	1996.81
336.369	1934.81
336.597	1819.81
336.825	1784.81
337.053	1839.81
337.281	1934.81
337.51	2025.81
337.738	2100.81
337.966	2057.81
338.194	1863.81
338.422	1776.81
338.65	1719.81
338.878	1802.81
339.106	1698.81
339.334	1688.81
339.562	1676.81
339.79	1726.81
340.018	1785.81
340.246	1844.81
340.474	1865.81
340.702	1824.81
340.93	1828.81
341.158	1831.81
341.386	1755.81
341.614	1789.81
341.842	1797.81
342.07	1771.81
342.298	1758.81
342.526	1804.81
342.754	1776.81
342.981	1690.81
343.209	1729.81
343.437	1721.81
343.665	1716.81
343.893	1821.81
344.12	1921.81
344.348	1916.81
344.576	1820.81
344.804	1720.81
345.031	1735.81
345.259	1763.81
345.487	1712.81
345.714	1635.81
345.942	1582.81
346.17	1614.81
346.397	1618.81
346.625	1676.81
346.853	1577.81
347.08	1585.81
347.308	1613.81
347.535	1610.81
347.763	1672.81
347.99	1642.81
348.218	1595.81
348.445	1592.81
348.673	1616.81
348.9	1662.81
349.128	1700.81
349.355	1763.81
349.583	1724.81
349.81	1647.81
350.037	1564.81
350.265	1536.81
350.492	1542.81
350.72	1571.81
350.947	1660.81
351.174	1698.81
351.402	1594.81
351.629	1536.81
351.856	1520.81
352.083	1534.81
352.311	1487.81
352.538	1550.81
352.765	1633.81
352.992	1690.81
353.22	1620.81
353.447	1534.81
353.674	1592.81
353.901	1606.81
354.128	1587.81
354.355	1567.81
354.583	1598.81
354.81	1675.81
355.037	1657.81
355.264	1685.81
355.491	1661.81
355.718	1628.81
355.945	1634.81
356.172	1605.81
356.399	1576.81
356.626	1565.81
356.853	1608.81
357.08	1753.81
357.307	1852.81
357.534	1942.81
357.761	1684.81
357.988	1573.81
358.215	1532.81
358.441	1546.81
358.668	1543.81
358.895	1563.81
359.122	1643.81
359.349	1790.81
359.576	1769.81
359.802	1644.81
360.029	1567.81
360.256	1521.81
360.483	1580.81
360.709	1557.81
360.936	1655.81
361.163	1719.81
361.39	1873.81
361.616	2011.81
361.843	1956.81
362.07	1869.81
362.296	1622.81
362.523	1628.81
362.749	1586.81
362.976	1635.81
363.203	1660.81
363.429	1620.81
363.656	1561.81
363.882	1603.81
364.109	1734.81
364.335	1893.81
364.562	1806.81
364.788	1724.81
365.015	1632.81
365.241	1562.81
365.468	1637.81
365.694	1644.81
365.92	1754.81
366.147	1658.81
366.373	1592.81
366.599	1560.81
366.826	1559.81
367.052	1553.81
367.278	1578.81
367.505	1598.81
367.731	1646.81
367.957	1613.81
368.184	1675.81
368.41	1778.81
368.636	1746.81
368.862	1809.81
369.089	1806.81
369.315	1738.81
369.541	1695.81
369.767	1658.81
369.993	1583.81
370.219	1607.81
370.445	1629.81
370.672	1723.81
370.898	1824.81
371.124	1827.81
371.35	1709.81
371.576	1710.81
371.802	1826.81
372.028	1746.81
372.254	1662.81
372.48	1617.81
372.706	1588.81
372.932	1604.81
373.158	1613.81
373.384	1650.81
373.61	1718.81
373.835	1753.81
374.061	1702.81
374.287	1684.81
374.513	1648.81
374.739	1683.81
374.965	1691.81
375.191	1713.81
375.416	1758.81
375.642	1757.81
375.868	1838.81
376.094	1896.81
376.319	1780.81
376.545	1687.81
376.771	1677.81
376.997	1809.81
377.222	1766.81
377.448	1755.81
377.674	1756.81
377.899	1775.81
378.125	1854.81
378.35	1885.81
378.576	1716.81
378.802	1661.81
379.027	1650.81
379.253	1696.81
379.478	1672.81
379.704	1649.81
379.929	1698.81
380.155	1694.81
380.38	1734.81
380.606	1736.81
380.831	1741.81
381.057	1793.81
381.282	1822.81
381.507	1751.81
381.733	1856.81
381.958	1959.81
382.184	1790.81
382.409	1738.81
382.634	1778.81
382.86	1804.81
383.085	1774.81
383.31	1812.81
383.535	1922.81
383.761	2073.81
383.986	1975.81
384.211	1895.81
384.436	1861.81
384.662	1960.81
384.887	2006.81
385.112	1902.81
385.337	1955.81
385.562	1920.81
385.787	1936.81
386.013	1990.81
386.238	1955.81
386.463	1945.81
386.688	2112.81
386.913	2181.81
387.138	2176.81
387.363	2001.81
387.588	1981.81
387.813	1961.81
388.038	1986.81
388.263	2066.81
388.488	2018.81
388.713	1896.81
388.938	1830.81
389.163	1844.81
389.387	1887.81
389.612	1875.81
389.837	1943.81
390.062	1968.81
390.287	1934.81
390.512	1929.81
390.736	1905.81
390.961	1860.81
391.186	1810.81
391.411	1859.81
391.636	1898.81
391.86	1917.81
392.085	1899.81
392.31	1915.81
392.534	1943.81
392.759	1965.81
392.984	1913.81
393.208	1998.81
393.433	1952.81
393.658	2046.81
393.882	2088.81
394.107	1963.81
394.331	1930.81
394.556	1899.81
394.78	1968.81
395.005	2052.81
395.229	2044.81
395.454	2193.81
395.678	2196.81
395.903	2172.81
396.127	1995.81
396.352	2065.81
396.576	2122.81
396.801	2093.81
397.025	2093.81
397.249	2141.81
397.474	2066.81
397.698	2063.81
397.922	2123.81
398.147	2232.81
398.371	2342.81
398.595	2319.81
398.82	2205.81
399.044	2245.81
399.268	2356.81
399.492	2518.81
399.717	2604.81
399.941	2625.81
400.165	2564.81
400.389	2498.81
400.613	2444.81
400.837	2656.81
401.062	3106.81
401.286	2674.81
401.51	2413.81
401.734	2530.81
401.958	2442.81
402.182	2275.81
402.406	2230.81
402.63	2171.81
402.854	2225.81
403.078	2207.81
403.302	2253.81
403.526	2315.81
403.75	2312.81
403.974	2331.81
404.198	2277.81
404.422	2375.81
404.645	2456.81
404.869	2444.81
405.093	2264.81
405.317	2248.81
405.541	2317.81
405.765	2323.81
405.988	2330.81
406.212	2357.81
406.436	2363.81
406.66	2459.81
406.883	2466.81
407.107	2719.81
407.331	2964.81
407.555	3186.81
407.778	3008.81
408.002	2537.81
408.226	2419.81
408.449	2458.81
408.673	2389.81
408.896	2315.81
409.12	2417.81
409.344	2342.81
409.567	2260.81
409.791	2331.81
410.014	2348.81
410.238	2449.81
410.461	2614.81
410.685	2345.81
410.908	2287.81
411.132	2257.81
411.355	2322.81
411.578	2224.81
411.802	2230.81
412.025	2285.81
412.249	2259.81
412.472	2179.81
412.695	2157.81
412.919	2160.81
413.142	2182.81
413.365	2190.81
413.589	2249.81
413.812	2358.81
414.035	2430.81
414.258	2258.81
414.482	2220.81
414.705	2192.81
414.928	2174.81
415.151	2186.81
415.374	2169.81
415.597	2197.81
415.821	2245.81
416.044	2320.81
416.267	2308.81
416.49	2158.81
416.713	2083.81
416.936	2154.81
417.159	2226.81
417.382	2251.81
417.605	2119.81
417.828	2178.81
418.051	2254.81
418.274	2171.81
418.497	2098.81
418.72	2112.81
418.943	2082.81
419.166	2240.81
419.389	2357.81
419.611	2240.81
419.834	2168.81
420.057	2155.81
420.28	2091.81
420.503	2099.81
420.726	2129.81
420.948	2176.81
421.171	2110.81
421.394	2108.81
421.617	2196.81
421.839	2162.81
422.062	2148.81
422.285	2090.81
422.507	2099.81
422.73	2032.81
422.953	2020.81
423.175	2020.81
423.398	2139.81
423.621	2106.81
423.843	2133.81
424.066	2144.81
424.288	2209.81
424.511	2258.81
424.733	2222.81
424.956	2004.81
425.178	2001.81
425.401	2054.81
425.623	2044.81
425.846	2026.81
426.068	2200.81
426.291	2212.81
426.513	2176.81
426.735	2157.81
426.958	2214.81
427.18	2436.81
427.402	2199.81
427.625	2267.81
427.847	2255.81
428.069	2132.81
428.292	2066.81
428.514	1994.81
428.736	2014.81
428.958	2074.81
429.181	2042.81
429.403	2275.81
429.625	2872.81
429.847	2508.81
430.069	2100.81
430.292	2318.81
430.514	2387.81
430.736	2234.81
430.958	2258.81
431.18	2216.81
431.402	2024.81
431.624	2001.81
431.846	2007.81
432.068	1996.81
432.29	2039.81
432.512	2055.81
432.734	2093.81
432.956	2112.81
433.178	2197.81
433.4	2198.81
433.622	2176.81
433.844	2106.81
434.066	2015.81
434.287	2012.81
434.509	2124.81
434.731	2185.81
434.953	2329.81
435.175	2314.81
435.397	2156.81
435.618	2168.81
435.84	2200.81
436.062	2151.81
436.284	2141.81
436.505	2180.81
436.727	2213.81
436.949	2094.81
437.17	2028.81
437.392	2044.81
437.614	2107.81
437.835	2007.81
438.057	2164.81
438.278	2198.81
438.5	2090.81
438.721	2039.81
438.943	2049.81
439.165	2062.81
439.386	1991.81
439.608	1952.81
439.829	2020.81
440.05	2028.81
440.272	2024.81
440.493	1952.81
440.715	2027.81
440.936	2145.81
441.158	2402.81
441.379	2276.81
441.6	2236.81
441.822	2230.81
442.043	2226.81
442.264	2152.81
442.486	2043.81
442.707	2005.81
442.928	1996.81
443.149	2068.81
443.371	2214.81
443.592	2305.81
443.813	2240.81
444.034	2234.81
444.255	2266.81
444.476	2268.81
444.698	2364.81
444.919	2264.81
445.14	2461.81
445.361	2422.81
445.582	2426.81
445.803	2344.81
446.024	2212.81
446.245	2349.81
446.466	2252.81
446.687	2101.81
446.908	2098.81
447.129	2051.81
447.35	2129.81
447.571	2067.81
447.792	1986.81
448.013	1943.81
448.234	2038.81
448.455	2129.81
448.675	2085.81
448.896	1948.81
449.117	1922.81
449.338	1975.81
449.559	2050.81
449.779	2168.81
450	2413.81
450.221	2569.81
450.442	2459.81
450.662	2188.81
450.883	1940.81
451.104	1874.81
451.324	1942.81
451.545	2013.81
451.766	2024.81
451.986	1876.81
452.207	1888.81
452.428	1831.81
452.648	1780.81
452.869	1826.81
453.089	1977.81
453.31	1997.81
453.53	2033.81
453.751	1950.81
453.971	1859.81
454.192	1930.81
454.412	2004.81
454.633	1944.81
454.853	1897.81
455.073	1768.81
455.294	1757.81
455.514	1793.81
455.734	1790.81
455.955	1813.81
456.175	1797.81
456.395	1820.81
456.616	1879.81
456.836	1918.81
457.056	1861.81
457.276	1856.81
457.497	1820.81
457.717	1734.81
457.937	1782.81
458.157	1845.81
458.377	1836.81
458.598	1828.81
458.818	1850.81
459.038	1944.81
459.258	2060.81
459.478	2079.81
459.698	1990.81
459.918	2027.81
460.138	2099.81
460.358	2203.81
460.578	2194.81
460.798	2263.81
461.018	2407.81
461.238	2281.81
461.458	2168.81
461.678	2208.81
461.898	2163.81
462.118	2060.81
462.338	2192.81
462.558	2173.81
462.777	2153.81
462.997	2247.81
463.217	2442.81
463.437	2429.81
463.657	2241.81
463.876	2232.81
464.096	2166.81
464.316	2226.81
464.536	2260.81
464.755	2273.81
464.975	2317.81
465.195	2239.81
465.414	2324.81
465.634	2282.81
465.854	2202.81
466.073	2289.81
466.293	2274.81
466.512	1982.81
466.732	1954.81
466.951	2077.81
467.171	2068.81
467.391	1962.81
467.61	1918.81
467.829	1997.81
468.049	2129.81
468.268	2307.81
468.488	2240.81
468.707	2102.81
468.927	2054.81
469.146	1960.81
469.365	1946.81
469.585	2006.81
469.804	1933.81
470.023	1972.81
470.243	2003.81
470.462	1972.81
470.681	1905.81
470.901	1984.81
471.12	2054.81
471.339	1952.81
471.558	1916.81
471.777	1870.81
471.997	1924.81
472.216	1927.81
472.435	1886.81
472.654	1900.81
472.873	2005.81
473.092	2141.81
473.311	2054.81
473.53	1880.81
473.749	1898.81
473.968	1985.81
474.187	2061.81
474.406	2137.81
474.625	2066.81
474.844	1998.81
475.063	2043.81
475.282	2052.81
475.501	2037.81
475.72	2008.81
475.939	2108.81
476.158	2073.81
476.377	2056.81
476.596	2026.81
476.814	2109.81
477.033	2094.81
477.252	2187.81
477.471	2240.81
477.69	2137.81
477.908	2100.81
478.127	2221.81
478.346	2382.81
478.564	2376.81
478.783	2373.81
479.002	2432.81
479.22	2349.81
479.439	2467.81
479.658	2811.81
479.876	2764.81
480.095	2422.81
480.313	2284.81
480.532	2232.81
480.751	2271.81
480.969	2278.81
481.188	2251.81
481.406	2286.81
481.624	2197.81
481.843	2195.81
482.061	2250.81
482.28	2285.81
482.498	2312.81
482.717	2338.81
482.935	2209.81
483.153	2233.81
483.372	2208.81
483.59	2193.81
483.808	2214.81
484.027	2314.81
484.245	2418.81
484.463	2734.81
484.681	3131.81
484.9	2474.81
485.118	2322.81
485.336	2288.81
485.554	2328.81
485.772	2434.81
485.99	2492.81
486.209	2420.81
486.427	2356.81
486.645	2392.81
486.863	2376.81
487.081	2395.81
487.299	2450.81
487.517	2410.81
487.735	2324.81
487.953	2323.81
488.171	2290.81
488.389	2349.81
488.607	2314.81
488.825	2548.81
489.043	2578.81
489.261	2353.81
489.479	2478.81
489.696	2457.81
489.914	2424.81
490.132	2420.81
490.35	2348.81
490.568	2430.81
490.786	2362.81
491.003	2286.81
491.221	2348.81
491.439	2449.81
491.657	2398.81
491.874	2386.81
492.092	2443.81
492.31	2422.81
492.527	2387.81
492.745	2393.81
492.963	2406.81
493.18	2437.81
493.398	2598.81
493.615	2716.81
493.833	2466.81
494.05	2386.81
494.268	2423.81
494.485	2472.81
494.703	2433.81
494.92	2376.81
495.138	2406.81
495.355	2427.81
495.573	2488.81
495.79	2659.81
496.008	2668.81
496.225	2569.81
496.442	2515.81
496.66	2586.81
496.877	2536.81
497.094	2601.81
497.312	2628.81
497.529	2624.81
497.746	2757.81
497.963	3165.81
498.181	3508.81
498.398	3230.81
498.615	3172.81
498.832	3101.81
499.049	3060.81
499.267	3040.81
499.484	3245.81
499.701	3545.81
499.918	3637.81
500.135	3899.81
500.352	4178.81
500.569	4100.81
500.786	4312.81
501.003	4080.81
501.22	3686.81
501.437	3588.81
501.654	3555.81
501.871	3510.81
502.088	3082.81
502.305	3045.81
502.522	2980.81
502.739	2780.81
502.956	2692.81
503.172	2674.81
503.389	2571.81
503.606	2553.81
503.823	2588.81
504.04	2584.81
504.256	2538.81
504.473	2594.81
504.69	2679.81
504.907	2557.81
505.123	2435.81
505.34	2459.81
505.557	3224.81
505.773	2756.81
505.99	2364.81
506.207	2204.81
506.423	2235.81
506.64	2194.81
506.856	2200.81
507.073	2448.81
507.289	2668.81
507.506	2562.81
507.722	2172.81
507.939	2101.81
508.155	2142.81
508.372	2132.81
508.588	2050.81
508.805	2072.81
509.021	2021.81
509.238	1988.81
509.454	1983.81
509.67	1979.81
509.887	1966.81
510.103	1971.81
510.319	1988.81
510.536	2079.81
510.752	2132.81
510.968	2152.81
511.184	2265.81
511.401	2267.81
511.617	1962.81
511.833	1924.81
512.049	1932.81
512.265	1888.81
512.481	1911.81
512.698	1990.81
512.914	2132.81
513.13	2036.81
513.346	2026.81
513.562	1904.81
513.778	1954.81
513.994	2021.81
514.21	2126.81
514.426	2111.81
514.642	2347.81
514.858	2218.81
515.074	1989.81
515.29	1922.81
515.506	2007.81
515.721	2033.81
515.937	2075.81
516.153	2330.81
516.369	2255.81
516.585	2126.81
516.801	2008.81
517.016	2042.81
517.232	2124.81
517.448	2123.81
517.664	2135.81
517.879	2147.81
518.095	2235.81
518.311	2146.81
518.527	2029.81
518.742	1989.81
518.958	1948.81
519.173	1921.81
519.389	2007.81
519.605	2033.81
519.82	2035.81
520.036	2022.81
520.251	1948.81
520.467	1948.81
520.682	2126.81
520.898	2174.81
521.113	1969.81
521.329	1933.81
521.544	2062.81
521.76	2004.81
521.975	1903.81
522.19	1873.81
522.406	1844.81
522.621	2206.81
522.836	2226.81
523.052	1854.81
523.267	1840.81
523.482	1857.81
523.698	1779.81
523.913	1738.81
524.128	1762.81
524.343	1904.81
524.559	1950.81
524.774	1802.81
524.989	1750.81
525.204	1764.81
525.419	1764.81
525.634	1701.81
525.849	1771.81
526.064	1773.81
526.28	1816.81
526.495	1725.81
526.71	1694.81
526.925	1762.81
527.14	1718.81
527.355	1719.81
527.57	1649.81
527.785	1754.81
527.999	1700.81
528.214	1676.81
528.429	1646.81
528.644	1659.81
528.859	1643.81
529.074	1671.81
529.289	1687.81
529.503	1739.81
529.718	1717.81
529.933	1730.81
530.148	1641.81
530.363	1633.81
530.577	1687.81
530.792	1702.81
531.007	1747.81
531.221	1715.81
531.436	1718.81
531.651	1761.81
531.865	1836.81
532.08	1738.81
532.295	1678.81
532.509	1607.81
532.724	1636.81
532.938	1679.81
533.153	1798.81
533.367	1735.81
533.582	1680.81
533.796	1674.81
534.011	1690.81
534.225	1699.81
534.44	1651.81
534.654	1660.81
534.868	1640.81
535.083	1688.81
535.297	1725.81
535.511	1703.81
535.726	1665.81
535.94	1641.81
536.154	1613.81
536.369	1640.81
536.583	1607.81
536.797	1596.81
537.011	1620.81
537.225	1614.81
537.44	1587.81
537.654	1661.81
537.868	1600.81
538.082	1507.81
538.296	1510.81
538.51	1508.81
538.724	1542.81
538.938	1545.81
539.153	1594.81
539.367	1590.81
539.581	1572.81
539.795	1638.81
540.009	1596.81
540.222	1562.81
540.436	1616.81
540.65	1739.81
540.864	1728.81
541.078	1662.81
541.292	1546.81
541.506	1528.81
541.72	1572.81
541.934	1590.81
542.147	1610.81
542.361	1552.81
542.575	1548.81
542.789	1516.81
543.002	1462.81
543.216	1526.81
543.43	1623.81
543.644	1652.81
543.857	1692.81
544.071	1630.81
544.285	1618.81
544.498	1579.81
544.712	1550.81
544.925	1593.81
545.139	1613.81
545.352	1549.81
545.566	1492.81
545.779	1437.81
545.993	1503.81
546.206	1526.81
546.42	1504.81
546.633	1408.81
546.847	1456.81
547.06	1478.81
547.274	1481.81
547.487	1464.81
547.7	1445.81
547.914	1500.81
548.127	1509.81
548.34	1534.81
548.554	1489.81
548.767	1492.81
548.98	1468.81
549.193	1529.81
549.407	1570.81
549.62	1562.81
549.833	1505.81
550.046	1472.81
550.259	1466.81
550.473	1488.81
550.686	1473.81
550.899	1457.81
551.112	1404.81
551.325	1401.81
551.538	1522.81
551.751	1732.81
551.964	1480.81
552.177	1410.81
552.39	1415.81
552.603	1453.81
552.816	1470.81
553.029	1550.81
553.242	1574.81
553.455	1503.81
553.667	1440.81
553.88	1475.81
554.093	1433.81
554.306	1406.81
554.519	1350.81
554.732	1350.81
554.944	1357.81
555.157	1410.81
555.37	1374.81
555.583	1390.81
555.795	1365.81
556.008	1316.81
556.221	1306.81
556.433	1260.81
556.646	1274.81
556.859	1270.81
557.071	1292.81
557.284	1252.81
557.496	1268.81
557.709	1226.81
557.921	1223.81
558.134	1240.81
558.346	1210.81
558.559	1245.81
558.771	1221.81
558.984	1188.81
559.196	1174.81
559.409	1201.81
559.621	1190.81
559.833	1229.81
560.046	1239.81
560.258	1221.81
560.47	1186.81
560.683	1227.81
560.895	1167.81
561.107	1223.81
561.32	1232.81
561.532	1239.81
561.744	1207.81
561.956	1262.81
562.168	1207.81
562.381	1168.81
562.593	1181.81
562.805	1168.81
563.017	1166.81
563.229	1162.81
563.441	1198.81
563.653	1136.81
563.865	1181.81
564.077	1194.81
564.289	1182.81
564.501	1208.81
564.713	1229.81
564.925	1272.81
565.137	1362.81
565.349	1266.81
565.561	1246.81
565.773	1310.81
565.985	1317.81
566.197	1326.81
566.408	1433.81
566.62	1446.81
566.832	1438.81
567.044	1426.81
567.255	1431.81
567.467	1434.81
567.679	1488.81
567.891	1520.81
568.102	1504.81
568.314	1467.81
568.526	1360.81
568.737	1311.81
568.949	1218.81
569.161	1220.81
569.372	1156.81
569.584	1138.81
569.795	1167.81
570.007	1132.81
570.218	1088.81
570.43	1094.81
570.641	1060.81
570.853	1098.81
571.064	1100.81
571.276	1083.81
571.487	1053.81
571.698	1032.81
571.91	997.81
572.121	1001.81
572.333	992.81
572.544	978.81
572.755	928.81
572.966	954.81
573.178	950.81
573.389	952.81
573.6	983.81
573.811	1069.81
574.023	972.81
574.234	948.81
574.445	931.81
574.656	903.81
574.867	905.81
575.078	922.81
575.289	933.81
575.501	881.81
575.712	841.81
575.923	924.81
576.134	923.81
576.345	891.81
576.556	886.81
576.767	875.81
576.978	875.81
577.188	862.81
577.399	846.81
577.61	842.81
577.821	867.81
578.032	837.81
578.243	862.81
578.454	824.81
578.665	834.81
578.875	800.81
579.086	810.81
579.297	827.81
579.508	857.81
579.718	829.81
579.929	843.81
580.14	798.81
580.35	783.81
580.561	826.81
580.772	915.81
580.982	818.81
581.193	812.81
581.403	761.81
581.614	785.81
581.825	789.81
582.035	761.81
582.246	764.81
582.456	817.81
582.667	790.81
582.877	760.81
583.087	761.81
583.298	772.81
583.508	776.81
583.719	787.81
583.929	776.81
584.139	741.81
584.35	739.81
584.56	753.81
584.77	758.81
584.981	778.81
585.191	746.81
585.401	764.81
585.611	746.81
585.821	756.81
586.032	725.81
586.242	744.81
586.452	729.81
586.662	748.81
586.872	713.81
587.082	729.81
587.292	755.81
587.502	738.81
587.713	783.81
587.923	738.81
588.133	732.81
588.343	772.81
588.553	703.81
588.762	732.81
588.972	728.81
589.182	745.81
589.392	749.81
589.602	769.81
589.812	731.81
590.022	685.81
590.232	720.81
590.441	723.81
590.651	743.81
590.861	737.81
591.071	718.81
591.281	708.81
591.49	731.81
591.7	726.81
591.91	710.81
592.119	693.81
592.329	776.81
592.539	741.81
592.748	747.81
592.958	755.81
593.167	783.81
593.377	776.81
593.587	770.81
593.796	750.81
594.006	764.81
594.215	760.81
594.424	748.81
594.634	765.81
594.843	742.81
595.053	761.81
595.262	749.81
595.472	701.81
595.681	717.81
595.89	716.81
596.1	679.81
596.309	704.81
596.518	668.81
596.727	678.81
596.937	672.81
597.146	657.81
597.355	638.81
597.564	630.81
597.774	645.81
597.983	605.81
598.192	610.81
598.401	625.81
598.61	630.81
598.819	620.81
599.028	602.81
599.237	615.81
599.446	612.81
599.655	592.81
599.864	593.81
600.073	598.81
600.282	613.81
600.491	590.81
600.7	601.81
600.909	615.81
601.118	598.81
601.327	599.81
601.536	593.81
601.745	594.81
601.953	588.81
602.162	609.81
602.371	601.81
602.58	609.81
602.789	581.81
602.997	565.81
603.206	579.81
603.415	582.81
603.623	579.81
603.832	580.81
604.041	566.81
604.249	555.81
604.458	552.81
604.666	574.81
604.875	568.81
605.084	576.81
605.292	592.81
605.501	552.81
605.709	563.81
605.918	551.81
606.126	582.81
606.334	570.81
606.543	544.81
606.751	557.81
606.96	563.81
607.168	548.81
607.376	552.81
607.585	536.81
607.793	530.81
608.001	534.81
608.21	550.81
608.418	533.81
608.626	534.81
608.834	523.81
609.043	539.81
609.251	536.81
609.459	527.81
609.667	530.81
609.875	555.81
610.083	551.81
610.291	555.81
610.499	564.81
610.707	533.81
610.916	530.81
611.124	546.81
611.332	533.81
611.54	532.81
611.748	514.81
611.955	505.81
612.163	491.81
612.371	512.81
612.579	515.81
612.787	523.81
612.995	503.81
613.203	526.81
613.411	519.81
613.618	520.81
613.826	534.81
614.034	516.81
614.242	493.81
614.449	501.81
614.657	509.81
614.865	491.81
615.072	505.81
615.28	506.81
615.488	507.81
615.695	545.81
615.903	533.81
616.111	489.81
616.318	509.81
616.526	516.81
616.733	504.81
616.941	487.81
617.148	508.81
617.356	513.81
617.563	493.81
617.771	489.81
617.978	498.81
618.185	481.81
618.393	506.81
618.6	493.81
618.807	468.81
619.015	496.81
619.222	487.81
619.429	481.81
619.637	466.81
619.844	497.81
620.051	477.81
620.258	457.81
620.466	445.81
620.673	447.81
620.88	442.81
621.087	434.81
621.294	433.81
621.501	457.81
621.708	453.81
621.915	449.81
622.122	456.81
622.329	462.81
622.536	444.81
622.743	438.81
622.95	460.81
623.157	446.81
623.364	447.81
623.571	438.81
623.778	449.81
623.985	449.81
624.192	420.81
624.399	441.81
624.606	430.81
624.812	438.81
625.019	425.81
625.226	426.81
625.433	415.81
625.639	419.81
625.846	420.81
626.053	420.81
626.259	414.81
626.466	414.81
626.673	406.81
626.879	413.81
627.086	419.81
627.293	429.81
627.499	413.81
627.706	397.81
627.912	399.81
628.119	412.81
628.325	404.81
628.532	398.81
628.738	413.81
628.945	405.81
629.151	416.81
629.357	397.81
629.564	398.81
629.77	376.81
629.976	390.81
630.183	397.81
630.389	393.81
630.595	408.81
630.802	390.81
631.008	397.81
631.214	388.81
631.42	382.81
631.627	371.81
631.833	356.81
632.039	375.81
632.245	382.81
632.451	374.81
632.657	358.81
632.863	360.81
633.069	377.81
633.275	368.81
633.481	358.81
633.688	360.81
633.893	368.81
634.099	384.81
634.305	359.81
634.511	341.81
634.717	341.81
634.923	350.81
635.129	323.81
635.335	321.81
635.541	348.81
635.747	361.81
635.952	358.81
636.158	344.81
636.364	344.81
636.57	332.81
636.775	342.81
636.981	330.81
637.187	350.81
637.392	349.81
637.598	339.81
637.804	334.81
638.009	337.81
638.215	345.81
638.421	333.81
638.626	338.81
638.832	323.81
639.037	318.81
639.243	330.81
639.448	323.81
639.654	333.81
639.859	318.81
640.065	345.81
640.27	326.81
640.475	333.81
640.681	324.81
640.886	332.81
641.091	304.81
641.297	316.81
641.502	320.81
641.707	331.81
641.913	323.81
642.118	317.81
642.323	305.81
642.528	315.81
642.733	316.81
642.939	309.81
643.144	324.81
643.349	307.81
643.554	297.81
643.759	314.81
643.964	309.81
644.169	294.81
644.374	336.81
644.579	328.81
644.784	318.81
644.989	297.81
645.194	300.81
645.399	316.81
645.604	307.81
645.809	301.81
646.014	316.81
646.219	318.81
646.423	312.81
646.628	295.81
646.833	309.81
647.038	321.81
647.243	301.81
647.447	321.81
647.652	308.81
647.857	315.81
648.062	302.81
648.266	308.81
648.471	314.81
648.676	320.81
648.88	312.81
649.085	304.81
649.289	302.81
649.494	306.81
649.698	297.81
649.903	295.81
650.107	303.81
650.312	302.81
650.516	294.81
650.721	291.81
650.925	300.81
651.13	294.81
651.334	291.81
651.539	261.81
651.743	267.81
651.947	273.81
652.152	258.81
652.356	268.81
652.56	244.81
652.764	246.81
652.969	246.81
653.173	256.81
653.377	227.81
653.581	244.81
653.785	243.81
653.99	231.81
654.194	256.81
654.398	246.81
654.602	250.81
654.806	230.81
655.01	245.81
655.214	229.81
655.418	236.81
655.622	259.81
655.826	247.81
656.03	250.81
656.234	251.81
656.438	272.81
656.642	270.81
656.846	266.81
657.049	233.81
657.253	227.81
657.457	206.81
657.661	201.81
657.865	189.81
658.068	168.81
658.272	167.81
658.476	160.81
658.68	143.81
658.883	152.81
659.087	152.81
659.291	148.81
659.494	132.81
659.698	128.81
659.901	119.81
660.105	126.81
660.309	125.81
660.512	118.81
660.716	114.81
660.919	109.81
661.123	120.81
661.326	114.81
661.53	110.81
661.733	98.81
661.936	85.81
662.14	87.81
662.343	106.81
662.546	89.81
662.75	93.81
662.953	98.81
663.156	92.81
663.36	74.81
663.563	97.81
663.766	83.81
663.969	82.81
664.173	84.81
664.376	90.81
664.579	94.81
664.782	92.81
664.985	100.81
665.188	89.81
665.391	84.81
665.594	74.81
665.797	81.81
666	80.81
666.203	84.81
666.406	74.81
666.609	88.81
666.812	89.81
667.015	90.81
667.218	81.81
667.421	76.81
667.624	86.81
667.827	84.81
668.03	78.81
668.232	93.81
668.435	77.81
668.638	82.81
668.841	104.81
669.043	81.81
669.246	80.81
669.449	86.81
669.651	78.81
669.854	85.81
670.057	78.81
670.259	76.81
670.462	93.81
670.665	80.81
670.867	73.81
671.07	93.81
671.272	76.81
671.475	87.81
671.677	76.81
671.88	91.81
672.082	86.81
672.284	85.81
672.487	82.81
672.689	95.81
672.892	100.81
