Data from WStandard_LampEnergy5.5LIBS07252019.E.O._I.C._HRD10591_16-09-24-920.txt Node
Date: Thu Jul 25 16:09:24 EDT 2019
User: cochatt
Spectrometer: HR+D1059
Trigger mode: 1
Integration Time (sec): 1.000000E-1
Scans to average: 1
Electric dark correction enabled: true
Nonlinearity correction enabled: false
Boxcar width: 0
XAxis mode: Wavelengths
Number of Pixels in Spectrum: 2048
>>>>>Begin Spectral Data<<<<<
223.165	-15.06
223.4	-15.06
223.635	-15.06
223.869	-22.06
224.104	-20.06
224.338	-22.06
224.573	-24.06
224.808	-12.06
225.042	-3.06
225.277	-7.06
225.511	1.94
225.746	5.94
225.98	18.94
226.215	7.94
226.449	18.94
226.683	19.94
226.918	31.94
227.152	19.94
227.387	30.94
227.621	18.94
227.856	30.94
228.09	46.94
228.324	43.94
228.559	60.94
228.793	136.94
229.027	346.94
229.262	328.94
229.496	354.94
229.73	370.94
229.964	403.94
230.199	436.94
230.433	427.94
230.667	450.94
230.901	515.94
231.136	450.94
231.37	438.94
231.604	431.94
231.838	426.94
232.072	443.94
232.306	427.94
232.541	451.94
232.775	542.94
233.009	568.94
233.243	540.94
233.477	477.94
233.711	515.94
233.945	529.94
234.179	533.94
234.413	551.94
234.647	594.94
234.881	574.94
235.115	499.94
235.349	546.94
235.583	529.94
235.817	510.94
236.051	509.94
236.285	523.94
236.519	570.94
236.753	607.94
236.987	639.94
237.221	636.94
237.455	724.94
237.689	657.94
237.922	635.94
238.156	615.94
238.39	636.94
238.624	650.94
238.858	687.94
239.091	721.94
239.325	766.94
239.559	864.94
239.793	893.94
240.027	997.94
240.26	988.94
240.494	693.94
240.728	670.94
240.961	671.94
241.195	679.94
241.429	770.94
241.662	763.94
241.896	705.94
242.13	732.94
242.363	786.94
242.597	854.94
242.83	824.94
243.064	826.94
243.298	880.94
243.531	878.94
243.765	869.94
243.998	852.94
244.232	786.94
244.465	725.94
244.699	750.94
244.932	857.94
245.166	980.94
245.399	923.94
245.633	878.94
245.866	849.94
246.099	880.94
246.333	878.94
246.566	905.94
246.8	988.94
247.033	1067.94
247.266	1025.94
247.5	995.94
247.733	992.94
247.966	1049.94
248.2	1170.94
248.433	1124.94
248.666	1156.94
248.899	1239.94
249.133	1425.94
249.366	1622.94
249.599	1344.94
249.832	1166.94
250.066	1162.94
250.299	1216.94
250.532	1116.94
250.765	1022.94
250.998	1046.94
251.231	1116.94
251.465	1137.94
251.698	1111.94
251.931	1090.94
252.164	1135.94
252.397	1198.94
252.63	1182.94
252.863	1074.94
253.096	1026.94
253.329	1075.94
253.562	1113.94
253.795	1202.94
254.028	1200.94
254.261	1106.94
254.494	1121.94
254.727	1044.94
254.96	1082.94
255.193	1184.94
255.426	1342.94
255.659	1545.94
255.892	1584.94
256.124	1325.94
256.357	1258.94
256.59	1352.94
256.823	1350.94
257.056	1355.94
257.289	1593.94
257.521	1804.94
257.754	1600.94
257.987	1494.94
258.22	1657.94
258.452	1643.94
258.685	1332.94
258.918	1308.94
259.151	1361.94
259.383	1255.94
259.616	1115.94
259.849	1139.94
260.081	1271.94
260.314	1478.94
260.547	1580.94
260.779	1627.94
261.012	1541.94
261.244	1365.94
261.477	1273.94
261.71	1346.94
261.942	1336.94
262.175	1264.94
262.407	1391.94
262.64	1328.94
262.872	1232.94
263.105	1195.94
263.337	1206.94
263.57	1218.94
263.802	1246.94
264.035	1184.94
264.267	1100.94
264.499	1082.94
264.732	1142.94
264.964	1205.94
265.197	1267.94
265.429	1326.94
265.661	1491.94
265.894	1656.94
266.126	1676.94
266.358	1481.94
266.591	1557.94
266.823	1684.94
267.055	1538.94
267.287	1475.94
267.52	1502.94
267.752	1479.94
267.984	1447.94
268.216	1540.94
268.448	1569.94
268.681	1574.94
268.913	1394.94
269.145	1323.94
269.377	1313.94
269.609	1420.94
269.841	1658.94
270.073	1926.94
270.306	2124.94
270.538	2293.94
270.77	1905.94
271.002	1623.94
271.234	1569.94
271.466	1534.94
271.698	1728.94
271.93	2039.94
272.162	2095.94
272.394	1879.94
272.626	1822.94
272.858	1610.94
273.09	1386.94
273.322	1343.94
273.553	1265.94
273.785	1318.94
274.017	1382.94
274.249	1474.94
274.481	1486.94
274.713	1370.94
274.945	1329.94
275.176	1324.94
275.408	1329.94
275.64	1301.94
275.872	1252.94
276.104	1360.94
276.335	1545.94
276.567	1753.94
276.799	1794.94
277.031	1608.94
277.262	1514.94
277.494	1553.94
277.726	1742.94
277.957	1762.94
278.189	1548.94
278.421	1448.94
278.652	1418.94
278.884	1407.94
279.115	1367.94
279.347	1410.94
279.579	1390.94
279.81	1371.94
280.042	1563.94
280.273	1706.94
280.505	1672.94
280.736	1712.94
280.968	1637.94
281.199	1436.94
281.431	1363.94
281.662	1360.94
281.894	1405.94
282.125	1429.94
282.356	1459.94
282.588	1467.94
282.819	1466.94
283.051	1568.94
283.282	1715.94
283.513	1642.94
283.745	1451.94
283.976	1347.94
284.207	1321.94
284.439	1383.94
284.67	1408.94
284.901	1456.94
285.132	1497.94
285.364	1441.94
285.595	1479.94
285.826	1456.94
286.057	1418.94
286.288	1425.94
286.52	1491.94
286.751	1603.94
286.982	1632.94
287.213	1494.94
287.444	1417.94
287.675	1379.94
287.906	1446.94
288.138	1575.94
288.369	1496.94
288.6	1430.94
288.831	1400.94
289.062	1410.94
289.293	1440.94
289.524	1442.94
289.755	1502.94
289.986	1502.94
290.217	1368.94
290.448	1398.94
290.679	1444.94
290.91	1440.94
291.141	1514.94
291.371	1519.94
291.602	1488.94
291.833	1519.94
292.064	1560.94
292.295	1547.94
292.526	1575.94
292.757	1612.94
292.987	1536.94
293.218	1466.94
293.449	1592.94
293.68	1764.94
293.91	1956.94
294.141	1759.94
294.372	1684.94
294.603	1724.94
294.833	1801.94
295.064	1721.94
295.295	1558.94
295.525	1510.94
295.756	1418.94
295.987	1351.94
296.217	1370.94
296.448	1437.94
296.679	1446.94
296.909	1450.94
297.14	1444.94
297.37	1419.94
297.601	1478.94
297.831	1588.94
298.062	1652.94
298.292	1490.94
298.523	1437.94
298.753	1481.94
298.984	1458.94
299.214	1450.94
299.445	1491.94
299.675	1596.94
299.905	1570.94
300.136	1500.94
300.366	1422.94
300.597	1431.94
300.827	1379.94
301.057	1490.94
301.288	1532.94
301.518	1568.94
301.748	1579.94
301.979	1633.94
302.209	1668.94
302.439	1753.94
302.669	1822.94
302.9	1688.94
303.13	1588.94
303.36	1550.94
303.59	1586.94
303.82	1548.94
304.051	1590.94
304.281	1566.94
304.511	1558.94
304.741	1631.94
304.971	1799.94
305.201	1952.94
305.431	1835.94
305.661	1506.94
305.891	1406.94
306.121	1364.94
306.352	1415.94
306.582	1526.94
306.812	1607.94
307.042	1751.94
307.272	1709.94
307.502	1761.94
307.731	1844.94
307.961	2002.94
308.191	1907.94
308.421	1636.94
308.651	1552.94
308.881	1548.94
309.111	1508.94
309.341	1479.94
309.571	1512.94
309.8	1480.94
310.03	1478.94
310.26	1478.94
310.49	1458.94
310.72	1539.94
310.949	1596.94
311.179	1602.94
311.409	1566.94
311.639	1532.94
311.868	1500.94
312.098	1544.94
312.328	1511.94
312.557	1498.94
312.787	1552.94
313.017	1591.94
313.246	1604.94
313.476	1564.94
313.706	1586.94
313.935	1597.94
314.165	1610.94
314.394	1615.94
314.624	1705.94
314.853	1810.94
315.083	1864.94
315.312	1963.94
315.542	1846.94
315.771	1652.94
316.001	1600.94
316.23	1718.94
316.46	1691.94
316.689	1671.94
316.919	1656.94
317.148	1571.94
317.377	1593.94
317.607	1719.94
317.836	1860.94
318.065	1963.94
318.295	1875.94
318.524	1824.94
318.753	1691.94
318.983	1695.94
319.212	1653.94
319.441	1656.94
319.67	1621.94
319.9	1634.94
320.129	1724.94
320.358	1802.94
320.587	1851.94
320.816	1800.94
321.046	1767.94
321.275	1674.94
321.504	1725.94
321.733	1843.94
321.962	1848.94
322.191	1663.94
322.42	1666.94
322.649	1656.94
322.878	1608.94
323.108	1623.94
323.337	1688.94
323.566	1709.94
323.795	1701.94
324.024	1703.94
324.253	1671.94
324.482	1674.94
324.71	1638.94
324.939	1560.94
325.168	1567.94
325.397	1674.94
325.626	1700.94
325.855	1689.94
326.084	1642.94
326.313	1670.94
326.542	1669.94
326.77	1720.94
326.999	1712.94
327.228	1683.94
327.457	1554.94
327.686	1518.94
327.914	1598.94
328.143	1661.94
328.372	1651.94
328.6	1633.94
328.829	1646.94
329.058	1612.94
329.287	1608.94
329.515	1649.94
329.744	1652.94
329.972	1764.94
330.201	1808.94
330.43	1803.94
330.658	1768.94
330.887	1762.94
331.115	1740.94
331.344	1731.94
331.572	1721.94
331.801	1679.94
332.03	1694.94
332.258	1746.94
332.486	1771.94
332.715	1744.94
332.943	1764.94
333.172	1760.94
333.4	1779.94
333.629	1813.94
333.857	1884.94
334.085	2042.94
334.314	2307.94
334.542	2544.94
334.771	2368.94
334.999	2103.94
335.227	1974.94
335.455	1875.94
335.684	1860.94
335.912	1899.94
336.14	1928.94
336.369	1918.94
336.597	1828.94
336.825	1758.94
337.053	1799.94
337.281	1875.94
337.51	1978.94
337.738	2060.94
337.966	1998.94
338.194	1818.94
338.422	1735.94
338.65	1723.94
338.878	1701.94
339.106	1707.94
339.334	1655.94
339.562	1656.94
339.79	1671.94
340.018	1786.94
340.246	1847.94
340.474	1831.94
340.702	1824.94
340.93	1784.94
341.158	1770.94
341.386	1767.94
341.614	1710.94
341.842	1735.94
342.07	1724.94
342.298	1714.94
342.526	1756.94
342.754	1707.94
342.981	1695.94
343.209	1671.94
343.437	1714.94
343.665	1712.94
343.893	1765.94
344.12	1867.94
344.348	1876.94
344.576	1790.94
344.804	1698.94
345.031	1695.94
345.259	1713.94
345.487	1681.94
345.714	1629.94
345.942	1572.94
346.17	1619.94
346.397	1652.94
346.625	1636.94
346.853	1590.94
347.08	1560.94
347.308	1567.94
347.535	1569.94
347.763	1658.94
347.99	1635.94
348.218	1532.94
348.445	1552.94
348.673	1619.94
348.9	1634.94
349.128	1658.94
349.355	1757.94
349.583	1696.94
349.81	1644.94
350.037	1516.94
350.265	1489.94
350.492	1544.94
350.72	1527.94
350.947	1590.94
351.174	1631.94
351.402	1574.94
351.629	1512.94
351.856	1486.94
352.083	1476.94
352.311	1474.94
352.538	1558.94
352.765	1581.94
352.992	1608.94
353.22	1586.94
353.447	1514.94
353.674	1574.94
353.901	1623.94
354.128	1560.94
354.355	1556.94
354.583	1555.94
354.81	1638.94
355.037	1657.94
355.264	1626.94
355.491	1608.94
355.718	1618.94
355.945	1561.94
356.172	1542.94
356.399	1546.94
356.626	1544.94
356.853	1574.94
357.08	1732.94
357.307	1906.94
357.534	1900.94
357.761	1638.94
357.988	1523.94
358.215	1484.94
358.441	1507.94
358.668	1530.94
358.895	1500.94
359.122	1647.94
359.349	1756.94
359.576	1753.94
359.802	1589.94
360.029	1557.94
360.256	1507.94
360.483	1568.94
360.709	1574.94
360.936	1605.94
361.163	1711.94
361.39	1811.94
361.616	1972.94
361.843	1912.94
362.07	1820.94
362.296	1605.94
362.523	1562.94
362.749	1594.94
362.976	1579.94
363.203	1614.94
363.429	1584.94
363.656	1551.94
363.882	1578.94
364.109	1735.94
364.335	1869.94
364.562	1737.94
364.788	1678.94
365.015	1632.94
365.241	1567.94
365.468	1591.94
365.694	1655.94
365.92	1718.94
366.147	1694.94
366.373	1579.94
366.599	1521.94
366.826	1536.94
367.052	1571.94
367.278	1593.94
367.505	1582.94
367.731	1606.94
367.957	1653.94
368.184	1660.94
368.41	1785.94
368.636	1726.94
368.862	1786.94
369.089	1811.94
369.315	1684.94
369.541	1657.94
369.767	1643.94
369.993	1602.94
370.219	1568.94
370.445	1623.94
370.672	1719.94
370.898	1742.94
371.124	1779.94
371.35	1656.94
371.576	1703.94
371.802	1797.94
372.028	1679.94
372.254	1644.94
372.48	1601.94
372.706	1594.94
372.932	1610.94
373.158	1605.94
373.384	1667.94
373.61	1689.94
373.835	1729.94
374.061	1689.94
374.287	1635.94
374.513	1680.94
374.739	1675.94
374.965	1696.94
375.191	1711.94
375.416	1734.94
375.642	1690.94
375.868	1816.94
376.094	1840.94
376.319	1824.94
376.545	1648.94
376.771	1667.94
376.997	1748.94
377.222	1769.94
377.448	1736.94
377.674	1766.94
377.899	1744.94
378.125	1819.94
378.35	1824.94
378.576	1657.94
378.802	1602.94
379.027	1634.94
379.253	1626.94
379.478	1654.94
379.704	1623.94
379.929	1631.94
380.155	1648.94
380.38	1668.94
380.606	1687.94
380.831	1658.94
381.057	1701.94
381.282	1767.94
381.507	1744.94
381.733	1765.94
381.958	1943.94
382.184	1787.94
382.409	1713.94
382.634	1735.94
382.86	1730.94
383.085	1729.94
383.31	1779.94
383.535	1966.94
383.761	2024.94
383.986	1960.94
384.211	1864.94
384.436	1865.94
384.662	1979.94
384.887	2018.94
385.112	1912.94
385.337	1913.94
385.562	1903.94
385.787	1883.94
386.013	1902.94
386.238	1987.94
386.463	1889.94
386.688	2050.94
386.913	2192.94
387.138	2115.94
387.363	1969.94
387.588	1936.94
387.813	1940.94
388.038	1939.94
388.263	2057.94
388.488	1970.94
388.713	1816.94
388.938	1827.94
389.163	1847.94
389.387	1854.94
389.612	1876.94
389.837	1932.94
390.062	1978.94
390.287	1934.94
390.512	1893.94
390.736	1898.94
390.961	1890.94
391.186	1844.94
391.411	1871.94
391.636	1931.94
391.86	1897.94
392.085	1897.94
392.31	1911.94
392.534	1890.94
392.759	1962.94
392.984	1872.94
393.208	1922.94
393.433	1944.94
393.658	2011.94
393.882	2053.94
394.107	1954.94
394.331	1861.94
394.556	1903.94
394.78	1910.94
395.005	1972.94
395.229	1998.94
395.454	2201.94
395.678	2200.94
395.903	2094.94
396.127	2039.94
396.352	2008.94
396.576	2051.94
396.801	2084.94
397.025	2049.94
397.249	2057.94
397.474	2046.94
397.698	2022.94
397.922	2104.94
398.147	2188.94
398.371	2239.94
398.595	2244.94
398.82	2180.94
399.044	2183.94
399.268	2282.94
399.492	2456.94
399.717	2566.94
399.941	2624.94
400.165	2532.94
400.389	2472.94
400.613	2415.94
400.837	2665.94
401.062	3044.94
401.286	2616.94
401.51	2360.94
401.734	2472.94
401.958	2380.94
402.182	2248.94
402.406	2202.94
402.63	2147.94
402.854	2193.94
403.078	2219.94
403.302	2218.94
403.526	2273.94
403.75	2218.94
403.974	2272.94
404.198	2304.94
404.422	2320.94
404.645	2465.94
404.869	2405.94
405.093	2245.94
405.317	2178.94
405.541	2269.94
405.765	2309.94
405.988	2242.94
406.212	2306.94
406.436	2334.94
406.66	2405.94
406.883	2442.94
407.107	2715.94
407.331	2936.94
407.555	3126.94
407.778	2918.94
408.002	2464.94
408.226	2355.94
408.449	2393.94
408.673	2313.94
408.896	2311.94
409.12	2347.94
409.344	2340.94
409.567	2240.94
409.791	2266.94
410.014	2336.94
410.238	2386.94
410.461	2546.94
410.685	2314.94
410.908	2200.94
411.132	2269.94
411.355	2290.94
411.578	2182.94
411.802	2211.94
412.025	2258.94
412.249	2209.94
412.472	2130.94
412.695	2150.94
412.919	2147.94
413.142	2155.94
413.365	2143.94
413.589	2214.94
413.812	2288.94
414.035	2360.94
414.258	2188.94
414.482	2146.94
414.705	2200.94
414.928	2113.94
415.151	2114.94
415.374	2160.94
415.597	2213.94
415.821	2240.94
416.044	2262.94
416.267	2259.94
416.49	2097.94
416.713	2076.94
416.936	2111.94
417.159	2195.94
417.382	2184.94
417.605	2085.94
417.828	2140.94
418.051	2208.94
418.274	2163.94
418.497	2060.94
418.72	2086.94
418.943	2078.94
419.166	2277.94
419.389	2320.94
419.611	2199.94
419.834	2142.94
420.057	2180.94
420.28	2032.94
420.503	2078.94
420.726	2131.94
420.948	2096.94
421.171	2033.94
421.394	2064.94
421.617	2123.94
421.839	2197.94
422.062	2119.94
422.285	2056.94
422.507	2043.94
422.73	1998.94
422.953	1960.94
423.175	1997.94
423.398	2064.94
423.621	2108.94
423.843	2081.94
424.066	2174.94
424.288	2196.94
424.511	2211.94
424.733	2172.94
424.956	1986.94
425.178	1985.94
425.401	2037.94
425.623	2005.94
425.846	2004.94
426.068	2117.94
426.291	2152.94
426.513	2146.94
426.735	2110.94
426.958	2212.94
427.18	2366.94
427.402	2151.94
427.625	2244.94
427.847	2236.94
428.069	2098.94
428.292	2035.94
428.514	1993.94
428.736	2019.94
428.958	2008.94
429.181	2058.94
429.403	2290.94
429.625	2814.94
429.847	2493.94
430.069	2106.94
430.292	2253.94
430.514	2340.94
430.736	2147.94
430.958	2242.94
431.18	2155.94
431.402	2002.94
431.624	1994.94
431.846	2004.94
432.068	1957.94
432.29	2008.94
432.512	2047.94
432.734	2090.94
432.956	2149.94
433.178	2182.94
433.4	2139.94
433.622	2179.94
433.844	2056.94
434.066	2000.94
434.287	1988.94
434.509	2069.94
434.731	2172.94
434.953	2284.94
435.175	2196.94
435.397	2149.94
435.618	2096.94
435.84	2105.94
436.062	2078.94
436.284	2049.94
436.505	2137.94
436.727	2209.94
436.949	2094.94
437.17	2006.94
437.392	2008.94
437.614	2065.94
437.835	1985.94
438.057	2109.94
438.278	2200.94
438.5	2030.94
438.721	2026.94
438.943	2012.94
439.165	1999.94
439.386	1979.94
439.608	1988.94
439.829	2000.94
440.05	2013.94
440.272	1988.94
440.493	1946.94
440.715	2016.94
440.936	2146.94
441.158	2364.94
441.379	2259.94
441.6	2195.94
441.822	2152.94
442.043	2149.94
442.264	2143.94
442.486	2031.94
442.707	2013.94
442.928	1979.94
443.149	2084.94
443.371	2225.94
443.592	2239.94
443.813	2210.94
444.034	2160.94
444.255	2143.94
444.476	2228.94
444.698	2317.94
444.919	2275.94
445.14	2316.94
445.361	2336.94
445.582	2420.94
445.803	2276.94
446.024	2190.94
446.245	2302.94
446.466	2174.94
446.687	2125.94
446.908	2086.94
447.129	2027.94
447.35	2049.94
447.571	2072.94
447.792	1975.94
448.013	1949.94
448.234	1977.94
448.455	2088.94
448.675	2091.94
448.896	1914.94
449.117	1922.94
449.338	1982.94
449.559	2062.94
449.779	2124.94
450	2348.94
450.221	2507.94
450.442	2417.94
450.662	2133.94
450.883	1903.94
451.104	1912.94
451.324	1879.94
451.545	1973.94
451.766	1970.94
451.986	1881.94
452.207	1877.94
452.428	1825.94
452.648	1794.94
452.869	1880.94
453.089	1986.94
453.31	1952.94
453.53	2024.94
453.751	1911.94
453.971	1813.94
454.192	1880.94
454.412	1961.94
454.633	1902.94
454.853	1874.94
455.073	1746.94
455.294	1759.94
455.514	1738.94
455.734	1761.94
455.955	1820.94
456.175	1790.94
456.395	1762.94
456.616	1827.94
456.836	1883.94
457.056	1861.94
457.276	1846.94
457.497	1769.94
457.717	1724.94
457.937	1775.94
458.157	1811.94
458.377	1798.94
458.598	1807.94
458.818	1801.94
459.038	1963.94
459.258	2015.94
459.478	2039.94
459.698	1968.94
459.918	1970.94
460.138	2082.94
460.358	2112.94
460.578	2131.94
460.798	2251.94
461.018	2345.94
461.238	2239.94
461.458	2155.94
461.678	2164.94
461.898	2143.94
462.118	2032.94
462.338	2152.94
462.558	2184.94
462.777	2173.94
462.997	2230.94
463.217	2382.94
463.437	2397.94
463.657	2235.94
463.876	2160.94
464.096	2136.94
464.316	2149.94
464.536	2241.94
464.755	2230.94
464.975	2266.94
465.195	2174.94
465.414	2257.94
465.634	2260.94
465.854	2090.94
466.073	2290.94
466.293	2201.94
466.512	1999.94
466.732	1943.94
466.951	2029.94
467.171	2062.94
467.391	1958.94
467.61	1908.94
467.829	1909.94
468.049	2044.94
468.268	2290.94
468.488	2165.94
468.707	2048.94
468.927	2023.94
469.146	1949.94
469.365	1912.94
469.585	1947.94
469.804	1946.94
470.023	1944.94
470.243	1950.94
470.462	1969.94
470.681	1899.94
470.901	1972.94
471.12	2004.94
471.339	1970.94
471.558	1864.94
471.777	1860.94
471.997	1892.94
472.216	1929.94
472.435	1874.94
472.654	1902.94
472.873	1964.94
473.092	2086.94
473.311	1997.94
473.53	1879.94
473.749	1889.94
473.968	1947.94
474.187	2064.94
474.406	2144.94
474.625	2028.94
474.844	2004.94
475.063	1973.94
475.282	2052.94
475.501	2008.94
475.72	1999.94
475.939	2056.94
476.158	2072.94
476.377	1991.94
476.596	2010.94
476.814	2038.94
477.033	2075.94
477.252	2145.94
477.471	2184.94
477.69	2084.94
477.908	2055.94
478.127	2162.94
478.346	2380.94
478.564	2383.94
478.783	2332.94
479.002	2390.94
479.22	2334.94
479.439	2369.94
479.658	2775.94
479.876	2787.94
480.095	2403.94
480.313	2280.94
480.532	2170.94
480.751	2229.94
480.969	2272.94
481.188	2222.94
481.406	2192.94
481.624	2164.94
481.843	2184.94
482.061	2263.94
482.28	2301.94
482.498	2318.94
482.717	2284.94
482.935	2185.94
483.153	2203.94
483.372	2168.94
483.59	2171.94
483.808	2211.94
484.027	2184.94
484.245	2390.94
484.463	2707.94
484.681	3086.94
484.9	2409.94
485.118	2264.94
485.336	2254.94
485.554	2311.94
485.772	2411.94
485.99	2383.94
486.209	2388.94
486.427	2363.94
486.645	2364.94
486.863	2331.94
487.081	2380.94
487.299	2423.94
487.517	2384.94
487.735	2288.94
487.953	2279.94
488.171	2273.94
488.389	2273.94
488.607	2277.94
488.825	2486.94
489.043	2548.94
489.261	2286.94
489.479	2366.94
489.696	2431.94
489.914	2450.94
490.132	2381.94
490.35	2326.94
490.568	2409.94
490.786	2303.94
491.003	2260.94
491.221	2316.94
491.439	2427.94
491.657	2301.94
491.874	2358.94
492.092	2389.94
492.31	2393.94
492.527	2385.94
492.745	2323.94
492.963	2345.94
493.18	2437.94
493.398	2619.94
493.615	2654.94
493.833	2413.94
494.05	2382.94
494.268	2378.94
494.485	2441.94
494.703	2422.94
494.92	2360.94
495.138	2369.94
495.355	2392.94
495.573	2461.94
495.79	2650.94
496.008	2675.94
496.225	2481.94
496.442	2501.94
496.66	2521.94
496.877	2490.94
497.094	2605.94
497.312	2618.94
497.529	2556.94
497.746	2654.94
497.963	3059.94
498.181	3449.94
498.398	3243.94
498.615	3167.94
498.832	3110.94
499.049	3063.94
499.267	3030.94
499.484	3201.94
499.701	3555.94
499.918	3564.94
500.135	3770.94
500.352	4123.94
500.569	4074.94
500.786	4197.94
501.003	3969.94
501.22	3651.94
501.437	3540.94
501.654	3474.94
501.871	3393.94
502.088	3061.94
502.305	3064.94
502.522	2913.94
502.739	2749.94
502.956	2682.94
503.172	2647.94
503.389	2589.94
503.606	2518.94
503.823	2530.94
504.04	2542.94
504.256	2501.94
504.473	2548.94
504.69	2633.94
504.907	2487.94
505.123	2393.94
505.34	2426.94
505.557	3132.94
505.773	2705.94
505.99	2322.94
506.207	2166.94
506.423	2202.94
506.64	2130.94
506.856	2167.94
507.073	2390.94
507.289	2586.94
507.506	2434.94
507.722	2136.94
507.939	2114.94
508.155	2056.94
508.372	2108.94
508.588	2097.94
508.805	2027.94
509.021	2000.94
509.238	1960.94
509.454	1979.94
509.67	2014.94
509.887	1959.94
510.103	1975.94
510.319	1949.94
510.536	2100.94
510.752	2109.94
510.968	2096.94
511.184	2273.94
511.401	2215.94
511.617	1977.94
511.833	1892.94
512.049	1912.94
512.265	1929.94
512.481	1894.94
512.698	2015.94
512.914	2120.94
513.13	2019.94
513.346	1948.94
513.562	1881.94
513.778	1963.94
513.994	2008.94
514.21	2053.94
514.426	2078.94
514.642	2303.94
514.858	2211.94
515.074	1978.94
515.29	1934.94
515.506	2019.94
515.721	2050.94
515.937	2082.94
516.153	2306.94
516.369	2201.94
516.585	2114.94
516.801	2014.94
517.016	1992.94
517.232	2036.94
517.448	2097.94
517.664	2119.94
517.879	2102.94
518.095	2259.94
518.311	2159.94
518.527	2063.94
518.742	1999.94
518.958	1926.94
519.173	1926.94
519.389	1942.94
519.605	1936.94
519.82	1972.94
520.036	2017.94
520.251	1898.94
520.467	1948.94
520.682	2075.94
520.898	2204.94
521.113	1934.94
521.329	1899.94
521.544	2037.94
521.76	1981.94
521.975	1877.94
522.19	1844.94
522.406	1858.94
522.621	2178.94
522.836	2234.94
523.052	1818.94
523.267	1846.94
523.482	1894.94
523.698	1759.94
523.913	1731.94
524.128	1798.94
524.343	1891.94
524.559	1886.94
524.774	1770.94
524.989	1778.94
525.204	1690.94
525.419	1700.94
525.634	1694.94
525.849	1753.94
526.064	1764.94
526.28	1770.94
526.495	1723.94
526.71	1696.94
526.925	1736.94
527.14	1681.94
527.355	1680.94
527.57	1647.94
527.785	1698.94
527.999	1694.94
528.214	1670.94
528.429	1607.94
528.644	1639.94
528.859	1658.94
529.074	1686.94
529.289	1678.94
529.503	1700.94
529.718	1707.94
529.933	1670.94
530.148	1582.94
530.363	1627.94
530.577	1627.94
530.792	1674.94
531.007	1696.94
531.221	1662.94
531.436	1701.94
531.651	1776.94
531.865	1831.94
532.08	1721.94
532.295	1640.94
532.509	1584.94
532.724	1596.94
532.938	1704.94
533.153	1822.94
533.367	1733.94
533.582	1675.94
533.796	1620.94
534.011	1674.94
534.225	1634.94
534.44	1637.94
534.654	1605.94
534.868	1611.94
535.083	1693.94
535.297	1698.94
535.511	1628.94
535.726	1665.94
535.94	1626.94
536.154	1598.94
536.369	1609.94
536.583	1597.94
536.797	1582.94
537.011	1640.94
537.225	1541.94
537.44	1552.94
537.654	1635.94
537.868	1570.94
538.082	1503.94
538.296	1493.94
538.51	1480.94
538.724	1507.94
538.938	1490.94
539.153	1543.94
539.367	1570.94
539.581	1555.94
539.795	1663.94
540.009	1603.94
540.222	1533.94
540.436	1599.94
540.65	1722.94
540.864	1766.94
541.078	1630.94
541.292	1540.94
541.506	1543.94
541.72	1562.94
541.934	1558.94
542.147	1592.94
542.361	1602.94
542.575	1527.94
542.789	1508.94
543.002	1482.94
543.216	1457.94
543.43	1578.94
543.644	1595.94
543.857	1670.94
544.071	1596.94
544.285	1571.94
544.498	1544.94
544.712	1540.94
544.925	1559.94
545.139	1603.94
545.352	1521.94
545.566	1467.94
545.779	1451.94
545.993	1475.94
546.206	1500.94
546.42	1480.94
546.633	1440.94
546.847	1427.94
547.06	1454.94
547.274	1426.94
547.487	1474.94
547.7	1468.94
547.914	1460.94
548.127	1489.94
548.34	1499.94
548.554	1502.94
548.767	1505.94
548.98	1483.94
549.193	1489.94
549.407	1528.94
549.62	1563.94
549.833	1479.94
550.046	1467.94
550.259	1459.94
550.473	1424.94
550.686	1434.94
550.899	1452.94
551.112	1401.94
551.325	1424.94
551.538	1496.94
551.751	1692.94
551.964	1381.94
552.177	1370.94
552.39	1407.94
552.603	1404.94
552.816	1458.94
553.029	1554.94
553.242	1573.94
553.455	1460.94
553.667	1438.94
553.88	1468.94
554.093	1441.94
554.306	1392.94
554.519	1385.94
554.732	1315.94
554.944	1402.94
555.157	1390.94
555.37	1377.94
555.583	1354.94
555.795	1314.94
556.008	1323.94
556.221	1303.94
556.433	1260.94
556.646	1257.94
556.859	1267.94
557.071	1236.94
557.284	1240.94
557.496	1246.94
557.709	1258.94
557.921	1231.94
558.134	1242.94
558.346	1207.94
558.559	1220.94
558.771	1194.94
558.984	1183.94
559.196	1162.94
559.409	1133.94
559.621	1146.94
559.833	1187.94
560.046	1221.94
560.258	1241.94
560.47	1207.94
560.683	1203.94
560.895	1200.94
561.107	1211.94
561.32	1214.94
561.532	1219.94
561.744	1188.94
561.956	1192.94
562.168	1160.94
562.381	1120.94
562.593	1131.94
562.805	1163.94
563.017	1158.94
563.229	1182.94
563.441	1187.94
563.653	1166.94
563.865	1194.94
564.077	1180.94
564.289	1194.94
564.501	1190.94
564.713	1230.94
564.925	1262.94
565.137	1300.94
565.349	1232.94
565.561	1243.94
565.773	1255.94
565.985	1256.94
566.197	1339.94
566.408	1413.94
566.62	1446.94
566.832	1454.94
567.044	1424.94
567.255	1454.94
567.467	1430.94
567.679	1469.94
567.891	1558.94
568.102	1482.94
568.314	1434.94
568.526	1340.94
568.737	1279.94
568.949	1247.94
569.161	1192.94
569.372	1171.94
569.584	1142.94
569.795	1135.94
570.007	1129.94
570.218	1074.94
570.43	1078.94
570.641	1074.94
570.853	1073.94
571.064	1077.94
571.276	1056.94
571.487	1058.94
571.698	1020.94
571.91	991.94
572.121	1010.94
572.333	965.94
572.544	948.94
572.755	953.94
572.966	923.94
573.178	946.94
573.389	960.94
573.6	962.94
573.811	1056.94
574.023	980.94
574.234	937.94
574.445	918.94
574.656	886.94
574.867	891.94
575.078	920.94
575.289	899.94
575.501	873.94
575.712	871.94
575.923	898.94
576.134	889.94
576.345	894.94
576.556	862.94
576.767	842.94
576.978	851.94
577.188	839.94
577.399	861.94
577.61	826.94
577.821	820.94
578.032	820.94
578.243	818.94
578.454	814.94
578.665	791.94
578.875	786.94
579.086	780.94
579.297	806.94
579.508	850.94
579.718	846.94
579.929	810.94
580.14	834.94
580.35	770.94
580.561	789.94
580.772	869.94
580.982	807.94
581.193	776.94
581.403	783.94
581.614	752.94
581.825	769.94
582.035	743.94
582.246	761.94
582.456	744.94
582.667	772.94
582.877	726.94
583.087	762.94
583.298	750.94
583.508	761.94
583.719	766.94
583.929	795.94
584.139	741.94
584.35	723.94
584.56	729.94
584.77	744.94
584.981	735.94
585.191	734.94
585.401	795.94
585.611	766.94
585.821	760.94
586.032	735.94
586.242	710.94
586.452	723.94
586.662	722.94
586.872	716.94
587.082	729.94
587.292	750.94
587.502	756.94
587.713	729.94
587.923	732.94
588.133	723.94
588.343	771.94
588.553	753.94
588.762	720.94
588.972	736.94
589.182	753.94
589.392	736.94
589.602	734.94
589.812	730.94
590.022	722.94
590.232	698.94
590.441	718.94
590.651	722.94
590.861	712.94
591.071	714.94
591.281	706.94
591.49	708.94
591.7	707.94
591.91	713.94
592.119	719.94
592.329	740.94
592.539	761.94
592.748	742.94
592.958	738.94
593.167	768.94
593.377	766.94
593.587	775.94
593.796	774.94
594.006	751.94
594.215	753.94
594.424	728.94
594.634	724.94
594.843	706.94
595.053	724.94
595.262	715.94
595.472	676.94
595.681	724.94
595.89	698.94
596.1	691.94
596.309	696.94
596.518	672.94
596.727	658.94
596.937	669.94
597.146	627.94
597.355	627.94
597.564	635.94
597.774	637.94
597.983	608.94
598.192	614.94
598.401	624.94
598.61	622.94
598.819	612.94
599.028	616.94
599.237	594.94
599.446	619.94
599.655	602.94
599.864	600.94
600.073	591.94
600.282	582.94
600.491	578.94
600.7	573.94
600.909	578.94
601.118	559.94
601.327	595.94
601.536	598.94
601.745	555.94
601.953	572.94
602.162	578.94
602.371	590.94
602.58	585.94
602.789	558.94
602.997	562.94
603.206	572.94
603.415	580.94
603.623	571.94
603.832	579.94
604.041	563.94
604.249	555.94
604.458	533.94
604.666	571.94
604.875	531.94
605.084	551.94
605.292	582.94
605.501	568.94
605.709	536.94
605.918	535.94
606.126	538.94
606.334	532.94
606.543	530.94
606.751	543.94
606.96	570.94
607.168	564.94
607.376	535.94
607.585	523.94
607.793	529.94
608.001	538.94
608.21	538.94
608.418	538.94
608.626	542.94
608.834	527.94
609.043	517.94
609.251	528.94
609.459	534.94
609.667	533.94
609.875	535.94
610.083	551.94
610.291	554.94
610.499	546.94
610.707	537.94
610.916	519.94
611.124	528.94
611.332	539.94
611.54	489.94
611.748	493.94
611.955	489.94
612.163	500.94
612.371	490.94
612.579	501.94
612.787	520.94
612.995	517.94
613.203	522.94
613.411	515.94
613.618	516.94
613.826	504.94
614.034	514.94
614.242	498.94
614.449	503.94
614.657	499.94
614.865	525.94
615.072	508.94
615.28	492.94
615.488	494.94
615.695	508.94
615.903	544.94
616.111	503.94
616.318	520.94
616.526	497.94
616.733	487.94
616.941	473.94
617.148	518.94
617.356	477.94
617.563	479.94
617.771	461.94
617.978	481.94
618.185	479.94
618.393	490.94
618.6	484.94
618.807	494.94
619.015	491.94
619.222	484.94
619.429	487.94
619.637	487.94
619.844	486.94
620.051	465.94
620.258	468.94
620.466	435.94
620.673	452.94
620.88	432.94
621.087	443.94
621.294	443.94
621.501	426.94
621.708	447.94
621.915	455.94
622.122	470.94
622.329	452.94
622.536	449.94
622.743	438.94
622.95	431.94
623.157	442.94
623.364	438.94
623.571	423.94
623.778	458.94
623.985	455.94
624.192	419.94
624.399	411.94
624.606	426.94
624.812	417.94
625.019	431.94
625.226	410.94
625.433	414.94
625.639	418.94
625.846	415.94
626.053	392.94
626.259	386.94
626.466	384.94
626.673	415.94
626.879	384.94
627.086	403.94
627.293	418.94
627.499	405.94
627.706	412.94
627.912	417.94
628.119	434.94
628.325	388.94
628.532	382.94
628.738	376.94
628.945	383.94
629.151	394.94
629.357	421.94
629.564	394.94
629.77	366.94
629.976	375.94
630.183	376.94
630.389	382.94
630.595	380.94
630.802	396.94
631.008	386.94
631.214	375.94
631.42	375.94
631.627	378.94
631.833	369.94
632.039	388.94
632.245	361.94
632.451	340.94
632.657	338.94
632.863	384.94
633.069	366.94
633.275	379.94
633.481	346.94
633.688	344.94
633.893	374.94
634.099	366.94
634.305	346.94
634.511	350.94
634.717	339.94
634.923	357.94
635.129	343.94
635.335	330.94
635.541	344.94
635.747	350.94
635.952	335.94
636.158	351.94
636.364	353.94
636.57	320.94
636.775	340.94
636.981	341.94
637.187	319.94
637.392	332.94
637.598	345.94
637.804	341.94
638.009	348.94
638.215	326.94
638.421	348.94
638.626	334.94
638.832	334.94
639.037	318.94
639.243	310.94
639.448	321.94
639.654	326.94
639.859	310.94
640.065	323.94
640.27	337.94
640.475	326.94
640.681	322.94
640.886	322.94
641.091	312.94
641.297	322.94
641.502	314.94
641.707	311.94
641.913	335.94
642.118	320.94
642.323	326.94
642.528	312.94
642.733	304.94
642.939	329.94
643.144	319.94
643.349	307.94
643.554	299.94
643.759	308.94
643.964	313.94
644.169	310.94
644.374	294.94
644.579	314.94
644.784	302.94
644.989	305.94
645.194	316.94
645.399	310.94
645.604	275.94
645.809	310.94
646.014	308.94
646.219	306.94
646.423	304.94
646.628	305.94
646.833	299.94
647.038	299.94
647.243	310.94
647.447	311.94
647.652	321.94
647.857	293.94
648.062	294.94
648.266	308.94
648.471	316.94
648.676	328.94
648.88	300.94
649.085	307.94
649.289	302.94
649.494	308.94
649.698	295.94
649.903	293.94
650.107	288.94
650.312	295.94
650.516	280.94
650.721	296.94
650.925	293.94
651.13	266.94
651.334	279.94
651.539	281.94
651.743	261.94
651.947	263.94
652.152	270.94
652.356	259.94
652.56	264.94
652.764	263.94
652.969	255.94
653.173	255.94
653.377	245.94
653.581	230.94
653.785	266.94
653.99	223.94
654.194	228.94
654.398	239.94
654.602	238.94
654.806	230.94
655.01	265.94
655.214	227.94
655.418	244.94
655.622	245.94
655.826	257.94
656.03	256.94
656.234	282.94
656.438	288.94
656.642	256.94
656.846	244.94
657.049	232.94
657.253	224.94
657.457	209.94
657.661	191.94
657.865	186.94
658.068	176.94
658.272	154.94
658.476	147.94
658.68	146.94
658.883	136.94
659.087	163.94
659.291	149.94
659.494	120.94
659.698	129.94
659.901	134.94
660.105	130.94
660.309	121.94
660.512	125.94
660.716	117.94
660.919	118.94
661.123	124.94
661.326	101.94
661.53	106.94
661.733	107.94
661.936	94.94
662.14	89.94
662.343	84.94
662.546	97.94
662.75	101.94
662.953	95.94
663.156	84.94
663.36	92.94
663.563	90.94
663.766	83.94
663.969	85.94
664.173	86.94
664.376	96.94
664.579	81.94
664.782	86.94
664.985	71.94
665.188	100.94
665.391	78.94
665.594	61.94
665.797	67.94
666	79.94
666.203	77.94
666.406	91.94
666.609	78.94
666.812	77.94
667.015	77.94
667.218	76.94
667.421	65.94
667.624	74.94
667.827	70.94
668.03	68.94
668.232	71.94
668.435	93.94
668.638	89.94
668.841	89.94
669.043	79.94
669.246	87.94
669.449	73.94
669.651	94.94
669.854	84.94
670.057	81.94
670.259	78.94
670.462	93.94
670.665	70.94
670.867	69.94
671.07	76.94
671.272	81.94
671.475	73.94
671.677	80.94
671.88	76.94
672.082	90.94
672.284	103.94
672.487	81.94
672.689	83.94
672.892	83.94
