Data from WStandard_LampEnergy5.5LIBS07252019.E.O._I.C._HRD10591_16-06-30-920.txt Node
Date: Thu Jul 25 16:06:30 EDT 2019
User: cochatt
Spectrometer: HR+D1059
Trigger mode: 1
Integration Time (sec): 1.000000E-1
Scans to average: 1
Electric dark correction enabled: true
Nonlinearity correction enabled: false
Boxcar width: 0
XAxis mode: Wavelengths
Number of Pixels in Spectrum: 2048
>>>>>Begin Spectral Data<<<<<
223.165	-22.25
223.4	-22.25
223.635	-22.25
223.869	-12.25
224.104	-4.25
224.338	-11.25
224.573	-15.25
224.808	-25.25
225.042	-10.25
225.277	-2.25
225.511	-12.25
225.746	-2.25
225.98	10.75
226.215	10.75
226.449	36.75
226.683	9.75
226.918	13.75
227.152	35.75
227.387	18.75
227.621	43.75
227.856	33.75
228.09	43.75
228.324	44.75
228.559	57.75
228.793	141.75
229.027	361.75
229.262	343.75
229.496	375.75
229.73	386.75
229.964	412.75
230.199	439.75
230.433	443.75
230.667	478.75
230.901	521.75
231.136	461.75
231.37	463.75
231.604	429.75
231.838	447.75
232.072	449.75
232.306	436.75
232.541	466.75
232.775	538.75
233.009	578.75
233.243	590.75
233.477	508.75
233.711	523.75
233.945	563.75
234.179	525.75
234.413	541.75
234.647	615.75
234.881	574.75
235.115	533.75
235.349	540.75
235.583	557.75
235.817	528.75
236.051	513.75
236.285	527.75
236.519	569.75
236.753	649.75
236.987	662.75
237.221	664.75
237.455	737.75
237.689	697.75
237.922	663.75
238.156	627.75
238.39	651.75
238.624	673.75
238.858	719.75
239.091	726.75
239.325	738.75
239.559	855.75
239.793	921.75
240.027	997.75
240.26	994.75
240.494	754.75
240.728	683.75
240.961	716.75
241.195	727.75
241.429	784.75
241.662	758.75
241.896	727.75
242.13	717.75
242.363	798.75
242.597	878.75
242.83	819.75
243.064	871.75
243.298	904.75
243.531	883.75
243.765	879.75
243.998	874.75
244.232	753.75
244.465	715.75
244.699	744.75
244.932	843.75
245.166	979.75
245.399	923.75
245.633	853.75
245.866	822.75
246.099	883.75
246.333	933.75
246.566	934.75
246.8	998.75
247.033	1112.75
247.266	1022.75
247.5	997.75
247.733	1029.75
247.966	1035.75
248.2	1191.75
248.433	1124.75
248.666	1129.75
248.899	1267.75
249.133	1473.75
249.366	1658.75
249.599	1350.75
249.832	1183.75
250.066	1198.75
250.299	1248.75
250.532	1154.75
250.765	1082.75
250.998	1095.75
251.231	1145.75
251.465	1175.75
251.698	1111.75
251.931	1098.75
252.164	1150.75
252.397	1219.75
252.63	1165.75
252.863	1049.75
253.096	1032.75
253.329	1058.75
253.562	1140.75
253.795	1244.75
254.028	1203.75
254.261	1131.75
254.494	1126.75
254.727	1057.75
254.96	1080.75
255.193	1179.75
255.426	1357.75
255.659	1541.75
255.892	1613.75
256.124	1332.75
256.357	1281.75
256.59	1351.75
256.823	1377.75
257.056	1336.75
257.289	1597.75
257.521	1819.75
257.754	1640.75
257.987	1518.75
258.22	1684.75
258.452	1634.75
258.685	1316.75
258.918	1303.75
259.151	1307.75
259.383	1253.75
259.616	1119.75
259.849	1157.75
260.081	1295.75
260.314	1457.75
260.547	1617.75
260.779	1637.75
261.012	1530.75
261.244	1347.75
261.477	1276.75
261.71	1359.75
261.942	1336.75
262.175	1281.75
262.407	1403.75
262.64	1285.75
262.872	1229.75
263.105	1198.75
263.337	1205.75
263.57	1218.75
263.802	1226.75
264.035	1133.75
264.267	1060.75
264.499	1056.75
264.732	1146.75
264.964	1203.75
265.197	1266.75
265.429	1318.75
265.661	1478.75
265.894	1615.75
266.126	1697.75
266.358	1496.75
266.591	1545.75
266.823	1703.75
267.055	1525.75
267.287	1472.75
267.52	1448.75
267.752	1457.75
267.984	1461.75
268.216	1509.75
268.448	1539.75
268.681	1529.75
268.913	1417.75
269.145	1373.75
269.377	1324.75
269.609	1405.75
269.841	1625.75
270.073	1915.75
270.306	2130.75
270.538	2327.75
270.77	1905.75
271.002	1605.75
271.234	1544.75
271.466	1508.75
271.698	1710.75
271.93	2087.75
272.162	2069.75
272.394	1851.75
272.626	1758.75
272.858	1530.75
273.09	1365.75
273.322	1343.75
273.553	1284.75
273.785	1299.75
274.017	1370.75
274.249	1481.75
274.481	1495.75
274.713	1361.75
274.945	1295.75
275.176	1339.75
275.408	1339.75
275.64	1298.75
275.872	1276.75
276.104	1347.75
276.335	1527.75
276.567	1779.75
276.799	1817.75
277.031	1590.75
277.262	1513.75
277.494	1539.75
277.726	1726.75
277.957	1729.75
278.189	1557.75
278.421	1409.75
278.652	1390.75
278.884	1364.75
279.115	1371.75
279.347	1425.75
279.579	1386.75
279.81	1331.75
280.042	1552.75
280.273	1661.75
280.505	1688.75
280.736	1709.75
280.968	1609.75
281.199	1425.75
281.431	1364.75
281.662	1338.75
281.894	1347.75
282.125	1355.75
282.356	1433.75
282.588	1459.75
282.819	1423.75
283.051	1596.75
283.282	1661.75
283.513	1635.75
283.745	1409.75
283.976	1303.75
284.207	1357.75
284.439	1365.75
284.67	1393.75
284.901	1377.75
285.132	1463.75
285.364	1426.75
285.595	1423.75
285.826	1433.75
286.057	1409.75
286.288	1391.75
286.52	1443.75
286.751	1558.75
286.982	1608.75
287.213	1502.75
287.444	1382.75
287.675	1331.75
287.906	1437.75
288.138	1505.75
288.369	1484.75
288.6	1417.75
288.831	1353.75
289.062	1404.75
289.293	1441.75
289.524	1389.75
289.755	1433.75
289.986	1438.75
290.217	1348.75
290.448	1357.75
290.679	1402.75
290.91	1421.75
291.141	1447.75
291.371	1548.75
291.602	1529.75
291.833	1483.75
292.064	1500.75
292.295	1507.75
292.526	1530.75
292.757	1627.75
292.987	1545.75
293.218	1445.75
293.449	1545.75
293.68	1773.75
293.91	1899.75
294.141	1755.75
294.372	1632.75
294.603	1645.75
294.833	1765.75
295.064	1649.75
295.295	1539.75
295.525	1502.75
295.756	1379.75
295.987	1349.75
296.217	1356.75
296.448	1421.75
296.679	1404.75
296.909	1438.75
297.14	1374.75
297.37	1403.75
297.601	1476.75
297.831	1586.75
298.062	1614.75
298.292	1461.75
298.523	1370.75
298.753	1422.75
298.984	1444.75
299.214	1424.75
299.445	1438.75
299.675	1496.75
299.905	1525.75
300.136	1491.75
300.366	1436.75
300.597	1419.75
300.827	1376.75
301.057	1434.75
301.288	1509.75
301.518	1500.75
301.748	1547.75
301.979	1615.75
302.209	1619.75
302.439	1737.75
302.669	1820.75
302.9	1697.75
303.13	1508.75
303.36	1557.75
303.59	1567.75
303.82	1531.75
304.051	1474.75
304.281	1515.75
304.511	1486.75
304.741	1587.75
304.971	1756.75
305.201	1925.75
305.431	1852.75
305.661	1522.75
305.891	1351.75
306.121	1347.75
306.352	1389.75
306.582	1464.75
306.812	1593.75
307.042	1695.75
307.272	1694.75
307.502	1733.75
307.731	1847.75
307.961	2023.75
308.191	1889.75
308.421	1592.75
308.651	1530.75
308.881	1474.75
309.111	1485.75
309.341	1475.75
309.571	1429.75
309.8	1487.75
310.03	1490.75
310.26	1478.75
310.49	1462.75
310.72	1500.75
310.949	1546.75
311.179	1597.75
311.409	1550.75
311.639	1516.75
311.868	1482.75
312.098	1496.75
312.328	1509.75
312.557	1468.75
312.787	1539.75
313.017	1579.75
313.246	1546.75
313.476	1530.75
313.706	1562.75
313.935	1590.75
314.165	1605.75
314.394	1592.75
314.624	1694.75
314.853	1796.75
315.083	1869.75
315.312	1929.75
315.542	1825.75
315.771	1584.75
316.001	1614.75
316.23	1722.75
316.46	1674.75
316.689	1689.75
316.919	1545.75
317.148	1526.75
317.377	1518.75
317.607	1623.75
317.836	1810.75
318.065	1932.75
318.295	1833.75
318.524	1747.75
318.753	1653.75
318.983	1674.75
319.212	1628.75
319.441	1603.75
319.67	1558.75
319.9	1589.75
320.129	1685.75
320.358	1755.75
320.587	1774.75
320.816	1780.75
321.046	1755.75
321.275	1657.75
321.504	1671.75
321.733	1781.75
321.962	1735.75
322.191	1590.75
322.42	1623.75
322.649	1591.75
322.878	1626.75
323.108	1650.75
323.337	1678.75
323.566	1702.75
323.795	1667.75
324.024	1668.75
324.253	1627.75
324.482	1663.75
324.71	1606.75
324.939	1558.75
325.168	1517.75
325.397	1564.75
325.626	1681.75
325.855	1672.75
326.084	1594.75
326.313	1636.75
326.542	1621.75
326.77	1692.75
326.999	1697.75
327.228	1637.75
327.457	1553.75
327.686	1518.75
327.914	1587.75
328.143	1644.75
328.372	1623.75
328.6	1639.75
328.829	1597.75
329.058	1537.75
329.287	1571.75
329.515	1612.75
329.744	1619.75
329.972	1705.75
330.201	1777.75
330.43	1771.75
330.658	1729.75
330.887	1764.75
331.115	1742.75
331.344	1725.75
331.572	1687.75
331.801	1709.75
332.03	1689.75
332.258	1703.75
332.486	1707.75
332.715	1737.75
332.943	1709.75
333.172	1720.75
333.4	1728.75
333.629	1777.75
333.857	1861.75
334.085	2047.75
334.314	2325.75
334.542	2540.75
334.771	2341.75
334.999	2017.75
335.227	1957.75
335.455	1869.75
335.684	1861.75
335.912	1872.75
336.14	1935.75
336.369	1879.75
336.597	1758.75
336.825	1746.75
337.053	1764.75
337.281	1847.75
337.51	1934.75
337.738	2013.75
337.966	1940.75
338.194	1777.75
338.422	1713.75
338.65	1694.75
338.878	1641.75
339.106	1653.75
339.334	1631.75
339.562	1609.75
339.79	1595.75
340.018	1734.75
340.246	1859.75
340.474	1849.75
340.702	1757.75
340.93	1756.75
341.158	1739.75
341.386	1717.75
341.614	1695.75
341.842	1706.75
342.07	1657.75
342.298	1720.75
342.526	1699.75
342.754	1673.75
342.981	1647.75
343.209	1667.75
343.437	1678.75
343.665	1706.75
343.893	1783.75
344.12	1824.75
344.348	1829.75
344.576	1758.75
344.804	1665.75
345.031	1709.75
345.259	1715.75
345.487	1633.75
345.714	1602.75
345.942	1555.75
346.17	1557.75
346.397	1606.75
346.625	1599.75
346.853	1495.75
347.08	1496.75
347.308	1493.75
347.535	1551.75
347.763	1646.75
347.99	1553.75
348.218	1501.75
348.445	1539.75
348.673	1582.75
348.9	1625.75
349.128	1658.75
349.355	1747.75
349.583	1660.75
349.81	1568.75
350.037	1485.75
350.265	1468.75
350.492	1472.75
350.72	1534.75
350.947	1561.75
351.174	1669.75
351.402	1556.75
351.629	1467.75
351.856	1450.75
352.083	1510.75
352.311	1473.75
352.538	1525.75
352.765	1578.75
352.992	1595.75
353.22	1539.75
353.447	1516.75
353.674	1514.75
353.901	1568.75
354.128	1513.75
354.355	1530.75
354.583	1554.75
354.81	1635.75
355.037	1591.75
355.264	1610.75
355.491	1556.75
355.718	1629.75
355.945	1556.75
356.172	1476.75
356.399	1493.75
356.626	1502.75
356.853	1589.75
357.08	1672.75
357.307	1847.75
357.534	1883.75
357.761	1622.75
357.988	1515.75
358.215	1447.75
358.441	1494.75
358.668	1466.75
358.895	1499.75
359.122	1590.75
359.349	1727.75
359.576	1745.75
359.802	1566.75
360.029	1512.75
360.256	1499.75
360.483	1484.75
360.709	1545.75
360.936	1574.75
361.163	1672.75
361.39	1803.75
361.616	1955.75
361.843	1857.75
362.07	1799.75
362.296	1542.75
362.523	1550.75
362.749	1537.75
362.976	1591.75
363.203	1606.75
363.429	1535.75
363.656	1492.75
363.882	1537.75
364.109	1702.75
364.335	1921.75
364.562	1768.75
364.788	1642.75
365.015	1600.75
365.241	1513.75
365.468	1538.75
365.694	1582.75
365.92	1696.75
366.147	1609.75
366.373	1537.75
366.599	1521.75
366.826	1500.75
367.052	1516.75
367.278	1501.75
367.505	1540.75
367.731	1587.75
367.957	1541.75
368.184	1574.75
368.41	1629.75
368.636	1667.75
368.862	1721.75
369.089	1753.75
369.315	1673.75
369.541	1647.75
369.767	1577.75
369.993	1522.75
370.219	1521.75
370.445	1536.75
370.672	1659.75
370.898	1775.75
371.124	1732.75
371.35	1636.75
371.576	1687.75
371.802	1752.75
372.028	1714.75
372.254	1631.75
372.48	1557.75
372.706	1549.75
372.932	1573.75
373.158	1598.75
373.384	1609.75
373.61	1669.75
373.835	1769.75
374.061	1663.75
374.287	1623.75
374.513	1653.75
374.739	1605.75
374.965	1636.75
375.191	1637.75
375.416	1630.75
375.642	1678.75
375.868	1745.75
376.094	1821.75
376.319	1722.75
376.545	1654.75
376.771	1674.75
376.997	1723.75
377.222	1761.75
377.448	1634.75
377.674	1722.75
377.899	1677.75
378.125	1764.75
378.35	1791.75
378.576	1637.75
378.802	1568.75
379.027	1574.75
379.253	1622.75
379.478	1591.75
379.704	1618.75
379.929	1616.75
380.155	1623.75
380.38	1641.75
380.606	1660.75
380.831	1639.75
381.057	1661.75
381.282	1737.75
381.507	1667.75
381.733	1753.75
381.958	1895.75
382.184	1750.75
382.409	1670.75
382.634	1674.75
382.86	1638.75
383.085	1687.75
383.31	1764.75
383.535	1855.75
383.761	1954.75
383.986	1877.75
384.211	1803.75
384.436	1825.75
384.662	1910.75
384.887	1956.75
385.112	1871.75
385.337	1905.75
385.562	1858.75
385.787	1848.75
386.013	1905.75
386.238	1873.75
386.463	1867.75
386.688	1987.75
386.913	2087.75
387.138	2058.75
387.363	1917.75
387.588	1947.75
387.813	1909.75
388.038	1954.75
388.263	1969.75
388.488	1924.75
388.713	1785.75
388.938	1778.75
389.163	1797.75
389.387	1817.75
389.612	1848.75
389.837	1877.75
390.062	1890.75
390.287	1859.75
390.512	1892.75
390.736	1843.75
390.961	1817.75
391.186	1770.75
391.411	1801.75
391.636	1854.75
391.86	1863.75
392.085	1844.75
392.31	1829.75
392.534	1861.75
392.759	1889.75
392.984	1859.75
393.208	1874.75
393.433	1991.75
393.658	2079.75
393.882	2057.75
394.107	1903.75
394.331	1817.75
394.556	1807.75
394.78	1900.75
395.005	1968.75
395.229	2003.75
395.454	2122.75
395.678	2188.75
395.903	2120.75
396.127	1973.75
396.352	1962.75
396.576	2004.75
396.801	2069.75
397.025	2070.75
397.249	2069.75
397.474	2053.75
397.698	2005.75
397.922	2021.75
398.147	2143.75
398.371	2222.75
398.595	2235.75
398.82	2130.75
399.044	2193.75
399.268	2289.75
399.492	2379.75
399.717	2499.75
399.941	2566.75
400.165	2446.75
400.389	2357.75
400.613	2368.75
400.837	2552.75
401.062	2953.75
401.286	2523.75
401.51	2295.75
401.734	2370.75
401.958	2358.75
402.182	2206.75
402.406	2101.75
402.63	2128.75
402.854	2109.75
403.078	2153.75
403.302	2243.75
403.526	2189.75
403.75	2173.75
403.974	2221.75
404.198	2255.75
404.422	2254.75
404.645	2368.75
404.869	2342.75
405.093	2187.75
405.317	2122.75
405.541	2203.75
405.765	2282.75
405.988	2263.75
406.212	2313.75
406.436	2314.75
406.66	2363.75
406.883	2344.75
407.107	2625.75
407.331	2856.75
407.555	3077.75
407.778	2883.75
408.002	2407.75
408.226	2343.75
408.449	2381.75
408.673	2264.75
408.896	2315.75
409.12	2359.75
409.344	2282.75
409.567	2171.75
409.791	2242.75
410.014	2268.75
410.238	2323.75
410.461	2515.75
410.685	2295.75
410.908	2159.75
411.132	2217.75
411.355	2223.75
411.578	2143.75
411.802	2165.75
412.025	2239.75
412.249	2187.75
412.472	2119.75
412.695	2082.75
412.919	2089.75
413.142	2074.75
413.365	2171.75
413.589	2212.75
413.812	2235.75
414.035	2309.75
414.258	2140.75
414.482	2101.75
414.705	2146.75
414.928	2093.75
415.151	2092.75
415.374	2133.75
415.597	2173.75
415.821	2185.75
416.044	2300.75
416.267	2291.75
416.49	2065.75
416.713	2009.75
416.936	2087.75
417.159	2180.75
417.382	2185.75
417.605	2093.75
417.828	2165.75
418.051	2174.75
418.274	2136.75
418.497	2036.75
418.72	2086.75
418.943	2022.75
419.166	2178.75
419.389	2301.75
419.611	2185.75
419.834	2089.75
420.057	2169.75
420.28	2103.75
420.503	2036.75
420.726	2026.75
420.948	2071.75
421.171	2026.75
421.394	2034.75
421.617	2113.75
421.839	2128.75
422.062	2057.75
422.285	2055.75
422.507	2021.75
422.73	1971.75
422.953	1970.75
423.175	1958.75
423.398	2037.75
423.621	2028.75
423.843	2047.75
424.066	2082.75
424.288	2114.75
424.511	2160.75
424.733	2106.75
424.956	1951.75
425.178	1950.75
425.401	1970.75
425.623	2005.75
425.846	2010.75
426.068	2075.75
426.291	2103.75
426.513	2063.75
426.735	2050.75
426.958	2174.75
427.18	2300.75
427.402	2123.75
427.625	2151.75
427.847	2171.75
428.069	2101.75
428.292	1973.75
428.514	1938.75
428.736	1918.75
428.958	2010.75
429.181	2023.75
429.403	2200.75
429.625	2678.75
429.847	2431.75
430.069	2041.75
430.292	2206.75
430.514	2251.75
430.736	2143.75
430.958	2195.75
431.18	2134.75
431.402	1977.75
431.624	2015.75
431.846	1951.75
432.068	1931.75
432.29	1955.75
432.512	2003.75
432.734	2017.75
432.956	2021.75
433.178	2148.75
433.4	2085.75
433.622	2132.75
433.844	2056.75
434.066	1972.75
434.287	1986.75
434.509	2056.75
434.731	2152.75
434.953	2262.75
435.175	2191.75
435.397	2092.75
435.618	2090.75
435.84	2130.75
436.062	2069.75
436.284	2095.75
436.505	2088.75
436.727	2096.75
436.949	2044.75
437.17	2022.75
437.392	1984.75
437.614	2012.75
437.835	1980.75
438.057	2061.75
438.278	2174.75
438.5	2054.75
438.721	1969.75
438.943	1977.75
439.165	1986.75
439.386	1900.75
439.608	1959.75
439.829	2004.75
440.05	1993.75
440.272	1970.75
440.493	1917.75
440.715	1948.75
440.936	2086.75
441.158	2305.75
441.379	2263.75
441.6	2185.75
441.822	2134.75
442.043	2115.75
442.264	2059.75
442.486	1998.75
442.707	1971.75
442.928	1951.75
443.149	2063.75
443.371	2163.75
443.592	2199.75
443.813	2199.75
444.034	2156.75
444.255	2175.75
444.476	2177.75
444.698	2298.75
444.919	2232.75
445.14	2329.75
445.361	2294.75
445.582	2402.75
445.803	2273.75
446.024	2182.75
446.245	2235.75
446.466	2207.75
446.687	2119.75
446.908	2055.75
447.129	2043.75
447.35	2068.75
447.571	2060.75
447.792	1960.75
448.013	1945.75
448.234	1952.75
448.455	2077.75
448.675	2064.75
448.896	1920.75
449.117	1880.75
449.338	1943.75
449.559	2030.75
449.779	2124.75
450	2359.75
450.221	2509.75
450.442	2455.75
450.662	2141.75
450.883	1918.75
451.104	1851.75
451.324	1909.75
451.545	1982.75
451.766	1962.75
451.986	1856.75
452.207	1841.75
452.428	1786.75
452.648	1758.75
452.869	1818.75
453.089	1969.75
453.31	1948.75
453.53	1981.75
453.751	1930.75
453.971	1793.75
454.192	1835.75
454.412	1970.75
454.633	1877.75
454.853	1838.75
455.073	1713.75
455.294	1732.75
455.514	1706.75
455.734	1732.75
455.955	1793.75
456.175	1767.75
456.395	1785.75
456.616	1823.75
456.836	1871.75
457.056	1823.75
457.276	1837.75
457.497	1797.75
457.717	1743.75
457.937	1735.75
458.157	1794.75
458.377	1784.75
458.598	1796.75
458.818	1822.75
459.038	1904.75
459.258	2016.75
459.478	1993.75
459.698	1948.75
459.918	2019.75
460.138	2063.75
460.358	2102.75
460.578	2120.75
460.798	2217.75
461.018	2349.75
461.238	2248.75
461.458	2122.75
461.678	2119.75
461.898	2107.75
462.118	2038.75
462.338	2141.75
462.558	2152.75
462.777	2132.75
462.997	2241.75
463.217	2421.75
463.437	2322.75
463.657	2163.75
463.876	2136.75
464.096	2123.75
464.316	2099.75
464.536	2177.75
464.755	2239.75
464.975	2259.75
465.195	2176.75
465.414	2222.75
465.634	2298.75
465.854	2116.75
466.073	2225.75
466.293	2211.75
466.512	1946.75
466.732	1941.75
466.951	2006.75
467.171	2033.75
467.391	1953.75
467.61	1869.75
467.829	1916.75
468.049	2063.75
468.268	2330.75
468.488	2152.75
468.707	2045.75
468.927	1994.75
469.146	1920.75
469.365	1915.75
469.585	1938.75
469.804	1920.75
470.023	1945.75
470.243	1978.75
470.462	1939.75
470.681	1881.75
470.901	1944.75
471.12	1923.75
471.339	1936.75
471.558	1837.75
471.777	1875.75
471.997	1886.75
472.216	1895.75
472.435	1822.75
472.654	1867.75
472.873	1975.75
473.092	2073.75
473.311	1943.75
473.53	1854.75
473.749	1844.75
473.968	1925.75
474.187	2033.75
474.406	2134.75
474.625	2005.75
474.844	1973.75
475.063	1932.75
475.282	2024.75
475.501	1982.75
475.72	1942.75
475.939	2077.75
476.158	2020.75
476.377	1965.75
476.596	2014.75
476.814	2038.75
477.033	2036.75
477.252	2126.75
477.471	2204.75
477.69	2074.75
477.908	2089.75
478.127	2148.75
478.346	2357.75
478.564	2381.75
478.783	2294.75
479.002	2410.75
479.22	2327.75
479.439	2438.75
479.658	2721.75
479.876	2731.75
480.095	2375.75
480.313	2245.75
480.532	2151.75
480.751	2191.75
480.969	2247.75
481.188	2199.75
481.406	2227.75
481.624	2137.75
481.843	2163.75
482.061	2185.75
482.28	2258.75
482.498	2325.75
482.717	2244.75
482.935	2128.75
483.153	2172.75
483.372	2201.75
483.59	2130.75
483.808	2205.75
484.027	2250.75
484.245	2346.75
484.463	2677.75
484.681	3047.75
484.9	2371.75
485.118	2215.75
485.336	2181.75
485.554	2262.75
485.772	2399.75
485.99	2359.75
486.209	2385.75
486.427	2319.75
486.645	2312.75
486.863	2281.75
487.081	2352.75
487.299	2421.75
487.517	2366.75
487.735	2265.75
487.953	2255.75
488.171	2290.75
488.389	2239.75
488.607	2225.75
488.825	2467.75
489.043	2440.75
489.261	2286.75
489.479	2396.75
489.696	2454.75
489.914	2415.75
490.132	2355.75
490.35	2273.75
490.568	2410.75
490.786	2332.75
491.003	2204.75
491.221	2330.75
491.439	2371.75
491.657	2336.75
491.874	2312.75
492.092	2366.75
492.31	2392.75
492.527	2340.75
492.745	2325.75
492.963	2320.75
493.18	2422.75
493.398	2601.75
493.615	2598.75
493.833	2410.75
494.05	2361.75
494.268	2385.75
494.485	2444.75
494.703	2408.75
494.92	2323.75
495.138	2300.75
495.355	2363.75
495.573	2451.75
495.79	2596.75
496.008	2629.75
496.225	2492.75
496.442	2489.75
496.66	2522.75
496.877	2442.75
497.094	2602.75
497.312	2646.75
497.529	2555.75
497.746	2659.75
497.963	3082.75
498.181	3472.75
498.398	3177.75
498.615	3099.75
498.832	3065.75
499.049	3009.75
499.267	3036.75
499.484	3245.75
499.701	3499.75
499.918	3522.75
500.135	3787.75
500.352	4067.75
500.569	3977.75
500.786	4227.75
501.003	4009.75
501.22	3658.75
501.437	3491.75
501.654	3486.75
501.871	3383.75
502.088	2982.75
502.305	3029.75
502.522	2933.75
502.739	2701.75
502.956	2656.75
503.172	2642.75
503.389	2571.75
503.606	2510.75
503.823	2514.75
504.04	2557.75
504.256	2499.75
504.473	2537.75
504.69	2665.75
504.907	2493.75
505.123	2340.75
505.34	2443.75
505.557	3097.75
505.773	2678.75
505.99	2348.75
506.207	2187.75
506.423	2105.75
506.64	2087.75
506.856	2135.75
507.073	2424.75
507.289	2569.75
507.506	2434.75
507.722	2129.75
507.939	2081.75
508.155	2100.75
508.372	2105.75
508.588	2082.75
508.805	1965.75
509.021	1917.75
509.238	1910.75
509.454	1929.75
509.67	1932.75
509.887	1917.75
510.103	1919.75
510.319	1947.75
510.536	2069.75
510.752	2095.75
510.968	2094.75
511.184	2237.75
511.401	2229.75
511.617	1947.75
511.833	1917.75
512.049	1862.75
512.265	1909.75
512.481	1842.75
512.698	1974.75
512.914	2105.75
513.13	2025.75
513.346	1898.75
513.562	1871.75
513.778	1888.75
513.994	1997.75
514.21	2057.75
514.426	2074.75
514.642	2344.75
514.858	2194.75
515.074	1973.75
515.29	1921.75
515.506	2038.75
515.721	2018.75
515.937	2053.75
516.153	2334.75
516.369	2199.75
516.585	2067.75
516.801	1993.75
517.016	2003.75
517.232	2080.75
517.448	2061.75
517.664	2119.75
517.879	2132.75
518.095	2239.75
518.311	2118.75
518.527	2005.75
518.742	1965.75
518.958	1931.75
519.173	1938.75
519.389	1931.75
519.605	1972.75
519.82	1977.75
520.036	1999.75
520.251	1917.75
520.467	1922.75
520.682	2064.75
520.898	2131.75
521.113	1953.75
521.329	1889.75
521.544	2065.75
521.76	2011.75
521.975	1861.75
522.19	1827.75
522.406	1795.75
522.621	2154.75
522.836	2181.75
523.052	1782.75
523.267	1799.75
523.482	1811.75
523.698	1737.75
523.913	1679.75
524.128	1733.75
524.343	1875.75
524.559	1870.75
524.774	1740.75
524.989	1712.75
525.204	1708.75
525.419	1687.75
525.634	1665.75
525.849	1716.75
526.064	1753.75
526.28	1760.75
526.495	1723.75
526.71	1664.75
526.925	1658.75
527.14	1652.75
527.355	1661.75
527.57	1676.75
527.785	1723.75
527.999	1680.75
528.214	1606.75
528.429	1610.75
528.644	1639.75
528.859	1662.75
529.074	1665.75
529.289	1650.75
529.503	1701.75
529.718	1671.75
529.933	1685.75
530.148	1593.75
530.363	1614.75
530.577	1645.75
530.792	1644.75
531.007	1667.75
531.221	1632.75
531.436	1703.75
531.651	1687.75
531.865	1803.75
532.08	1749.75
532.295	1593.75
532.509	1550.75
532.724	1621.75
532.938	1673.75
533.153	1805.75
533.367	1684.75
533.582	1637.75
533.796	1589.75
534.011	1657.75
534.225	1694.75
534.44	1629.75
534.654	1615.75
534.868	1629.75
535.083	1665.75
535.297	1670.75
535.511	1620.75
535.726	1606.75
535.94	1641.75
536.154	1597.75
536.369	1569.75
536.583	1577.75
536.797	1567.75
537.011	1606.75
537.225	1597.75
537.44	1492.75
537.654	1610.75
537.868	1532.75
538.082	1502.75
538.296	1474.75
538.51	1480.75
538.724	1506.75
538.938	1507.75
539.153	1562.75
539.367	1570.75
539.581	1574.75
539.795	1599.75
540.009	1596.75
540.222	1572.75
540.436	1606.75
540.65	1748.75
540.864	1723.75
541.078	1641.75
541.292	1519.75
541.506	1555.75
541.72	1563.75
541.934	1582.75
542.147	1607.75
542.361	1558.75
542.575	1529.75
542.789	1472.75
543.002	1464.75
543.216	1496.75
543.43	1604.75
543.644	1671.75
543.857	1710.75
544.071	1623.75
544.285	1591.75
544.498	1543.75
544.712	1568.75
544.925	1588.75
545.139	1585.75
545.352	1517.75
545.566	1484.75
545.779	1451.75
545.993	1475.75
546.206	1519.75
546.42	1477.75
546.633	1439.75
546.847	1421.75
547.06	1465.75
547.274	1464.75
547.487	1466.75
547.7	1461.75
547.914	1468.75
548.127	1464.75
548.34	1498.75
548.554	1515.75
548.767	1483.75
548.98	1475.75
549.193	1474.75
549.407	1531.75
549.62	1548.75
549.833	1495.75
550.046	1453.75
550.259	1433.75
550.473	1457.75
550.686	1417.75
550.899	1397.75
551.112	1415.75
551.325	1410.75
551.538	1481.75
551.751	1683.75
551.964	1424.75
552.177	1393.75
552.39	1403.75
552.603	1476.75
552.816	1445.75
553.029	1498.75
553.242	1572.75
553.455	1473.75
553.667	1426.75
553.88	1430.75
554.093	1445.75
554.306	1382.75
554.519	1363.75
554.732	1343.75
554.944	1359.75
555.157	1405.75
555.37	1349.75
555.583	1384.75
555.795	1332.75
556.008	1301.75
556.221	1272.75
556.433	1279.75
556.646	1232.75
556.859	1227.75
557.071	1254.75
557.284	1241.75
557.496	1271.75
557.709	1239.75
557.921	1215.75
558.134	1202.75
558.346	1225.75
558.559	1228.75
558.771	1238.75
558.984	1201.75
559.196	1179.75
559.409	1192.75
559.621	1192.75
559.833	1174.75
560.046	1223.75
560.258	1222.75
560.47	1221.75
560.683	1218.75
560.895	1193.75
561.107	1211.75
561.32	1196.75
561.532	1235.75
561.744	1183.75
561.956	1205.75
562.168	1148.75
562.381	1153.75
562.593	1159.75
562.805	1191.75
563.017	1178.75
563.229	1163.75
563.441	1214.75
563.653	1150.75
563.865	1114.75
564.077	1164.75
564.289	1173.75
564.501	1191.75
564.713	1192.75
564.925	1241.75
565.137	1284.75
565.349	1224.75
565.561	1244.75
565.773	1223.75
565.985	1293.75
566.197	1364.75
566.408	1429.75
566.62	1433.75
566.832	1451.75
567.044	1429.75
567.255	1434.75
567.467	1450.75
567.679	1459.75
567.891	1505.75
568.102	1494.75
568.314	1468.75
568.526	1376.75
568.737	1324.75
568.949	1270.75
569.161	1229.75
569.372	1171.75
569.584	1125.75
569.795	1146.75
570.007	1115.75
570.218	1114.75
570.43	1070.75
570.641	1065.75
570.853	1075.75
571.064	1074.75
571.276	1068.75
571.487	1050.75
571.698	1005.75
571.91	1002.75
572.121	1005.75
572.333	1002.75
572.544	981.75
572.755	943.75
572.966	941.75
573.178	949.75
573.389	956.75
573.6	991.75
573.811	1030.75
574.023	972.75
574.234	934.75
574.445	889.75
574.656	883.75
574.867	882.75
575.078	898.75
575.289	907.75
575.501	893.75
575.712	874.75
575.923	881.75
576.134	909.75
576.345	886.75
576.556	894.75
576.767	850.75
576.978	852.75
577.188	853.75
577.399	848.75
577.61	821.75
577.821	854.75
578.032	830.75
578.243	819.75
578.454	820.75
578.665	805.75
578.875	825.75
579.086	808.75
579.297	834.75
579.508	824.75
579.718	815.75
579.929	825.75
580.14	769.75
580.35	754.75
580.561	811.75
580.772	881.75
580.982	831.75
581.193	796.75
581.403	774.75
581.614	781.75
581.825	778.75
582.035	766.75
582.246	749.75
582.456	788.75
582.667	779.75
582.877	773.75
583.087	750.75
583.298	720.75
583.508	759.75
583.719	740.75
583.929	776.75
584.139	754.75
584.35	735.75
584.56	747.75
584.77	750.75
584.981	749.75
585.191	763.75
585.401	760.75
585.611	756.75
585.821	764.75
586.032	725.75
586.242	700.75
586.452	724.75
586.662	715.75
586.872	738.75
587.082	715.75
587.292	742.75
587.502	750.75
587.713	755.75
587.923	744.75
588.133	742.75
588.343	737.75
588.553	707.75
588.762	721.75
588.972	757.75
589.182	747.75
589.392	759.75
589.602	729.75
589.812	737.75
590.022	699.75
590.232	712.75
590.441	716.75
590.651	735.75
590.861	730.75
591.071	700.75
591.281	695.75
591.49	719.75
591.7	702.75
591.91	726.75
592.119	703.75
592.329	718.75
592.539	737.75
592.748	744.75
592.958	754.75
593.167	738.75
593.377	736.75
593.587	766.75
593.796	754.75
594.006	774.75
594.215	768.75
594.424	719.75
594.634	720.75
594.843	749.75
595.053	730.75
595.262	720.75
595.472	733.75
595.681	726.75
595.89	717.75
596.1	670.75
596.309	693.75
596.518	659.75
596.727	677.75
596.937	678.75
597.146	643.75
597.355	633.75
597.564	622.75
597.774	619.75
597.983	610.75
598.192	618.75
598.401	620.75
598.61	633.75
598.819	606.75
599.028	608.75
599.237	605.75
599.446	618.75
599.655	590.75
599.864	612.75
600.073	603.75
600.282	589.75
600.491	573.75
600.7	574.75
600.909	589.75
601.118	602.75
601.327	589.75
601.536	592.75
601.745	603.75
601.953	578.75
602.162	603.75
602.371	603.75
602.58	596.75
602.789	591.75
602.997	594.75
603.206	574.75
603.415	587.75
603.623	565.75
603.832	569.75
604.041	564.75
604.249	558.75
604.458	565.75
604.666	562.75
604.875	565.75
605.084	552.75
605.292	567.75
605.501	567.75
605.709	540.75
605.918	545.75
606.126	551.75
606.334	550.75
606.543	559.75
606.751	549.75
606.96	562.75
607.168	561.75
607.376	539.75
607.585	544.75
607.793	549.75
608.001	536.75
608.21	559.75
608.418	538.75
608.626	501.75
608.834	515.75
609.043	523.75
609.251	532.75
609.459	521.75
609.667	539.75
609.875	546.75
610.083	533.75
610.291	549.75
610.499	549.75
610.707	541.75
610.916	524.75
611.124	525.75
611.332	521.75
611.54	524.75
611.748	521.75
611.955	523.75
612.163	519.75
612.371	533.75
612.579	513.75
612.787	515.75
612.995	520.75
613.203	515.75
613.411	505.75
613.618	510.75
613.826	500.75
614.034	528.75
614.242	488.75
614.449	521.75
614.657	524.75
614.865	528.75
615.072	500.75
615.28	490.75
615.488	511.75
615.695	547.75
615.903	539.75
616.111	490.75
616.318	500.75
616.526	500.75
616.733	493.75
616.941	482.75
617.148	515.75
617.356	486.75
617.563	499.75
617.771	497.75
617.978	478.75
618.185	498.75
618.393	509.75
618.6	494.75
618.807	517.75
619.015	496.75
619.222	475.75
619.429	470.75
619.637	479.75
619.844	482.75
620.051	467.75
620.258	447.75
620.466	484.75
620.673	443.75
620.88	449.75
621.087	437.75
621.294	449.75
621.501	463.75
621.708	446.75
621.915	453.75
622.122	450.75
622.329	454.75
622.536	466.75
622.743	458.75
622.95	451.75
623.157	437.75
623.364	440.75
623.571	442.75
623.778	470.75
623.985	443.75
624.192	446.75
624.399	437.75
624.606	439.75
624.812	408.75
625.019	429.75
625.226	433.75
625.433	420.75
625.639	428.75
625.846	426.75
626.053	411.75
626.259	412.75
626.466	417.75
626.673	406.75
626.879	399.75
627.086	398.75
627.293	411.75
627.499	388.75
627.706	385.75
627.912	400.75
628.119	405.75
628.325	400.75
628.532	416.75
628.738	402.75
628.945	391.75
629.151	404.75
629.357	387.75
629.564	399.75
629.77	396.75
629.976	405.75
630.183	374.75
630.389	393.75
630.595	383.75
630.802	403.75
631.008	378.75
631.214	381.75
631.42	397.75
631.627	367.75
631.833	367.75
632.039	355.75
632.245	376.75
632.451	379.75
632.657	381.75
632.863	366.75
633.069	358.75
633.275	378.75
633.481	337.75
633.688	353.75
633.893	355.75
634.099	335.75
634.305	376.75
634.511	365.75
634.717	361.75
634.923	339.75
635.129	357.75
635.335	351.75
635.541	343.75
635.747	357.75
635.952	342.75
636.158	330.75
636.364	341.75
636.57	341.75
636.775	348.75
636.981	349.75
637.187	334.75
637.392	338.75
637.598	337.75
637.804	343.75
638.009	335.75
638.215	353.75
638.421	347.75
638.626	339.75
638.832	319.75
639.037	339.75
639.243	309.75
639.448	333.75
639.654	345.75
639.859	335.75
640.065	326.75
640.27	324.75
640.475	339.75
640.681	329.75
640.886	348.75
641.091	336.75
641.297	320.75
641.502	314.75
641.707	349.75
641.913	305.75
642.118	325.75
642.323	308.75
642.528	311.75
642.733	313.75
642.939	318.75
643.144	301.75
643.349	330.75
643.554	345.75
643.759	325.75
643.964	308.75
644.169	305.75
644.374	324.75
644.579	311.75
644.784	321.75
644.989	317.75
645.194	318.75
645.399	307.75
645.604	323.75
645.809	334.75
646.014	310.75
646.219	318.75
646.423	296.75
646.628	312.75
646.833	317.75
647.038	323.75
647.243	325.75
647.447	324.75
647.652	308.75
647.857	320.75
648.062	309.75
648.266	301.75
648.471	298.75
648.676	328.75
648.88	324.75
649.085	313.75
649.289	328.75
649.494	301.75
649.698	307.75
649.903	309.75
650.107	311.75
650.312	302.75
650.516	271.75
650.721	289.75
650.925	293.75
651.13	279.75
651.334	286.75
651.539	282.75
651.743	284.75
651.947	258.75
652.152	275.75
652.356	287.75
652.56	275.75
652.764	250.75
652.969	252.75
653.173	245.75
653.377	250.75
653.581	247.75
653.785	257.75
653.99	235.75
654.194	241.75
654.398	230.75
654.602	239.75
654.806	249.75
655.01	243.75
655.214	241.75
655.418	243.75
655.622	237.75
655.826	254.75
656.03	257.75
656.234	257.75
656.438	254.75
656.642	259.75
656.846	251.75
657.049	223.75
657.253	225.75
657.457	207.75
657.661	200.75
657.865	187.75
658.068	166.75
658.272	154.75
658.476	153.75
658.68	167.75
658.883	159.75
659.087	135.75
659.291	131.75
659.494	131.75
659.698	130.75
659.901	118.75
660.105	124.75
660.309	108.75
660.512	129.75
660.716	133.75
660.919	109.75
661.123	115.75
661.326	117.75
661.53	100.75
661.733	101.75
661.936	104.75
662.14	102.75
662.343	98.75
662.546	85.75
662.75	99.75
662.953	93.75
663.156	82.75
663.36	91.75
663.563	84.75
663.766	83.75
663.969	95.75
664.173	79.75
664.376	95.75
664.579	87.75
664.782	85.75
664.985	97.75
665.188	84.75
665.391	104.75
665.594	89.75
665.797	82.75
666	86.75
666.203	76.75
666.406	84.75
666.609	90.75
666.812	90.75
667.015	88.75
667.218	104.75
667.421	76.75
667.624	87.75
667.827	85.75
668.03	79.75
668.232	70.75
668.435	93.75
668.638	89.75
668.841	84.75
669.043	81.75
669.246	79.75
669.449	89.75
669.651	79.75
669.854	67.75
670.057	93.75
670.259	78.75
670.462	72.75
670.665	82.75
670.867	90.75
671.07	81.75
671.272	96.75
671.475	73.75
671.677	84.75
671.88	87.75
672.082	92.75
672.284	83.75
672.487	86.75
672.689	97.75
672.892	89.75
