Data from WStandard_LampEnergy10_LIBS07252019.E.O._I.C._HRD10591_15-53-31-928.txt Node
Date: Thu Jul 25 15:53:31 EDT 2019
User: cochatt
Spectrometer: HR+D1059
Trigger mode: 1
Integration Time (sec): 1.000000E-1
Scans to average: 1
Electric dark correction enabled: true
Nonlinearity correction enabled: false
Boxcar width: 0
XAxis mode: Wavelengths
Number of Pixels in Spectrum: 2048
>>>>>Begin Spectral Data<<<<<
223.165	-7.19
223.4	-7.19
223.635	-7.19
223.869	-17.19
224.104	-9.19
224.338	-5.19
224.573	-16.19
224.808	0.81
225.042	-14.19
225.277	1.81
225.511	-7.19
225.746	-7.19
225.98	3.81
226.215	4.81
226.449	13.81
226.683	14.81
226.918	17.81
227.152	25.81
227.387	23.81
227.621	45.81
227.856	43.81
228.09	41.81
228.324	37.81
228.559	55.81
228.793	75.81
229.027	136.81
229.262	137.81
229.496	166.81
229.73	154.81
229.964	160.81
230.199	185.81
230.433	182.81
230.667	176.81
230.901	185.81
231.136	173.81
231.37	190.81
231.604	178.81
231.838	176.81
232.072	177.81
232.306	170.81
232.541	186.81
232.775	207.81
233.009	204.81
233.243	213.81
233.477	190.81
233.711	193.81
233.945	214.81
234.179	208.81
234.413	218.81
234.647	202.81
234.881	214.81
235.115	209.81
235.349	217.81
235.583	202.81
235.817	201.81
236.051	203.81
236.285	193.81
236.519	211.81
236.753	230.81
236.987	228.81
237.221	226.81
237.455	254.81
237.689	251.81
237.922	221.81
238.156	220.81
238.39	213.81
238.624	256.81
238.858	249.81
239.091	240.81
239.325	272.81
239.559	287.81
239.793	294.81
240.027	318.81
240.26	314.81
240.494	247.81
240.728	226.81
240.961	254.81
241.195	251.81
241.429	252.81
241.662	269.81
241.896	252.81
242.13	244.81
242.363	275.81
242.597	290.81
242.83	275.81
243.064	270.81
243.298	305.81
243.531	280.81
243.765	288.81
243.998	280.81
244.232	261.81
244.465	258.81
244.699	259.81
244.932	286.81
245.166	323.81
245.399	290.81
245.633	288.81
245.866	281.81
246.099	298.81
246.333	286.81
246.566	311.81
246.8	324.81
247.033	358.81
247.266	330.81
247.5	306.81
247.733	344.81
247.966	333.81
248.2	348.81
248.433	373.81
248.666	377.81
248.899	425.81
249.133	444.81
249.366	468.81
249.599	399.81
249.832	376.81
250.066	387.81
250.299	390.81
250.532	359.81
250.765	343.81
250.998	343.81
251.231	366.81
251.465	362.81
251.698	349.81
251.931	339.81
252.164	371.81
252.397	390.81
252.63	359.81
252.863	319.81
253.096	331.81
253.329	337.81
253.562	369.81
253.795	385.81
254.028	380.81
254.261	340.81
254.494	335.81
254.727	336.81
254.96	336.81
255.193	395.81
255.426	422.81
255.659	464.81
255.892	456.81
256.124	399.81
256.357	395.81
256.59	422.81
256.823	436.81
257.056	421.81
257.289	490.81
257.521	525.81
257.754	462.81
257.987	453.81
258.22	481.81
258.452	471.81
258.685	400.81
258.918	404.81
259.151	391.81
259.383	388.81
259.616	347.81
259.849	386.81
260.081	435.81
260.314	467.81
260.547	477.81
260.779	485.81
261.012	453.81
261.244	447.81
261.477	412.81
261.71	426.81
261.942	404.81
262.175	399.81
262.407	419.81
262.64	393.81
262.872	379.81
263.105	387.81
263.337	396.81
263.57	383.81
263.802	378.81
264.035	354.81
264.267	338.81
264.499	363.81
264.732	359.81
264.964	387.81
265.197	414.81
265.429	432.81
265.661	476.81
265.894	505.81
266.126	511.81
266.358	467.81
266.591	481.81
266.823	491.81
267.055	476.81
267.287	471.81
267.52	455.81
267.752	441.81
267.984	464.81
268.216	481.81
268.448	481.81
268.681	460.81
268.913	447.81
269.145	425.81
269.377	427.81
269.609	456.81
269.841	514.81
270.073	591.81
270.306	623.81
270.538	650.81
270.77	561.81
271.002	500.81
271.234	464.81
271.466	498.81
271.698	543.81
271.93	610.81
272.162	602.81
272.394	568.81
272.626	508.81
272.858	478.81
273.09	415.81
273.322	418.81
273.553	414.81
273.785	406.81
274.017	435.81
274.249	460.81
274.481	458.81
274.713	416.81
274.945	414.81
275.176	417.81
275.408	401.81
275.64	419.81
275.872	424.81
276.104	436.81
276.335	527.81
276.567	552.81
276.799	534.81
277.031	498.81
277.262	478.81
277.494	522.81
277.726	536.81
277.957	539.81
278.189	489.81
278.421	449.81
278.652	450.81
278.884	441.81
279.115	442.81
279.347	443.81
279.579	435.81
279.81	446.81
280.042	475.81
280.273	525.81
280.505	512.81
280.736	523.81
280.968	501.81
281.199	457.81
281.431	426.81
281.662	423.81
281.894	454.81
282.125	436.81
282.356	464.81
282.588	468.81
282.819	471.81
283.051	514.81
283.282	512.81
283.513	499.81
283.745	450.81
283.976	436.81
284.207	456.81
284.439	456.81
284.67	442.81
284.901	482.81
285.132	472.81
285.364	459.81
285.595	467.81
285.826	478.81
286.057	471.81
286.288	459.81
286.52	466.81
286.751	487.81
286.982	498.81
287.213	472.81
287.444	444.81
287.675	447.81
287.906	472.81
288.138	520.81
288.369	489.81
288.6	471.81
288.831	451.81
289.062	454.81
289.293	453.81
289.524	455.81
289.755	463.81
289.986	461.81
290.217	426.81
290.448	460.81
290.679	471.81
290.91	472.81
291.141	467.81
291.371	516.81
291.602	505.81
291.833	490.81
292.064	508.81
292.295	511.81
292.526	503.81
292.757	519.81
292.987	510.81
293.218	492.81
293.449	519.81
293.68	580.81
293.91	626.81
294.141	548.81
294.372	565.81
294.603	584.81
294.833	590.81
295.064	552.81
295.295	490.81
295.525	492.81
295.756	465.81
295.987	472.81
296.217	448.81
296.448	471.81
296.679	467.81
296.909	449.81
297.14	471.81
297.37	496.81
297.601	489.81
297.831	550.81
298.062	527.81
298.292	504.81
298.523	484.81
298.753	496.81
298.984	470.81
299.214	467.81
299.445	515.81
299.675	526.81
299.905	530.81
300.136	518.81
300.366	485.81
300.597	475.81
300.827	467.81
301.057	494.81
301.288	519.81
301.518	532.81
301.748	542.81
301.979	555.81
302.209	595.81
302.439	616.81
302.669	578.81
302.9	559.81
303.13	498.81
303.36	519.81
303.59	536.81
303.82	516.81
304.051	534.81
304.281	518.81
304.511	549.81
304.741	618.81
304.971	624.81
305.201	634.81
305.431	568.81
305.661	487.81
305.891	450.81
306.121	464.81
306.352	506.81
306.582	526.81
306.812	556.81
307.042	580.81
307.272	593.81
307.502	630.81
307.731	651.81
307.961	658.81
308.191	598.81
308.421	524.81
308.651	486.81
308.881	502.81
309.111	518.81
309.341	489.81
309.571	499.81
309.8	487.81
310.03	512.81
310.26	496.81
310.49	524.81
310.72	521.81
310.949	504.81
311.179	561.81
311.409	524.81
311.639	510.81
311.868	513.81
312.098	530.81
312.328	530.81
312.557	543.81
312.787	537.81
313.017	530.81
313.246	540.81
313.476	552.81
313.706	534.81
313.935	548.81
314.165	561.81
314.394	554.81
314.624	600.81
314.853	642.81
315.083	648.81
315.312	638.81
315.542	605.81
315.771	574.81
316.001	572.81
316.23	589.81
316.46	588.81
316.689	559.81
316.919	543.81
317.148	524.81
317.377	560.81
317.607	596.81
317.836	639.81
318.065	642.81
318.295	622.81
318.524	603.81
318.753	592.81
318.983	575.81
319.212	572.81
319.441	562.81
319.67	546.81
319.9	574.81
320.129	597.81
320.358	630.81
320.587	646.81
320.816	622.81
321.046	604.81
321.275	609.81
321.504	626.81
321.733	640.81
321.962	616.81
322.191	575.81
322.42	550.81
322.649	572.81
322.878	546.81
323.108	572.81
323.337	588.81
323.566	576.81
323.795	572.81
324.024	596.81
324.253	545.81
324.482	576.81
324.71	559.81
324.939	534.81
325.168	561.81
325.397	574.81
325.626	599.81
325.855	591.81
326.084	563.81
326.313	572.81
326.542	607.81
326.77	609.81
326.999	619.81
327.228	579.81
327.457	531.81
327.686	551.81
327.914	551.81
328.143	585.81
328.372	576.81
328.6	591.81
328.829	541.81
329.058	548.81
329.287	559.81
329.515	580.81
329.744	584.81
329.972	632.81
330.201	645.81
330.43	625.81
330.658	593.81
330.887	591.81
331.115	598.81
331.344	619.81
331.572	597.81
331.801	610.81
332.03	619.81
332.258	614.81
332.486	624.81
332.715	616.81
332.943	601.81
333.172	610.81
333.4	613.81
333.629	632.81
333.857	677.81
334.085	755.81
334.314	817.81
334.542	866.81
334.771	762.81
334.999	698.81
335.227	681.81
335.455	651.81
335.684	656.81
335.912	681.81
336.14	651.81
336.369	623.81
336.597	608.81
336.825	611.81
337.053	667.81
337.281	686.81
337.51	719.81
337.738	706.81
337.966	660.81
338.194	609.81
338.422	603.81
338.65	607.81
338.878	592.81
339.106	577.81
339.334	579.81
339.562	585.81
339.79	599.81
340.018	640.81
340.246	633.81
340.474	634.81
340.702	640.81
340.93	632.81
341.158	624.81
341.386	628.81
341.614	605.81
341.842	608.81
342.07	607.81
342.298	611.81
342.526	617.81
342.754	598.81
342.981	620.81
343.209	587.81
343.437	595.81
343.665	600.81
343.893	620.81
344.12	647.81
344.348	642.81
344.576	617.81
344.804	605.81
345.031	592.81
345.259	620.81
345.487	575.81
345.714	558.81
345.942	577.81
346.17	585.81
346.397	565.81
346.625	586.81
346.853	550.81
347.08	564.81
347.308	563.81
347.535	571.81
347.763	583.81
347.99	570.81
348.218	558.81
348.445	560.81
348.673	583.81
348.9	585.81
349.128	611.81
349.355	612.81
349.583	593.81
349.81	558.81
350.037	544.81
350.265	568.81
350.492	556.81
350.72	570.81
350.947	606.81
351.174	597.81
351.402	542.81
351.629	530.81
351.856	533.81
352.083	534.81
352.311	532.81
352.538	563.81
352.765	595.81
352.992	583.81
353.22	566.81
353.447	569.81
353.674	562.81
353.901	586.81
354.128	559.81
354.355	586.81
354.583	580.81
354.81	596.81
355.037	592.81
355.264	588.81
355.491	561.81
355.718	592.81
355.945	559.81
356.172	571.81
356.399	530.81
356.626	543.81
356.853	602.81
357.08	644.81
357.307	677.81
357.534	669.81
357.761	588.81
357.988	568.81
358.215	549.81
358.441	550.81
358.668	538.81
358.895	575.81
359.122	619.81
359.349	655.81
359.576	612.81
359.802	558.81
360.029	569.81
360.256	546.81
360.483	566.81
360.709	591.81
360.936	605.81
361.163	662.81
361.39	690.81
361.616	713.81
361.843	725.81
362.07	666.81
362.296	605.81
362.523	566.81
362.749	577.81
362.976	602.81
363.203	594.81
363.429	587.81
363.656	570.81
363.882	608.81
364.109	660.81
364.335	682.81
364.562	640.81
364.788	608.81
365.015	595.81
365.241	576.81
365.468	609.81
365.694	636.81
365.92	619.81
366.147	594.81
366.373	560.81
366.599	574.81
366.826	564.81
367.052	550.81
367.278	571.81
367.505	588.81
367.731	609.81
367.957	612.81
368.184	636.81
368.41	678.81
368.636	680.81
368.862	681.81
369.089	664.81
369.315	641.81
369.541	630.81
369.767	609.81
369.993	609.81
370.219	613.81
370.445	642.81
370.672	674.81
370.898	688.81
371.124	659.81
371.35	631.81
371.576	672.81
371.802	642.81
372.028	626.81
372.254	629.81
372.48	615.81
372.706	586.81
372.932	602.81
373.158	624.81
373.384	631.81
373.61	661.81
373.835	659.81
374.061	646.81
374.287	638.81
374.513	625.81
374.739	630.81
374.965	652.81
375.191	639.81
375.416	662.81
375.642	700.81
375.868	716.81
376.094	686.81
376.319	685.81
376.545	669.81
376.771	678.81
376.997	702.81
377.222	675.81
377.448	690.81
377.674	667.81
377.899	674.81
378.125	704.81
378.35	703.81
378.576	665.81
378.802	632.81
379.027	612.81
379.253	654.81
379.478	637.81
379.704	642.81
379.929	657.81
380.155	651.81
380.38	671.81
380.606	678.81
380.831	659.81
381.057	720.81
381.282	712.81
381.507	684.81
381.733	722.81
381.958	778.81
382.184	696.81
382.409	698.81
382.634	685.81
382.86	679.81
383.085	681.81
383.31	725.81
383.535	784.81
383.761	806.81
383.986	774.81
384.211	748.81
384.436	745.81
384.662	778.81
384.887	774.81
385.112	724.81
385.337	725.81
385.562	759.81
385.787	738.81
386.013	750.81
386.238	762.81
386.463	798.81
386.688	848.81
386.913	855.81
387.138	839.81
387.363	770.81
387.588	796.81
387.813	761.81
388.038	801.81
388.263	810.81
388.488	767.81
388.713	719.81
388.938	711.81
389.163	741.81
389.387	755.81
389.612	730.81
389.837	768.81
390.062	752.81
390.287	768.81
390.512	781.81
390.736	752.81
390.961	751.81
391.186	729.81
391.411	750.81
391.636	767.81
391.86	742.81
392.085	764.81
392.31	763.81
392.534	766.81
392.759	774.81
392.984	766.81
393.208	770.81
393.433	802.81
393.658	827.81
393.882	831.81
394.107	769.81
394.331	787.81
394.556	793.81
394.78	809.81
395.005	834.81
395.229	831.81
395.454	889.81
395.678	880.81
395.903	832.81
396.127	830.81
396.352	823.81
396.576	847.81
396.801	891.81
397.025	894.81
397.249	838.81
397.474	817.81
397.698	827.81
397.922	894.81
398.147	946.81
398.371	936.81
398.595	900.81
398.82	880.81
399.044	884.81
399.268	935.81
399.492	957.81
399.717	995.81
399.941	1004.81
400.165	1009.81
400.389	947.81
400.613	984.81
400.837	1134.81
401.062	1188.81
401.286	1034.81
401.51	991.81
401.734	999.81
401.958	956.81
402.182	906.81
402.406	884.81
402.63	874.81
402.854	906.81
403.078	920.81
403.302	889.81
403.526	925.81
403.75	912.81
403.974	934.81
404.198	967.81
404.422	1008.81
404.645	1015.81
404.869	991.81
405.093	922.81
405.317	916.81
405.541	912.81
405.765	953.81
405.988	946.81
406.212	961.81
406.436	991.81
406.66	1010.81
406.883	1009.81
407.107	1147.81
407.331	1214.81
407.555	1278.81
407.778	1146.81
408.002	995.81
408.226	963.81
408.449	983.81
408.673	953.81
408.896	964.81
409.12	977.81
409.344	973.81
409.567	952.81
409.791	983.81
410.014	999.81
410.238	1026.81
410.461	1090.81
410.685	984.81
410.908	947.81
411.132	961.81
411.355	930.81
411.578	930.81
411.802	946.81
412.025	978.81
412.249	941.81
412.472	934.81
412.695	938.81
412.919	933.81
413.142	912.81
413.365	928.81
413.589	936.81
413.812	1022.81
414.035	1040.81
414.258	959.81
414.482	963.81
414.705	946.81
414.928	944.81
415.151	916.81
415.374	914.81
415.597	953.81
415.821	926.81
416.044	958.81
416.267	960.81
416.49	919.81
416.713	933.81
416.936	978.81
417.159	963.81
417.382	975.81
417.605	928.81
417.828	934.81
418.051	959.81
418.274	951.81
418.497	932.81
418.72	944.81
418.943	935.81
419.166	965.81
419.389	971.81
419.611	976.81
419.834	942.81
420.057	970.81
420.28	961.81
420.503	961.81
420.726	977.81
420.948	961.81
421.171	937.81
421.394	951.81
421.617	1003.81
421.839	1004.81
422.062	981.81
422.285	957.81
422.507	932.81
422.73	926.81
422.953	874.81
423.175	908.81
423.398	922.81
423.621	907.81
423.843	940.81
424.066	1014.81
424.288	1036.81
424.511	1051.81
424.733	1008.81
424.956	944.81
425.178	915.81
425.401	927.81
425.623	942.81
425.846	963.81
426.068	934.81
426.291	999.81
426.513	1001.81
426.735	999.81
426.958	1072.81
427.18	1101.81
427.402	1020.81
427.625	1036.81
427.847	1002.81
428.069	973.81
428.292	931.81
428.514	902.81
428.736	915.81
428.958	936.81
429.181	927.81
429.403	1091.81
429.625	1237.81
429.847	1060.81
430.069	966.81
430.292	1076.81
430.514	1032.81
430.736	974.81
430.958	982.81
431.18	943.81
431.402	890.81
431.624	851.81
431.846	849.81
432.068	750.81
432.29	755.81
432.512	827.81
432.734	909.81
432.956	935.81
433.178	989.81
433.4	977.81
433.622	977.81
433.844	931.81
434.066	861.81
434.287	807.81
434.509	785.81
434.731	870.81
434.953	919.81
435.175	939.81
435.397	921.81
435.618	912.81
435.84	855.81
436.062	844.81
436.284	917.81
436.505	940.81
436.727	972.81
436.949	949.81
437.17	932.81
437.392	895.81
437.614	883.81
437.835	818.81
438.057	855.81
438.278	853.81
438.5	900.81
438.721	932.81
438.943	938.81
439.165	916.81
439.386	939.81
439.608	958.81
439.829	983.81
440.05	970.81
440.272	983.81
440.493	949.81
440.715	994.81
440.936	1026.81
441.158	1086.81
441.379	1038.81
441.6	1031.81
441.822	1025.81
442.043	1022.81
442.264	1003.81
442.486	950.81
442.707	985.81
442.928	964.81
443.149	984.81
443.371	1005.81
443.592	1052.81
443.813	1043.81
444.034	1022.81
444.255	1037.81
444.476	1030.81
444.698	1045.81
444.919	1030.81
445.14	1181.81
445.361	1112.81
445.582	1100.81
445.803	1080.81
446.024	1038.81
446.245	1108.81
446.466	1059.81
446.687	1086.81
446.908	1081.81
447.129	1036.81
447.35	1042.81
447.571	1002.81
447.792	984.81
448.013	966.81
448.234	978.81
448.455	992.81
448.675	964.81
448.896	923.81
449.117	908.81
449.338	934.81
449.559	956.81
449.779	999.81
450	1050.81
450.221	1095.81
450.442	1057.81
450.662	984.81
450.883	891.81
451.104	870.81
451.324	904.81
451.545	915.81
451.766	871.81
451.986	856.81
452.207	844.81
452.428	795.81
452.648	794.81
452.869	781.81
453.089	778.81
453.31	796.81
453.53	772.81
453.751	758.81
453.971	710.81
454.192	734.81
454.412	777.81
454.633	800.81
454.853	803.81
455.073	762.81
455.294	776.81
455.514	754.81
455.734	770.81
455.955	795.81
456.175	777.81
456.395	745.81
456.616	750.81
456.836	758.81
457.056	744.81
457.276	743.81
457.497	725.81
457.717	690.81
457.937	701.81
458.157	729.81
458.377	702.81
458.598	690.81
458.818	683.81
459.038	712.81
459.258	727.81
459.478	756.81
459.698	722.81
459.918	753.81
460.138	796.81
460.358	822.81
460.578	864.81
460.798	888.81
461.018	898.81
461.238	862.81
461.458	848.81
461.678	859.81
461.898	842.81
462.118	824.81
462.338	850.81
462.558	866.81
462.777	860.81
462.997	886.81
463.217	909.81
463.437	891.81
463.657	849.81
463.876	826.81
464.096	817.81
464.316	856.81
464.536	886.81
464.755	911.81
464.975	885.81
465.195	860.81
465.414	883.81
465.634	903.81
465.854	881.81
466.073	965.81
466.293	933.81
466.512	860.81
466.732	890.81
466.951	926.81
467.171	894.81
467.391	878.81
467.61	908.81
467.829	918.81
468.049	992.81
468.268	1052.81
468.488	963.81
468.707	963.81
468.927	932.81
469.146	921.81
469.365	944.81
469.585	945.81
469.804	933.81
470.023	965.81
470.243	939.81
470.462	970.81
470.681	925.81
470.901	981.81
471.12	960.81
471.339	930.81
471.558	906.81
471.777	908.81
471.997	907.81
472.216	851.81
472.435	807.81
472.654	743.81
472.873	797.81
473.092	835.81
473.311	839.81
473.53	826.81
473.749	841.81
473.968	842.81
474.187	856.81
474.406	865.81
474.625	869.81
474.844	883.81
475.063	906.81
475.282	910.81
475.501	868.81
475.72	841.81
475.939	914.81
476.158	912.81
476.377	859.81
476.596	872.81
476.814	866.81
477.033	810.81
477.252	868.81
477.471	901.81
477.69	958.81
477.908	970.81
478.127	992.81
478.346	1036.81
478.564	1041.81
478.783	1006.81
479.002	1035.81
479.22	1018.81
479.439	1045.81
479.658	1062.81
479.876	1005.81
480.095	914.81
480.313	884.81
480.532	893.81
480.751	890.81
480.969	828.81
481.188	810.81
481.406	801.81
481.624	769.81
481.843	795.81
482.061	857.81
482.28	873.81
482.498	910.81
482.717	848.81
482.935	894.81
483.153	1030.81
483.372	1039.81
483.59	1027.81
483.808	973.81
484.027	944.81
484.245	1014.81
484.463	1251.81
484.681	1294.81
484.9	1047.81
485.118	987.81
485.336	927.81
485.554	934.81
485.772	911.81
485.99	890.81
486.209	902.81
486.427	914.81
486.645	978.81
486.863	1026.81
487.081	1060.81
487.299	1051.81
487.517	1057.81
487.735	1140.81
487.953	1230.81
488.171	1188.81
488.389	1150.81
488.607	1108.81
488.825	1139.81
489.043	1070.81
489.261	1009.81
489.479	1052.81
489.696	1052.81
489.914	1027.81
490.132	1070.81
490.35	1121.81
490.568	1152.81
490.786	1214.81
491.003	1195.81
491.221	1268.81
491.439	1292.81
491.657	1319.81
491.874	1362.81
492.092	1483.81
492.31	1534.81
492.527	1495.81
492.745	1415.81
492.963	1334.81
493.18	1320.81
493.398	1364.81
493.615	1368.81
493.833	1303.81
494.05	1270.81
494.268	1230.81
494.485	1250.81
494.703	1263.81
494.92	1253.81
495.138	1255.81
495.355	1289.81
495.573	1308.81
495.79	1294.81
496.008	1299.81
496.225	1239.81
496.442	1275.81
496.66	1246.81
496.877	1254.81
497.094	1279.81
497.312	1240.81
497.529	1209.81
497.746	1223.81
497.963	1287.81
498.181	1320.81
498.398	1294.81
498.615	1241.81
498.832	1186.81
499.049	1194.81
499.267	1202.81
499.484	1260.81
499.701	1372.81
499.918	1397.81
500.135	1495.81
500.352	1566.81
500.569	1619.81
500.786	1688.81
501.003	1593.81
501.22	1444.81
501.437	1436.81
501.654	1448.81
501.871	1366.81
502.088	1183.81
502.305	1198.81
502.522	1145.81
502.739	1111.81
502.956	1073.81
503.172	1040.81
503.389	1023.81
503.606	1007.81
503.823	990.81
504.04	1008.81
504.256	987.81
504.473	1032.81
504.69	1035.81
504.907	986.81
505.123	978.81
505.34	1089.81
505.557	1387.81
505.773	1156.81
505.99	1005.81
506.207	933.81
506.423	905.81
506.64	909.81
506.856	924.81
507.073	1045.81
507.289	1089.81
507.506	1046.81
507.722	892.81
507.939	871.81
508.155	863.81
508.372	870.81
508.588	834.81
508.805	820.81
509.021	795.81
509.238	787.81
509.454	806.81
509.67	774.81
509.887	746.81
510.103	731.81
510.319	772.81
510.536	778.81
510.752	797.81
510.968	753.81
511.184	810.81
511.401	775.81
511.617	710.81
511.833	720.81
512.049	739.81
512.265	723.81
512.481	734.81
512.698	763.81
512.914	788.81
513.13	752.81
513.346	730.81
513.562	716.81
513.778	751.81
513.994	758.81
514.21	779.81
514.426	773.81
514.642	836.81
514.858	796.81
515.074	725.81
515.29	719.81
515.506	778.81
515.721	758.81
515.937	776.81
516.153	843.81
516.369	779.81
516.585	733.81
516.801	715.81
517.016	735.81
517.232	772.81
517.448	774.81
517.664	790.81
517.879	806.81
518.095	828.81
518.311	811.81
518.527	767.81
518.742	779.81
518.958	771.81
519.173	778.81
519.389	804.81
519.605	771.81
519.82	792.81
520.036	816.81
520.251	785.81
520.467	796.81
520.682	823.81
520.898	807.81
521.113	735.81
521.329	739.81
521.544	772.81
521.76	772.81
521.975	740.81
522.19	692.81
522.406	764.81
522.621	932.81
522.836	892.81
523.052	726.81
523.267	753.81
523.482	754.81
523.698	756.81
523.913	753.81
524.128	762.81
524.343	812.81
524.559	836.81
524.774	783.81
524.989	762.81
525.204	740.81
525.419	734.81
525.634	755.81
525.849	714.81
526.064	723.81
526.28	702.81
526.495	657.81
526.71	647.81
526.925	638.81
527.14	617.81
527.355	630.81
527.57	643.81
527.785	657.81
527.999	656.81
528.214	690.81
528.429	707.81
528.644	734.81
528.859	797.81
529.074	804.81
529.289	838.81
529.503	894.81
529.718	805.81
529.933	724.81
530.148	668.81
530.363	651.81
530.577	658.81
530.792	634.81
531.007	648.81
531.221	617.81
531.436	648.81
531.651	670.81
531.865	702.81
532.08	672.81
532.295	631.81
532.509	616.81
532.724	618.81
532.938	684.81
533.153	715.81
533.367	704.81
533.582	755.81
533.796	734.81
534.011	706.81
534.225	684.81
534.44	649.81
534.654	644.81
534.868	655.81
535.083	675.81
535.297	699.81
535.511	705.81
535.726	692.81
535.94	692.81
536.154	663.81
536.369	651.81
536.583	606.81
536.797	635.81
537.011	617.81
537.225	630.81
537.44	598.81
537.654	680.81
537.868	632.81
538.082	606.81
538.296	637.81
538.51	624.81
538.724	687.81
538.938	739.81
539.153	760.81
539.367	759.81
539.581	698.81
539.795	670.81
540.009	644.81
540.222	646.81
540.436	663.81
540.65	756.81
540.864	789.81
541.078	819.81
541.292	826.81
541.506	912.81
541.72	948.81
541.934	1058.81
542.147	1059.81
542.361	1030.81
542.575	943.81
542.789	826.81
543.002	784.81
543.216	738.81
543.43	786.81
543.644	829.81
543.857	891.81
544.071	921.81
544.285	939.81
544.498	923.81
544.712	943.81
544.925	964.81
545.139	953.81
545.352	959.81
545.566	955.81
545.779	944.81
545.993	979.81
546.206	979.81
546.42	966.81
546.633	966.81
546.847	952.81
547.06	954.81
547.274	972.81
547.487	1002.81
547.7	1001.81
547.914	983.81
548.127	978.81
548.34	959.81
548.554	944.81
548.767	956.81
548.98	962.81
549.193	920.81
549.407	970.81
549.62	949.81
549.833	923.81
550.046	917.81
550.259	924.81
550.473	908.81
550.686	919.81
550.899	897.81
551.112	865.81
551.325	822.81
551.538	847.81
551.751	870.81
551.964	725.81
552.177	754.81
552.39	830.81
552.603	856.81
552.816	886.81
553.029	922.81
553.242	934.81
553.455	917.81
553.667	914.81
553.88	914.81
554.093	899.81
554.306	873.81
554.519	834.81
554.732	816.81
554.944	848.81
555.157	848.81
555.37	829.81
555.583	827.81
555.795	784.81
556.008	785.81
556.221	734.81
556.433	731.81
556.646	729.81
556.859	721.81
557.071	747.81
557.284	728.81
557.496	753.81
557.709	742.81
557.921	735.81
558.134	751.81
558.346	734.81
558.559	742.81
558.771	721.81
558.984	730.81
559.196	691.81
559.409	681.81
559.621	675.81
559.833	667.81
560.046	674.81
560.258	667.81
560.47	668.81
560.683	686.81
560.895	672.81
561.107	704.81
561.32	695.81
561.532	692.81
561.744	684.81
561.956	664.81
562.168	658.81
562.381	678.81
562.593	617.81
562.805	655.81
563.017	650.81
563.229	650.81
563.441	656.81
563.653	627.81
563.865	634.81
564.077	630.81
564.289	602.81
564.501	631.81
564.713	619.81
564.925	637.81
565.137	674.81
565.349	628.81
565.561	624.81
565.773	632.81
565.985	657.81
566.197	683.81
566.408	678.81
566.62	683.81
566.832	677.81
567.044	680.81
567.255	677.81
567.467	678.81
567.679	670.81
567.891	670.81
568.102	608.81
568.314	576.81
568.526	544.81
568.737	527.81
568.949	501.81
569.161	456.81
569.372	459.81
569.584	468.81
569.795	465.81
570.007	448.81
570.218	446.81
570.43	455.81
570.641	454.81
570.853	494.81
571.064	503.81
571.276	476.81
571.487	489.81
571.698	519.81
571.91	478.81
572.121	448.81
572.333	458.81
572.544	448.81
572.755	394.81
572.966	396.81
573.178	387.81
573.389	385.81
573.6	392.81
573.811	434.81
574.023	401.81
574.234	407.81
574.445	400.81
574.656	398.81
574.867	382.81
575.078	395.81
575.289	410.81
575.501	391.81
575.712	389.81
575.923	399.81
576.134	410.81
576.345	401.81
576.556	402.81
576.767	408.81
576.978	395.81
577.188	406.81
577.399	363.81
577.61	374.81
577.821	394.81
578.032	375.81
578.243	368.81
578.454	375.81
578.665	363.81
578.875	362.81
579.086	350.81
579.297	338.81
579.508	357.81
579.718	351.81
579.929	347.81
580.14	341.81
580.35	331.81
580.561	352.81
580.772	387.81
580.982	374.81
581.193	343.81
581.403	329.81
581.614	347.81
581.825	356.81
582.035	336.81
582.246	359.81
582.456	338.81
582.667	355.81
582.877	346.81
583.087	341.81
583.298	346.81
583.508	335.81
583.719	337.81
583.929	330.81
584.139	329.81
584.35	307.81
584.56	329.81
584.77	340.81
584.981	335.81
585.191	342.81
585.401	337.81
585.611	324.81
585.821	338.81
586.032	335.81
586.242	318.81
586.452	317.81
586.662	315.81
586.872	324.81
587.082	292.81
587.292	322.81
587.502	331.81
587.713	323.81
587.923	316.81
588.133	308.81
588.343	323.81
588.553	298.81
588.762	308.81
588.972	312.81
589.182	327.81
589.392	311.81
589.602	329.81
589.812	319.81
590.022	308.81
590.232	320.81
590.441	330.81
590.651	320.81
590.861	299.81
591.071	308.81
591.281	315.81
591.49	307.81
591.7	315.81
591.91	294.81
592.119	304.81
592.329	321.81
592.539	336.81
592.748	322.81
592.958	323.81
593.167	326.81
593.377	327.81
593.587	305.81
593.796	328.81
594.006	312.81
594.215	333.81
594.424	346.81
594.634	349.81
594.843	339.81
595.053	354.81
595.262	338.81
595.472	326.81
595.681	329.81
595.89	332.81
596.1	313.81
596.309	316.81
596.518	339.81
596.727	363.81
596.937	333.81
597.146	318.81
597.355	317.81
597.564	315.81
597.774	297.81
597.983	269.81
598.192	279.81
598.401	294.81
598.61	289.81
598.819	293.81
599.028	306.81
599.237	309.81
599.446	303.81
599.655	290.81
599.864	307.81
600.073	277.81
600.282	292.81
600.491	299.81
600.7	291.81
600.909	313.81
601.118	331.81
601.327	309.81
601.536	334.81
601.745	339.81
601.953	352.81
602.162	380.81
602.371	352.81
602.58	358.81
602.789	338.81
602.997	357.81
603.206	351.81
603.415	353.81
603.623	350.81
603.832	348.81
604.041	347.81
604.249	327.81
604.458	299.81
604.666	306.81
604.875	327.81
605.084	320.81
605.292	338.81
605.501	340.81
605.709	380.81
605.918	369.81
606.126	371.81
606.334	376.81
606.543	356.81
606.751	384.81
606.96	374.81
607.168	373.81
607.376	345.81
607.585	348.81
607.793	370.81
608.001	344.81
608.21	343.81
608.418	342.81
608.626	355.81
608.834	376.81
609.043	366.81
609.251	356.81
609.459	366.81
609.667	373.81
609.875	386.81
610.083	393.81
610.291	370.81
610.499	376.81
610.707	378.81
610.916	372.81
611.124	389.81
611.332	380.81
611.54	378.81
611.748	375.81
611.955	362.81
612.163	363.81
612.371	357.81
612.579	358.81
612.787	356.81
612.995	371.81
613.203	378.81
613.411	352.81
613.618	374.81
613.826	370.81
614.034	350.81
614.242	360.81
614.449	356.81
614.657	370.81
614.865	363.81
615.072	355.81
615.28	351.81
615.488	367.81
615.695	364.81
615.903	366.81
616.111	371.81
616.318	364.81
616.526	350.81
616.733	363.81
616.941	358.81
617.148	354.81
617.356	358.81
617.563	352.81
617.771	329.81
617.978	335.81
618.185	350.81
618.393	366.81
618.6	343.81
618.807	329.81
619.015	324.81
619.222	342.81
619.429	322.81
619.637	308.81
619.844	295.81
620.051	322.81
620.258	312.81
620.466	352.81
620.673	325.81
620.88	317.81
621.087	330.81
621.294	312.81
621.501	304.81
621.708	309.81
621.915	300.81
622.122	322.81
622.329	346.81
622.536	361.81
622.743	345.81
622.95	318.81
623.157	318.81
623.364	338.81
623.571	336.81
623.778	337.81
623.985	343.81
624.192	328.81
624.399	310.81
624.606	312.81
624.812	312.81
625.019	292.81
625.226	290.81
625.433	297.81
625.639	278.81
625.846	274.81
626.053	259.81
626.259	258.81
626.466	261.81
626.673	225.81
626.879	246.81
627.086	264.81
627.293	280.81
627.499	293.81
627.706	307.81
627.912	304.81
628.119	304.81
628.325	318.81
628.532	309.81
628.738	294.81
628.945	283.81
629.151	279.81
629.357	284.81
629.564	306.81
629.77	275.81
629.976	288.81
630.183	268.81
630.389	275.81
630.595	261.81
630.802	290.81
631.008	273.81
631.214	282.81
631.42	271.81
631.627	260.81
631.833	258.81
632.039	257.81
632.245	275.81
632.451	274.81
632.657	268.81
632.863	274.81
633.069	252.81
633.275	259.81
633.481	261.81
633.688	262.81
633.893	257.81
634.099	245.81
634.305	263.81
634.511	256.81
634.717	245.81
634.923	239.81
635.129	229.81
635.335	243.81
635.541	232.81
635.747	247.81
635.952	261.81
636.158	262.81
636.364	268.81
636.57	266.81
636.775	275.81
636.981	262.81
637.187	272.81
637.392	269.81
637.598	265.81
637.804	260.81
638.009	277.81
638.215	265.81
638.421	267.81
638.626	269.81
638.832	251.81
639.037	249.81
639.243	260.81
639.448	244.81
639.654	239.81
639.859	251.81
640.065	240.81
640.27	270.81
640.475	247.81
640.681	271.81
640.886	245.81
641.091	227.81
641.297	268.81
641.502	252.81
641.707	255.81
641.913	280.81
642.118	256.81
642.323	247.81
642.528	239.81
642.733	240.81
642.939	220.81
643.144	243.81
643.349	252.81
643.554	231.81
643.759	239.81
643.964	241.81
644.169	240.81
644.374	253.81
644.579	251.81
644.784	243.81
644.989	231.81
645.194	254.81
645.399	238.81
645.604	224.81
645.809	235.81
646.014	243.81
646.219	247.81
646.423	227.81
646.628	259.81
646.833	239.81
647.038	236.81
647.243	252.81
647.447	248.81
647.652	230.81
647.857	259.81
648.062	255.81
648.266	245.81
648.471	252.81
648.676	245.81
648.88	239.81
649.085	232.81
649.289	225.81
649.494	240.81
649.698	244.81
649.903	244.81
650.107	243.81
650.312	243.81
650.516	227.81
650.721	232.81
650.925	236.81
651.13	220.81
651.334	219.81
651.539	224.81
651.743	235.81
651.947	223.81
652.152	210.81
652.356	201.81
652.56	212.81
652.764	211.81
652.969	196.81
653.173	221.81
653.377	216.81
653.581	215.81
653.785	199.81
653.99	198.81
654.194	219.81
654.398	198.81
654.602	194.81
654.806	199.81
655.01	202.81
655.214	203.81
655.418	207.81
655.622	194.81
655.826	219.81
656.03	208.81
656.234	216.81
656.438	233.81
656.642	233.81
656.846	222.81
657.049	211.81
657.253	183.81
657.457	188.81
657.661	183.81
657.865	186.81
658.068	172.81
658.272	157.81
658.476	149.81
658.68	145.81
658.883	138.81
659.087	154.81
659.291	147.81
659.494	119.81
659.698	135.81
659.901	123.81
660.105	131.81
660.309	130.81
660.512	122.81
660.716	117.81
660.919	118.81
661.123	122.81
661.326	108.81
661.53	108.81
661.733	90.81
661.936	99.81
662.14	98.81
662.343	107.81
662.546	92.81
662.75	88.81
662.953	96.81
663.156	70.81
663.36	105.81
663.563	90.81
663.766	91.81
663.969	98.81
664.173	98.81
664.376	88.81
664.579	83.81
664.782	91.81
664.985	91.81
665.188	79.81
665.391	88.81
665.594	87.81
665.797	87.81
666	87.81
666.203	86.81
666.406	93.81
666.609	77.81
666.812	95.81
667.015	81.81
667.218	79.81
667.421	72.81
667.624	82.81
667.827	79.81
668.03	81.81
668.232	77.81
668.435	69.81
668.638	91.81
668.841	91.81
669.043	91.81
669.246	95.81
669.449	87.81
669.651	81.81
669.854	83.81
670.057	70.81
670.259	85.81
670.462	77.81
670.665	83.81
670.867	74.81
671.07	80.81
671.272	83.81
671.475	102.81
671.677	86.81
671.88	77.81
672.082	97.81
672.284	82.81
672.487	84.81
672.689	77.81
672.892	72.81
