Data from WStandard_LampEnergy10_LIBS07252019.E.O._I.C._HRD10591_15-54-45-928.txt Node
Date: Thu Jul 25 15:54:45 EDT 2019
User: cochatt
Spectrometer: HR+D1059
Trigger mode: 1
Integration Time (sec): 1.000000E-1
Scans to average: 1
Electric dark correction enabled: true
Nonlinearity correction enabled: false
Boxcar width: 0
XAxis mode: Wavelengths
Number of Pixels in Spectrum: 2048
>>>>>Begin Spectral Data<<<<<
223.165	-6.62
223.4	-6.62
223.635	-6.62
223.869	-24.62
224.104	-18.62
224.338	-4.62
224.573	-23.62
224.808	-11.62
225.042	-12.62
225.277	3.38
225.511	6.38
225.746	17.38
225.98	0.38
226.215	10.38
226.449	9.38
226.683	11.38
226.918	16.38
227.152	27.38
227.387	44.38
227.621	59.38
227.856	41.38
228.09	47.38
228.324	57.38
228.559	56.38
228.793	77.38
229.027	129.38
229.262	139.38
229.496	147.38
229.73	159.38
229.964	169.38
230.199	183.38
230.433	176.38
230.667	194.38
230.901	185.38
231.136	183.38
231.37	167.38
231.604	162.38
231.838	175.38
232.072	188.38
232.306	175.38
232.541	171.38
232.775	218.38
233.009	232.38
233.243	208.38
233.477	197.38
233.711	203.38
233.945	211.38
234.179	222.38
234.413	211.38
234.647	210.38
234.881	212.38
235.115	194.38
235.349	215.38
235.583	190.38
235.817	198.38
236.051	201.38
236.285	195.38
236.519	212.38
236.753	221.38
236.987	233.38
237.221	213.38
237.455	232.38
237.689	219.38
237.922	209.38
238.156	229.38
238.39	231.38
238.624	238.38
238.858	255.38
239.091	250.38
239.325	251.38
239.559	295.38
239.793	290.38
240.027	321.38
240.26	300.38
240.494	249.38
240.728	219.38
240.961	231.38
241.195	238.38
241.429	252.38
241.662	266.38
241.896	259.38
242.13	237.38
242.363	272.38
242.597	275.38
242.83	297.38
243.064	294.38
243.298	310.38
243.531	284.38
243.765	263.38
243.998	275.38
244.232	263.38
244.465	253.38
244.699	263.38
244.932	287.38
245.166	321.38
245.399	309.38
245.633	299.38
245.866	300.38
246.099	302.38
246.333	293.38
246.566	315.38
246.8	323.38
247.033	350.38
247.266	309.38
247.5	320.38
247.733	331.38
247.966	337.38
248.2	378.38
248.433	354.38
248.666	367.38
248.899	403.38
249.133	421.38
249.366	448.38
249.599	393.38
249.832	358.38
250.066	383.38
250.299	376.38
250.532	346.38
250.765	326.38
250.998	335.38
251.231	350.38
251.465	351.38
251.698	352.38
251.931	337.38
252.164	347.38
252.397	364.38
252.63	356.38
252.863	318.38
253.096	324.38
253.329	344.38
253.562	356.38
253.795	350.38
254.028	349.38
254.261	324.38
254.494	353.38
254.727	318.38
254.96	341.38
255.193	371.38
255.426	405.38
255.659	437.38
255.892	456.38
256.124	403.38
256.357	388.38
256.59	414.38
256.823	439.38
257.056	420.38
257.289	472.38
257.521	520.38
257.754	486.38
257.987	453.38
258.22	477.38
258.452	446.38
258.685	381.38
258.918	383.38
259.151	407.38
259.383	377.38
259.616	353.38
259.849	370.38
260.081	413.38
260.314	429.38
260.547	449.38
260.779	484.38
261.012	463.38
261.244	403.38
261.477	403.38
261.71	422.38
261.942	430.38
262.175	399.38
262.407	392.38
262.64	397.38
262.872	371.38
263.105	375.38
263.337	387.38
263.57	382.38
263.802	365.38
264.035	366.38
264.267	343.38
264.499	356.38
264.732	382.38
264.964	401.38
265.197	402.38
265.429	432.38
265.661	449.38
265.894	512.38
266.126	524.38
266.358	458.38
266.591	462.38
266.823	507.38
267.055	456.38
267.287	451.38
267.52	423.38
267.752	426.38
267.984	438.38
268.216	465.38
268.448	485.38
268.681	466.38
268.913	418.38
269.145	428.38
269.377	416.38
269.609	463.38
269.841	531.38
270.073	583.38
270.306	627.38
270.538	632.38
270.77	537.38
271.002	478.38
271.234	457.38
271.466	484.38
271.698	553.38
271.93	610.38
272.162	576.38
272.394	541.38
272.626	511.38
272.858	447.38
273.09	439.38
273.322	411.38
273.553	387.38
273.785	397.38
274.017	409.38
274.249	441.38
274.481	451.38
274.713	426.38
274.945	421.38
275.176	414.38
275.408	399.38
275.64	408.38
275.872	415.38
276.104	453.38
276.335	493.38
276.567	541.38
276.799	526.38
277.031	483.38
277.262	481.38
277.494	497.38
277.726	526.38
277.957	503.38
278.189	474.38
278.421	445.38
278.652	441.38
278.884	418.38
279.115	460.38
279.347	425.38
279.579	447.38
279.81	444.38
280.042	468.38
280.273	523.38
280.505	486.38
280.736	506.38
280.968	469.38
281.199	443.38
281.431	418.38
281.662	432.38
281.894	427.38
282.125	455.38
282.356	438.38
282.588	459.38
282.819	449.38
283.051	478.38
283.282	511.38
283.513	491.38
283.745	434.38
283.976	415.38
284.207	434.38
284.439	447.38
284.67	446.38
284.901	458.38
285.132	438.38
285.364	451.38
285.595	452.38
285.826	449.38
286.057	452.38
286.288	451.38
286.52	478.38
286.751	501.38
286.982	501.38
287.213	454.38
287.444	433.38
287.675	469.38
287.906	469.38
288.138	471.38
288.369	476.38
288.6	438.38
288.831	453.38
289.062	458.38
289.293	486.38
289.524	454.38
289.755	471.38
289.986	453.38
290.217	444.38
290.448	462.38
290.679	458.38
290.91	452.38
291.141	470.38
291.371	476.38
291.602	482.38
291.833	482.38
292.064	495.38
292.295	483.38
292.526	490.38
292.757	523.38
292.987	486.38
293.218	486.38
293.449	523.38
293.68	570.38
293.91	591.38
294.141	542.38
294.372	556.38
294.603	549.38
294.833	566.38
295.064	523.38
295.295	503.38
295.525	462.38
295.756	483.38
295.987	442.38
296.217	443.38
296.448	457.38
296.679	452.38
296.909	467.38
297.14	464.38
297.37	461.38
297.601	515.38
297.831	515.38
298.062	505.38
298.292	456.38
298.523	466.38
298.753	478.38
298.984	485.38
299.214	482.38
299.445	504.38
299.675	483.38
299.905	500.38
300.136	484.38
300.366	473.38
300.597	468.38
300.827	447.38
301.057	491.38
301.288	486.38
301.518	507.38
301.748	523.38
301.979	564.38
302.209	569.38
302.439	606.38
302.669	583.38
302.9	554.38
303.13	495.38
303.36	520.38
303.59	507.38
303.82	515.38
304.051	504.38
304.281	522.38
304.511	541.38
304.741	566.38
304.971	636.38
305.201	643.38
305.431	552.38
305.661	480.38
305.891	475.38
306.121	479.38
306.352	496.38
306.582	511.38
306.812	546.38
307.042	548.38
307.272	577.38
307.502	591.38
307.731	634.38
307.961	649.38
308.191	572.38
308.421	547.38
308.651	514.38
308.881	500.38
309.111	485.38
309.341	472.38
309.571	524.38
309.8	494.38
310.03	499.38
310.26	481.38
310.49	502.38
310.72	508.38
310.949	536.38
311.179	538.38
311.409	534.38
311.639	517.38
311.868	525.38
312.098	524.38
312.328	515.38
312.557	517.38
312.787	523.38
313.017	540.38
313.246	529.38
313.476	536.38
313.706	516.38
313.935	550.38
314.165	542.38
314.394	576.38
314.624	592.38
314.853	612.38
315.083	642.38
315.312	611.38
315.542	564.38
315.771	542.38
316.001	555.38
316.23	585.38
316.46	552.38
316.689	528.38
316.919	519.38
317.148	529.38
317.377	560.38
317.607	596.38
317.836	636.38
318.065	649.38
318.295	624.38
318.524	595.38
318.753	579.38
318.983	545.38
319.212	535.38
319.441	555.38
319.67	529.38
319.9	560.38
320.129	585.38
320.358	608.38
320.587	630.38
320.816	611.38
321.046	608.38
321.275	588.38
321.504	600.38
321.733	623.38
321.962	589.38
322.191	564.38
322.42	563.38
322.649	552.38
322.878	553.38
323.108	573.38
323.337	586.38
323.566	579.38
323.795	551.38
324.024	570.38
324.253	552.38
324.482	570.38
324.71	515.38
324.939	523.38
325.168	548.38
325.397	551.38
325.626	582.38
325.855	568.38
326.084	573.38
326.313	557.38
326.542	576.38
326.77	601.38
326.999	585.38
327.228	538.38
327.457	537.38
327.686	552.38
327.914	557.38
328.143	561.38
328.372	549.38
328.6	538.38
328.829	544.38
329.058	549.38
329.287	559.38
329.515	571.38
329.744	594.38
329.972	622.38
330.201	645.38
330.43	611.38
330.658	588.38
330.887	586.38
331.115	588.38
331.344	595.38
331.572	574.38
331.801	588.38
332.03	614.38
332.258	606.38
332.486	592.38
332.715	616.38
332.943	604.38
333.172	583.38
333.4	621.38
333.629	647.38
333.857	662.38
334.085	749.38
334.314	814.38
334.542	840.38
334.771	743.38
334.999	678.38
335.227	638.38
335.455	638.38
335.684	628.38
335.912	653.38
336.14	687.38
336.369	612.38
336.597	591.38
336.825	581.38
337.053	632.38
337.281	675.38
337.51	705.38
337.738	714.38
337.966	646.38
338.194	606.38
338.422	590.38
338.65	577.38
338.878	593.38
339.106	574.38
339.334	564.38
339.562	551.38
339.79	587.38
340.018	615.38
340.246	627.38
340.474	633.38
340.702	632.38
340.93	613.38
341.158	640.38
341.386	615.38
341.614	607.38
341.842	592.38
342.07	619.38
342.298	612.38
342.526	601.38
342.754	603.38
342.981	595.38
343.209	606.38
343.437	609.38
343.665	606.38
343.893	606.38
344.12	653.38
344.348	650.38
344.576	596.38
344.804	606.38
345.031	591.38
345.259	584.38
345.487	580.38
345.714	547.38
345.942	550.38
346.17	573.38
346.397	578.38
346.625	560.38
346.853	545.38
347.08	540.38
347.308	561.38
347.535	581.38
347.763	582.38
347.99	562.38
348.218	549.38
348.445	560.38
348.673	561.38
348.9	595.38
349.128	581.38
349.355	620.38
349.583	588.38
349.81	555.38
350.037	527.38
350.265	517.38
350.492	543.38
350.72	565.38
350.947	595.38
351.174	557.38
351.402	568.38
351.629	555.38
351.856	517.38
352.083	533.38
352.311	524.38
352.538	563.38
352.765	583.38
352.992	583.38
353.22	559.38
353.447	539.38
353.674	580.38
353.901	562.38
354.128	561.38
354.355	543.38
354.583	608.38
354.81	622.38
355.037	585.38
355.264	599.38
355.491	591.38
355.718	580.38
355.945	553.38
356.172	547.38
356.399	559.38
356.626	553.38
356.853	587.38
357.08	628.38
357.307	681.38
357.534	654.38
357.761	580.38
357.988	551.38
358.215	555.38
358.441	555.38
358.668	532.38
358.895	569.38
359.122	606.38
359.349	646.38
359.576	608.38
359.802	571.38
360.029	556.38
360.256	557.38
360.483	581.38
360.709	591.38
360.936	604.38
361.163	639.38
361.39	679.38
361.616	703.38
361.843	693.38
362.07	655.38
362.296	557.38
362.523	563.38
362.749	556.38
362.976	591.38
363.203	603.38
363.429	579.38
363.656	552.38
363.882	593.38
364.109	665.38
364.335	673.38
364.562	636.38
364.788	622.38
365.015	580.38
365.241	586.38
365.468	592.38
365.694	620.38
365.92	638.38
366.147	587.38
366.373	570.38
366.599	550.38
366.826	575.38
367.052	586.38
367.278	604.38
367.505	595.38
367.731	615.38
367.957	614.38
368.184	628.38
368.41	680.38
368.636	685.38
368.862	675.38
369.089	655.38
369.315	616.38
369.541	631.38
369.767	587.38
369.993	601.38
370.219	591.38
370.445	618.38
370.672	669.38
370.898	677.38
371.124	639.38
371.35	643.38
371.576	655.38
371.802	648.38
372.028	631.38
372.254	634.38
372.48	599.38
372.706	598.38
372.932	631.38
373.158	632.38
373.384	673.38
373.61	651.38
373.835	653.38
374.061	645.38
374.287	640.38
374.513	631.38
374.739	632.38
374.965	651.38
375.191	652.38
375.416	653.38
375.642	666.38
375.868	709.38
376.094	714.38
376.319	672.38
376.545	618.38
376.771	688.38
376.997	703.38
377.222	678.38
377.448	658.38
377.674	689.38
377.899	673.38
378.125	722.38
378.35	719.38
378.576	634.38
378.802	629.38
379.027	627.38
379.253	642.38
379.478	641.38
379.704	632.38
379.929	651.38
380.155	636.38
380.38	664.38
380.606	677.38
380.831	661.38
381.057	720.38
381.282	693.38
381.507	684.38
381.733	740.38
381.958	743.38
382.184	673.38
382.409	668.38
382.634	687.38
382.86	695.38
383.085	690.38
383.31	719.38
383.535	760.38
383.761	793.38
383.986	750.38
384.211	742.38
384.436	741.38
384.662	791.38
384.887	784.38
385.112	747.38
385.337	743.38
385.562	723.38
385.787	721.38
386.013	773.38
386.238	776.38
386.463	767.38
386.688	831.38
386.913	858.38
387.138	811.38
387.363	796.38
387.588	758.38
387.813	762.38
388.038	773.38
388.263	819.38
388.488	749.38
388.713	731.38
388.938	718.38
389.163	752.38
389.387	744.38
389.612	752.38
389.837	756.38
390.062	756.38
390.287	770.38
390.512	738.38
390.736	752.38
390.961	732.38
391.186	721.38
391.411	720.38
391.636	762.38
391.86	770.38
392.085	766.38
392.31	735.38
392.534	761.38
392.759	777.38
392.984	761.38
393.208	773.38
393.433	807.38
393.658	822.38
393.882	804.38
394.107	777.38
394.331	782.38
394.556	795.38
394.78	803.38
395.005	815.38
395.229	828.38
395.454	853.38
395.678	853.38
395.903	834.38
396.127	824.38
396.352	849.38
396.576	837.38
396.801	857.38
397.025	842.38
397.249	814.38
397.474	861.38
397.698	821.38
397.922	846.38
398.147	895.38
398.371	924.38
398.595	910.38
398.82	877.38
399.044	896.38
399.268	910.38
399.492	984.38
399.717	986.38
399.941	994.38
400.165	972.38
400.389	971.38
400.613	978.38
400.837	1114.38
401.062	1174.38
401.286	1004.38
401.51	980.38
401.734	976.38
401.958	955.38
402.182	924.38
402.406	903.38
402.63	887.38
402.854	876.38
403.078	897.38
403.302	890.38
403.526	920.38
403.75	909.38
403.974	944.38
404.198	966.38
404.422	993.38
404.645	1027.38
404.869	975.38
405.093	903.38
405.317	896.38
405.541	932.38
405.765	926.38
405.988	950.38
406.212	946.38
406.436	992.38
406.66	999.38
406.883	1022.38
407.107	1143.38
407.331	1213.38
407.555	1260.38
407.778	1134.38
408.002	1015.38
408.226	950.38
408.449	963.38
408.673	938.38
408.896	921.38
409.12	949.38
409.344	921.38
409.567	937.38
409.791	940.38
410.014	1001.38
410.238	1053.38
410.461	1063.38
410.685	942.38
410.908	909.38
411.132	959.38
411.355	952.38
411.578	935.38
411.802	943.38
412.025	973.38
412.249	952.38
412.472	899.38
412.695	922.38
412.919	938.38
413.142	888.38
413.365	959.38
413.589	949.38
413.812	997.38
414.035	979.38
414.258	973.38
414.482	899.38
414.705	907.38
414.928	904.38
415.151	952.38
415.374	889.38
415.597	938.38
415.821	949.38
416.044	962.38
416.267	958.38
416.49	881.38
416.713	881.38
416.936	960.38
417.159	968.38
417.382	945.38
417.605	951.38
417.828	943.38
418.051	961.38
418.274	949.38
418.497	917.38
418.72	905.38
418.943	934.38
419.166	942.38
419.389	999.38
419.611	977.38
419.834	949.38
420.057	977.38
420.28	960.38
420.503	961.38
420.726	948.38
420.948	948.38
421.171	940.38
421.394	966.38
421.617	990.38
421.839	972.38
422.062	998.38
422.285	931.38
422.507	939.38
422.73	889.38
422.953	895.38
423.175	899.38
423.398	930.38
423.621	920.38
423.843	950.38
424.066	972.38
424.288	985.38
424.511	1045.38
424.733	1016.38
424.956	947.38
425.178	907.38
425.401	924.38
425.623	951.38
425.846	941.38
426.068	986.38
426.291	977.38
426.513	991.38
426.735	951.38
426.958	1062.38
427.18	1079.38
427.402	995.38
427.625	1023.38
427.847	969.38
428.069	949.38
428.292	944.38
428.514	894.38
428.736	924.38
428.958	910.38
429.181	941.38
429.403	1077.38
429.625	1224.38
429.847	1067.38
430.069	971.38
430.292	1042.38
430.514	1007.38
430.736	996.38
430.958	975.38
431.18	932.38
431.402	892.38
431.624	831.38
431.846	803.38
432.068	736.38
432.29	752.38
432.512	829.38
432.734	873.38
432.956	901.38
433.178	974.38
433.4	963.38
433.622	948.38
433.844	937.38
434.066	879.38
434.287	793.38
434.509	788.38
434.731	844.38
434.953	917.38
435.175	917.38
435.397	918.38
435.618	891.38
435.84	806.38
436.062	847.38
436.284	938.38
436.505	927.38
436.727	939.38
436.949	942.38
437.17	907.38
437.392	931.38
437.614	850.38
437.835	813.38
438.057	846.38
438.278	852.38
438.5	879.38
438.721	908.38
438.943	931.38
439.165	919.38
439.386	926.38
439.608	944.38
439.829	959.38
440.05	969.38
440.272	933.38
440.493	975.38
440.715	981.38
440.936	1032.38
441.158	1065.38
441.379	1032.38
441.6	1037.38
441.822	1014.38
442.043	989.38
442.264	1015.38
442.486	969.38
442.707	956.38
442.928	951.38
443.149	1000.38
443.371	999.38
443.592	1021.38
443.813	1013.38
444.034	1016.38
444.255	1016.38
444.476	1032.38
444.698	1045.38
444.919	1064.38
445.14	1167.38
445.361	1105.38
445.582	1102.38
445.803	1076.38
446.024	1060.38
446.245	1044.38
446.466	1066.38
446.687	1061.38
446.908	1029.38
447.129	1008.38
447.35	1029.38
447.571	982.38
447.792	951.38
448.013	963.38
448.234	975.38
448.455	999.38
448.675	977.38
448.896	928.38
449.117	914.38
449.338	958.38
449.559	963.38
449.779	983.38
450	1048.38
450.221	1063.38
450.442	1019.38
450.662	928.38
450.883	922.38
451.104	863.38
451.324	881.38
451.545	885.38
451.766	878.38
451.986	847.38
452.207	852.38
452.428	813.38
452.648	827.38
452.869	782.38
453.089	798.38
453.31	780.38
453.53	762.38
453.751	733.38
453.971	712.38
454.192	707.38
454.412	776.38
454.633	806.38
454.853	777.38
455.073	779.38
455.294	774.38
455.514	789.38
455.734	778.38
455.955	773.38
456.175	752.38
456.395	735.38
456.616	724.38
456.836	747.38
457.056	739.38
457.276	724.38
457.497	712.38
457.717	707.38
457.937	725.38
458.157	715.38
458.377	698.38
458.598	662.38
458.818	693.38
459.038	688.38
459.258	735.38
459.478	725.38
459.698	702.38
459.918	752.38
460.138	798.38
460.358	832.38
460.578	837.38
460.798	843.38
461.018	897.38
461.238	847.38
461.458	887.38
461.678	858.38
461.898	827.38
462.118	813.38
462.338	868.38
462.558	856.38
462.777	852.38
462.997	872.38
463.217	900.38
463.437	887.38
463.657	851.38
463.876	831.38
464.096	824.38
464.316	841.38
464.536	842.38
464.755	875.38
464.975	868.38
465.195	863.38
465.414	881.38
465.634	879.38
465.854	897.38
466.073	979.38
466.293	925.38
466.512	883.38
466.732	844.38
466.951	899.38
467.171	854.38
467.391	850.38
467.61	868.38
467.829	904.38
468.049	981.38
468.268	1039.38
468.488	944.38
468.707	918.38
468.927	941.38
469.146	908.38
469.365	939.38
469.585	930.38
469.804	911.38
470.023	925.38
470.243	932.38
470.462	933.38
470.681	935.38
470.901	939.38
471.12	951.38
471.339	938.38
471.558	906.38
471.777	898.38
471.997	896.38
472.216	859.38
472.435	772.38
472.654	772.38
472.873	765.38
473.092	824.38
473.311	827.38
473.53	819.38
473.749	827.38
473.968	844.38
474.187	872.38
474.406	832.38
474.625	864.38
474.844	892.38
475.063	883.38
475.282	857.38
475.501	838.38
475.72	821.38
475.939	916.38
476.158	889.38
476.377	870.38
476.596	851.38
476.814	828.38
477.033	804.38
477.252	841.38
477.471	899.38
477.69	919.38
477.908	933.38
478.127	981.38
478.346	1007.38
478.564	1024.38
478.783	1020.38
479.002	1039.38
479.22	1010.38
479.439	1047.38
479.658	1079.38
479.876	984.38
480.095	898.38
480.313	891.38
480.532	885.38
480.751	906.38
480.969	821.38
481.188	800.38
481.406	781.38
481.624	759.38
481.843	812.38
482.061	826.38
482.28	893.38
482.498	897.38
482.717	864.38
482.935	907.38
483.153	979.38
483.372	1065.38
483.59	1003.38
483.808	995.38
484.027	945.38
484.245	999.38
484.463	1227.38
484.681	1275.38
484.9	1049.38
485.118	955.38
485.336	935.38
485.554	911.38
485.772	902.38
485.99	889.38
486.209	888.38
486.427	894.38
486.645	955.38
486.863	992.38
487.081	1035.38
487.299	1043.38
487.517	1024.38
487.735	1097.38
487.953	1203.38
488.171	1193.38
488.389	1147.38
488.607	1089.38
488.825	1132.38
489.043	1053.38
489.261	961.38
489.479	1028.38
489.696	1055.38
489.914	1056.38
490.132	1042.38
490.35	1071.38
490.568	1200.38
490.786	1163.38
491.003	1219.38
491.221	1267.38
491.439	1289.38
491.657	1311.38
491.874	1375.38
492.092	1446.38
492.31	1509.38
492.527	1439.38
492.745	1368.38
492.963	1298.38
493.18	1305.38
493.398	1372.38
493.615	1370.38
493.833	1275.38
494.05	1249.38
494.268	1255.38
494.485	1263.38
494.703	1237.38
494.92	1218.38
495.138	1269.38
495.355	1257.38
495.573	1269.38
495.79	1303.38
496.008	1278.38
496.225	1245.38
496.442	1271.38
496.66	1268.38
496.877	1221.38
497.094	1223.38
497.312	1248.38
497.529	1215.38
497.746	1209.38
497.963	1262.38
498.181	1295.38
498.398	1267.38
498.615	1188.38
498.832	1160.38
499.049	1170.38
499.267	1171.38
499.484	1223.38
499.701	1353.38
499.918	1391.38
500.135	1468.38
500.352	1524.38
500.569	1566.38
500.786	1696.38
501.003	1547.38
501.22	1441.38
501.437	1397.38
501.654	1449.38
501.871	1341.38
502.088	1217.38
502.305	1192.38
502.522	1148.38
502.739	1089.38
502.956	1103.38
503.172	1037.38
503.389	1003.38
503.606	998.38
503.823	1021.38
504.04	1027.38
504.256	979.38
504.473	1005.38
504.69	1005.38
504.907	1012.38
505.123	966.38
505.34	1081.38
505.557	1382.38
505.773	1134.38
505.99	944.38
506.207	895.38
506.423	887.38
506.64	906.38
506.856	934.38
507.073	1044.38
507.289	1085.38
507.506	1023.38
507.722	878.38
507.939	827.38
508.155	856.38
508.372	853.38
508.588	829.38
508.805	811.38
509.021	780.38
509.238	759.38
509.454	747.38
509.67	751.38
509.887	767.38
510.103	771.38
510.319	747.38
510.536	781.38
510.752	777.38
510.968	745.38
511.184	823.38
511.401	763.38
511.617	723.38
511.833	679.38
512.049	708.38
512.265	711.38
512.481	735.38
512.698	766.38
512.914	797.38
513.13	754.38
513.346	740.38
513.562	699.38
513.778	698.38
513.994	754.38
514.21	772.38
514.426	793.38
514.642	807.38
514.858	788.38
515.074	736.38
515.29	723.38
515.506	748.38
515.721	723.38
515.937	747.38
516.153	806.38
516.369	780.38
516.585	758.38
516.801	741.38
517.016	740.38
517.232	745.38
517.448	794.38
517.664	791.38
517.879	786.38
518.095	829.38
518.311	811.38
518.527	758.38
518.742	737.38
518.958	743.38
519.173	776.38
519.389	796.38
519.605	821.38
519.82	813.38
520.036	788.38
520.251	773.38
520.467	783.38
520.682	838.38
520.898	798.38
521.113	733.38
521.329	720.38
521.544	771.38
521.76	725.38
521.975	736.38
522.19	730.38
522.406	743.38
522.621	920.38
522.836	890.38
523.052	745.38
523.267	751.38
523.482	763.38
523.698	736.38
523.913	717.38
524.128	760.38
524.343	797.38
524.559	840.38
524.774	784.38
524.989	794.38
525.204	771.38
525.419	756.38
525.634	749.38
525.849	759.38
526.064	728.38
526.28	712.38
526.495	638.38
526.71	645.38
526.925	635.38
527.14	629.38
527.355	642.38
527.57	631.38
527.785	670.38
527.999	685.38
528.214	673.38
528.429	702.38
528.644	740.38
528.859	807.38
529.074	829.38
529.289	894.38
529.503	876.38
529.718	815.38
529.933	743.38
530.148	666.38
530.363	624.38
530.577	641.38
530.792	638.38
531.007	634.38
531.221	629.38
531.436	618.38
531.651	645.38
531.865	667.38
532.08	662.38
532.295	609.38
532.509	615.38
532.724	624.38
532.938	629.38
533.153	714.38
533.367	720.38
533.582	747.38
533.796	733.38
534.011	691.38
534.225	679.38
534.44	637.38
534.654	654.38
534.868	673.38
535.083	688.38
535.297	696.38
535.511	687.38
535.726	707.38
535.94	655.38
536.154	665.38
536.369	631.38
536.583	615.38
536.797	624.38
537.011	612.38
537.225	598.38
537.44	612.38
537.654	650.38
537.868	620.38
538.082	632.38
538.296	597.38
538.51	635.38
538.724	662.38
538.938	718.38
539.153	748.38
539.367	728.38
539.581	677.38
539.795	690.38
540.009	633.38
540.222	657.38
540.436	668.38
540.65	757.38
540.864	810.38
541.078	824.38
541.292	849.38
541.506	894.38
541.72	956.38
541.934	1019.38
542.147	1043.38
542.361	1011.38
542.575	899.38
542.789	824.38
543.002	784.38
543.216	708.38
543.43	775.38
543.644	827.38
543.857	889.38
544.071	891.38
544.285	931.38
544.498	930.38
544.712	934.38
544.925	955.38
545.139	933.38
545.352	925.38
545.566	936.38
545.779	926.38
545.993	947.38
546.206	960.38
546.42	952.38
546.633	969.38
546.847	912.38
547.06	964.38
547.274	970.38
547.487	985.38
547.7	1013.38
547.914	973.38
548.127	959.38
548.34	927.38
548.554	919.38
548.767	939.38
548.98	931.38
549.193	919.38
549.407	970.38
549.62	934.38
549.833	936.38
550.046	898.38
550.259	888.38
550.473	890.38
550.686	896.38
550.899	861.38
551.112	843.38
551.325	855.38
551.538	825.38
551.751	883.38
551.964	712.38
552.177	727.38
552.39	804.38
552.603	832.38
552.816	884.38
553.029	919.38
553.242	951.38
553.455	926.38
553.667	885.38
553.88	909.38
554.093	867.38
554.306	853.38
554.519	861.38
554.732	832.38
554.944	825.38
555.157	840.38
555.37	825.38
555.583	801.38
555.795	789.38
556.008	759.38
556.221	724.38
556.433	716.38
556.646	766.38
556.859	740.38
557.071	735.38
557.284	753.38
557.496	751.38
557.709	733.38
557.921	764.38
558.134	751.38
558.346	739.38
558.559	737.38
558.771	698.38
558.984	695.38
559.196	661.38
559.409	691.38
559.621	698.38
559.833	662.38
560.046	665.38
560.258	710.38
560.47	679.38
560.683	679.38
560.895	701.38
561.107	703.38
561.32	652.38
561.532	675.38
561.744	693.38
561.956	681.38
562.168	667.38
562.381	664.38
562.593	650.38
562.805	647.38
563.017	641.38
563.229	666.38
563.441	665.38
563.653	656.38
563.865	654.38
564.077	621.38
564.289	629.38
564.501	599.38
564.713	647.38
564.925	650.38
565.137	689.38
565.349	624.38
565.561	601.38
565.773	644.38
565.985	637.38
566.197	668.38
566.408	668.38
566.62	692.38
566.832	662.38
567.044	710.38
567.255	673.38
567.467	681.38
567.679	660.38
567.891	654.38
568.102	603.38
568.314	584.38
568.526	557.38
568.737	511.38
568.949	495.38
569.161	482.38
569.372	451.38
569.584	448.38
569.795	467.38
570.007	447.38
570.218	430.38
570.43	439.38
570.641	452.38
570.853	460.38
571.064	469.38
571.276	454.38
571.487	464.38
571.698	483.38
571.91	457.38
572.121	475.38
572.333	467.38
572.544	438.38
572.755	445.38
572.966	413.38
573.178	412.38
573.389	408.38
573.6	423.38
573.811	451.38
574.023	397.38
574.234	409.38
574.445	411.38
574.656	388.38
574.867	392.38
575.078	412.38
575.289	391.38
575.501	391.38
575.712	406.38
575.923	404.38
576.134	407.38
576.345	397.38
576.556	395.38
576.767	424.38
576.978	389.38
577.188	393.38
577.399	412.38
577.61	396.38
577.821	387.38
578.032	373.38
578.243	374.38
578.454	380.38
578.665	371.38
578.875	376.38
579.086	352.38
579.297	341.38
579.508	359.38
579.718	345.38
579.929	354.38
580.14	332.38
580.35	332.38
580.561	356.38
580.772	388.38
580.982	380.38
581.193	345.38
581.403	353.38
581.614	372.38
581.825	361.38
582.035	354.38
582.246	341.38
582.456	357.38
582.667	361.38
582.877	338.38
583.087	345.38
583.298	324.38
583.508	330.38
583.719	346.38
583.929	352.38
584.139	344.38
584.35	314.38
584.56	335.38
584.77	341.38
584.981	345.38
585.191	332.38
585.401	341.38
585.611	356.38
585.821	332.38
586.032	316.38
586.242	335.38
586.452	323.38
586.662	335.38
586.872	310.38
587.082	311.38
587.292	325.38
587.502	322.38
587.713	319.38
587.923	301.38
588.133	344.38
588.343	317.38
588.553	314.38
588.762	307.38
588.972	305.38
589.182	315.38
589.392	330.38
589.602	320.38
589.812	310.38
590.022	337.38
590.232	323.38
590.441	326.38
590.651	325.38
590.861	315.38
591.071	292.38
591.281	283.38
591.49	299.38
591.7	307.38
591.91	288.38
592.119	324.38
592.329	337.38
592.539	332.38
592.748	339.38
592.958	329.38
593.167	327.38
593.377	326.38
593.587	338.38
593.796	319.38
594.006	316.38
594.215	347.38
594.424	341.38
594.634	355.38
594.843	347.38
595.053	344.38
595.262	331.38
595.472	337.38
595.681	327.38
595.89	313.38
596.1	320.38
596.309	320.38
596.518	330.38
596.727	342.38
596.937	335.38
597.146	312.38
597.355	315.38
597.564	313.38
597.774	293.38
597.983	298.38
598.192	278.38
598.401	283.38
598.61	317.38
598.819	297.38
599.028	304.38
599.237	311.38
599.446	296.38
599.655	283.38
599.864	291.38
600.073	307.38
600.282	305.38
600.491	302.38
600.7	306.38
600.909	298.38
601.118	321.38
601.327	346.38
601.536	329.38
601.745	367.38
601.953	350.38
602.162	349.38
602.371	372.38
602.58	367.38
602.789	335.38
602.997	335.38
603.206	349.38
603.415	367.38
603.623	344.38
603.832	371.38
604.041	344.38
604.249	333.38
604.458	327.38
604.666	303.38
604.875	274.38
605.084	307.38
605.292	348.38
605.501	355.38
605.709	369.38
605.918	365.38
606.126	353.38
606.334	371.38
606.543	366.38
606.751	357.38
606.96	357.38
607.168	362.38
607.376	356.38
607.585	376.38
607.793	356.38
608.001	357.38
608.21	359.38
608.418	355.38
608.626	379.38
608.834	364.38
609.043	379.38
609.251	362.38
609.459	363.38
609.667	375.38
609.875	381.38
610.083	378.38
610.291	390.38
610.499	355.38
610.707	360.38
610.916	360.38
611.124	365.38
611.332	403.38
611.54	377.38
611.748	360.38
611.955	371.38
612.163	377.38
612.371	366.38
612.579	357.38
612.787	374.38
612.995	350.38
613.203	372.38
613.411	380.38
613.618	364.38
613.826	362.38
614.034	361.38
614.242	343.38
614.449	351.38
614.657	369.38
614.865	361.38
615.072	373.38
615.28	366.38
615.488	371.38
615.695	363.38
615.903	355.38
616.111	355.38
616.318	351.38
616.526	374.38
616.733	377.38
616.941	367.38
617.148	345.38
617.356	351.38
617.563	345.38
617.771	352.38
617.978	336.38
618.185	359.38
618.393	344.38
618.6	358.38
618.807	358.38
619.015	347.38
619.222	340.38
619.429	338.38
619.637	314.38
619.844	298.38
620.051	305.38
620.258	326.38
620.466	338.38
620.673	335.38
620.88	320.38
621.087	331.38
621.294	307.38
621.501	295.38
621.708	299.38
621.915	322.38
622.122	324.38
622.329	339.38
622.536	313.38
622.743	318.38
622.95	339.38
623.157	315.38
623.364	337.38
623.571	353.38
623.778	316.38
623.985	317.38
624.192	331.38
624.399	325.38
624.606	305.38
624.812	317.38
625.019	311.38
625.226	296.38
625.433	289.38
625.639	281.38
625.846	280.38
626.053	255.38
626.259	239.38
626.466	273.38
626.673	256.38
626.879	246.38
627.086	249.38
627.293	296.38
627.499	297.38
627.706	300.38
627.912	293.38
628.119	310.38
628.325	313.38
628.532	307.38
628.738	294.38
628.945	291.38
629.151	295.38
629.357	301.38
629.564	290.38
629.77	288.38
629.976	275.38
630.183	266.38
630.389	273.38
630.595	298.38
630.802	294.38
631.008	285.38
631.214	293.38
631.42	296.38
631.627	257.38
631.833	260.38
632.039	278.38
632.245	297.38
632.451	263.38
632.657	283.38
632.863	279.38
633.069	280.38
633.275	259.38
633.481	245.38
633.688	252.38
633.893	258.38
634.099	254.38
634.305	249.38
634.511	256.38
634.717	241.38
634.923	233.38
635.129	221.38
635.335	234.38
635.541	253.38
635.747	253.38
635.952	267.38
636.158	250.38
636.364	264.38
636.57	271.38
636.775	273.38
636.981	256.38
637.187	264.38
637.392	268.38
637.598	266.38
637.804	279.38
638.009	265.38
638.215	269.38
638.421	263.38
638.626	244.38
638.832	263.38
639.037	249.38
639.243	251.38
639.448	235.38
639.654	245.38
639.859	237.38
640.065	245.38
640.27	272.38
640.475	237.38
640.681	249.38
640.886	244.38
641.091	262.38
641.297	267.38
641.502	267.38
641.707	252.38
641.913	256.38
642.118	258.38
642.323	249.38
642.528	267.38
642.733	255.38
642.939	264.38
643.144	235.38
643.349	256.38
643.554	249.38
643.759	248.38
643.964	236.38
644.169	233.38
644.374	265.38
644.579	255.38
644.784	231.38
644.989	255.38
645.194	259.38
645.399	251.38
645.604	231.38
645.809	250.38
646.014	222.38
646.219	232.38
646.423	234.38
646.628	241.38
646.833	256.38
647.038	253.38
647.243	246.38
647.447	235.38
647.652	237.38
647.857	240.38
648.062	236.38
648.266	238.38
648.471	250.38
648.676	239.38
648.88	236.38
649.085	231.38
649.289	222.38
649.494	238.38
649.698	247.38
649.903	229.38
650.107	240.38
650.312	228.38
650.516	242.38
650.721	236.38
650.925	216.38
651.13	222.38
651.334	212.38
651.539	216.38
651.743	209.38
651.947	221.38
652.152	221.38
652.356	216.38
652.56	223.38
652.764	219.38
652.969	216.38
653.173	236.38
653.377	195.38
653.581	215.38
653.785	216.38
653.99	209.38
654.194	199.38
654.398	210.38
654.602	196.38
654.806	191.38
655.01	206.38
655.214	214.38
655.418	199.38
655.622	214.38
655.826	195.38
656.03	221.38
656.234	220.38
656.438	244.38
656.642	228.38
656.846	224.38
657.049	226.38
657.253	208.38
657.457	202.38
657.661	194.38
657.865	170.38
658.068	160.38
658.272	151.38
658.476	156.38
658.68	163.38
658.883	159.38
659.087	161.38
659.291	151.38
659.494	155.38
659.698	135.38
659.901	148.38
660.105	132.38
660.309	126.38
660.512	129.38
660.716	140.38
660.919	127.38
661.123	128.38
661.326	124.38
661.53	115.38
661.733	109.38
661.936	109.38
662.14	94.38
662.343	104.38
662.546	105.38
662.75	97.38
662.953	109.38
663.156	89.38
663.36	94.38
663.563	73.38
663.766	99.38
663.969	88.38
664.173	85.38
664.376	97.38
664.579	94.38
664.782	84.38
664.985	88.38
665.188	83.38
665.391	97.38
665.594	81.38
665.797	104.38
666	98.38
666.203	91.38
666.406	95.38
666.609	94.38
666.812	104.38
667.015	93.38
667.218	77.38
667.421	87.38
667.624	76.38
667.827	80.38
668.03	87.38
668.232	93.38
668.435	92.38
668.638	79.38
668.841	106.38
669.043	85.38
669.246	88.38
669.449	89.38
669.651	79.38
669.854	74.38
670.057	93.38
670.259	80.38
670.462	89.38
670.665	64.38
670.867	83.38
671.07	87.38
671.272	85.38
671.475	87.38
671.677	76.38
671.88	101.38
672.082	79.38
672.284	84.38
672.487	83.38
672.689	79.38
672.892	95.38
