Data from WStandard_LampEnergy8_LIBS07252019.E.O._I.C._HRD10591_15-58-28-929.txt Node
Date: Thu Jul 25 15:58:28 EDT 2019
User: cochatt
Spectrometer: HR+D1059
Trigger mode: 1
Integration Time (sec): 1.000000E-1
Scans to average: 1
Electric dark correction enabled: true
Nonlinearity correction enabled: false
Boxcar width: 0
XAxis mode: Wavelengths
Number of Pixels in Spectrum: 2048
>>>>>Begin Spectral Data<<<<<
223.165	-27.62
223.4	-27.62
223.635	-27.62
223.869	-18.62
224.104	-15.62
224.338	-29.62
224.573	-12.62
224.808	-3.62
225.042	-9.62
225.277	-0.62
225.511	5.38
225.746	3.38
225.98	15.38
226.215	5.38
226.449	15.38
226.683	16.38
226.918	24.38
227.152	32.38
227.387	39.38
227.621	38.38
227.856	43.38
228.09	44.38
228.324	48.38
228.559	60.38
228.793	89.38
229.027	218.38
229.262	230.38
229.496	220.38
229.73	232.38
229.964	256.38
230.199	276.38
230.433	280.38
230.667	293.38
230.901	296.38
231.136	272.38
231.37	272.38
231.604	264.38
231.838	247.38
232.072	257.38
232.306	245.38
232.541	274.38
232.775	325.38
233.009	327.38
233.243	289.38
233.477	308.38
233.711	308.38
233.945	304.38
234.179	314.38
234.413	332.38
234.647	369.38
234.881	328.38
235.115	289.38
235.349	318.38
235.583	313.38
235.817	323.38
236.051	294.38
236.285	314.38
236.519	324.38
236.753	360.38
236.987	376.38
237.221	358.38
237.455	378.38
237.689	365.38
237.922	350.38
238.156	341.38
238.39	352.38
238.624	403.38
238.858	420.38
239.091	390.38
239.325	441.38
239.559	489.38
239.793	502.38
240.027	531.38
240.26	517.38
240.494	397.38
240.728	386.38
240.961	395.38
241.195	388.38
241.429	421.38
241.662	433.38
241.896	379.38
242.13	386.38
242.363	451.38
242.597	442.38
242.83	474.38
243.064	468.38
243.298	484.38
243.531	465.38
243.765	488.38
243.998	475.38
244.232	421.38
244.465	390.38
244.699	422.38
244.932	455.38
245.166	516.38
245.399	493.38
245.633	476.38
245.866	456.38
246.099	478.38
246.333	500.38
246.566	484.38
246.8	547.38
247.033	588.38
247.266	539.38
247.5	542.38
247.733	531.38
247.966	569.38
248.2	615.38
248.433	611.38
248.666	624.38
248.899	680.38
249.133	779.38
249.366	800.38
249.599	696.38
249.832	633.38
250.066	665.38
250.299	647.38
250.532	611.38
250.765	548.38
250.998	585.38
251.231	610.38
251.465	632.38
251.698	605.38
251.931	599.38
252.164	590.38
252.397	630.38
252.63	616.38
252.863	550.38
253.096	579.38
253.329	574.38
253.562	599.38
253.795	653.38
254.028	592.38
254.261	600.38
254.494	566.38
254.727	560.38
254.96	614.38
255.193	657.38
255.426	741.38
255.659	817.38
255.892	821.38
256.124	697.38
256.357	651.38
256.59	718.38
256.823	717.38
257.056	737.38
257.289	861.38
257.521	919.38
257.754	854.38
257.987	820.38
258.22	871.38
258.452	825.38
258.685	713.38
258.918	679.38
259.151	692.38
259.383	648.38
259.616	586.38
259.849	655.38
260.081	722.38
260.314	794.38
260.547	804.38
260.779	847.38
261.012	797.38
261.244	728.38
261.477	676.38
261.71	711.38
261.942	704.38
262.175	671.38
262.407	698.38
262.64	677.38
262.872	638.38
263.105	626.38
263.337	659.38
263.57	648.38
263.802	650.38
264.035	577.38
264.267	584.38
264.499	578.38
264.732	646.38
264.964	666.38
265.197	690.38
265.429	705.38
265.661	795.38
265.894	847.38
266.126	891.38
266.358	817.38
266.591	854.38
266.823	891.38
267.055	813.38
267.287	792.38
267.52	791.38
267.752	762.38
267.984	796.38
268.216	829.38
268.448	844.38
268.681	795.38
268.913	746.38
269.145	706.38
269.377	717.38
269.609	802.38
269.841	914.38
270.073	1019.38
270.306	1109.38
270.538	1130.38
270.77	971.38
271.002	849.38
271.234	839.38
271.466	825.38
271.698	925.38
271.93	1055.38
272.162	1092.38
272.394	987.38
272.626	919.38
272.858	817.38
273.09	728.38
273.322	733.38
273.553	693.38
273.785	711.38
274.017	741.38
274.249	776.38
274.481	806.38
274.713	738.38
274.945	701.38
275.176	729.38
275.408	714.38
275.64	700.38
275.872	690.38
276.104	755.38
276.335	821.38
276.567	933.38
276.799	912.38
277.031	889.38
277.262	836.38
277.494	854.38
277.726	912.38
277.957	928.38
278.189	836.38
278.421	768.38
278.652	736.38
278.884	726.38
279.115	759.38
279.347	786.38
279.579	736.38
279.81	771.38
280.042	860.38
280.273	877.38
280.505	900.38
280.736	936.38
280.968	838.38
281.199	785.38
281.431	741.38
281.662	708.38
281.894	761.38
282.125	776.38
282.356	788.38
282.588	778.38
282.819	801.38
283.051	866.38
283.282	910.38
283.513	846.38
283.745	761.38
283.976	735.38
284.207	722.38
284.439	732.38
284.67	756.38
284.901	786.38
285.132	816.38
285.364	781.38
285.595	782.38
285.826	780.38
286.057	780.38
286.288	750.38
286.52	824.38
286.751	877.38
286.982	890.38
287.213	802.38
287.444	750.38
287.675	744.38
287.906	798.38
288.138	849.38
288.369	800.38
288.6	794.38
288.831	742.38
289.062	770.38
289.293	784.38
289.524	774.38
289.755	798.38
289.986	787.38
290.217	766.38
290.448	776.38
290.679	800.38
290.91	819.38
291.141	813.38
291.371	870.38
291.602	858.38
291.833	844.38
292.064	847.38
292.295	851.38
292.526	883.38
292.757	895.38
292.987	858.38
293.218	828.38
293.449	902.38
293.68	1002.38
293.91	1050.38
294.141	971.38
294.372	929.38
294.603	971.38
294.833	989.38
295.064	962.38
295.295	869.38
295.525	810.38
295.756	782.38
295.987	733.38
296.217	796.38
296.448	799.38
296.679	788.38
296.909	788.38
297.14	771.38
297.37	836.38
297.601	852.38
297.831	896.38
298.062	927.38
298.292	808.38
298.523	796.38
298.753	793.38
298.984	809.38
299.214	828.38
299.445	850.38
299.675	860.38
299.905	852.38
300.136	829.38
300.366	816.38
300.597	774.38
300.827	803.38
301.057	824.38
301.288	877.38
301.518	867.38
301.748	878.38
301.979	926.38
302.209	940.38
302.439	1008.38
302.669	1051.38
302.9	923.38
303.13	891.38
303.36	867.38
303.59	918.38
303.82	874.38
304.051	875.38
304.281	891.38
304.511	877.38
304.741	930.38
304.971	1048.38
305.201	1068.38
305.431	998.38
305.661	850.38
305.891	744.38
306.121	789.38
306.352	838.38
306.582	853.38
306.812	897.38
307.042	977.38
307.272	1007.38
307.502	1067.38
307.731	1091.38
307.961	1128.38
308.191	1025.38
308.421	887.38
308.651	845.38
308.881	832.38
309.111	870.38
309.341	840.38
309.571	848.38
309.8	850.38
310.03	808.38
310.26	838.38
310.49	844.38
310.72	872.38
310.949	906.38
311.179	911.38
311.409	886.38
311.639	869.38
311.868	859.38
312.098	890.38
312.328	867.38
312.557	845.38
312.787	912.38
313.017	906.38
313.246	885.38
313.476	896.38
313.706	917.38
313.935	906.38
314.165	912.38
314.394	952.38
314.624	999.38
314.853	1031.38
315.083	1057.38
315.312	1074.38
315.542	1009.38
315.771	917.38
316.001	934.38
316.23	980.38
316.46	968.38
316.689	974.38
316.919	897.38
317.148	888.38
317.377	932.38
317.607	981.38
317.836	1085.38
318.065	1111.38
318.295	1044.38
318.524	974.38
318.753	970.38
318.983	939.38
319.212	952.38
319.441	959.38
319.67	911.38
319.9	962.38
320.129	994.38
320.358	1034.38
320.587	1062.38
320.816	1056.38
321.046	1029.38
321.275	985.38
321.504	1039.38
321.733	1042.38
321.962	1027.38
322.191	971.38
322.42	961.38
322.649	941.38
322.878	936.38
323.108	960.38
323.337	1012.38
323.566	983.38
323.795	983.38
324.024	954.38
324.253	970.38
324.482	957.38
324.71	928.38
324.939	889.38
325.168	956.38
325.397	967.38
325.626	971.38
325.855	979.38
326.084	922.38
326.313	961.38
326.542	953.38
326.77	996.38
326.999	980.38
327.228	948.38
327.457	882.38
327.686	884.38
327.914	949.38
328.143	938.38
328.372	929.38
328.6	952.38
328.829	943.38
329.058	914.38
329.287	922.38
329.515	962.38
329.744	953.38
329.972	1035.38
330.201	1076.38
330.43	1027.38
330.658	1002.38
330.887	1002.38
331.115	1010.38
331.344	1008.38
331.572	977.38
331.801	1002.38
332.03	1006.38
332.258	1028.38
332.486	1044.38
332.715	1021.38
332.943	1064.38
333.172	988.38
333.4	1016.38
333.629	1052.38
333.857	1127.38
334.085	1270.38
334.314	1416.38
334.542	1460.38
334.771	1357.38
334.999	1175.38
335.227	1112.38
335.455	1066.38
335.684	1086.38
335.912	1100.38
336.14	1156.38
336.369	1080.38
336.597	1045.38
336.825	1013.38
337.053	1057.38
337.281	1125.38
337.51	1156.38
337.738	1178.38
337.966	1087.38
338.194	1026.38
338.422	1014.38
338.65	1022.38
338.878	990.38
339.106	978.38
339.334	950.38
339.562	947.38
339.79	979.38
340.018	1062.38
340.246	1080.38
340.474	1044.38
340.702	1050.38
340.93	1030.38
341.158	1042.38
341.386	1033.38
341.614	998.38
341.842	1014.38
342.07	1006.38
342.298	1045.38
342.526	1001.38
342.754	1015.38
342.981	1000.38
343.209	989.38
343.437	978.38
343.665	1008.38
343.893	1036.38
344.12	1090.38
344.348	1081.38
344.576	1022.38
344.804	974.38
345.031	1011.38
345.259	977.38
345.487	976.38
345.714	928.38
345.942	930.38
346.17	942.38
346.397	965.38
346.625	983.38
346.853	896.38
347.08	911.38
347.308	938.38
347.535	932.38
347.763	963.38
347.99	956.38
348.218	903.38
348.445	922.38
348.673	935.38
348.9	956.38
349.128	992.38
349.355	1037.38
349.583	1012.38
349.81	919.38
350.037	897.38
350.265	871.38
350.492	948.38
350.72	960.38
350.947	949.38
351.174	959.38
351.402	923.38
351.629	874.38
351.856	867.38
352.083	871.38
352.311	898.38
352.538	928.38
352.765	969.38
352.992	973.38
353.22	942.38
353.447	927.38
353.674	946.38
353.901	939.38
354.128	933.38
354.355	949.38
354.583	957.38
354.81	980.38
355.037	971.38
355.264	967.38
355.491	967.38
355.718	968.38
355.945	937.38
356.172	905.38
356.399	944.38
356.626	939.38
356.853	977.38
357.08	1064.38
357.307	1136.38
357.534	1096.38
357.761	993.38
357.988	906.38
358.215	874.38
358.441	917.38
358.668	890.38
358.895	946.38
359.122	992.38
359.349	1051.38
359.576	1030.38
359.802	950.38
360.029	914.38
360.256	903.38
360.483	930.38
360.709	970.38
360.936	1021.38
361.163	1048.38
361.39	1144.38
361.616	1150.38
361.843	1173.38
362.07	1102.38
362.296	952.38
362.523	942.38
362.749	940.38
362.976	976.38
363.203	964.38
363.429	890.38
363.656	917.38
363.882	964.38
364.109	1076.38
364.335	1124.38
364.562	1064.38
364.788	1014.38
365.015	973.38
365.241	929.38
365.468	955.38
365.694	990.38
365.92	1026.38
366.147	959.38
366.373	922.38
366.599	892.38
366.826	909.38
367.052	910.38
367.278	942.38
367.505	982.38
367.731	994.38
367.957	972.38
368.184	1012.38
368.41	1083.38
368.636	1077.38
368.862	1113.38
369.089	1091.38
369.315	1052.38
369.541	1037.38
369.767	976.38
369.993	950.38
370.219	921.38
370.445	982.38
370.672	1070.38
370.898	1090.38
371.124	1092.38
371.35	1019.38
371.576	1065.38
371.802	1076.38
372.028	1017.38
372.254	1014.38
372.48	943.38
372.706	974.38
372.932	962.38
373.158	978.38
373.384	1012.38
373.61	1016.38
373.835	1044.38
374.061	996.38
374.287	1013.38
374.513	996.38
374.739	1016.38
374.965	1016.38
375.191	1021.38
375.416	1047.38
375.642	1108.38
375.868	1097.38
376.094	1125.38
376.319	1063.38
376.545	1033.38
376.771	1044.38
376.997	1124.38
377.222	1088.38
377.448	1055.38
377.674	1071.38
377.899	1065.38
378.125	1109.38
378.35	1090.38
378.576	1009.38
378.802	980.38
379.027	965.38
379.253	999.38
379.478	1012.38
379.704	993.38
379.929	986.38
380.155	983.38
380.38	1018.38
380.606	1016.38
380.831	1038.38
381.057	1073.38
381.282	1076.38
381.507	1074.38
381.733	1137.38
381.958	1162.38
382.184	1083.38
382.409	1015.38
382.634	1055.38
382.86	1051.38
383.085	1050.38
383.31	1128.38
383.535	1221.38
383.761	1214.38
383.986	1177.38
384.211	1136.38
384.436	1132.38
384.662	1196.38
384.887	1226.38
385.112	1176.38
385.337	1130.38
385.562	1166.38
385.787	1178.38
386.013	1151.38
386.238	1184.38
386.463	1215.38
386.688	1250.38
386.913	1339.38
387.138	1281.38
387.363	1189.38
387.588	1200.38
387.813	1185.38
388.038	1202.38
388.263	1253.38
388.488	1172.38
388.713	1094.38
388.938	1100.38
389.163	1106.38
389.387	1145.38
389.612	1163.38
389.837	1173.38
390.062	1144.38
390.287	1178.38
390.512	1140.38
390.736	1133.38
390.961	1091.38
391.186	1112.38
391.411	1097.38
391.636	1149.38
391.86	1128.38
392.085	1121.38
392.31	1125.38
392.534	1153.38
392.759	1228.38
392.984	1139.38
393.208	1182.38
393.433	1201.38
393.658	1272.38
393.882	1263.38
394.107	1174.38
394.331	1148.38
394.556	1155.38
394.78	1170.38
395.005	1222.38
395.229	1262.38
395.454	1352.38
395.678	1340.38
395.903	1230.38
396.127	1222.38
396.352	1239.38
396.576	1299.38
396.801	1312.38
397.025	1278.38
397.249	1266.38
397.474	1270.38
397.698	1254.38
397.922	1280.38
398.147	1344.38
398.371	1394.38
398.595	1349.38
398.82	1340.38
399.044	1335.38
399.268	1417.38
399.492	1488.38
399.717	1509.38
399.941	1513.38
400.165	1509.38
400.389	1476.38
400.613	1520.38
400.837	1685.38
401.062	1836.38
401.286	1595.38
401.51	1449.38
401.734	1532.38
401.958	1406.38
402.182	1388.38
402.406	1292.38
402.63	1315.38
402.854	1313.38
403.078	1306.38
403.302	1350.38
403.526	1338.38
403.75	1381.38
403.974	1402.38
404.198	1366.38
404.422	1464.38
404.645	1530.38
404.869	1468.38
405.093	1322.38
405.317	1309.38
405.541	1376.38
405.765	1370.38
405.988	1374.38
406.212	1419.38
406.436	1414.38
406.66	1458.38
406.883	1529.38
407.107	1661.38
407.331	1851.38
407.555	1962.38
407.778	1748.38
408.002	1485.38
408.226	1426.38
408.449	1480.38
408.673	1415.38
408.896	1431.38
409.12	1456.38
409.344	1400.38
409.567	1372.38
409.791	1400.38
410.014	1403.38
410.238	1481.38
410.461	1567.38
410.685	1423.38
410.908	1364.38
411.132	1406.38
411.355	1374.38
411.578	1382.38
411.802	1371.38
412.025	1358.38
412.249	1373.38
412.472	1350.38
412.695	1368.38
412.919	1306.38
413.142	1320.38
413.365	1351.38
413.589	1403.38
413.812	1458.38
414.035	1441.38
414.258	1364.38
414.482	1342.38
414.705	1340.38
414.928	1313.38
415.151	1320.38
415.374	1356.38
415.597	1382.38
415.821	1361.38
416.044	1381.38
416.267	1369.38
416.49	1292.38
416.713	1283.38
416.936	1326.38
417.159	1379.38
417.382	1408.38
417.605	1282.38
417.828	1342.38
418.051	1344.38
418.274	1308.38
418.497	1305.38
418.72	1266.38
418.943	1273.38
419.166	1361.38
419.389	1414.38
419.611	1345.38
419.834	1324.38
420.057	1349.38
420.28	1300.38
420.503	1308.38
420.726	1320.38
420.948	1318.38
421.171	1303.38
421.394	1314.38
421.617	1379.38
421.839	1372.38
422.062	1364.38
422.285	1305.38
422.507	1320.38
422.73	1273.38
422.953	1254.38
423.175	1247.38
423.398	1284.38
423.621	1319.38
423.843	1314.38
424.066	1358.38
424.288	1405.38
424.511	1458.38
424.733	1394.38
424.956	1247.38
425.178	1286.38
425.401	1298.38
425.623	1320.38
425.846	1311.38
426.068	1373.38
426.291	1342.38
426.513	1347.38
426.735	1356.38
426.958	1468.38
427.18	1507.38
427.402	1402.38
427.625	1486.38
427.847	1426.38
428.069	1318.38
428.292	1277.38
428.514	1308.38
428.736	1245.38
428.958	1236.38
429.181	1355.38
429.403	1521.38
429.625	1796.38
429.847	1476.38
430.069	1343.38
430.292	1445.38
430.514	1507.38
430.736	1397.38
430.958	1441.38
431.18	1348.38
431.402	1224.38
431.624	1215.38
431.846	1207.38
432.068	1156.38
432.29	1169.38
432.512	1216.38
432.734	1264.38
432.956	1293.38
433.178	1382.38
433.4	1370.38
433.622	1328.38
433.844	1253.38
434.066	1229.38
434.287	1220.38
434.509	1216.38
434.731	1299.38
434.953	1414.38
435.175	1372.38
435.397	1306.38
435.618	1300.38
435.84	1279.38
436.062	1228.38
436.284	1294.38
436.505	1292.38
436.727	1368.38
436.949	1293.38
437.17	1241.38
437.392	1257.38
437.614	1220.38
437.835	1176.38
438.057	1242.38
438.278	1251.38
438.5	1253.38
438.721	1252.38
438.943	1278.38
439.165	1234.38
439.386	1225.38
439.608	1255.38
439.829	1285.38
440.05	1286.38
440.272	1274.38
440.493	1290.38
440.715	1329.38
440.936	1391.38
441.158	1458.38
441.379	1428.38
441.6	1404.38
441.822	1371.38
442.043	1336.38
442.264	1316.38
442.486	1255.38
442.707	1248.38
442.928	1296.38
443.149	1324.38
443.371	1370.38
443.592	1394.38
443.813	1382.38
444.034	1383.38
444.255	1375.38
444.476	1402.38
444.698	1448.38
444.919	1416.38
445.14	1534.38
445.361	1480.38
445.582	1437.38
445.803	1405.38
446.024	1395.38
446.245	1460.38
446.466	1373.38
446.687	1355.38
446.908	1364.38
447.129	1328.38
447.35	1325.38
447.571	1328.38
447.792	1257.38
448.013	1274.38
448.234	1321.38
448.455	1336.38
448.675	1340.38
448.896	1196.38
449.117	1213.38
449.338	1213.38
449.559	1310.38
449.779	1373.38
450	1446.38
450.221	1528.38
450.442	1497.38
450.662	1347.38
450.883	1213.38
451.104	1183.38
451.324	1228.38
451.545	1219.38
451.766	1195.38
451.986	1178.38
452.207	1136.38
452.428	1133.38
452.648	1136.38
452.869	1143.38
453.089	1134.38
453.31	1158.38
453.53	1178.38
453.751	1165.38
453.971	1082.38
454.192	1134.38
454.412	1196.38
454.633	1167.38
454.853	1138.38
455.073	1094.38
455.294	1091.38
455.514	1108.38
455.734	1120.38
455.955	1101.38
456.175	1084.38
456.395	1081.38
456.616	1117.38
456.836	1128.38
457.056	1117.38
457.276	1096.38
457.497	1057.38
457.717	1042.38
457.937	1095.38
458.157	1108.38
458.377	1056.38
458.598	1076.38
458.818	1066.38
459.038	1166.38
459.258	1184.38
459.478	1168.38
459.698	1145.38
459.918	1196.38
460.138	1210.38
460.358	1256.38
460.578	1252.38
460.798	1326.38
461.018	1390.38
461.238	1325.38
461.458	1290.38
461.678	1277.38
461.898	1213.38
462.118	1210.38
462.338	1298.38
462.558	1267.38
462.777	1254.38
462.997	1316.38
463.217	1403.38
463.437	1371.38
463.657	1260.38
463.876	1250.38
464.096	1289.38
464.316	1268.38
464.536	1325.38
464.755	1329.38
464.975	1320.38
465.195	1320.38
465.414	1331.38
465.634	1328.38
465.854	1325.38
466.073	1432.38
466.293	1381.38
466.512	1222.38
466.732	1226.38
466.951	1290.38
467.171	1283.38
467.391	1220.38
467.61	1222.38
467.829	1249.38
468.049	1355.38
468.268	1491.38
468.488	1340.38
468.707	1304.38
468.927	1234.38
469.146	1245.38
469.365	1245.38
469.585	1248.38
469.804	1271.38
470.023	1250.38
470.243	1300.38
470.462	1253.38
470.681	1249.38
470.901	1269.38
471.12	1240.38
471.339	1242.38
471.558	1202.38
471.777	1242.38
471.997	1218.38
472.216	1172.38
472.435	1154.38
472.654	1148.38
472.873	1173.38
473.092	1235.38
473.311	1173.38
473.53	1178.38
473.749	1161.38
473.968	1213.38
474.187	1251.38
474.406	1281.38
474.625	1250.38
474.844	1242.38
475.063	1238.38
475.282	1260.38
475.501	1188.38
475.72	1210.38
475.939	1304.38
476.158	1262.38
476.377	1235.38
476.596	1205.38
476.814	1208.38
477.033	1231.38
477.252	1307.38
477.471	1298.38
477.69	1294.38
477.908	1304.38
478.127	1368.38
478.346	1445.38
478.564	1450.38
478.783	1427.38
479.002	1441.38
479.22	1427.38
479.439	1493.38
479.658	1586.38
479.876	1570.38
480.095	1420.38
480.313	1341.38
480.532	1297.38
480.751	1356.38
480.969	1335.38
481.188	1272.38
481.406	1256.38
481.624	1266.38
481.843	1266.38
482.061	1292.38
482.28	1354.38
482.498	1368.38
482.717	1338.38
482.935	1288.38
483.153	1392.38
483.372	1380.38
483.59	1370.38
483.808	1366.38
484.027	1370.38
484.245	1434.38
484.463	1786.38
484.681	1906.38
484.9	1497.38
485.118	1407.38
485.336	1394.38
485.554	1423.38
485.772	1406.38
485.99	1353.38
486.209	1432.38
486.427	1387.38
486.645	1399.38
486.863	1433.38
487.081	1492.38
487.299	1480.38
487.517	1482.38
487.735	1482.38
487.953	1529.38
488.171	1530.38
488.389	1463.38
488.607	1466.38
488.825	1637.38
489.043	1574.38
489.261	1440.38
489.479	1505.38
489.696	1513.38
489.914	1477.38
490.132	1476.38
490.35	1469.38
490.568	1575.38
490.786	1534.38
491.003	1508.38
491.221	1591.38
491.439	1622.38
491.657	1581.38
491.874	1652.38
492.092	1701.38
492.31	1689.38
492.527	1690.38
492.745	1634.38
492.963	1622.38
493.18	1637.38
493.398	1738.38
493.615	1700.38
493.833	1609.38
494.05	1597.38
494.268	1547.38
494.485	1587.38
494.703	1552.38
494.92	1557.38
495.138	1528.38
495.355	1602.38
495.573	1625.38
495.79	1686.38
496.008	1716.38
496.225	1621.38
496.442	1622.38
496.66	1637.38
496.877	1613.38
497.094	1718.38
497.312	1660.38
497.529	1655.38
497.746	1716.38
497.963	1909.38
498.181	2004.38
498.398	1894.38
498.615	1861.38
498.832	1786.38
499.049	1783.38
499.267	1798.38
499.484	1950.38
499.701	2068.38
499.918	2113.38
500.135	2237.38
500.352	2373.38
500.569	2376.38
500.786	2585.38
501.003	2354.38
501.22	2136.38
501.437	2079.38
501.654	2117.38
501.871	2061.38
502.088	1799.38
502.305	1829.38
502.522	1720.38
502.739	1618.38
502.956	1593.38
503.172	1578.38
503.389	1554.38
503.606	1515.38
503.823	1515.38
504.04	1486.38
504.256	1501.38
504.473	1540.38
504.69	1531.38
504.907	1480.38
505.123	1420.38
505.34	1575.38
505.557	2084.38
505.773	1660.38
505.99	1424.38
506.207	1332.38
506.423	1338.38
506.64	1322.38
506.856	1345.38
507.073	1513.38
507.289	1610.38
507.506	1556.38
507.722	1325.38
507.939	1293.38
508.155	1237.38
508.372	1285.38
508.588	1217.38
508.805	1193.38
509.021	1182.38
509.238	1180.38
509.454	1163.38
509.67	1158.38
509.887	1159.38
510.103	1173.38
510.319	1176.38
510.536	1205.38
510.752	1245.38
510.968	1224.38
511.184	1313.38
511.401	1261.38
511.617	1136.38
511.833	1131.38
512.049	1076.38
512.265	1117.38
512.481	1123.38
512.698	1191.38
512.914	1224.38
513.13	1214.38
513.346	1109.38
513.562	1110.38
513.778	1150.38
513.994	1190.38
514.21	1220.38
514.426	1259.38
514.642	1317.38
514.858	1264.38
515.074	1173.38
515.29	1158.38
515.506	1150.38
515.721	1194.38
515.937	1226.38
516.153	1287.38
516.369	1240.38
516.585	1197.38
516.801	1139.38
517.016	1152.38
517.232	1218.38
517.448	1244.38
517.664	1279.38
517.879	1266.38
518.095	1310.38
518.311	1245.38
518.527	1196.38
518.742	1186.38
518.958	1161.38
519.173	1174.38
519.389	1174.38
519.605	1205.38
519.82	1204.38
520.036	1240.38
520.251	1149.38
520.467	1188.38
520.682	1311.38
520.898	1288.38
521.113	1146.38
521.329	1113.38
521.544	1219.38
521.76	1164.38
521.975	1134.38
522.19	1126.38
522.406	1099.38
522.621	1424.38
522.836	1360.38
523.052	1119.38
523.267	1078.38
523.482	1141.38
523.698	1083.38
523.913	1098.38
524.128	1108.38
524.343	1169.38
524.559	1182.38
524.774	1118.38
524.989	1090.38
525.204	1113.38
525.419	1117.38
525.634	1059.38
525.849	1094.38
526.064	1092.38
526.28	1100.38
526.495	1030.38
526.71	1030.38
526.925	1039.38
527.14	1022.38
527.355	993.38
527.57	996.38
527.785	1051.38
527.999	1032.38
528.214	995.38
528.429	1036.38
528.644	1035.38
528.859	1095.38
529.074	1092.38
529.289	1142.38
529.503	1140.38
529.718	1103.38
529.933	1040.38
530.148	994.38
530.363	984.38
530.577	986.38
530.792	1027.38
531.007	1006.38
531.221	1010.38
531.436	1016.38
531.651	1037.38
531.865	1041.38
532.08	1038.38
532.295	1008.38
532.509	980.38
532.724	984.38
532.938	1000.38
533.153	1068.38
533.367	1056.38
533.582	1064.38
533.796	1034.38
534.011	1027.38
534.225	1042.38
534.44	1001.38
534.654	974.38
534.868	993.38
535.083	1018.38
535.297	1061.38
535.511	1012.38
535.726	1009.38
535.94	997.38
536.154	995.38
536.369	979.38
536.583	972.38
536.797	968.38
537.011	971.38
537.225	908.38
537.44	954.38
537.654	1019.38
537.868	952.38
538.082	917.38
538.296	926.38
538.51	955.38
538.724	942.38
538.938	965.38
539.153	1033.38
539.367	1029.38
539.581	982.38
539.795	1014.38
540.009	971.38
540.222	978.38
540.436	1001.38
540.65	1066.38
540.864	1103.38
541.078	1056.38
541.292	1070.38
541.506	1085.38
541.72	1115.38
541.934	1129.38
542.147	1238.38
542.361	1144.38
542.575	1096.38
542.789	1046.38
543.002	995.38
543.216	978.38
543.43	1025.38
543.644	1082.38
543.857	1114.38
544.071	1116.38
544.285	1125.38
544.498	1091.38
544.712	1109.38
544.925	1119.38
545.139	1148.38
545.352	1078.38
545.566	1092.38
545.779	1072.38
545.993	1123.38
546.206	1097.38
546.42	1074.38
546.633	1063.38
546.847	1067.38
547.06	1079.38
547.274	1069.38
547.487	1082.38
547.7	1107.38
547.914	1107.38
548.127	1103.38
548.34	1097.38
548.554	1077.38
548.767	1095.38
548.98	1099.38
549.193	1052.38
549.407	1143.38
549.62	1146.38
549.833	1093.38
550.046	1046.38
550.259	1043.38
550.473	1043.38
550.686	1026.38
550.899	1020.38
551.112	1010.38
551.325	1011.38
551.538	1039.38
551.751	1164.38
551.964	969.38
552.177	932.38
552.39	980.38
552.603	1017.38
552.816	978.38
553.029	1066.38
553.242	1109.38
553.455	1086.38
553.667	1075.38
553.88	1076.38
554.093	1060.38
554.306	965.38
554.519	994.38
554.732	969.38
554.944	996.38
555.157	973.38
555.37	970.38
555.583	970.38
555.795	947.38
556.008	942.38
556.221	884.38
556.433	880.38
556.646	889.38
556.859	861.38
557.071	898.38
557.284	884.38
557.496	899.38
557.709	897.38
557.921	893.38
558.134	890.38
558.346	874.38
558.559	847.38
558.771	828.38
558.984	835.38
559.196	823.38
559.409	820.38
559.621	821.38
559.833	839.38
560.046	840.38
560.258	847.38
560.47	869.38
560.683	845.38
560.895	821.38
561.107	839.38
561.32	852.38
561.532	849.38
561.744	823.38
561.956	833.38
562.168	810.38
562.381	781.38
562.593	793.38
562.805	801.38
563.017	801.38
563.229	802.38
563.441	832.38
563.653	803.38
563.865	797.38
564.077	809.38
564.289	803.38
564.501	788.38
564.713	826.38
564.925	853.38
565.137	886.38
565.349	808.38
565.561	809.38
565.773	831.38
565.985	836.38
566.197	896.38
566.408	917.38
566.62	915.38
566.832	921.38
567.044	899.38
567.255	902.38
567.467	920.38
567.679	922.38
567.891	936.38
568.102	887.38
568.314	840.38
568.526	810.38
568.737	782.38
568.949	734.38
569.161	708.38
569.372	692.38
569.584	707.38
569.795	676.38
570.007	689.38
570.218	660.38
570.43	650.38
570.641	661.38
570.853	664.38
571.064	679.38
571.276	669.38
571.487	652.38
571.698	674.38
571.91	659.38
572.121	648.38
572.333	637.38
572.544	620.38
572.755	609.38
572.966	604.38
573.178	580.38
573.389	592.38
573.6	625.38
573.811	653.38
574.023	583.38
574.234	584.38
574.445	573.38
574.656	584.38
574.867	572.38
575.078	580.38
575.289	601.38
575.501	577.38
575.712	552.38
575.923	551.38
576.134	578.38
576.345	580.38
576.556	577.38
576.767	554.38
576.978	549.38
577.188	536.38
577.399	549.38
577.61	550.38
577.821	540.38
578.032	522.38
578.243	541.38
578.454	527.38
578.665	522.38
578.875	510.38
579.086	492.38
579.297	511.38
579.508	524.38
579.718	517.38
579.929	492.38
580.14	466.38
580.35	526.38
580.561	532.38
580.772	572.38
580.982	532.38
581.193	501.38
581.403	498.38
581.614	490.38
581.825	479.38
582.035	492.38
582.246	499.38
582.456	501.38
582.667	478.38
582.877	485.38
583.087	485.38
583.298	492.38
583.508	512.38
583.719	478.38
583.929	470.38
584.139	476.38
584.35	479.38
584.56	464.38
584.77	470.38
584.981	473.38
585.191	477.38
585.401	502.38
585.611	493.38
585.821	498.38
586.032	488.38
586.242	452.38
586.452	457.38
586.662	467.38
586.872	476.38
587.082	464.38
587.292	489.38
587.502	476.38
587.713	484.38
587.923	460.38
588.133	474.38
588.343	477.38
588.553	462.38
588.762	465.38
588.972	435.38
589.182	480.38
589.392	478.38
589.602	454.38
589.812	458.38
590.022	427.38
590.232	432.38
590.441	448.38
590.651	460.38
590.861	446.38
591.071	436.38
591.281	452.38
591.49	430.38
591.7	444.38
591.91	449.38
592.119	454.38
592.329	461.38
592.539	465.38
592.748	493.38
592.958	454.38
593.167	472.38
593.377	465.38
593.587	470.38
593.796	458.38
594.006	475.38
594.215	480.38
594.424	477.38
594.634	494.38
594.843	479.38
595.053	491.38
595.262	456.38
595.472	452.38
595.681	458.38
595.89	432.38
596.1	418.38
596.309	449.38
596.518	424.38
596.727	423.38
596.937	445.38
597.146	402.38
597.355	429.38
597.564	419.38
597.774	399.38
597.983	407.38
598.192	401.38
598.401	409.38
598.61	403.38
598.819	395.38
599.028	408.38
599.237	414.38
599.446	409.38
599.655	407.38
599.864	398.38
600.073	410.38
600.282	385.38
600.491	385.38
600.7	406.38
600.909	406.38
601.118	413.38
601.327	417.38
601.536	406.38
601.745	406.38
601.953	432.38
602.162	428.38
602.371	396.38
602.58	419.38
602.789	420.38
602.997	397.38
603.206	403.38
603.415	409.38
603.623	415.38
603.832	409.38
604.041	406.38
604.249	388.38
604.458	406.38
604.666	374.38
604.875	377.38
605.084	398.38
605.292	403.38
605.501	392.38
605.709	413.38
605.918	417.38
606.126	408.38
606.334	388.38
606.543	412.38
606.751	403.38
606.96	385.38
607.168	404.38
607.376	394.38
607.585	397.38
607.793	406.38
608.001	386.38
608.21	420.38
608.418	402.38
608.626	395.38
608.834	400.38
609.043	392.38
609.251	403.38
609.459	401.38
609.667	408.38
609.875	417.38
610.083	427.38
610.291	430.38
610.499	423.38
610.707	415.38
610.916	413.38
611.124	395.38
611.332	396.38
611.54	399.38
611.748	406.38
611.955	395.38
612.163	411.38
612.371	387.38
612.579	376.38
612.787	392.38
612.995	401.38
613.203	398.38
613.411	404.38
613.618	386.38
613.826	372.38
614.034	386.38
614.242	391.38
614.449	399.38
614.657	395.38
614.865	405.38
615.072	387.38
615.28	407.38
615.488	404.38
615.695	398.38
615.903	399.38
616.111	410.38
616.318	403.38
616.526	408.38
616.733	376.38
616.941	393.38
617.148	396.38
617.356	376.38
617.563	389.38
617.771	394.38
617.978	359.38
618.185	376.38
618.393	386.38
618.6	409.38
618.807	396.38
619.015	374.38
619.222	374.38
619.429	377.38
619.637	369.38
619.844	350.38
620.051	351.38
620.258	355.38
620.466	362.38
620.673	346.38
620.88	357.38
621.087	334.38
621.294	342.38
621.501	342.38
621.708	345.38
621.915	376.38
622.122	360.38
622.329	363.38
622.536	358.38
622.743	359.38
622.95	355.38
623.157	340.38
623.364	345.38
623.571	365.38
623.778	355.38
623.985	339.38
624.192	358.38
624.399	355.38
624.606	332.38
624.812	340.38
625.019	355.38
625.226	331.38
625.433	325.38
625.639	298.38
625.846	322.38
626.053	306.38
626.259	310.38
626.466	290.38
626.673	315.38
626.879	290.38
627.086	297.38
627.293	297.38
627.499	324.38
627.706	325.38
627.912	321.38
628.119	349.38
628.325	341.38
628.532	338.38
628.738	328.38
628.945	324.38
629.151	334.38
629.357	314.38
629.564	321.38
629.77	312.38
629.976	305.38
630.183	325.38
630.389	295.38
630.595	313.38
630.802	316.38
631.008	298.38
631.214	312.38
631.42	317.38
631.627	286.38
631.833	284.38
632.039	310.38
632.245	306.38
632.451	302.38
632.657	293.38
632.863	296.38
633.069	278.38
633.275	279.38
633.481	278.38
633.688	276.38
633.893	287.38
634.099	293.38
634.305	298.38
634.511	299.38
634.717	258.38
634.923	262.38
635.129	275.38
635.335	274.38
635.541	288.38
635.747	283.38
635.952	269.38
636.158	282.38
636.364	289.38
636.57	278.38
636.775	294.38
636.981	286.38
637.187	295.38
637.392	279.38
637.598	282.38
637.804	276.38
638.009	270.38
638.215	275.38
638.421	266.38
638.626	286.38
638.832	269.38
639.037	260.38
639.243	265.38
639.448	261.38
639.654	275.38
639.859	276.38
640.065	270.38
640.27	252.38
640.475	268.38
640.681	276.38
640.886	271.38
641.091	259.38
641.297	285.38
641.502	272.38
641.707	268.38
641.913	283.38
642.118	277.38
642.323	261.38
642.528	253.38
642.733	272.38
642.939	274.38
643.144	247.38
643.349	271.38
643.554	275.38
643.759	264.38
643.964	275.38
644.169	246.38
644.374	264.38
644.579	266.38
644.784	254.38
644.989	258.38
645.194	244.38
645.399	262.38
645.604	279.38
645.809	273.38
646.014	269.38
646.219	269.38
646.423	274.38
646.628	254.38
646.833	251.38
647.038	262.38
647.243	251.38
647.447	268.38
647.652	273.38
647.857	273.38
648.062	257.38
648.266	254.38
648.471	267.38
648.676	237.38
648.88	256.38
649.085	266.38
649.289	262.38
649.494	259.38
649.698	265.38
649.903	237.38
650.107	264.38
650.312	252.38
650.516	245.38
650.721	256.38
650.925	258.38
651.13	246.38
651.334	240.38
651.539	246.38
651.743	252.38
651.947	224.38
652.152	227.38
652.356	243.38
652.56	244.38
652.764	231.38
652.969	232.38
653.173	230.38
653.377	221.38
653.581	201.38
653.785	231.38
653.99	222.38
654.194	216.38
654.398	220.38
654.602	206.38
654.806	218.38
655.01	217.38
655.214	223.38
655.418	230.38
655.622	236.38
655.826	233.38
656.03	224.38
656.234	241.38
656.438	254.38
656.642	263.38
656.846	255.38
657.049	240.38
657.253	232.38
657.457	193.38
657.661	189.38
657.865	194.38
658.068	180.38
658.272	174.38
658.476	188.38
658.68	160.38
658.883	146.38
659.087	140.38
659.291	139.38
659.494	148.38
659.698	141.38
659.901	129.38
660.105	123.38
660.309	122.38
660.512	131.38
660.716	110.38
660.919	114.38
661.123	120.38
661.326	98.38
661.53	116.38
661.733	99.38
661.936	110.38
662.14	99.38
662.343	115.38
662.546	96.38
662.75	96.38
662.953	88.38
663.156	104.38
663.36	96.38
663.563	108.38
663.766	77.38
663.969	82.38
664.173	82.38
664.376	78.38
664.579	91.38
664.782	81.38
664.985	88.38
665.188	75.38
665.391	86.38
665.594	90.38
665.797	84.38
666	78.38
666.203	82.38
666.406	81.38
666.609	81.38
666.812	82.38
667.015	85.38
667.218	90.38
667.421	80.38
667.624	82.38
667.827	90.38
668.03	90.38
668.232	87.38
668.435	84.38
668.638	88.38
668.841	93.38
669.043	86.38
669.246	96.38
669.449	89.38
669.651	78.38
669.854	72.38
670.057	81.38
670.259	89.38
670.462	103.38
670.665	86.38
670.867	86.38
671.07	76.38
671.272	77.38
671.475	86.38
671.677	77.38
671.88	74.38
672.082	84.38
672.284	79.38
672.487	82.38
672.689	79.38
672.892	86.38
