Data from WStandard_LampEnergy5.5LIBS07252019.E.O._I.C._HRD10591_16-08-32-920.txt Node
Date: Thu Jul 25 16:08:32 EDT 2019
User: cochatt
Spectrometer: HR+D1059
Trigger mode: 1
Integration Time (sec): 1.000000E-1
Scans to average: 1
Electric dark correction enabled: true
Nonlinearity correction enabled: false
Boxcar width: 0
XAxis mode: Wavelengths
Number of Pixels in Spectrum: 2048
>>>>>Begin Spectral Data<<<<<
223.165	-14.06
223.4	-14.06
223.635	-14.06
223.869	-20.06
224.104	-27.06
224.338	-23.06
224.573	-22.06
224.808	-13.06
225.042	10.94
225.277	-7.06
225.511	0.94
225.746	4.94
225.98	21.94
226.215	3.94
226.449	16.94
226.683	20.94
226.918	16.94
227.152	28.94
227.387	27.94
227.621	26.94
227.856	29.94
228.09	43.94
228.324	45.94
228.559	59.94
228.793	147.94
229.027	354.94
229.262	369.94
229.496	371.94
229.73	389.94
229.964	450.94
230.199	457.94
230.433	470.94
230.667	506.94
230.901	530.94
231.136	458.94
231.37	468.94
231.604	455.94
231.838	476.94
232.072	474.94
232.306	412.94
232.541	485.94
232.775	524.94
233.009	615.94
233.243	583.94
233.477	512.94
233.711	532.94
233.945	551.94
234.179	535.94
234.413	576.94
234.647	618.94
234.881	588.94
235.115	535.94
235.349	538.94
235.583	571.94
235.817	561.94
236.051	530.94
236.285	549.94
236.519	582.94
236.753	651.94
236.987	682.94
237.221	646.94
237.455	733.94
237.689	712.94
237.922	663.94
238.156	648.94
238.39	667.94
238.624	673.94
238.858	736.94
239.091	769.94
239.325	770.94
239.559	903.94
239.793	930.94
240.027	1038.94
240.26	1025.94
240.494	747.94
240.728	699.94
240.961	715.94
241.195	708.94
241.429	835.94
241.662	809.94
241.896	754.94
242.13	754.94
242.363	837.94
242.597	896.94
242.83	832.94
243.064	878.94
243.298	927.94
243.531	911.94
243.765	920.94
243.998	892.94
244.232	797.94
244.465	776.94
244.699	787.94
244.932	859.94
245.166	1018.94
245.399	958.94
245.633	906.94
245.866	868.94
246.099	938.94
246.333	937.94
246.566	933.94
246.8	1001.94
247.033	1144.94
247.266	1093.94
247.5	1050.94
247.733	1035.94
247.966	1074.94
248.2	1215.94
248.433	1157.94
248.666	1193.94
248.899	1314.94
249.133	1499.94
249.366	1651.94
249.599	1383.94
249.832	1216.94
250.066	1270.94
250.299	1295.94
250.532	1207.94
250.765	1079.94
250.998	1115.94
251.231	1166.94
251.465	1226.94
251.698	1169.94
251.931	1162.94
252.164	1187.94
252.397	1247.94
252.63	1228.94
252.863	1073.94
253.096	1079.94
253.329	1113.94
253.562	1159.94
253.795	1248.94
254.028	1259.94
254.261	1181.94
254.494	1184.94
254.727	1076.94
254.96	1132.94
255.193	1247.94
255.426	1401.94
255.659	1621.94
255.892	1663.94
256.124	1336.94
256.357	1256.94
256.59	1393.94
256.823	1423.94
257.056	1400.94
257.289	1657.94
257.521	1859.94
257.754	1675.94
257.987	1567.94
258.22	1759.94
258.452	1683.94
258.685	1383.94
258.918	1353.94
259.151	1371.94
259.383	1325.94
259.616	1148.94
259.849	1215.94
260.081	1391.94
260.314	1523.94
260.547	1633.94
260.779	1699.94
261.012	1572.94
261.244	1419.94
261.477	1321.94
261.71	1380.94
261.942	1375.94
262.175	1345.94
262.407	1416.94
262.64	1345.94
262.872	1288.94
263.105	1239.94
263.337	1279.94
263.57	1278.94
263.802	1283.94
264.035	1208.94
264.267	1091.94
264.499	1076.94
264.732	1197.94
264.964	1272.94
265.197	1316.94
265.429	1347.94
265.661	1569.94
265.894	1705.94
266.126	1765.94
266.358	1610.94
266.591	1625.94
266.823	1764.94
267.055	1609.94
267.287	1547.94
267.52	1543.94
267.752	1511.94
267.984	1554.94
268.216	1606.94
268.448	1631.94
268.681	1613.94
268.913	1496.94
269.145	1414.94
269.377	1368.94
269.609	1463.94
269.841	1683.94
270.073	1937.94
270.306	2193.94
270.538	2366.94
270.77	2005.94
271.002	1673.94
271.234	1592.94
271.466	1605.94
271.698	1797.94
271.93	2149.94
272.162	2144.94
272.394	1964.94
272.626	1897.94
272.858	1689.94
273.09	1416.94
273.322	1429.94
273.553	1361.94
273.785	1340.94
274.017	1416.94
274.249	1561.94
274.481	1521.94
274.713	1422.94
274.945	1403.94
275.176	1409.94
275.408	1387.94
275.64	1348.94
275.872	1382.94
276.104	1462.94
276.335	1619.94
276.567	1852.94
276.799	1875.94
277.031	1671.94
277.262	1576.94
277.494	1607.94
277.726	1811.94
277.957	1835.94
278.189	1641.94
278.421	1516.94
278.652	1487.94
278.884	1455.94
279.115	1438.94
279.347	1499.94
279.579	1447.94
279.81	1415.94
280.042	1562.94
280.273	1761.94
280.505	1761.94
280.736	1790.94
280.968	1692.94
281.199	1467.94
281.431	1389.94
281.662	1404.94
281.894	1421.94
282.125	1450.94
282.356	1516.94
282.588	1536.94
282.819	1497.94
283.051	1615.94
283.282	1772.94
283.513	1742.94
283.745	1509.94
283.976	1389.94
284.207	1422.94
284.439	1444.94
284.67	1457.94
284.901	1505.94
285.132	1555.94
285.364	1495.94
285.595	1509.94
285.826	1477.94
286.057	1468.94
286.288	1468.94
286.52	1481.94
286.751	1662.94
286.982	1719.94
287.213	1578.94
287.444	1428.94
287.675	1432.94
287.906	1502.94
288.138	1624.94
288.369	1573.94
288.6	1480.94
288.831	1437.94
289.062	1465.94
289.293	1525.94
289.524	1484.94
289.755	1531.94
289.986	1553.94
290.217	1428.94
290.448	1469.94
290.679	1549.94
290.91	1523.94
291.141	1525.94
291.371	1616.94
291.602	1579.94
291.833	1542.94
292.064	1596.94
292.295	1592.94
292.526	1627.94
292.757	1716.94
292.987	1639.94
293.218	1544.94
293.449	1631.94
293.68	1821.94
293.91	1980.94
294.141	1845.94
294.372	1721.94
294.603	1836.94
294.833	1912.94
295.064	1821.94
295.295	1621.94
295.525	1586.94
295.756	1489.94
295.987	1386.94
296.217	1439.94
296.448	1503.94
296.679	1470.94
296.909	1469.94
297.14	1470.94
297.37	1471.94
297.601	1524.94
297.831	1693.94
298.062	1740.94
298.292	1557.94
298.523	1458.94
298.753	1524.94
298.984	1490.94
299.214	1492.94
299.445	1532.94
299.675	1620.94
299.905	1562.94
300.136	1540.94
300.366	1513.94
300.597	1448.94
300.827	1445.94
301.057	1560.94
301.288	1618.94
301.518	1614.94
301.748	1611.94
301.979	1728.94
302.209	1719.94
302.439	1815.94
302.669	1903.94
302.9	1841.94
303.13	1647.94
303.36	1604.94
303.59	1640.94
303.82	1609.94
304.051	1625.94
304.281	1650.94
304.511	1628.94
304.741	1737.94
304.971	1860.94
305.201	2012.94
305.431	1903.94
305.661	1587.94
305.891	1445.94
306.121	1399.94
306.352	1495.94
306.582	1579.94
306.812	1664.94
307.042	1777.94
307.272	1754.94
307.502	1817.94
307.731	1919.94
307.961	2141.94
308.191	1951.94
308.421	1677.94
308.651	1610.94
308.881	1537.94
309.111	1552.94
309.341	1535.94
309.571	1551.94
309.8	1596.94
310.03	1541.94
310.26	1516.94
310.49	1535.94
310.72	1545.94
310.949	1635.94
311.179	1669.94
311.409	1651.94
311.639	1604.94
311.868	1578.94
312.098	1629.94
312.328	1619.94
312.557	1628.94
312.787	1588.94
313.017	1654.94
313.246	1638.94
313.476	1620.94
313.706	1688.94
313.935	1678.94
314.165	1642.94
314.394	1702.94
314.624	1790.94
314.853	1888.94
315.083	1916.94
315.312	2012.94
315.542	1925.94
315.771	1667.94
316.001	1670.94
316.23	1775.94
316.46	1802.94
316.689	1752.94
316.919	1653.94
317.148	1557.94
317.377	1588.94
317.607	1693.94
317.836	1929.94
318.065	2003.94
318.295	1937.94
318.524	1852.94
318.753	1759.94
318.983	1759.94
319.212	1736.94
319.441	1732.94
319.67	1670.94
319.9	1683.94
320.129	1748.94
320.358	1857.94
320.587	1928.94
320.816	1881.94
321.046	1861.94
321.275	1724.94
321.504	1747.94
321.733	1949.94
321.962	1818.94
322.191	1714.94
322.42	1693.94
322.649	1698.94
322.878	1690.94
323.108	1707.94
323.337	1738.94
323.566	1782.94
323.795	1779.94
324.024	1768.94
324.253	1703.94
324.482	1798.94
324.71	1715.94
324.939	1601.94
325.168	1636.94
325.397	1665.94
325.626	1754.94
325.855	1752.94
326.084	1662.94
326.313	1674.94
326.542	1715.94
326.77	1776.94
326.999	1766.94
327.228	1722.94
327.457	1627.94
327.686	1568.94
327.914	1644.94
328.143	1707.94
328.372	1729.94
328.6	1680.94
328.829	1688.94
329.058	1658.94
329.287	1675.94
329.515	1708.94
329.744	1734.94
329.972	1827.94
330.201	1887.94
330.43	1848.94
330.658	1819.94
330.887	1776.94
331.115	1811.94
331.344	1801.94
331.572	1762.94
331.801	1798.94
332.03	1785.94
332.258	1782.94
332.486	1867.94
332.715	1879.94
332.943	1867.94
333.172	1809.94
333.4	1843.94
333.629	1864.94
333.857	1928.94
334.085	2106.94
334.314	2412.94
334.542	2659.94
334.771	2495.94
334.999	2185.94
335.227	2037.94
335.455	1957.94
335.684	1923.94
335.912	1988.94
336.14	2031.94
336.369	1944.94
336.597	1841.94
336.825	1817.94
337.053	1902.94
337.281	1986.94
337.51	2087.94
337.738	2165.94
337.966	2049.94
338.194	1857.94
338.422	1811.94
338.65	1783.94
338.878	1801.94
339.106	1724.94
339.334	1697.94
339.562	1716.94
339.79	1682.94
340.018	1842.94
340.246	1899.94
340.474	1903.94
340.702	1821.94
340.93	1876.94
341.158	1817.94
341.386	1772.94
341.614	1794.94
341.842	1757.94
342.07	1752.94
342.298	1768.94
342.526	1819.94
342.754	1782.94
342.981	1751.94
343.209	1750.94
343.437	1737.94
343.665	1782.94
343.893	1794.94
344.12	1898.94
344.348	1908.94
344.576	1817.94
344.804	1765.94
345.031	1751.94
345.259	1809.94
345.487	1756.94
345.714	1713.94
345.942	1627.94
346.17	1651.94
346.397	1678.94
346.625	1719.94
346.853	1620.94
347.08	1578.94
347.308	1632.94
347.535	1640.94
347.763	1701.94
347.99	1642.94
348.218	1587.94
348.445	1562.94
348.673	1655.94
348.9	1699.94
349.128	1751.94
349.355	1814.94
349.583	1745.94
349.81	1707.94
350.037	1578.94
350.265	1553.94
350.492	1558.94
350.72	1602.94
350.947	1652.94
351.174	1736.94
351.402	1638.94
351.629	1573.94
351.856	1545.94
352.083	1540.94
352.311	1524.94
352.538	1616.94
352.765	1681.94
352.992	1680.94
353.22	1648.94
353.447	1591.94
353.674	1636.94
353.901	1644.94
354.128	1567.94
354.355	1591.94
354.583	1685.94
354.81	1669.94
355.037	1697.94
355.264	1688.94
355.491	1633.94
355.718	1659.94
355.945	1682.94
356.172	1597.94
356.399	1597.94
356.626	1601.94
356.853	1661.94
357.08	1760.94
357.307	1939.94
357.534	1963.94
357.761	1745.94
357.988	1581.94
358.215	1530.94
358.441	1560.94
358.668	1561.94
358.895	1593.94
359.122	1653.94
359.349	1781.94
359.576	1776.94
359.802	1652.94
360.029	1606.94
360.256	1567.94
360.483	1603.94
360.709	1669.94
360.936	1696.94
361.163	1753.94
361.39	1914.94
361.616	2083.94
361.843	2004.94
362.07	1912.94
362.296	1670.94
362.523	1609.94
362.749	1600.94
362.976	1648.94
363.203	1700.94
363.429	1637.94
363.656	1575.94
363.882	1608.94
364.109	1763.94
364.335	1959.94
364.562	1829.94
364.788	1733.94
365.015	1662.94
365.241	1605.94
365.468	1632.94
365.694	1702.94
365.92	1816.94
366.147	1693.94
366.373	1619.94
366.599	1579.94
366.826	1593.94
367.052	1577.94
367.278	1575.94
367.505	1626.94
367.731	1699.94
367.957	1664.94
368.184	1706.94
368.41	1839.94
368.636	1839.94
368.862	1825.94
369.089	1815.94
369.315	1781.94
369.541	1683.94
369.767	1641.94
369.993	1613.94
370.219	1602.94
370.445	1641.94
370.672	1764.94
370.898	1851.94
371.124	1818.94
371.35	1749.94
371.576	1773.94
371.802	1850.94
372.028	1721.94
372.254	1667.94
372.48	1611.94
372.706	1636.94
372.932	1641.94
373.158	1662.94
373.384	1679.94
373.61	1710.94
373.835	1804.94
374.061	1700.94
374.287	1727.94
374.513	1683.94
374.739	1746.94
374.965	1753.94
375.191	1759.94
375.416	1781.94
375.642	1729.94
375.868	1841.94
376.094	1898.94
376.319	1861.94
376.545	1749.94
376.771	1771.94
376.997	1831.94
377.222	1851.94
377.448	1761.94
377.674	1760.94
377.899	1795.94
378.125	1907.94
378.35	1894.94
378.576	1728.94
378.802	1661.94
379.027	1646.94
379.253	1698.94
379.478	1702.94
379.704	1685.94
379.929	1692.94
380.155	1717.94
380.38	1724.94
380.606	1766.94
380.831	1685.94
381.057	1797.94
381.282	1849.94
381.507	1784.94
381.733	1860.94
381.958	1976.94
382.184	1839.94
382.409	1761.94
382.634	1760.94
382.86	1750.94
383.085	1729.94
383.31	1839.94
383.535	1951.94
383.761	2095.94
383.986	1995.94
384.211	1919.94
384.436	1927.94
384.662	1984.94
384.887	2124.94
385.112	1963.94
385.337	2010.94
385.562	1945.94
385.787	1969.94
386.013	2019.94
386.238	2019.94
386.463	1992.94
386.688	2117.94
386.913	2184.94
387.138	2182.94
387.363	2058.94
387.588	2006.94
387.813	1980.94
388.038	2006.94
388.263	2107.94
388.488	2083.94
388.713	1866.94
388.938	1867.94
389.163	1895.94
389.387	1945.94
389.612	1926.94
389.837	1943.94
390.062	2013.94
390.287	1949.94
390.512	1978.94
390.736	1931.94
390.961	1875.94
391.186	1865.94
391.411	1861.94
391.636	1945.94
391.86	2006.94
392.085	1989.94
392.31	1939.94
392.534	1968.94
392.759	1969.94
392.984	1922.94
393.208	1947.94
393.433	2018.94
393.658	2087.94
393.882	2101.94
394.107	1979.94
394.331	1928.94
394.556	1947.94
394.78	1952.94
395.005	2024.94
395.229	2067.94
395.454	2234.94
395.678	2235.94
395.903	2147.94
396.127	2032.94
396.352	2079.94
396.576	2163.94
396.801	2124.94
397.025	2139.94
397.249	2164.94
397.474	2105.94
397.698	2083.94
397.922	2171.94
398.147	2231.94
398.371	2303.94
398.595	2299.94
398.82	2232.94
399.044	2265.94
399.268	2366.94
399.492	2471.94
399.717	2689.94
399.941	2633.94
400.165	2595.94
400.389	2474.94
400.613	2461.94
400.837	2693.94
401.062	3142.94
401.286	2707.94
401.51	2479.94
401.734	2517.94
401.958	2502.94
402.182	2304.94
402.406	2234.94
402.63	2199.94
402.854	2175.94
403.078	2276.94
403.302	2284.94
403.526	2334.94
403.75	2343.94
403.974	2329.94
404.198	2307.94
404.422	2415.94
404.645	2492.94
404.869	2467.94
405.093	2265.94
405.317	2289.94
405.541	2365.94
405.765	2377.94
405.988	2385.94
406.212	2418.94
406.436	2410.94
406.66	2510.94
406.883	2528.94
407.107	2760.94
407.331	3036.94
407.555	3285.94
407.778	3011.94
408.002	2504.94
408.226	2456.94
408.449	2458.94
408.673	2347.94
408.896	2417.94
409.12	2439.94
409.344	2399.94
409.567	2327.94
409.791	2339.94
410.014	2380.94
410.238	2459.94
410.461	2626.94
410.685	2396.94
410.908	2252.94
411.132	2331.94
411.355	2326.94
411.578	2249.94
411.802	2308.94
412.025	2305.94
412.249	2287.94
412.472	2226.94
412.695	2164.94
412.919	2209.94
413.142	2177.94
413.365	2227.94
413.589	2271.94
413.812	2328.94
414.035	2488.94
414.258	2262.94
414.482	2199.94
414.705	2170.94
414.928	2195.94
415.151	2199.94
415.374	2227.94
415.597	2244.94
415.821	2243.94
416.044	2345.94
416.267	2353.94
416.49	2172.94
416.713	2089.94
416.936	2200.94
417.159	2260.94
417.382	2309.94
417.605	2176.94
417.828	2274.94
418.051	2315.94
418.274	2187.94
418.497	2139.94
418.72	2172.94
418.943	2135.94
419.166	2295.94
419.389	2404.94
419.611	2269.94
419.834	2189.94
420.057	2216.94
420.28	2107.94
420.503	2127.94
420.726	2190.94
420.948	2188.94
421.171	2122.94
421.394	2102.94
421.617	2171.94
421.839	2202.94
422.062	2161.94
422.285	2101.94
422.507	2137.94
422.73	2070.94
422.953	2052.94
423.175	2051.94
423.398	2127.94
423.621	2106.94
423.843	2150.94
424.066	2178.94
424.288	2235.94
424.511	2269.94
424.733	2263.94
424.956	2058.94
425.178	2002.94
425.401	2056.94
425.623	2083.94
425.846	2070.94
426.068	2198.94
426.291	2249.94
426.513	2199.94
426.735	2171.94
426.958	2331.94
427.18	2461.94
427.402	2263.94
427.625	2267.94
427.847	2320.94
428.069	2183.94
428.292	2083.94
428.514	2060.94
428.736	2004.94
428.958	2040.94
429.181	2105.94
429.403	2370.94
429.625	2935.94
429.847	2573.94
430.069	2130.94
430.292	2306.94
430.514	2435.94
430.736	2256.94
430.958	2360.94
431.18	2223.94
431.402	2047.94
431.624	2033.94
431.846	2028.94
432.068	2025.94
432.29	2090.94
432.512	2083.94
432.734	2137.94
432.956	2115.94
433.178	2278.94
433.4	2202.94
433.622	2223.94
433.844	2137.94
434.066	2024.94
434.287	2015.94
434.509	2139.94
434.731	2216.94
434.953	2361.94
435.175	2365.94
435.397	2180.94
435.618	2194.94
435.84	2199.94
436.062	2151.94
436.284	2171.94
436.505	2179.94
436.727	2196.94
436.949	2150.94
437.17	2082.94
437.392	2092.94
437.614	2128.94
437.835	2053.94
438.057	2170.94
438.278	2248.94
438.5	2102.94
438.721	2050.94
438.943	2053.94
439.165	2052.94
439.386	1993.94
439.608	2038.94
439.829	2029.94
440.05	2115.94
440.272	2046.94
440.493	1954.94
440.715	2020.94
440.936	2201.94
441.158	2389.94
441.379	2351.94
441.6	2266.94
441.822	2235.94
442.043	2169.94
442.264	2128.94
442.486	2049.94
442.707	2043.94
442.928	2115.94
443.149	2114.94
443.371	2320.94
443.592	2313.94
443.813	2276.94
444.034	2289.94
444.255	2244.94
444.476	2264.94
444.698	2340.94
444.919	2311.94
445.14	2398.94
445.361	2409.94
445.582	2426.94
445.803	2332.94
446.024	2273.94
446.245	2346.94
446.466	2288.94
446.687	2211.94
446.908	2155.94
447.129	2092.94
447.35	2113.94
447.571	2106.94
447.792	2008.94
448.013	2010.94
448.234	2068.94
448.455	2141.94
448.675	2165.94
448.896	1960.94
449.117	1959.94
449.338	2000.94
449.559	2095.94
449.779	2220.94
450	2393.94
450.221	2588.94
450.442	2495.94
450.662	2179.94
450.883	1968.94
451.104	1915.94
451.324	1974.94
451.545	2062.94
451.766	2007.94
451.986	1911.94
452.207	1900.94
452.428	1867.94
452.648	1816.94
452.869	1874.94
453.089	1980.94
453.31	2035.94
453.53	2087.94
453.751	1973.94
453.971	1843.94
454.192	1946.94
454.412	2057.94
454.633	1977.94
454.853	1917.94
455.073	1776.94
455.294	1780.94
455.514	1767.94
455.734	1816.94
455.955	1898.94
456.175	1857.94
456.395	1844.94
456.616	1871.94
456.836	1920.94
457.056	1910.94
457.276	1890.94
457.497	1839.94
457.717	1802.94
457.937	1808.94
458.157	1899.94
458.377	1814.94
458.598	1848.94
458.818	1857.94
459.038	1978.94
459.258	2148.94
459.478	2121.94
459.698	2089.94
459.918	2053.94
460.138	2165.94
460.358	2229.94
460.578	2200.94
460.798	2291.94
461.018	2443.94
461.238	2312.94
461.458	2183.94
461.678	2215.94
461.898	2185.94
462.118	2146.94
462.338	2232.94
462.558	2195.94
462.777	2215.94
462.997	2321.94
463.217	2461.94
463.437	2447.94
463.657	2246.94
463.876	2229.94
464.096	2175.94
464.316	2225.94
464.536	2300.94
464.755	2289.94
464.975	2371.94
465.195	2256.94
465.414	2373.94
465.634	2359.94
465.854	2226.94
466.073	2338.94
466.293	2323.94
466.512	2069.94
466.732	2061.94
466.951	2080.94
467.171	2064.94
467.391	2007.94
467.61	1972.94
467.829	2019.94
468.049	2152.94
468.268	2415.94
468.488	2239.94
468.707	2115.94
468.927	2071.94
469.146	2022.94
469.365	1955.94
469.585	2059.94
469.804	1979.94
470.023	1999.94
470.243	2016.94
470.462	2003.94
470.681	1997.94
470.901	2035.94
471.12	1996.94
471.339	1983.94
471.558	1958.94
471.777	1904.94
471.997	1979.94
472.216	1951.94
472.435	1939.94
472.654	1914.94
472.873	2019.94
473.092	2172.94
473.311	2035.94
473.53	1957.94
473.749	1917.94
473.968	1961.94
474.187	2099.94
474.406	2184.94
474.625	2080.94
474.844	2044.94
475.063	2053.94
475.282	2099.94
475.501	2022.94
475.72	2024.94
475.939	2180.94
476.158	2095.94
476.377	2053.94
476.596	2078.94
476.814	2107.94
477.033	2088.94
477.252	2199.94
477.471	2267.94
477.69	2161.94
477.908	2140.94
478.127	2237.94
478.346	2392.94
478.564	2422.94
478.783	2384.94
479.002	2485.94
479.22	2381.94
479.439	2527.94
479.658	2803.94
479.876	2807.94
480.095	2449.94
480.313	2371.94
480.532	2289.94
480.751	2304.94
480.969	2366.94
481.188	2341.94
481.406	2281.94
481.624	2208.94
481.843	2257.94
482.061	2297.94
482.28	2303.94
482.498	2343.94
482.717	2358.94
482.935	2253.94
483.153	2292.94
483.372	2260.94
483.59	2252.94
483.808	2257.94
484.027	2282.94
484.245	2418.94
484.463	2840.94
484.681	3237.94
484.9	2498.94
485.118	2298.94
485.336	2266.94
485.554	2409.94
485.772	2487.94
485.99	2403.94
486.209	2453.94
486.427	2424.94
486.645	2410.94
486.863	2409.94
487.081	2465.94
487.299	2509.94
487.517	2489.94
487.735	2374.94
487.953	2353.94
488.171	2315.94
488.389	2299.94
488.607	2328.94
488.825	2534.94
489.043	2629.94
489.261	2345.94
489.479	2495.94
489.696	2538.94
489.914	2502.94
490.132	2402.94
490.35	2357.94
490.568	2433.94
490.786	2419.94
491.003	2313.94
491.221	2388.94
491.439	2484.94
491.657	2400.94
491.874	2400.94
492.092	2507.94
492.31	2473.94
492.527	2418.94
492.745	2401.94
492.963	2377.94
493.18	2535.94
493.398	2659.94
493.615	2762.94
493.833	2488.94
494.05	2445.94
494.268	2464.94
494.485	2519.94
494.703	2451.94
494.92	2441.94
495.138	2407.94
495.355	2411.94
495.573	2567.94
495.79	2686.94
496.008	2725.94
496.225	2513.94
496.442	2585.94
496.66	2617.94
496.877	2572.94
497.094	2643.94
497.312	2711.94
497.529	2662.94
497.746	2763.94
497.963	3184.94
498.181	3510.94
498.398	3317.94
498.615	3249.94
498.832	3188.94
499.049	3141.94
499.267	3154.94
499.484	3375.94
499.701	3617.94
499.918	3636.94
500.135	3897.94
500.352	4168.94
500.569	4127.94
500.786	4407.94
501.003	4135.94
501.22	3749.94
501.437	3598.94
501.654	3610.94
501.871	3525.94
502.088	3095.94
502.305	3113.94
502.522	3031.94
502.739	2833.94
502.956	2702.94
503.172	2704.94
503.389	2636.94
503.606	2594.94
503.823	2581.94
504.04	2603.94
504.256	2601.94
504.473	2578.94
504.69	2663.94
504.907	2539.94
505.123	2424.94
505.34	2512.94
505.557	3275.94
505.773	2823.94
505.99	2375.94
506.207	2255.94
506.423	2239.94
506.64	2230.94
506.856	2223.94
507.073	2524.94
507.289	2712.94
507.506	2601.94
507.722	2253.94
507.939	2135.94
508.155	2143.94
508.372	2144.94
508.588	2087.94
508.805	2042.94
509.021	2047.94
509.238	2037.94
509.454	2022.94
509.67	2066.94
509.887	2014.94
510.103	2010.94
510.319	2015.94
510.536	2112.94
510.752	2189.94
510.968	2189.94
511.184	2357.94
511.401	2287.94
511.617	2021.94
511.833	1992.94
512.049	1941.94
512.265	1982.94
512.481	1957.94
512.698	2017.94
512.914	2192.94
513.13	2091.94
513.346	1980.94
513.562	1911.94
513.778	2005.94
513.994	2073.94
514.21	2141.94
514.426	2145.94
514.642	2395.94
514.858	2263.94
515.074	2029.94
515.29	1993.94
515.506	2028.94
515.721	2070.94
515.937	2092.94
516.153	2381.94
516.369	2254.94
516.585	2163.94
516.801	2082.94
517.016	2012.94
517.232	2105.94
517.448	2126.94
517.664	2199.94
517.879	2213.94
518.095	2271.94
518.311	2166.94
518.527	2099.94
518.742	2058.94
518.958	1996.94
519.173	1969.94
519.389	1988.94
519.605	2050.94
519.82	2025.94
520.036	2043.94
520.251	1958.94
520.467	1983.94
520.682	2183.94
520.898	2259.94
521.113	1985.94
521.329	1974.94
521.544	2096.94
521.76	2030.94
521.975	1902.94
522.19	1885.94
522.406	1869.94
522.621	2260.94
522.836	2272.94
523.052	1867.94
523.267	1866.94
523.482	1864.94
523.698	1848.94
523.913	1772.94
524.128	1795.94
524.343	1919.94
524.559	1985.94
524.774	1841.94
524.989	1828.94
525.204	1791.94
525.419	1744.94
525.634	1772.94
525.849	1789.94
526.064	1802.94
526.28	1803.94
526.495	1768.94
526.71	1729.94
526.925	1701.94
527.14	1721.94
527.355	1735.94
527.57	1731.94
527.785	1767.94
527.999	1746.94
528.214	1650.94
528.429	1640.94
528.644	1681.94
528.859	1674.94
529.074	1696.94
529.289	1705.94
529.503	1755.94
529.718	1753.94
529.933	1699.94
530.148	1636.94
530.363	1669.94
530.577	1667.94
530.792	1679.94
531.007	1727.94
531.221	1692.94
531.436	1760.94
531.651	1810.94
531.865	1889.94
532.08	1787.94
532.295	1671.94
532.509	1670.94
532.724	1669.94
532.938	1759.94
533.153	1866.94
533.367	1750.94
533.582	1711.94
533.796	1661.94
534.011	1672.94
534.225	1723.94
534.44	1658.94
534.654	1651.94
534.868	1709.94
535.083	1715.94
535.297	1736.94
535.511	1698.94
535.726	1692.94
535.94	1702.94
536.154	1672.94
536.369	1621.94
536.583	1626.94
536.797	1633.94
537.011	1688.94
537.225	1621.94
537.44	1620.94
537.654	1649.94
537.868	1640.94
538.082	1521.94
538.296	1539.94
538.51	1555.94
538.724	1541.94
538.938	1578.94
539.153	1592.94
539.367	1578.94
539.581	1591.94
539.795	1669.94
540.009	1666.94
540.222	1631.94
540.436	1613.94
540.65	1769.94
540.864	1795.94
541.078	1688.94
541.292	1557.94
541.506	1561.94
541.72	1599.94
541.934	1614.94
542.147	1653.94
542.361	1593.94
542.575	1543.94
542.789	1516.94
543.002	1501.94
543.216	1517.94
543.43	1636.94
543.644	1672.94
543.857	1725.94
544.071	1639.94
544.285	1617.94
544.498	1519.94
544.712	1587.94
544.925	1590.94
545.139	1645.94
545.352	1547.94
545.566	1498.94
545.779	1493.94
545.993	1505.94
546.206	1603.94
546.42	1500.94
546.633	1452.94
546.847	1509.94
547.06	1464.94
547.274	1520.94
547.487	1497.94
547.7	1466.94
547.914	1498.94
548.127	1523.94
548.34	1542.94
548.554	1527.94
548.767	1520.94
548.98	1532.94
549.193	1516.94
549.407	1558.94
549.62	1585.94
549.833	1507.94
550.046	1511.94
550.259	1532.94
550.473	1489.94
550.686	1494.94
550.899	1489.94
551.112	1455.94
551.325	1420.94
551.538	1538.94
551.751	1754.94
551.964	1487.94
552.177	1424.94
552.39	1450.94
552.603	1479.94
552.816	1462.94
553.029	1541.94
553.242	1601.94
553.455	1495.94
553.667	1463.94
553.88	1476.94
554.093	1459.94
554.306	1416.94
554.519	1386.94
554.732	1364.94
554.944	1378.94
555.157	1430.94
555.37	1383.94
555.583	1403.94
555.795	1389.94
556.008	1333.94
556.221	1336.94
556.433	1321.94
556.646	1273.94
556.859	1297.94
557.071	1280.94
557.284	1286.94
557.496	1280.94
557.709	1283.94
557.921	1299.94
558.134	1240.94
558.346	1218.94
558.559	1227.94
558.771	1240.94
558.984	1187.94
559.196	1203.94
559.409	1194.94
559.621	1236.94
559.833	1212.94
560.046	1287.94
560.258	1266.94
560.47	1215.94
560.683	1250.94
560.895	1211.94
561.107	1252.94
561.32	1205.94
561.532	1243.94
561.744	1218.94
561.956	1221.94
562.168	1202.94
562.381	1165.94
562.593	1160.94
562.805	1169.94
563.017	1172.94
563.229	1192.94
563.441	1249.94
563.653	1205.94
563.865	1236.94
564.077	1207.94
564.289	1178.94
564.501	1197.94
564.713	1219.94
564.925	1280.94
565.137	1365.94
565.349	1291.94
565.561	1255.94
565.773	1300.94
565.985	1302.94
566.197	1367.94
566.408	1449.94
566.62	1439.94
566.832	1493.94
567.044	1450.94
567.255	1443.94
567.467	1442.94
567.679	1535.94
567.891	1531.94
568.102	1511.94
568.314	1436.94
568.526	1376.94
568.737	1349.94
568.949	1279.94
569.161	1268.94
569.372	1190.94
569.584	1178.94
569.795	1206.94
570.007	1146.94
570.218	1110.94
570.43	1123.94
570.641	1094.94
570.853	1089.94
571.064	1104.94
571.276	1066.94
571.487	1083.94
571.698	1037.94
571.91	1024.94
572.121	1041.94
572.333	999.94
572.544	1003.94
572.755	933.94
572.966	991.94
573.178	968.94
573.389	1000.94
573.6	1034.94
573.811	1066.94
574.023	999.94
574.234	952.94
574.445	939.94
574.656	951.94
574.867	912.94
575.078	937.94
575.289	959.94
575.501	891.94
575.712	909.94
575.923	921.94
576.134	914.94
576.345	905.94
576.556	899.94
576.767	872.94
576.978	875.94
577.188	882.94
577.399	849.94
577.61	864.94
577.821	854.94
578.032	842.94
578.243	833.94
578.454	834.94
578.665	821.94
578.875	832.94
579.086	839.94
579.297	820.94
579.508	853.94
579.718	856.94
579.929	821.94
580.14	808.94
580.35	837.94
580.561	849.94
580.772	898.94
580.982	850.94
581.193	797.94
581.403	806.94
581.614	786.94
581.825	793.94
582.035	769.94
582.246	793.94
582.456	812.94
582.667	816.94
582.877	789.94
583.087	795.94
583.298	767.94
583.508	763.94
583.719	755.94
583.929	789.94
584.139	760.94
584.35	736.94
584.56	757.94
584.77	794.94
584.981	756.94
585.191	767.94
585.401	825.94
585.611	757.94
585.821	737.94
586.032	756.94
586.242	767.94
586.452	739.94
586.662	753.94
586.872	739.94
587.082	749.94
587.292	755.94
587.502	769.94
587.713	768.94
587.923	739.94
588.133	738.94
588.343	744.94
588.553	756.94
588.762	741.94
588.972	729.94
589.182	749.94
589.392	725.94
589.602	745.94
589.812	739.94
590.022	723.94
590.232	692.94
590.441	734.94
590.651	737.94
590.861	724.94
591.071	723.94
591.281	705.94
591.49	721.94
591.7	744.94
591.91	723.94
592.119	720.94
592.329	759.94
592.539	781.94
592.748	754.94
592.958	741.94
593.167	759.94
593.377	785.94
593.587	773.94
593.796	784.94
594.006	757.94
594.215	781.94
594.424	766.94
594.634	749.94
594.843	759.94
595.053	769.94
595.262	739.94
595.472	746.94
595.681	708.94
595.89	703.94
596.1	693.94
596.309	706.94
596.518	683.94
596.727	699.94
596.937	714.94
597.146	639.94
597.355	637.94
597.564	672.94
597.774	653.94
597.983	630.94
598.192	642.94
598.401	617.94
598.61	625.94
598.819	609.94
599.028	619.94
599.237	641.94
599.446	619.94
599.655	604.94
599.864	615.94
600.073	610.94
600.282	580.94
600.491	599.94
600.7	597.94
600.909	587.94
601.118	601.94
601.327	610.94
601.536	588.94
601.745	590.94
601.953	572.94
602.162	571.94
602.371	601.94
602.58	598.94
602.789	571.94
602.997	581.94
603.206	611.94
603.415	593.94
603.623	593.94
603.832	566.94
604.041	561.94
604.249	584.94
604.458	556.94
604.666	571.94
604.875	543.94
605.084	582.94
605.292	570.94
605.501	564.94
605.709	560.94
605.918	576.94
606.126	556.94
606.334	533.94
606.543	565.94
606.751	527.94
606.96	562.94
607.168	525.94
607.376	522.94
607.585	523.94
607.793	556.94
608.001	531.94
608.21	535.94
608.418	553.94
608.626	529.94
608.834	557.94
609.043	539.94
609.251	530.94
609.459	533.94
609.667	546.94
609.875	544.94
610.083	544.94
610.291	571.94
610.499	551.94
610.707	524.94
610.916	503.94
611.124	527.94
611.332	514.94
611.54	516.94
611.748	521.94
611.955	530.94
612.163	523.94
612.371	523.94
612.579	498.94
612.787	521.94
612.995	531.94
613.203	526.94
613.411	525.94
613.618	517.94
613.826	514.94
614.034	517.94
614.242	507.94
614.449	514.94
614.657	499.94
614.865	511.94
615.072	507.94
615.28	500.94
615.488	522.94
615.695	525.94
615.903	519.94
616.111	497.94
616.318	524.94
616.526	501.94
616.733	522.94
616.941	514.94
617.148	499.94
617.356	511.94
617.563	507.94
617.771	516.94
617.978	476.94
618.185	495.94
618.393	481.94
618.6	464.94
618.807	500.94
619.015	506.94
619.222	489.94
619.429	489.94
619.637	466.94
619.844	470.94
620.051	470.94
620.258	474.94
620.466	467.94
620.673	477.94
620.88	453.94
621.087	433.94
621.294	442.94
621.501	448.94
621.708	450.94
621.915	454.94
622.122	466.94
622.329	435.94
622.536	452.94
622.743	462.94
622.95	444.94
623.157	467.94
623.364	425.94
623.571	448.94
623.778	438.94
623.985	451.94
624.192	447.94
624.399	460.94
624.606	461.94
624.812	423.94
625.019	436.94
625.226	441.94
625.433	418.94
625.639	443.94
625.846	415.94
626.053	397.94
626.259	392.94
626.466	436.94
626.673	412.94
626.879	405.94
627.086	419.94
627.293	406.94
627.499	419.94
627.706	407.94
627.912	396.94
628.119	411.94
628.325	420.94
628.532	416.94
628.738	415.94
628.945	403.94
629.151	396.94
629.357	396.94
629.564	405.94
629.77	372.94
629.976	384.94
630.183	397.94
630.389	389.94
630.595	394.94
630.802	390.94
631.008	401.94
631.214	379.94
631.42	367.94
631.627	380.94
631.833	371.94
632.039	367.94
632.245	373.94
632.451	373.94
632.657	355.94
632.863	364.94
633.069	379.94
633.275	377.94
633.481	341.94
633.688	349.94
633.893	370.94
634.099	355.94
634.305	350.94
634.511	361.94
634.717	343.94
634.923	328.94
635.129	325.94
635.335	356.94
635.541	368.94
635.747	360.94
635.952	359.94
636.158	372.94
636.364	356.94
636.57	345.94
636.775	358.94
636.981	355.94
637.187	345.94
637.392	344.94
637.598	327.94
637.804	363.94
638.009	361.94
638.215	321.94
638.421	347.94
638.626	332.94
638.832	336.94
639.037	327.94
639.243	330.94
639.448	332.94
639.654	329.94
639.859	326.94
640.065	330.94
640.27	330.94
640.475	328.94
640.681	330.94
640.886	340.94
641.091	327.94
641.297	331.94
641.502	310.94
641.707	340.94
641.913	347.94
642.118	309.94
642.323	331.94
642.528	310.94
642.733	310.94
642.939	337.94
643.144	324.94
643.349	328.94
643.554	340.94
643.759	319.94
643.964	310.94
644.169	311.94
644.374	316.94
644.579	321.94
644.784	318.94
644.989	314.94
645.194	307.94
645.399	313.94
645.604	300.94
645.809	303.94
646.014	313.94
646.219	320.94
646.423	316.94
646.628	335.94
646.833	327.94
647.038	313.94
647.243	307.94
647.447	292.94
647.652	319.94
647.857	332.94
648.062	311.94
648.266	323.94
648.471	332.94
648.676	319.94
648.88	321.94
649.085	321.94
649.289	318.94
649.494	311.94
649.698	313.94
649.903	299.94
650.107	313.94
650.312	275.94
650.516	286.94
650.721	284.94
650.925	283.94
651.13	281.94
651.334	265.94
651.539	275.94
651.743	275.94
651.947	283.94
652.152	247.94
652.356	278.94
652.56	276.94
652.764	241.94
652.969	244.94
653.173	248.94
653.377	273.94
653.581	249.94
653.785	244.94
653.99	254.94
654.194	233.94
654.398	220.94
654.602	243.94
654.806	245.94
655.01	242.94
655.214	233.94
655.418	266.94
655.622	254.94
655.826	262.94
656.03	256.94
656.234	263.94
656.438	261.94
656.642	278.94
656.846	243.94
657.049	240.94
657.253	213.94
657.457	212.94
657.661	191.94
657.865	179.94
658.068	175.94
658.272	170.94
658.476	161.94
658.68	159.94
658.883	153.94
659.087	144.94
659.291	133.94
659.494	140.94
659.698	138.94
659.901	140.94
660.105	123.94
660.309	132.94
660.512	131.94
660.716	121.94
660.919	108.94
661.123	127.94
661.326	94.94
661.53	98.94
661.733	106.94
661.936	114.94
662.14	99.94
662.343	92.94
662.546	93.94
662.75	107.94
662.953	89.94
663.156	87.94
663.36	95.94
663.563	92.94
663.766	80.94
663.969	83.94
664.173	91.94
664.376	88.94
664.579	84.94
664.782	89.94
664.985	84.94
665.188	85.94
665.391	91.94
665.594	80.94
665.797	84.94
666	89.94
666.203	89.94
666.406	92.94
666.609	95.94
666.812	82.94
667.015	83.94
667.218	85.94
667.421	78.94
667.624	86.94
667.827	90.94
668.03	89.94
668.232	86.94
668.435	86.94
668.638	94.94
668.841	86.94
669.043	84.94
669.246	78.94
669.449	83.94
669.651	79.94
669.854	79.94
670.057	72.94
670.259	97.94
670.462	84.94
670.665	86.94
670.867	85.94
671.07	96.94
671.272	76.94
671.475	94.94
671.677	84.94
671.88	78.94
672.082	104.94
672.284	82.94
672.487	72.94
672.689	87.94
672.892	88.94
