Data from WStandard_LampEnergy5.5LIBS07252019.E.O._I.C._HRD10591_16-07-03-920.txt Node
Date: Thu Jul 25 16:07:03 EDT 2019
User: cochatt
Spectrometer: HR+D1059
Trigger mode: 1
Integration Time (sec): 1.000000E-1
Scans to average: 1
Electric dark correction enabled: true
Nonlinearity correction enabled: false
Boxcar width: 0
XAxis mode: Wavelengths
Number of Pixels in Spectrum: 2048
>>>>>Begin Spectral Data<<<<<
223.165	-5.88
223.4	-5.88
223.635	-5.88
223.869	-22.88
224.104	-32.88
224.338	-9.88
224.573	-10.88
224.808	-12.88
225.042	1.12
225.277	-10.88
225.511	-2.88
225.746	11.12
225.98	5.12
226.215	14.12
226.449	19.12
226.683	21.12
226.918	8.12
227.152	29.12
227.387	20.12
227.621	35.12
227.856	33.12
228.09	56.12
228.324	46.12
228.559	50.12
228.793	159.12
229.027	375.12
229.262	390.12
229.496	389.12
229.73	429.12
229.964	445.12
230.199	476.12
230.433	477.12
230.667	511.12
230.901	547.12
231.136	491.12
231.37	506.12
231.604	470.12
231.838	470.12
232.072	481.12
232.306	470.12
232.541	503.12
232.775	557.12
233.009	633.12
233.243	632.12
233.477	545.12
233.711	569.12
233.945	579.12
234.179	586.12
234.413	623.12
234.647	649.12
234.881	630.12
235.115	568.12
235.349	577.12
235.583	603.12
235.817	565.12
236.051	554.12
236.285	583.12
236.519	606.12
236.753	688.12
236.987	715.12
237.221	703.12
237.455	779.12
237.689	753.12
237.922	719.12
238.156	689.12
238.39	697.12
238.624	708.12
238.858	785.12
239.091	787.12
239.325	837.12
239.559	978.12
239.793	999.12
240.027	1077.12
240.26	1089.12
240.494	779.12
240.728	736.12
240.961	756.12
241.195	775.12
241.429	864.12
241.662	877.12
241.896	803.12
242.13	789.12
242.363	878.12
242.597	953.12
242.83	911.12
243.064	930.12
243.298	966.12
243.531	976.12
243.765	981.12
243.998	956.12
244.232	858.12
244.465	800.12
244.699	817.12
244.932	951.12
245.166	1106.12
245.399	1017.12
245.633	920.12
245.866	932.12
246.099	990.12
246.333	975.12
246.566	1017.12
246.8	1087.12
247.033	1226.12
247.266	1107.12
247.5	1102.12
247.733	1113.12
247.966	1132.12
248.2	1289.12
248.433	1213.12
248.666	1279.12
248.899	1386.12
249.133	1610.12
249.366	1825.12
249.599	1503.12
249.832	1286.12
250.066	1335.12
250.299	1360.12
250.532	1274.12
250.765	1106.12
250.998	1172.12
251.231	1257.12
251.465	1257.12
251.698	1246.12
251.931	1245.12
252.164	1273.12
252.397	1318.12
252.63	1329.12
252.863	1169.12
253.096	1127.12
253.329	1188.12
253.562	1253.12
253.795	1320.12
254.028	1298.12
254.261	1231.12
254.494	1217.12
254.727	1129.12
254.96	1228.12
255.193	1303.12
255.426	1473.12
255.659	1680.12
255.892	1766.12
256.124	1435.12
256.357	1402.12
256.59	1525.12
256.823	1512.12
257.056	1488.12
257.289	1777.12
257.521	1982.12
257.754	1801.12
257.987	1660.12
258.22	1877.12
258.452	1851.12
258.685	1467.12
258.918	1437.12
259.151	1419.12
259.383	1394.12
259.616	1248.12
259.849	1285.12
260.081	1433.12
260.314	1619.12
260.547	1800.12
260.779	1810.12
261.012	1670.12
261.244	1486.12
261.477	1400.12
261.71	1475.12
261.942	1449.12
262.175	1428.12
262.407	1501.12
262.64	1445.12
262.872	1328.12
263.105	1284.12
263.337	1303.12
263.57	1354.12
263.802	1346.12
264.035	1285.12
264.267	1193.12
264.499	1170.12
264.732	1262.12
264.964	1370.12
265.197	1395.12
265.429	1463.12
265.661	1638.12
265.894	1824.12
266.126	1919.12
266.358	1627.12
266.591	1698.12
266.823	1928.12
267.055	1695.12
267.287	1635.12
267.52	1651.12
267.752	1628.12
267.984	1615.12
268.216	1710.12
268.448	1736.12
268.681	1699.12
268.913	1575.12
269.145	1494.12
269.377	1442.12
269.609	1576.12
269.841	1821.12
270.073	2127.12
270.306	2396.12
270.538	2550.12
270.77	2163.12
271.002	1807.12
271.234	1777.12
271.466	1687.12
271.698	1930.12
271.93	2360.12
272.162	2346.12
272.394	2065.12
272.626	1999.12
272.858	1742.12
273.09	1506.12
273.322	1491.12
273.553	1406.12
273.785	1455.12
274.017	1494.12
274.249	1612.12
274.481	1595.12
274.713	1510.12
274.945	1471.12
275.176	1449.12
275.408	1453.12
275.64	1428.12
275.872	1399.12
276.104	1471.12
276.335	1726.12
276.567	1950.12
276.799	2014.12
277.031	1769.12
277.262	1645.12
277.494	1725.12
277.726	1905.12
277.957	1912.12
278.189	1746.12
278.421	1576.12
278.652	1559.12
278.884	1522.12
279.115	1521.12
279.347	1561.12
279.579	1545.12
279.81	1497.12
280.042	1685.12
280.273	1872.12
280.505	1840.12
280.736	1902.12
280.968	1799.12
281.199	1571.12
281.431	1485.12
281.662	1480.12
281.894	1476.12
282.125	1591.12
282.356	1581.12
282.588	1589.12
282.819	1565.12
283.051	1716.12
283.282	1855.12
283.513	1782.12
283.745	1578.12
283.976	1473.12
284.207	1450.12
284.439	1525.12
284.67	1562.12
284.901	1619.12
285.132	1640.12
285.364	1611.12
285.595	1606.12
285.826	1584.12
286.057	1561.12
286.288	1525.12
286.52	1590.12
286.751	1735.12
286.982	1788.12
287.213	1629.12
287.444	1526.12
287.675	1471.12
287.906	1539.12
288.138	1694.12
288.369	1645.12
288.6	1569.12
288.831	1537.12
289.062	1517.12
289.293	1582.12
289.524	1572.12
289.755	1628.12
289.986	1623.12
290.217	1487.12
290.448	1522.12
290.679	1612.12
290.91	1573.12
291.141	1613.12
291.371	1715.12
291.602	1655.12
291.833	1614.12
292.064	1711.12
292.295	1667.12
292.526	1754.12
292.757	1833.12
292.987	1693.12
293.218	1595.12
293.449	1743.12
293.68	1953.12
293.91	2139.12
294.141	1938.12
294.372	1845.12
294.603	1884.12
294.833	2001.12
295.064	1877.12
295.295	1710.12
295.525	1695.12
295.756	1524.12
295.987	1463.12
296.217	1524.12
296.448	1512.12
296.679	1533.12
296.909	1547.12
297.14	1532.12
297.37	1569.12
297.601	1656.12
297.831	1804.12
298.062	1819.12
298.292	1635.12
298.523	1568.12
298.753	1569.12
298.984	1569.12
299.214	1590.12
299.445	1611.12
299.675	1679.12
299.905	1657.12
300.136	1623.12
300.366	1557.12
300.597	1539.12
300.827	1552.12
301.057	1568.12
301.288	1667.12
301.518	1667.12
301.748	1728.12
301.979	1765.12
302.209	1781.12
302.439	1905.12
302.669	2042.12
302.9	1925.12
303.13	1717.12
303.36	1674.12
303.59	1708.12
303.82	1665.12
304.051	1653.12
304.281	1705.12
304.511	1698.12
304.741	1773.12
304.971	1943.12
305.201	2175.12
305.431	1976.12
305.661	1699.12
305.891	1522.12
306.121	1522.12
306.352	1559.12
306.582	1627.12
306.812	1758.12
307.042	1919.12
307.272	1917.12
307.502	1950.12
307.731	2093.12
307.961	2269.12
308.191	2079.12
308.421	1765.12
308.651	1668.12
308.881	1622.12
309.111	1621.12
309.341	1596.12
309.571	1617.12
309.8	1664.12
310.03	1617.12
310.26	1579.12
310.49	1596.12
310.72	1623.12
310.949	1725.12
311.179	1762.12
311.409	1694.12
311.639	1691.12
311.868	1657.12
312.098	1656.12
312.328	1641.12
312.557	1638.12
312.787	1665.12
313.017	1753.12
313.246	1693.12
313.476	1680.12
313.706	1757.12
313.935	1758.12
314.165	1741.12
314.394	1773.12
314.624	1913.12
314.853	2011.12
315.083	2061.12
315.312	2165.12
315.542	1988.12
315.771	1739.12
316.001	1739.12
316.23	1858.12
316.46	1846.12
316.689	1826.12
316.919	1749.12
317.148	1694.12
317.377	1683.12
317.607	1782.12
317.836	2006.12
318.065	2102.12
318.295	2065.12
318.524	1961.12
318.753	1864.12
318.983	1879.12
319.212	1808.12
319.441	1762.12
319.67	1736.12
319.9	1801.12
320.129	1907.12
320.358	1951.12
320.587	2013.12
320.816	1997.12
321.046	1961.12
321.275	1833.12
321.504	1840.12
321.733	2013.12
321.962	1999.12
322.191	1797.12
322.42	1782.12
322.649	1754.12
322.878	1758.12
323.108	1790.12
323.337	1838.12
323.566	1827.12
323.795	1838.12
324.024	1889.12
324.253	1826.12
324.482	1798.12
324.71	1797.12
324.939	1658.12
325.168	1696.12
325.397	1761.12
325.626	1849.12
325.855	1891.12
326.084	1762.12
326.313	1775.12
326.542	1819.12
326.77	1834.12
326.999	1862.12
327.228	1818.12
327.457	1688.12
327.686	1673.12
327.914	1735.12
328.143	1795.12
328.372	1799.12
328.6	1770.12
328.829	1755.12
329.058	1718.12
329.287	1706.12
329.515	1801.12
329.744	1826.12
329.972	1913.12
330.201	1981.12
330.43	1931.12
330.658	1887.12
330.887	1903.12
331.115	1905.12
331.344	1929.12
331.572	1894.12
331.801	1841.12
332.03	1880.12
332.258	1859.12
332.486	1935.12
332.715	1890.12
332.943	1929.12
333.172	1831.12
333.4	1926.12
333.629	1955.12
333.857	2037.12
334.085	2263.12
334.314	2566.12
334.542	2870.12
334.771	2600.12
334.999	2253.12
335.227	2139.12
335.455	2059.12
335.684	2021.12
335.912	1999.12
336.14	2170.12
336.369	2095.12
336.597	1965.12
336.825	1878.12
337.053	1976.12
337.281	2061.12
337.51	2145.12
337.738	2219.12
337.966	2168.12
338.194	1957.12
338.422	1864.12
338.65	1850.12
338.878	1835.12
339.106	1808.12
339.334	1796.12
339.562	1736.12
339.79	1788.12
340.018	1925.12
340.246	1996.12
340.474	2009.12
340.702	1923.12
340.93	1956.12
341.158	1920.12
341.386	1877.12
341.614	1861.12
341.842	1879.12
342.07	1842.12
342.298	1894.12
342.526	1857.12
342.754	1865.12
342.981	1794.12
343.209	1853.12
343.437	1822.12
343.665	1797.12
343.893	1877.12
344.12	1974.12
344.348	2040.12
344.576	1957.12
344.804	1828.12
345.031	1869.12
345.259	1857.12
345.487	1823.12
345.714	1713.12
345.942	1655.12
346.17	1689.12
346.397	1735.12
346.625	1775.12
346.853	1721.12
347.08	1663.12
347.308	1633.12
347.535	1728.12
347.763	1764.12
347.99	1732.12
348.218	1703.12
348.445	1675.12
348.673	1722.12
348.9	1779.12
349.128	1792.12
349.355	1889.12
349.583	1882.12
349.81	1740.12
350.037	1616.12
350.265	1615.12
350.492	1615.12
350.72	1642.12
350.947	1746.12
351.174	1778.12
351.402	1661.12
351.629	1626.12
351.856	1597.12
352.083	1574.12
352.311	1602.12
352.538	1637.12
352.765	1727.12
352.992	1774.12
353.22	1736.12
353.447	1655.12
353.674	1676.12
353.901	1711.12
354.128	1697.12
354.355	1650.12
354.583	1735.12
354.81	1777.12
355.037	1786.12
355.264	1767.12
355.491	1735.12
355.718	1745.12
355.945	1702.12
356.172	1706.12
356.399	1680.12
356.626	1643.12
356.853	1670.12
357.08	1827.12
357.307	2009.12
357.534	2047.12
357.761	1819.12
357.988	1668.12
358.215	1607.12
358.441	1630.12
358.668	1634.12
358.895	1663.12
359.122	1712.12
359.349	1951.12
359.576	1904.12
359.802	1751.12
360.029	1670.12
360.256	1609.12
360.483	1615.12
360.709	1697.12
360.936	1801.12
361.163	1806.12
361.39	2007.12
361.616	2163.12
361.843	2086.12
362.07	1994.12
362.296	1767.12
362.523	1659.12
362.749	1682.12
362.976	1695.12
363.203	1750.12
363.429	1714.12
363.656	1641.12
363.882	1713.12
364.109	1862.12
364.335	2081.12
364.562	1922.12
364.788	1830.12
365.015	1751.12
365.241	1681.12
365.468	1688.12
365.694	1768.12
365.92	1871.12
366.147	1795.12
366.373	1669.12
366.599	1639.12
366.826	1638.12
367.052	1658.12
367.278	1653.12
367.505	1697.12
367.731	1748.12
367.957	1745.12
368.184	1769.12
368.41	1890.12
368.636	1941.12
368.862	1927.12
369.089	1954.12
369.315	1867.12
369.541	1773.12
369.767	1756.12
369.993	1655.12
370.219	1654.12
370.445	1712.12
370.672	1809.12
370.898	1953.12
371.124	1878.12
371.35	1793.12
371.576	1823.12
371.802	1898.12
372.028	1827.12
372.254	1772.12
372.48	1721.12
372.706	1699.12
372.932	1705.12
373.158	1726.12
373.384	1719.12
373.61	1766.12
373.835	1924.12
374.061	1813.12
374.287	1803.12
374.513	1793.12
374.739	1830.12
374.965	1809.12
375.191	1821.12
375.416	1825.12
375.642	1779.12
375.868	1914.12
376.094	1996.12
376.319	1889.12
376.545	1828.12
376.771	1843.12
376.997	1945.12
377.222	1903.12
377.448	1846.12
377.674	1893.12
377.899	1873.12
378.125	1950.12
378.35	1989.12
378.576	1783.12
378.802	1719.12
379.027	1717.12
379.253	1786.12
379.478	1787.12
379.704	1765.12
379.929	1719.12
380.155	1744.12
380.38	1789.12
380.606	1817.12
380.831	1788.12
381.057	1889.12
381.282	1941.12
381.507	1841.12
381.733	1937.12
381.958	2089.12
382.184	1921.12
382.409	1860.12
382.634	1831.12
382.86	1866.12
383.085	1860.12
383.31	1884.12
383.535	2047.12
383.761	2143.12
383.986	2095.12
384.211	2014.12
384.436	1997.12
384.662	2060.12
384.887	2180.12
385.112	2103.12
385.337	2042.12
385.562	2030.12
385.787	2060.12
386.013	2065.12
386.238	2109.12
386.463	2044.12
386.688	2178.12
386.913	2306.12
387.138	2273.12
387.363	2066.12
387.588	2107.12
387.813	2075.12
388.038	2117.12
388.263	2165.12
388.488	2124.12
388.713	1942.12
388.938	1951.12
389.163	1992.12
389.387	2002.12
389.612	2019.12
389.837	2060.12
390.062	2058.12
390.287	2088.12
390.512	2002.12
390.736	2028.12
390.961	1961.12
391.186	1933.12
391.411	1930.12
391.636	1998.12
391.86	2023.12
392.085	2028.12
392.31	2002.12
392.534	2024.12
392.759	2070.12
392.984	2028.12
393.208	2042.12
393.433	2163.12
393.658	2198.12
393.882	2199.12
394.107	2110.12
394.331	2071.12
394.556	1991.12
394.78	2074.12
395.005	2093.12
395.229	2195.12
395.454	2333.12
395.678	2389.12
395.903	2287.12
396.127	2137.12
396.352	2122.12
396.576	2188.12
396.801	2259.12
397.025	2244.12
397.249	2203.12
397.474	2193.12
397.698	2188.12
397.922	2239.12
398.147	2361.12
398.371	2435.12
398.595	2416.12
398.82	2302.12
399.044	2329.12
399.268	2461.12
399.492	2648.12
399.717	2701.12
399.941	2778.12
400.165	2686.12
400.389	2585.12
400.613	2559.12
400.837	2851.12
401.062	3229.12
401.286	2795.12
401.51	2550.12
401.734	2661.12
401.958	2584.12
402.182	2378.12
402.406	2317.12
402.63	2307.12
402.854	2327.12
403.078	2339.12
403.302	2375.12
403.526	2373.12
403.75	2445.12
403.974	2434.12
404.198	2360.12
404.422	2485.12
404.645	2626.12
404.869	2569.12
405.093	2383.12
405.317	2311.12
405.541	2423.12
405.765	2470.12
405.988	2427.12
406.212	2510.12
406.436	2484.12
406.66	2583.12
406.883	2609.12
407.107	2882.12
407.331	3183.12
407.555	3410.12
407.778	3159.12
408.002	2641.12
408.226	2593.12
408.449	2535.12
408.673	2407.12
408.896	2525.12
409.12	2549.12
409.344	2474.12
409.567	2351.12
409.791	2402.12
410.014	2470.12
410.238	2579.12
410.461	2781.12
410.685	2481.12
410.908	2373.12
411.132	2385.12
411.355	2408.12
411.578	2316.12
411.802	2346.12
412.025	2459.12
412.249	2382.12
412.472	2313.12
412.695	2250.12
412.919	2282.12
413.142	2295.12
413.365	2304.12
413.589	2422.12
413.812	2449.12
414.035	2567.12
414.258	2387.12
414.482	2265.12
414.705	2295.12
414.928	2267.12
415.151	2273.12
415.374	2299.12
415.597	2388.12
415.821	2385.12
416.044	2441.12
416.267	2429.12
416.49	2273.12
416.713	2181.12
416.936	2273.12
417.159	2375.12
417.382	2440.12
417.605	2290.12
417.828	2326.12
418.051	2380.12
418.274	2258.12
418.497	2194.12
418.72	2208.12
418.943	2197.12
419.166	2357.12
419.389	2473.12
419.611	2309.12
419.834	2254.12
420.057	2321.12
420.28	2239.12
420.503	2230.12
420.726	2302.12
420.948	2283.12
421.171	2170.12
421.394	2229.12
421.617	2305.12
421.839	2285.12
422.062	2269.12
422.285	2208.12
422.507	2168.12
422.73	2133.12
422.953	2119.12
423.175	2147.12
423.398	2185.12
423.621	2198.12
423.843	2239.12
424.066	2258.12
424.288	2331.12
424.511	2385.12
424.733	2342.12
424.956	2135.12
425.178	2078.12
425.401	2187.12
425.623	2182.12
425.846	2128.12
426.068	2264.12
426.291	2307.12
426.513	2245.12
426.735	2287.12
426.958	2419.12
427.18	2568.12
427.402	2328.12
427.625	2423.12
427.847	2438.12
428.069	2266.12
428.292	2160.12
428.514	2105.12
428.736	2129.12
428.958	2108.12
429.181	2133.12
429.403	2417.12
429.625	3056.12
429.847	2640.12
430.069	2217.12
430.292	2430.12
430.514	2589.12
430.736	2306.12
430.958	2432.12
431.18	2307.12
431.402	2145.12
431.624	2164.12
431.846	2141.12
432.068	2099.12
432.29	2179.12
432.512	2188.12
432.734	2241.12
432.956	2239.12
433.178	2341.12
433.4	2362.12
433.622	2325.12
433.844	2186.12
434.066	2115.12
434.287	2136.12
434.509	2204.12
434.731	2357.12
434.953	2512.12
435.175	2410.12
435.397	2250.12
435.618	2276.12
435.84	2320.12
436.062	2255.12
436.284	2278.12
436.505	2264.12
436.727	2308.12
436.949	2235.12
437.17	2159.12
437.392	2198.12
437.614	2191.12
437.835	2115.12
438.057	2278.12
438.278	2367.12
438.5	2180.12
438.721	2167.12
438.943	2154.12
439.165	2117.12
439.386	2045.12
439.608	2135.12
439.829	2170.12
440.05	2139.12
440.272	2144.12
440.493	2124.12
440.715	2169.12
440.936	2309.12
441.158	2541.12
441.379	2480.12
441.6	2443.12
441.822	2354.12
442.043	2336.12
442.264	2240.12
442.486	2140.12
442.707	2178.12
442.928	2118.12
443.149	2195.12
443.371	2372.12
443.592	2449.12
443.813	2327.12
444.034	2357.12
444.255	2343.12
444.476	2395.12
444.698	2480.12
444.919	2425.12
445.14	2487.12
445.361	2478.12
445.582	2613.12
445.803	2431.12
446.024	2357.12
446.245	2453.12
446.466	2377.12
446.687	2282.12
446.908	2280.12
447.129	2187.12
447.35	2229.12
447.571	2248.12
447.792	2135.12
448.013	2108.12
448.234	2133.12
448.455	2240.12
448.675	2237.12
448.896	2058.12
449.117	2055.12
449.338	2066.12
449.559	2184.12
449.779	2358.12
450	2562.12
450.221	2741.12
450.442	2623.12
450.662	2377.12
450.883	2053.12
451.104	2010.12
451.324	2109.12
451.545	2164.12
451.766	2106.12
451.986	2008.12
452.207	1994.12
452.428	1924.12
452.648	1901.12
452.869	1956.12
453.089	2137.12
453.31	2122.12
453.53	2196.12
453.751	2098.12
453.971	1958.12
454.192	1992.12
454.412	2143.12
454.633	2099.12
454.853	1983.12
455.073	1858.12
455.294	1881.12
455.514	1880.12
455.734	1897.12
455.955	1938.12
456.175	1905.12
456.395	1957.12
456.616	2012.12
456.836	2032.12
457.056	1961.12
457.276	2013.12
457.497	1952.12
457.717	1846.12
457.937	1862.12
458.157	1951.12
458.377	1909.12
458.598	1937.12
458.818	1911.12
459.038	2009.12
459.258	2157.12
459.478	2142.12
459.698	2129.12
459.918	2149.12
460.138	2255.12
460.358	2238.12
460.578	2301.12
460.798	2375.12
461.018	2559.12
461.238	2457.12
461.458	2287.12
461.678	2356.12
461.898	2261.12
462.118	2160.12
462.338	2307.12
462.558	2321.12
462.777	2281.12
462.997	2398.12
463.217	2554.12
463.437	2548.12
463.657	2368.12
463.876	2292.12
464.096	2287.12
464.316	2251.12
464.536	2403.12
464.755	2427.12
464.975	2477.12
465.195	2364.12
465.414	2454.12
465.634	2493.12
465.854	2281.12
466.073	2454.12
466.293	2419.12
466.512	2160.12
466.732	2143.12
466.951	2231.12
467.171	2203.12
467.391	2065.12
467.61	2048.12
467.829	2039.12
468.049	2229.12
468.268	2501.12
468.488	2372.12
468.707	2203.12
468.927	2150.12
469.146	2110.12
469.365	2084.12
469.585	2085.12
469.804	2065.12
470.023	2103.12
470.243	2176.12
470.462	2113.12
470.681	2076.12
470.901	2123.12
471.12	2137.12
471.339	2061.12
471.558	2025.12
471.777	2037.12
471.997	2082.12
472.216	2044.12
472.435	1996.12
472.654	2004.12
472.873	2149.12
473.092	2262.12
473.311	2141.12
473.53	2008.12
473.749	2036.12
473.968	2078.12
474.187	2160.12
474.406	2271.12
474.625	2155.12
474.844	2116.12
475.063	2134.12
475.282	2205.12
475.501	2143.12
475.72	2112.12
475.939	2265.12
476.158	2181.12
476.377	2127.12
476.596	2150.12
476.814	2268.12
477.033	2197.12
477.252	2318.12
477.471	2388.12
477.69	2280.12
477.908	2195.12
478.127	2387.12
478.346	2516.12
478.564	2595.12
478.783	2557.12
479.002	2591.12
479.22	2522.12
479.439	2622.12
479.658	2995.12
479.876	2964.12
480.095	2561.12
480.313	2502.12
480.532	2394.12
480.751	2399.12
480.969	2439.12
481.188	2401.12
481.406	2386.12
481.624	2280.12
481.843	2332.12
482.061	2353.12
482.28	2428.12
482.498	2493.12
482.717	2451.12
482.935	2388.12
483.153	2330.12
483.372	2364.12
483.59	2337.12
483.808	2359.12
484.027	2425.12
484.245	2567.12
484.463	2948.12
484.681	3414.12
484.9	2593.12
485.118	2409.12
485.336	2383.12
485.554	2453.12
485.772	2587.12
485.99	2517.12
486.209	2563.12
486.427	2545.12
486.645	2577.12
486.863	2458.12
487.081	2566.12
487.299	2630.12
487.517	2585.12
487.735	2457.12
487.953	2437.12
488.171	2413.12
488.389	2411.12
488.607	2469.12
488.825	2689.12
489.043	2767.12
489.261	2454.12
489.479	2611.12
489.696	2640.12
489.914	2631.12
490.132	2537.12
490.35	2457.12
490.568	2545.12
490.786	2517.12
491.003	2362.12
491.221	2449.12
491.439	2573.12
491.657	2540.12
491.874	2532.12
492.092	2596.12
492.31	2585.12
492.527	2514.12
492.745	2506.12
492.963	2519.12
493.18	2641.12
493.398	2814.12
493.615	2827.12
493.833	2603.12
494.05	2597.12
494.268	2571.12
494.485	2650.12
494.703	2597.12
494.92	2501.12
495.138	2566.12
495.355	2543.12
495.573	2666.12
495.79	2886.12
496.008	2849.12
496.225	2645.12
496.442	2652.12
496.66	2761.12
496.877	2709.12
497.094	2821.12
497.312	2849.12
497.529	2787.12
497.746	2857.12
497.963	3375.12
498.181	3747.12
498.398	3513.12
498.615	3395.12
498.832	3286.12
499.049	3252.12
499.267	3261.12
499.484	3512.12
499.701	3729.12
499.918	3830.12
500.135	4023.12
500.352	4351.12
500.569	4210.12
500.786	4570.12
501.003	4242.12
501.22	3841.12
501.437	3819.12
501.654	3841.12
501.871	3685.12
502.088	3269.12
502.305	3250.12
502.522	3127.12
502.739	2933.12
502.956	2843.12
503.172	2847.12
503.389	2703.12
503.606	2654.12
503.823	2665.12
504.04	2701.12
504.256	2751.12
504.473	2750.12
504.69	2809.12
504.907	2623.12
505.123	2525.12
505.34	2654.12
505.557	3486.12
505.773	3011.12
505.99	2503.12
506.207	2376.12
506.423	2340.12
506.64	2309.12
506.856	2306.12
507.073	2588.12
507.289	2846.12
507.506	2730.12
507.722	2341.12
507.939	2229.12
508.155	2237.12
508.372	2306.12
508.588	2175.12
508.805	2143.12
509.021	2095.12
509.238	2079.12
509.454	2094.12
509.67	2126.12
509.887	2094.12
510.103	2110.12
510.319	2101.12
510.536	2272.12
510.752	2297.12
510.968	2274.12
511.184	2397.12
511.401	2380.12
511.617	2159.12
511.833	2069.12
512.049	2032.12
512.265	2068.12
512.481	2009.12
512.698	2098.12
512.914	2249.12
513.13	2163.12
513.346	2088.12
513.562	2015.12
513.778	2050.12
513.994	2157.12
514.21	2229.12
514.426	2254.12
514.642	2457.12
514.858	2359.12
515.074	2131.12
515.29	2043.12
515.506	2090.12
515.721	2182.12
515.937	2225.12
516.153	2510.12
516.369	2395.12
516.585	2211.12
516.801	2138.12
517.016	2119.12
517.232	2215.12
517.448	2230.12
517.664	2284.12
517.879	2223.12
518.095	2349.12
518.311	2285.12
518.527	2180.12
518.742	2119.12
518.958	2065.12
519.173	2085.12
519.389	2098.12
519.605	2101.12
519.82	2137.12
520.036	2130.12
520.251	2082.12
520.467	2086.12
520.682	2270.12
520.898	2320.12
521.113	2114.12
521.329	2016.12
521.544	2189.12
521.76	2115.12
521.975	2000.12
522.19	1990.12
522.406	1971.12
522.621	2377.12
522.836	2429.12
523.052	1962.12
523.267	1944.12
523.482	1994.12
523.698	1897.12
523.913	1872.12
524.128	1913.12
524.343	1988.12
524.559	2017.12
524.774	1920.12
524.989	1880.12
525.204	1933.12
525.419	1839.12
525.634	1823.12
525.849	1863.12
526.064	1876.12
526.28	1928.12
526.495	1799.12
526.71	1783.12
526.925	1763.12
527.14	1813.12
527.355	1778.12
527.57	1769.12
527.785	1856.12
527.999	1827.12
528.214	1750.12
528.429	1755.12
528.644	1738.12
528.859	1822.12
529.074	1746.12
529.289	1818.12
529.503	1810.12
529.718	1844.12
529.933	1769.12
530.148	1730.12
530.363	1716.12
530.577	1774.12
530.792	1808.12
531.007	1838.12
531.221	1777.12
531.436	1825.12
531.651	1858.12
531.865	1991.12
532.08	1878.12
532.295	1751.12
532.509	1673.12
532.724	1741.12
532.938	1823.12
533.153	1951.12
533.367	1823.12
533.582	1770.12
533.796	1740.12
534.011	1778.12
534.225	1803.12
534.44	1762.12
534.654	1743.12
534.868	1740.12
535.083	1824.12
535.297	1814.12
535.511	1765.12
535.726	1751.12
535.94	1726.12
536.154	1744.12
536.369	1721.12
536.583	1694.12
536.797	1697.12
537.011	1713.12
537.225	1685.12
537.44	1629.12
537.654	1758.12
537.868	1671.12
538.082	1615.12
538.296	1567.12
538.51	1601.12
538.724	1601.12
538.938	1601.12
539.153	1637.12
539.367	1662.12
539.581	1638.12
539.795	1753.12
540.009	1730.12
540.222	1704.12
540.436	1728.12
540.65	1864.12
540.864	1874.12
541.078	1768.12
541.292	1654.12
541.506	1652.12
541.72	1656.12
541.934	1641.12
542.147	1709.12
542.361	1675.12
542.575	1615.12
542.789	1604.12
543.002	1545.12
543.216	1593.12
543.43	1676.12
543.644	1733.12
543.857	1869.12
544.071	1733.12
544.285	1694.12
544.498	1637.12
544.712	1645.12
544.925	1713.12
545.139	1741.12
545.352	1653.12
545.566	1584.12
545.779	1565.12
545.993	1591.12
546.206	1614.12
546.42	1577.12
546.633	1515.12
546.847	1537.12
547.06	1591.12
547.274	1570.12
547.487	1524.12
547.7	1543.12
547.914	1565.12
548.127	1595.12
548.34	1636.12
548.554	1586.12
548.767	1583.12
548.98	1591.12
549.193	1554.12
549.407	1661.12
549.62	1704.12
549.833	1587.12
550.046	1543.12
550.259	1568.12
550.473	1572.12
550.686	1562.12
550.899	1500.12
551.112	1497.12
551.325	1498.12
551.538	1574.12
551.751	1868.12
551.964	1474.12
552.177	1459.12
552.39	1513.12
552.603	1537.12
552.816	1561.12
553.029	1634.12
553.242	1687.12
553.455	1574.12
553.667	1538.12
553.88	1518.12
554.093	1517.12
554.306	1420.12
554.519	1455.12
554.732	1423.12
554.944	1444.12
555.157	1498.12
555.37	1424.12
555.583	1487.12
555.795	1434.12
556.008	1402.12
556.221	1366.12
556.433	1367.12
556.646	1328.12
556.859	1342.12
557.071	1330.12
557.284	1318.12
557.496	1362.12
557.709	1299.12
557.921	1313.12
558.134	1312.12
558.346	1317.12
558.559	1301.12
558.771	1316.12
558.984	1265.12
559.196	1239.12
559.409	1258.12
559.621	1258.12
559.833	1226.12
560.046	1309.12
560.258	1310.12
560.47	1280.12
560.683	1250.12
560.895	1270.12
561.107	1267.12
561.32	1261.12
561.532	1319.12
561.744	1289.12
561.956	1301.12
562.168	1206.12
562.381	1217.12
562.593	1229.12
562.805	1279.12
563.017	1235.12
563.229	1248.12
563.441	1281.12
563.653	1247.12
563.865	1218.12
564.077	1249.12
564.289	1252.12
564.501	1286.12
564.713	1306.12
564.925	1353.12
565.137	1423.12
565.349	1293.12
565.561	1334.12
565.773	1329.12
565.985	1318.12
566.197	1411.12
566.408	1491.12
566.62	1521.12
566.832	1513.12
567.044	1545.12
567.255	1496.12
567.467	1486.12
567.679	1582.12
567.891	1610.12
568.102	1566.12
568.314	1504.12
568.526	1466.12
568.737	1397.12
568.949	1325.12
569.161	1273.12
569.372	1231.12
569.584	1193.12
569.795	1199.12
570.007	1198.12
570.218	1126.12
570.43	1135.12
570.641	1149.12
570.853	1118.12
571.064	1157.12
571.276	1123.12
571.487	1079.12
571.698	1110.12
571.91	1050.12
572.121	1027.12
572.333	1031.12
572.544	1034.12
572.755	1035.12
572.966	977.12
573.178	985.12
573.389	1042.12
573.6	1044.12
573.811	1154.12
574.023	1069.12
574.234	1009.12
574.445	961.12
574.656	952.12
574.867	946.12
575.078	948.12
575.289	979.12
575.501	927.12
575.712	919.12
575.923	896.12
576.134	963.12
576.345	921.12
576.556	926.12
576.767	928.12
576.978	924.12
577.188	914.12
577.399	871.12
577.61	858.12
577.821	889.12
578.032	860.12
578.243	897.12
578.454	874.12
578.665	893.12
578.875	845.12
579.086	847.12
579.297	898.12
579.508	895.12
579.718	888.12
579.929	867.12
580.14	827.12
580.35	823.12
580.561	862.12
580.772	953.12
580.982	882.12
581.193	840.12
581.403	814.12
581.614	830.12
581.825	808.12
582.035	825.12
582.246	813.12
582.456	839.12
582.667	836.12
582.877	804.12
583.087	804.12
583.298	779.12
583.508	819.12
583.719	800.12
583.929	833.12
584.139	824.12
584.35	770.12
584.56	781.12
584.77	802.12
584.981	810.12
585.191	798.12
585.401	828.12
585.611	803.12
585.821	778.12
586.032	787.12
586.242	758.12
586.452	754.12
586.662	794.12
586.872	785.12
587.082	757.12
587.292	780.12
587.502	773.12
587.713	782.12
587.923	787.12
588.133	787.12
588.343	791.12
588.553	751.12
588.762	752.12
588.972	752.12
589.182	799.12
589.392	778.12
589.602	769.12
589.812	768.12
590.022	752.12
590.232	730.12
590.441	749.12
590.651	755.12
590.861	747.12
591.071	735.12
591.281	723.12
591.49	733.12
591.7	742.12
591.91	751.12
592.119	748.12
592.329	756.12
592.539	793.12
592.748	771.12
592.958	772.12
593.167	791.12
593.377	801.12
593.587	791.12
593.796	806.12
594.006	805.12
594.215	800.12
594.424	783.12
594.634	799.12
594.843	783.12
595.053	781.12
595.262	736.12
595.472	743.12
595.681	753.12
595.89	730.12
596.1	721.12
596.309	723.12
596.518	693.12
596.727	709.12
596.937	713.12
597.146	660.12
597.355	655.12
597.564	682.12
597.774	674.12
597.983	672.12
598.192	664.12
598.401	664.12
598.61	658.12
598.819	640.12
599.028	641.12
599.237	650.12
599.446	625.12
599.655	629.12
599.864	631.12
600.073	606.12
600.282	623.12
600.491	635.12
600.7	615.12
600.909	609.12
601.118	631.12
601.327	623.12
601.536	626.12
601.745	597.12
601.953	603.12
602.162	628.12
602.371	636.12
602.58	633.12
602.789	614.12
602.997	611.12
603.206	614.12
603.415	598.12
603.623	604.12
603.832	597.12
604.041	595.12
604.249	554.12
604.458	574.12
604.666	597.12
604.875	579.12
605.084	588.12
605.292	597.12
605.501	578.12
605.709	584.12
605.918	571.12
606.126	570.12
606.334	560.12
606.543	589.12
606.751	581.12
606.96	580.12
607.168	567.12
607.376	553.12
607.585	574.12
607.793	564.12
608.001	560.12
608.21	551.12
608.418	557.12
608.626	566.12
608.834	564.12
609.043	539.12
609.251	539.12
609.459	547.12
609.667	567.12
609.875	553.12
610.083	584.12
610.291	591.12
610.499	585.12
610.707	583.12
610.916	538.12
611.124	522.12
611.332	551.12
611.54	535.12
611.748	534.12
611.955	545.12
612.163	516.12
612.371	545.12
612.579	536.12
612.787	539.12
612.995	553.12
613.203	511.12
613.411	520.12
613.618	536.12
613.826	541.12
614.034	560.12
614.242	539.12
614.449	538.12
614.657	529.12
614.865	541.12
615.072	529.12
615.28	525.12
615.488	534.12
615.695	569.12
615.903	543.12
616.111	545.12
616.318	506.12
616.526	526.12
616.733	531.12
616.941	498.12
617.148	530.12
617.356	507.12
617.563	517.12
617.771	517.12
617.978	477.12
618.185	508.12
618.393	507.12
618.6	493.12
618.807	505.12
619.015	523.12
619.222	510.12
619.429	503.12
619.637	484.12
619.844	493.12
620.051	480.12
620.258	501.12
620.466	471.12
620.673	472.12
620.88	470.12
621.087	478.12
621.294	476.12
621.501	468.12
621.708	457.12
621.915	480.12
622.122	482.12
622.329	488.12
622.536	463.12
622.743	464.12
622.95	465.12
623.157	467.12
623.364	446.12
623.571	449.12
623.778	474.12
623.985	463.12
624.192	433.12
624.399	460.12
624.606	447.12
624.812	432.12
625.019	446.12
625.226	443.12
625.433	437.12
625.639	429.12
625.846	412.12
626.053	445.12
626.259	430.12
626.466	430.12
626.673	429.12
626.879	410.12
627.086	423.12
627.293	435.12
627.499	430.12
627.706	400.12
627.912	416.12
628.119	430.12
628.325	419.12
628.532	432.12
628.738	427.12
628.945	422.12
629.151	416.12
629.357	405.12
629.564	421.12
629.77	403.12
629.976	405.12
630.183	408.12
630.389	423.12
630.595	422.12
630.802	416.12
631.008	382.12
631.214	398.12
631.42	401.12
631.627	383.12
631.833	373.12
632.039	365.12
632.245	366.12
632.451	390.12
632.657	389.12
632.863	368.12
633.069	375.12
633.275	381.12
633.481	362.12
633.688	383.12
633.893	357.12
634.099	388.12
634.305	375.12
634.511	356.12
634.717	347.12
634.923	360.12
635.129	358.12
635.335	360.12
635.541	377.12
635.747	367.12
635.952	356.12
636.158	377.12
636.364	355.12
636.57	354.12
636.775	367.12
636.981	353.12
637.187	367.12
637.392	359.12
637.598	348.12
637.804	351.12
638.009	354.12
638.215	344.12
638.421	335.12
638.626	346.12
638.832	327.12
639.037	366.12
639.243	332.12
639.448	332.12
639.654	334.12
639.859	325.12
640.065	359.12
640.27	336.12
640.475	336.12
640.681	356.12
640.886	334.12
641.091	339.12
641.297	318.12
641.502	341.12
641.707	344.12
641.913	339.12
642.118	314.12
642.323	326.12
642.528	321.12
642.733	313.12
642.939	305.12
643.144	337.12
643.349	329.12
643.554	328.12
643.759	305.12
643.964	308.12
644.169	331.12
644.374	323.12
644.579	320.12
644.784	330.12
644.989	305.12
645.194	312.12
645.399	318.12
645.604	317.12
645.809	321.12
646.014	339.12
646.219	323.12
646.423	325.12
646.628	310.12
646.833	297.12
647.038	307.12
647.243	317.12
647.447	313.12
647.652	306.12
647.857	319.12
648.062	344.12
648.266	303.12
648.471	299.12
648.676	335.12
648.88	341.12
649.085	335.12
649.289	310.12
649.494	314.12
649.698	297.12
649.903	298.12
650.107	301.12
650.312	282.12
650.516	293.12
650.721	298.12
650.925	273.12
651.13	281.12
651.334	297.12
651.539	264.12
651.743	286.12
651.947	266.12
652.152	246.12
652.356	265.12
652.56	281.12
652.764	283.12
652.969	266.12
653.173	270.12
653.377	254.12
653.581	259.12
653.785	257.12
653.99	248.12
654.194	238.12
654.398	237.12
654.602	231.12
654.806	246.12
655.01	242.12
655.214	226.12
655.418	234.12
655.622	240.12
655.826	270.12
656.03	262.12
656.234	273.12
656.438	248.12
656.642	251.12
656.846	254.12
657.049	214.12
657.253	206.12
657.457	208.12
657.661	208.12
657.865	184.12
658.068	187.12
658.272	159.12
658.476	168.12
658.68	158.12
658.883	161.12
659.087	132.12
659.291	134.12
659.494	148.12
659.698	118.12
659.901	119.12
660.105	123.12
660.309	130.12
660.512	104.12
660.716	123.12
660.919	118.12
661.123	113.12
661.326	114.12
661.53	96.12
661.733	96.12
661.936	106.12
662.14	84.12
662.343	93.12
662.546	79.12
662.75	104.12
662.953	83.12
663.156	95.12
663.36	79.12
663.563	73.12
663.766	78.12
663.969	82.12
664.173	82.12
664.376	80.12
664.579	72.12
664.782	80.12
664.985	66.12
665.188	77.12
665.391	73.12
665.594	71.12
665.797	79.12
666	82.12
666.203	89.12
666.406	75.12
666.609	81.12
666.812	80.12
667.015	82.12
667.218	80.12
667.421	65.12
667.624	77.12
667.827	72.12
668.03	85.12
668.232	72.12
668.435	68.12
668.638	65.12
668.841	79.12
669.043	86.12
669.246	82.12
669.449	74.12
669.651	80.12
669.854	87.12
670.057	78.12
670.259	81.12
670.462	95.12
670.665	81.12
670.867	83.12
671.07	83.12
671.272	86.12
671.475	88.12
671.677	78.12
671.88	83.12
672.082	78.12
672.284	83.12
672.487	85.12
672.689	82.12
672.892	76.12
