Data from WStandard_LampEnergy10_LIBS07252019.E.O._I.C._HRD10591_15-55-13-928.txt Node
Date: Thu Jul 25 15:55:13 EDT 2019
User: cochatt
Spectrometer: HR+D1059
Trigger mode: 1
Integration Time (sec): 1.000000E-1
Scans to average: 1
Electric dark correction enabled: true
Nonlinearity correction enabled: false
Boxcar width: 0
XAxis mode: Wavelengths
Number of Pixels in Spectrum: 2048
>>>>>Begin Spectral Data<<<<<
223.165	-19.62
223.4	-19.62
223.635	-19.62
223.869	-15.62
224.104	-18.62
224.338	-23.62
224.573	-31.62
224.808	-11.62
225.042	-1.62
225.277	-17.62
225.511	-4.62
225.746	15.38
225.98	17.38
226.215	11.38
226.449	15.38
226.683	28.38
226.918	20.38
227.152	36.38
227.387	24.38
227.621	40.38
227.856	48.38
228.09	51.38
228.324	44.38
228.559	50.38
228.793	86.38
229.027	126.38
229.262	132.38
229.496	135.38
229.73	146.38
229.964	162.38
230.199	159.38
230.433	171.38
230.667	193.38
230.901	192.38
231.136	184.38
231.37	165.38
231.604	163.38
231.838	163.38
232.072	171.38
232.306	182.38
232.541	169.38
232.775	203.38
233.009	203.38
233.243	195.38
233.477	189.38
233.711	188.38
233.945	196.38
234.179	199.38
234.413	209.38
234.647	215.38
234.881	185.38
235.115	180.38
235.349	196.38
235.583	200.38
235.817	204.38
236.051	189.38
236.285	176.38
236.519	202.38
236.753	200.38
236.987	221.38
237.221	203.38
237.455	231.38
237.689	239.38
237.922	201.38
238.156	204.38
238.39	212.38
238.624	226.38
238.858	234.38
239.091	245.38
239.325	246.38
239.559	283.38
239.793	290.38
240.027	302.38
240.26	308.38
240.494	232.38
240.728	231.38
240.961	239.38
241.195	231.38
241.429	236.38
241.662	244.38
241.896	236.38
242.13	258.38
242.363	272.38
242.597	262.38
242.83	289.38
243.064	258.38
243.298	286.38
243.531	275.38
243.765	271.38
243.998	285.38
244.232	254.38
244.465	259.38
244.699	254.38
244.932	275.38
245.166	306.38
245.399	302.38
245.633	284.38
245.866	288.38
246.099	296.38
246.333	326.38
246.566	299.38
246.8	330.38
247.033	352.38
247.266	309.38
247.5	312.38
247.733	309.38
247.966	342.38
248.2	353.38
248.433	355.38
248.666	369.38
248.899	384.38
249.133	428.38
249.366	456.38
249.599	405.38
249.832	357.38
250.066	358.38
250.299	354.38
250.532	333.38
250.765	335.38
250.998	338.38
251.231	336.38
251.465	352.38
251.698	336.38
251.931	328.38
252.164	342.38
252.397	363.38
252.63	359.38
252.863	315.38
253.096	331.38
253.329	327.38
253.562	352.38
253.795	369.38
254.028	336.38
254.261	328.38
254.494	326.38
254.727	331.38
254.96	346.38
255.193	388.38
255.426	413.38
255.659	438.38
255.892	436.38
256.124	379.38
256.357	382.38
256.59	407.38
256.823	404.38
257.056	406.38
257.289	494.38
257.521	512.38
257.754	455.38
257.987	447.38
258.22	493.38
258.452	461.38
258.685	384.38
258.918	366.38
259.151	384.38
259.383	378.38
259.616	337.38
259.849	376.38
260.081	409.38
260.314	436.38
260.547	468.38
260.779	486.38
261.012	423.38
261.244	386.38
261.477	393.38
261.71	417.38
261.942	391.38
262.175	385.38
262.407	406.38
262.64	359.38
262.872	381.38
263.105	370.38
263.337	392.38
263.57	374.38
263.802	373.38
264.035	353.38
264.267	327.38
264.499	335.38
264.732	353.38
264.964	388.38
265.197	394.38
265.429	415.38
265.661	466.38
265.894	491.38
266.126	521.38
266.358	454.38
266.591	486.38
266.823	494.38
267.055	451.38
267.287	433.38
267.52	429.38
267.752	449.38
267.984	448.38
268.216	455.38
268.448	458.38
268.681	459.38
268.913	424.38
269.145	374.38
269.377	417.38
269.609	441.38
269.841	509.38
270.073	562.38
270.306	609.38
270.538	606.38
270.77	540.38
271.002	493.38
271.234	471.38
271.466	480.38
271.698	552.38
271.93	619.38
272.162	600.38
272.394	546.38
272.626	519.38
272.858	476.38
273.09	420.38
273.322	417.38
273.553	397.38
273.785	396.38
274.017	430.38
274.249	448.38
274.481	428.38
274.713	418.38
274.945	415.38
275.176	401.38
275.408	394.38
275.64	393.38
275.872	392.38
276.104	411.38
276.335	486.38
276.567	540.38
276.799	543.38
277.031	479.38
277.262	491.38
277.494	488.38
277.726	541.38
277.957	517.38
278.189	464.38
278.421	441.38
278.652	428.38
278.884	409.38
279.115	436.38
279.347	440.38
279.579	417.38
279.81	456.38
280.042	475.38
280.273	500.38
280.505	491.38
280.736	487.38
280.968	467.38
281.199	425.38
281.431	409.38
281.662	407.38
281.894	438.38
282.125	433.38
282.356	443.38
282.588	450.38
282.819	458.38
283.051	495.38
283.282	508.38
283.513	488.38
283.745	454.38
283.976	433.38
284.207	422.38
284.439	438.38
284.67	452.38
284.901	450.38
285.132	450.38
285.364	456.38
285.595	466.38
285.826	437.38
286.057	444.38
286.288	432.38
286.52	455.38
286.751	491.38
286.982	487.38
287.213	463.38
287.444	428.38
287.675	442.38
287.906	454.38
288.138	487.38
288.369	465.38
288.6	446.38
288.831	421.38
289.062	438.38
289.293	420.38
289.524	425.38
289.755	476.38
289.986	469.38
290.217	437.38
290.448	439.38
290.679	447.38
290.91	451.38
291.141	499.38
291.371	470.38
291.602	486.38
291.833	456.38
292.064	467.38
292.295	475.38
292.526	483.38
292.757	507.38
292.987	480.38
293.218	476.38
293.449	507.38
293.68	564.38
293.91	602.38
294.141	541.38
294.372	552.38
294.603	564.38
294.833	575.38
295.064	541.38
295.295	480.38
295.525	473.38
295.756	440.38
295.987	433.38
296.217	443.38
296.448	457.38
296.679	449.38
296.909	449.38
297.14	448.38
297.37	468.38
297.601	508.38
297.831	510.38
298.062	515.38
298.292	471.38
298.523	464.38
298.753	482.38
298.984	467.38
299.214	484.38
299.445	506.38
299.675	502.38
299.905	487.38
300.136	467.38
300.366	456.38
300.597	447.38
300.827	487.38
301.057	507.38
301.288	504.38
301.518	516.38
301.748	525.38
301.979	550.38
302.209	559.38
302.439	590.38
302.669	537.38
302.9	566.38
303.13	523.38
303.36	500.38
303.59	513.38
303.82	532.38
304.051	531.38
304.281	510.38
304.511	522.38
304.741	555.38
304.971	596.38
305.201	626.38
305.431	545.38
305.661	479.38
305.891	446.38
306.121	434.38
306.352	471.38
306.582	502.38
306.812	528.38
307.042	561.38
307.272	566.38
307.502	577.38
307.731	624.38
307.961	641.38
308.191	602.38
308.421	540.38
308.651	506.38
308.881	480.38
309.111	484.38
309.341	487.38
309.571	483.38
309.8	477.38
310.03	476.38
310.26	477.38
310.49	490.38
310.72	499.38
310.949	534.38
311.179	522.38
311.409	516.38
311.639	483.38
311.868	488.38
312.098	512.38
312.328	487.38
312.557	508.38
312.787	506.38
313.017	536.38
313.246	531.38
313.476	534.38
313.706	536.38
313.935	516.38
314.165	542.38
314.394	544.38
314.624	598.38
314.853	609.38
315.083	605.38
315.312	634.38
315.542	598.38
315.771	551.38
316.001	568.38
316.23	566.38
316.46	569.38
316.689	568.38
316.919	523.38
317.148	519.38
317.377	566.38
317.607	586.38
317.836	652.38
318.065	628.38
318.295	604.38
318.524	587.38
318.753	579.38
318.983	565.38
319.212	552.38
319.441	545.38
319.67	549.38
319.9	564.38
320.129	583.38
320.358	606.38
320.587	630.38
320.816	626.38
321.046	611.38
321.275	560.38
321.504	599.38
321.733	625.38
321.962	601.38
322.191	554.38
322.42	555.38
322.649	551.38
322.878	568.38
323.108	567.38
323.337	584.38
323.566	565.38
323.795	546.38
324.024	571.38
324.253	564.38
324.482	564.38
324.71	537.38
324.939	542.38
325.168	530.38
325.397	536.38
325.626	552.38
325.855	567.38
326.084	551.38
326.313	577.38
326.542	580.38
326.77	594.38
326.999	564.38
327.228	547.38
327.457	537.38
327.686	545.38
327.914	567.38
328.143	560.38
328.372	551.38
328.6	571.38
328.829	555.38
329.058	539.38
329.287	560.38
329.515	576.38
329.744	580.38
329.972	611.38
330.201	647.38
330.43	606.38
330.658	602.38
330.887	569.38
331.115	593.38
331.344	605.38
331.572	583.38
331.801	580.38
332.03	594.38
332.258	595.38
332.486	585.38
332.715	592.38
332.943	599.38
333.172	615.38
333.4	614.38
333.629	617.38
333.857	664.38
334.085	742.38
334.314	800.38
334.542	863.38
334.771	762.38
334.999	688.38
335.227	644.38
335.455	639.38
335.684	644.38
335.912	662.38
336.14	644.38
336.369	609.38
336.597	592.38
336.825	591.38
337.053	622.38
337.281	659.38
337.51	694.38
337.738	684.38
337.966	650.38
338.194	629.38
338.422	574.38
338.65	604.38
338.878	575.38
339.106	564.38
339.334	563.38
339.562	567.38
339.79	591.38
340.018	617.38
340.246	642.38
340.474	613.38
340.702	630.38
340.93	624.38
341.158	614.38
341.386	601.38
341.614	586.38
341.842	598.38
342.07	590.38
342.298	607.38
342.526	592.38
342.754	604.38
342.981	587.38
343.209	568.38
343.437	578.38
343.665	590.38
343.893	618.38
344.12	636.38
344.348	631.38
344.576	597.38
344.804	578.38
345.031	622.38
345.259	577.38
345.487	558.38
345.714	542.38
345.942	525.38
346.17	569.38
346.397	584.38
346.625	575.38
346.853	542.38
347.08	562.38
347.308	551.38
347.535	570.38
347.763	564.38
347.99	579.38
348.218	555.38
348.445	534.38
348.673	558.38
348.9	579.38
349.128	600.38
349.355	603.38
349.583	586.38
349.81	556.38
350.037	544.38
350.265	536.38
350.492	549.38
350.72	550.38
350.947	585.38
351.174	556.38
351.402	536.38
351.629	502.38
351.856	540.38
352.083	514.38
352.311	537.38
352.538	533.38
352.765	579.38
352.992	565.38
353.22	549.38
353.447	535.38
353.674	574.38
353.901	582.38
354.128	549.38
354.355	540.38
354.583	590.38
354.81	608.38
355.037	584.38
355.264	562.38
355.491	579.38
355.718	565.38
355.945	568.38
356.172	560.38
356.399	575.38
356.626	551.38
356.853	586.38
357.08	647.38
357.307	674.38
357.534	644.38
357.761	569.38
357.988	533.38
358.215	551.38
358.441	529.38
358.668	539.38
358.895	546.38
359.122	592.38
359.349	655.38
359.576	624.38
359.802	572.38
360.029	521.38
360.256	559.38
360.483	560.38
360.709	575.38
360.936	607.38
361.163	639.38
361.39	656.38
361.616	682.38
361.843	706.38
362.07	627.38
362.296	567.38
362.523	556.38
362.749	554.38
362.976	580.38
363.203	571.38
363.429	549.38
363.656	558.38
363.882	586.38
364.109	661.38
364.335	646.38
364.562	617.38
364.788	587.38
365.015	577.38
365.241	542.38
365.468	583.38
365.694	602.38
365.92	592.38
366.147	566.38
366.373	568.38
366.599	572.38
366.826	562.38
367.052	556.38
367.278	561.38
367.505	602.38
367.731	607.38
367.957	622.38
368.184	634.38
368.41	664.38
368.636	660.38
368.862	680.38
369.089	668.38
369.315	633.38
369.541	627.38
369.767	600.38
369.993	588.38
370.219	571.38
370.445	597.38
370.672	633.38
370.898	665.38
371.124	666.38
371.35	634.38
371.576	647.38
371.802	643.38
372.028	627.38
372.254	604.38
372.48	605.38
372.706	568.38
372.932	610.38
373.158	598.38
373.384	627.38
373.61	655.38
373.835	661.38
374.061	653.38
374.287	648.38
374.513	620.38
374.739	618.38
374.965	629.38
375.191	636.38
375.416	629.38
375.642	647.38
375.868	695.38
376.094	708.38
376.319	686.38
376.545	633.38
376.771	677.38
376.997	701.38
377.222	675.38
377.448	679.38
377.674	651.38
377.899	665.38
378.125	737.38
378.35	671.38
378.576	638.38
378.802	617.38
379.027	633.38
379.253	624.38
379.478	648.38
379.704	626.38
379.929	635.38
380.155	656.38
380.38	665.38
380.606	638.38
380.831	676.38
381.057	701.38
381.282	682.38
381.507	672.38
381.733	740.38
381.958	763.38
382.184	670.38
382.409	680.38
382.634	679.38
382.86	683.38
383.085	680.38
383.31	692.38
383.535	787.38
383.761	812.38
383.986	745.38
384.211	734.38
384.436	754.38
384.662	762.38
384.887	760.38
385.112	717.38
385.337	721.38
385.562	731.38
385.787	731.38
386.013	764.38
386.238	756.38
386.463	787.38
386.688	820.38
386.913	828.38
387.138	824.38
387.363	776.38
387.588	760.38
387.813	757.38
388.038	766.38
388.263	786.38
388.488	758.38
388.713	711.38
388.938	707.38
389.163	702.38
389.387	726.38
389.612	744.38
389.837	746.38
390.062	769.38
390.287	769.38
390.512	758.38
390.736	716.38
390.961	714.38
391.186	705.38
391.411	734.38
391.636	755.38
391.86	754.38
392.085	763.38
392.31	748.38
392.534	742.38
392.759	757.38
392.984	727.38
393.208	762.38
393.433	799.38
393.658	830.38
393.882	814.38
394.107	768.38
394.331	731.38
394.556	743.38
394.78	803.38
395.005	797.38
395.229	840.38
395.454	862.38
395.678	836.38
395.903	802.38
396.127	810.38
396.352	823.38
396.576	841.38
396.801	840.38
397.025	835.38
397.249	835.38
397.474	838.38
397.698	831.38
397.922	840.38
398.147	881.38
398.371	881.38
398.595	896.38
398.82	868.38
399.044	869.38
399.268	921.38
399.492	954.38
399.717	968.38
399.941	982.38
400.165	974.38
400.389	971.38
400.613	979.38
400.837	1105.38
401.062	1185.38
401.286	1019.38
401.51	980.38
401.734	961.38
401.958	944.38
402.182	881.38
402.406	867.38
402.63	884.38
402.854	866.38
403.078	896.38
403.302	878.38
403.526	927.38
403.75	917.38
403.974	926.38
404.198	931.38
404.422	954.38
404.645	1006.38
404.869	976.38
405.093	897.38
405.317	883.38
405.541	922.38
405.765	919.38
405.988	915.38
406.212	942.38
406.436	962.38
406.66	978.38
406.883	1019.38
407.107	1134.38
407.331	1240.38
407.555	1272.38
407.778	1128.38
408.002	979.38
408.226	964.38
408.449	978.38
408.673	926.38
408.896	940.38
409.12	956.38
409.344	941.38
409.567	931.38
409.791	940.38
410.014	957.38
410.238	1034.38
410.461	1003.38
410.685	962.38
410.908	929.38
411.132	969.38
411.355	942.38
411.578	914.38
411.802	959.38
412.025	942.38
412.249	934.38
412.472	897.38
412.695	898.38
412.919	900.38
413.142	906.38
413.365	901.38
413.589	920.38
413.812	984.38
414.035	1003.38
414.258	923.38
414.482	891.38
414.705	913.38
414.928	899.38
415.151	908.38
415.374	919.38
415.597	936.38
415.821	919.38
416.044	954.38
416.267	943.38
416.49	919.38
416.713	918.38
416.936	937.38
417.159	1014.38
417.382	986.38
417.605	913.38
417.828	946.38
418.051	969.38
418.274	948.38
418.497	924.38
418.72	946.38
418.943	939.38
419.166	980.38
419.389	1002.38
419.611	947.38
419.834	913.38
420.057	912.38
420.28	932.38
420.503	939.38
420.726	941.38
420.948	934.38
421.171	917.38
421.394	933.38
421.617	952.38
421.839	971.38
422.062	961.38
422.285	937.38
422.507	939.38
422.73	904.38
422.953	865.38
423.175	880.38
423.398	890.38
423.621	923.38
423.843	934.38
424.066	964.38
424.288	1056.38
424.511	1074.38
424.733	988.38
424.956	897.38
425.178	907.38
425.401	935.38
425.623	924.38
425.846	954.38
426.068	933.38
426.291	955.38
426.513	961.38
426.735	944.38
426.958	1026.38
427.18	1047.38
427.402	1018.38
427.625	1020.38
427.847	978.38
428.069	908.38
428.292	899.38
428.514	890.38
428.736	900.38
428.958	906.38
429.181	940.38
429.403	1067.38
429.625	1238.38
429.847	1036.38
430.069	936.38
430.292	1047.38
430.514	1032.38
430.736	981.38
430.958	989.38
431.18	913.38
431.402	876.38
431.624	844.38
431.846	795.38
432.068	718.38
432.29	752.38
432.512	794.38
432.734	882.38
432.956	907.38
433.178	969.38
433.4	929.38
433.622	956.38
433.844	914.38
434.066	824.38
434.287	821.38
434.509	770.38
434.731	811.38
434.953	906.38
435.175	947.38
435.397	880.38
435.618	878.38
435.84	840.38
436.062	848.38
436.284	886.38
436.505	940.38
436.727	954.38
436.949	924.38
437.17	894.38
437.392	902.38
437.614	831.38
437.835	793.38
438.057	833.38
438.278	844.38
438.5	865.38
438.721	885.38
438.943	922.38
439.165	925.38
439.386	914.38
439.608	968.38
439.829	956.38
440.05	989.38
440.272	942.38
440.493	919.38
440.715	949.38
440.936	999.38
441.158	1055.38
441.379	1040.38
441.6	1032.38
441.822	1008.38
442.043	1014.38
442.264	1005.38
442.486	971.38
442.707	964.38
442.928	938.38
443.149	987.38
443.371	985.38
443.592	1001.38
443.813	996.38
444.034	1014.38
444.255	992.38
444.476	1026.38
444.698	1027.38
444.919	1042.38
445.14	1109.38
445.361	1062.38
445.582	1074.38
445.803	1038.38
446.024	1023.38
446.245	1118.38
446.466	1058.38
446.687	1017.38
446.908	1040.38
447.129	986.38
447.35	991.38
447.571	990.38
447.792	967.38
448.013	949.38
448.234	962.38
448.455	1007.38
448.675	992.38
448.896	918.38
449.117	904.38
449.338	898.38
449.559	950.38
449.779	961.38
450	1020.38
450.221	1012.38
450.442	1026.38
450.662	949.38
450.883	856.38
451.104	869.38
451.324	864.38
451.545	872.38
451.766	847.38
451.986	829.38
452.207	818.38
452.428	772.38
452.648	798.38
452.869	786.38
453.089	764.38
453.31	796.38
453.53	763.38
453.751	740.38
453.971	720.38
454.192	729.38
454.412	756.38
454.633	777.38
454.853	782.38
455.073	770.38
455.294	755.38
455.514	787.38
455.734	757.38
455.955	739.38
456.175	746.38
456.395	756.38
456.616	726.38
456.836	750.38
457.056	736.38
457.276	706.38
457.497	680.38
457.717	667.38
457.937	724.38
458.157	728.38
458.377	703.38
458.598	694.38
458.818	705.38
459.038	699.38
459.258	723.38
459.478	715.38
459.698	682.38
459.918	737.38
460.138	802.38
460.358	827.38
460.578	834.38
460.798	871.38
461.018	894.38
461.238	849.38
461.458	850.38
461.678	830.38
461.898	810.38
462.118	810.38
462.338	829.38
462.558	838.38
462.777	831.38
462.997	834.38
463.217	891.38
463.437	896.38
463.657	848.38
463.876	839.38
464.096	826.38
464.316	848.38
464.536	860.38
464.755	888.38
464.975	884.38
465.195	870.38
465.414	878.38
465.634	870.38
465.854	901.38
466.073	952.38
466.293	930.38
466.512	865.38
466.732	868.38
466.951	921.38
467.171	892.38
467.391	879.38
467.61	876.38
467.829	910.38
468.049	968.38
468.268	1028.38
468.488	979.38
468.707	947.38
468.927	919.38
469.146	882.38
469.365	945.38
469.585	921.38
469.804	931.38
470.023	907.38
470.243	931.38
470.462	928.38
470.681	902.38
470.901	921.38
471.12	943.38
471.339	949.38
471.558	882.38
471.777	898.38
471.997	897.38
472.216	860.38
472.435	776.38
472.654	763.38
472.873	769.38
473.092	858.38
473.311	843.38
473.53	823.38
473.749	801.38
473.968	831.38
474.187	859.38
474.406	854.38
474.625	864.38
474.844	883.38
475.063	869.38
475.282	868.38
475.501	846.38
475.72	856.38
475.939	901.38
476.158	882.38
476.377	864.38
476.596	850.38
476.814	834.38
477.033	802.38
477.252	854.38
477.471	882.38
477.69	924.38
477.908	912.38
478.127	966.38
478.346	1019.38
478.564	1008.38
478.783	1004.38
479.002	1040.38
479.22	1016.38
479.439	1038.38
479.658	1063.38
479.876	996.38
480.095	878.38
480.313	937.38
480.532	882.38
480.751	858.38
480.969	835.38
481.188	787.38
481.406	763.38
481.624	765.38
481.843	786.38
482.061	817.38
482.28	890.38
482.498	883.38
482.717	865.38
482.935	896.38
483.153	975.38
483.372	994.38
483.59	1006.38
483.808	964.38
484.027	943.38
484.245	1000.38
484.463	1202.38
484.681	1296.38
484.9	1023.38
485.118	970.38
485.336	907.38
485.554	932.38
485.772	886.38
485.99	876.38
486.209	898.38
486.427	914.38
486.645	945.38
486.863	1019.38
487.081	1038.38
487.299	1020.38
487.517	1009.38
487.735	1119.38
487.953	1216.38
488.171	1195.38
488.389	1127.38
488.607	1065.38
488.825	1119.38
489.043	1039.38
489.261	976.38
489.479	1043.38
489.696	1049.38
489.914	1036.38
490.132	1042.38
490.35	1057.38
490.568	1157.38
490.786	1148.38
491.003	1199.38
491.221	1258.38
491.439	1252.38
491.657	1296.38
491.874	1332.38
492.092	1425.38
492.31	1490.38
492.527	1429.38
492.745	1372.38
492.963	1299.38
493.18	1313.38
493.398	1362.38
493.615	1328.38
493.833	1255.38
494.05	1235.38
494.268	1196.38
494.485	1240.38
494.703	1208.38
494.92	1225.38
495.138	1213.38
495.355	1229.38
495.573	1262.38
495.79	1278.38
496.008	1290.38
496.225	1226.38
496.442	1256.38
496.66	1213.38
496.877	1209.38
497.094	1222.38
497.312	1204.38
497.529	1157.38
497.746	1227.38
497.963	1244.38
498.181	1316.38
498.398	1256.38
498.615	1194.38
498.832	1155.38
499.049	1143.38
499.267	1177.38
499.484	1253.38
499.701	1365.38
499.918	1382.38
500.135	1479.38
500.352	1550.38
500.569	1550.38
500.786	1686.38
501.003	1535.38
501.22	1448.38
501.437	1396.38
501.654	1416.38
501.871	1353.38
502.088	1195.38
502.305	1198.38
502.522	1132.38
502.739	1090.38
502.956	1039.38
503.172	1056.38
503.389	999.38
503.606	978.38
503.823	970.38
504.04	1027.38
504.256	983.38
504.473	1027.38
504.69	1023.38
504.907	983.38
505.123	983.38
505.34	1068.38
505.557	1352.38
505.773	1127.38
505.99	948.38
506.207	904.38
506.423	895.38
506.64	896.38
506.856	927.38
507.073	1049.38
507.289	1083.38
507.506	1024.38
507.722	870.38
507.939	851.38
508.155	830.38
508.372	844.38
508.588	824.38
508.805	805.38
509.021	762.38
509.238	778.38
509.454	766.38
509.67	782.38
509.887	755.38
510.103	737.38
510.319	758.38
510.536	779.38
510.752	796.38
510.968	754.38
511.184	811.38
511.401	775.38
511.617	682.38
511.833	702.38
512.049	710.38
512.265	744.38
512.481	744.38
512.698	753.38
512.914	773.38
513.13	746.38
513.346	731.38
513.562	708.38
513.778	700.38
513.994	766.38
514.21	751.38
514.426	740.38
514.642	799.38
514.858	796.38
515.074	735.38
515.29	720.38
515.506	725.38
515.721	737.38
515.937	736.38
516.153	800.38
516.369	759.38
516.585	731.38
516.801	726.38
517.016	732.38
517.232	762.38
517.448	772.38
517.664	776.38
517.879	801.38
518.095	813.38
518.311	773.38
518.527	737.38
518.742	748.38
518.958	746.38
519.173	778.38
519.389	789.38
519.605	777.38
519.82	771.38
520.036	789.38
520.251	765.38
520.467	758.38
520.682	826.38
520.898	775.38
521.113	723.38
521.329	702.38
521.544	768.38
521.76	719.38
521.975	731.38
522.19	707.38
522.406	738.38
522.621	938.38
522.836	873.38
523.052	716.38
523.267	735.38
523.482	766.38
523.698	750.38
523.913	726.38
524.128	771.38
524.343	784.38
524.559	830.38
524.774	774.38
524.989	774.38
525.204	758.38
525.419	733.38
525.634	742.38
525.849	740.38
526.064	711.38
526.28	687.38
526.495	657.38
526.71	634.38
526.925	622.38
527.14	615.38
527.355	637.38
527.57	622.38
527.785	667.38
527.999	658.38
528.214	678.38
528.429	709.38
528.644	752.38
528.859	783.38
529.074	830.38
529.289	875.38
529.503	873.38
529.718	840.38
529.933	698.38
530.148	651.38
530.363	625.38
530.577	634.38
530.792	626.38
531.007	627.38
531.221	623.38
531.436	620.38
531.651	672.38
531.865	675.38
532.08	644.38
532.295	639.38
532.509	601.38
532.724	636.38
532.938	652.38
533.153	711.38
533.367	710.38
533.582	751.38
533.796	726.38
534.011	692.38
534.225	654.38
534.44	622.38
534.654	610.38
534.868	642.38
535.083	700.38
535.297	706.38
535.511	675.38
535.726	678.38
535.94	658.38
536.154	664.38
536.369	611.38
536.583	611.38
536.797	611.38
537.011	612.38
537.225	607.38
537.44	613.38
537.654	665.38
537.868	625.38
538.082	611.38
538.296	621.38
538.51	634.38
538.724	692.38
538.938	713.38
539.153	728.38
539.367	722.38
539.581	709.38
539.795	679.38
540.009	654.38
540.222	656.38
540.436	663.38
540.65	753.38
540.864	780.38
541.078	812.38
541.292	842.38
541.506	893.38
541.72	950.38
541.934	1003.38
542.147	1047.38
542.361	1042.38
542.575	898.38
542.789	837.38
543.002	771.38
543.216	736.38
543.43	754.38
543.644	794.38
543.857	859.38
544.071	911.38
544.285	930.38
544.498	931.38
544.712	934.38
544.925	956.38
545.139	961.38
545.352	932.38
545.566	893.38
545.779	918.38
545.993	965.38
546.206	989.38
546.42	946.38
546.633	944.38
546.847	931.38
547.06	912.38
547.274	938.38
547.487	995.38
547.7	978.38
547.914	934.38
548.127	948.38
548.34	935.38
548.554	916.38
548.767	902.38
548.98	912.38
549.193	904.38
549.407	914.38
549.62	938.38
549.833	907.38
550.046	883.38
550.259	906.38
550.473	882.38
550.686	870.38
550.899	860.38
551.112	870.38
551.325	830.38
551.538	822.38
551.751	842.38
551.964	705.38
552.177	747.38
552.39	779.38
552.603	874.38
552.816	837.38
553.029	916.38
553.242	914.38
553.455	903.38
553.667	900.38
553.88	891.38
554.093	864.38
554.306	853.38
554.519	814.38
554.732	805.38
554.944	827.38
555.157	845.38
555.37	806.38
555.583	795.38
555.795	768.38
556.008	751.38
556.221	706.38
556.433	712.38
556.646	720.38
556.859	726.38
557.071	726.38
557.284	716.38
557.496	746.38
557.709	740.38
557.921	743.38
558.134	727.38
558.346	723.38
558.559	720.38
558.771	722.38
558.984	710.38
559.196	689.38
559.409	679.38
559.621	659.38
559.833	666.38
560.046	672.38
560.258	662.38
560.47	688.38
560.683	686.38
560.895	666.38
561.107	699.38
561.32	666.38
561.532	677.38
561.744	659.38
561.956	675.38
562.168	666.38
562.381	637.38
562.593	692.38
562.805	658.38
563.017	660.38
563.229	629.38
563.441	650.38
563.653	624.38
563.865	610.38
564.077	608.38
564.289	617.38
564.501	634.38
564.713	630.38
564.925	642.38
565.137	684.38
565.349	614.38
565.561	613.38
565.773	608.38
565.985	625.38
566.197	617.38
566.408	656.38
566.62	642.38
566.832	644.38
567.044	689.38
567.255	652.38
567.467	628.38
567.679	657.38
567.891	653.38
568.102	595.38
568.314	566.38
568.526	544.38
568.737	491.38
568.949	485.38
569.161	460.38
569.372	479.38
569.584	450.38
569.795	459.38
570.007	450.38
570.218	442.38
570.43	428.38
570.641	456.38
570.853	433.38
571.064	484.38
571.276	482.38
571.487	465.38
571.698	467.38
571.91	450.38
572.121	460.38
572.333	436.38
572.544	438.38
572.755	433.38
572.966	417.38
573.178	389.38
573.389	389.38
573.6	403.38
573.811	441.38
574.023	397.38
574.234	397.38
574.445	400.38
574.656	390.38
574.867	384.38
575.078	401.38
575.289	407.38
575.501	389.38
575.712	387.38
575.923	393.38
576.134	384.38
576.345	400.38
576.556	403.38
576.767	394.38
576.978	392.38
577.188	389.38
577.399	375.38
577.61	361.38
577.821	352.38
578.032	368.38
578.243	354.38
578.454	345.38
578.665	368.38
578.875	346.38
579.086	358.38
579.297	351.38
579.508	335.38
579.718	346.38
579.929	357.38
580.14	334.38
580.35	336.38
580.561	358.38
580.772	368.38
580.982	383.38
581.193	348.38
581.403	334.38
581.614	353.38
581.825	345.38
582.035	351.38
582.246	361.38
582.456	359.38
582.667	343.38
582.877	326.38
583.087	321.38
583.298	336.38
583.508	330.38
583.719	338.38
583.929	313.38
584.139	318.38
584.35	323.38
584.56	313.38
584.77	327.38
584.981	336.38
585.191	340.38
585.401	351.38
585.611	337.38
585.821	333.38
586.032	326.38
586.242	337.38
586.452	332.38
586.662	331.38
586.872	324.38
587.082	315.38
587.292	319.38
587.502	306.38
587.713	311.38
587.923	302.38
588.133	331.38
588.343	303.38
588.553	322.38
588.762	320.38
588.972	308.38
589.182	307.38
589.392	314.38
589.602	324.38
589.812	320.38
590.022	324.38
590.232	299.38
590.441	315.38
590.651	299.38
590.861	302.38
591.071	286.38
591.281	316.38
591.49	307.38
591.7	302.38
591.91	288.38
592.119	301.38
592.329	312.38
592.539	331.38
592.748	340.38
592.958	342.38
593.167	321.38
593.377	325.38
593.587	330.38
593.796	322.38
594.006	308.38
594.215	315.38
594.424	317.38
594.634	328.38
594.843	341.38
595.053	342.38
595.262	343.38
595.472	324.38
595.681	306.38
595.89	303.38
596.1	306.38
596.309	313.38
596.518	313.38
596.727	333.38
596.937	309.38
597.146	331.38
597.355	306.38
597.564	306.38
597.774	305.38
597.983	302.38
598.192	281.38
598.401	269.38
598.61	273.38
598.819	299.38
599.028	302.38
599.237	312.38
599.446	304.38
599.655	292.38
599.864	270.38
600.073	294.38
600.282	278.38
600.491	290.38
600.7	294.38
600.909	299.38
601.118	303.38
601.327	318.38
601.536	337.38
601.745	345.38
601.953	352.38
602.162	336.38
602.371	356.38
602.58	353.38
602.789	339.38
602.997	351.38
603.206	353.38
603.415	325.38
603.623	345.38
603.832	350.38
604.041	339.38
604.249	324.38
604.458	308.38
604.666	318.38
604.875	311.38
605.084	319.38
605.292	337.38
605.501	348.38
605.709	345.38
605.918	343.38
606.126	362.38
606.334	356.38
606.543	353.38
606.751	374.38
606.96	359.38
607.168	364.38
607.376	355.38
607.585	350.38
607.793	330.38
608.001	348.38
608.21	360.38
608.418	370.38
608.626	376.38
608.834	370.38
609.043	352.38
609.251	351.38
609.459	373.38
609.667	366.38
609.875	382.38
610.083	384.38
610.291	380.38
610.499	359.38
610.707	346.38
610.916	357.38
611.124	351.38
611.332	366.38
611.54	349.38
611.748	371.38
611.955	363.38
612.163	357.38
612.371	346.38
612.579	356.38
612.787	360.38
612.995	382.38
613.203	379.38
613.411	374.38
613.618	349.38
613.826	344.38
614.034	373.38
614.242	352.38
614.449	348.38
614.657	348.38
614.865	381.38
615.072	370.38
615.28	359.38
615.488	350.38
615.695	368.38
615.903	356.38
616.111	362.38
616.318	349.38
616.526	367.38
616.733	350.38
616.941	342.38
617.148	353.38
617.356	340.38
617.563	349.38
617.771	340.38
617.978	318.38
618.185	324.38
618.393	347.38
618.6	342.38
618.807	340.38
619.015	350.38
619.222	346.38
619.429	322.38
619.637	329.38
619.844	297.38
620.051	318.38
620.258	336.38
620.466	305.38
620.673	327.38
620.88	316.38
621.087	309.38
621.294	314.38
621.501	307.38
621.708	289.38
621.915	309.38
622.122	320.38
622.329	335.38
622.536	317.38
622.743	313.38
622.95	308.38
623.157	318.38
623.364	332.38
623.571	311.38
623.778	317.38
623.985	321.38
624.192	317.38
624.399	315.38
624.606	327.38
624.812	311.38
625.019	288.38
625.226	288.38
625.433	282.38
625.639	269.38
625.846	261.38
626.053	256.38
626.259	248.38
626.466	246.38
626.673	229.38
626.879	230.38
627.086	261.38
627.293	267.38
627.499	298.38
627.706	307.38
627.912	289.38
628.119	301.38
628.325	293.38
628.532	313.38
628.738	290.38
628.945	288.38
629.151	292.38
629.357	273.38
629.564	275.38
629.77	275.38
629.976	266.38
630.183	276.38
630.389	256.38
630.595	259.38
630.802	282.38
631.008	276.38
631.214	257.38
631.42	262.38
631.627	256.38
631.833	254.38
632.039	256.38
632.245	270.38
632.451	270.38
632.657	252.38
632.863	244.38
633.069	263.38
633.275	260.38
633.481	258.38
633.688	247.38
633.893	240.38
634.099	255.38
634.305	262.38
634.511	254.38
634.717	238.38
634.923	211.38
635.129	225.38
635.335	228.38
635.541	227.38
635.747	243.38
635.952	258.38
636.158	257.38
636.364	249.38
636.57	254.38
636.775	245.38
636.981	260.38
637.187	264.38
637.392	276.38
637.598	262.38
637.804	253.38
638.009	255.38
638.215	253.38
638.421	258.38
638.626	263.38
638.832	243.38
639.037	250.38
639.243	236.38
639.448	254.38
639.654	245.38
639.859	248.38
640.065	243.38
640.27	263.38
640.475	248.38
640.681	252.38
640.886	263.38
641.091	242.38
641.297	236.38
641.502	239.38
641.707	240.38
641.913	261.38
642.118	240.38
642.323	240.38
642.528	250.38
642.733	261.38
642.939	235.38
643.144	246.38
643.349	242.38
643.554	259.38
643.759	240.38
643.964	231.38
644.169	233.38
644.374	223.38
644.579	254.38
644.784	253.38
644.989	233.38
645.194	234.38
645.399	232.38
645.604	252.38
645.809	247.38
646.014	258.38
646.219	228.38
646.423	259.38
646.628	246.38
646.833	222.38
647.038	238.38
647.243	226.38
647.447	241.38
647.652	246.38
647.857	248.38
648.062	241.38
648.266	252.38
648.471	235.38
648.676	225.38
648.88	230.38
649.085	245.38
649.289	239.38
649.494	263.38
649.698	238.38
649.903	225.38
650.107	235.38
650.312	235.38
650.516	214.38
650.721	236.38
650.925	212.38
651.13	200.38
651.334	217.38
651.539	211.38
651.743	239.38
651.947	216.38
652.152	223.38
652.356	211.38
652.56	199.38
652.764	229.38
652.969	210.38
653.173	206.38
653.377	206.38
653.581	215.38
653.785	213.38
653.99	211.38
654.194	198.38
654.398	197.38
654.602	205.38
654.806	215.38
655.01	212.38
655.214	200.38
655.418	204.38
655.622	200.38
655.826	212.38
656.03	222.38
656.234	246.38
656.438	229.38
656.642	247.38
656.846	231.38
657.049	214.38
657.253	218.38
657.457	177.38
657.661	177.38
657.865	166.38
658.068	162.38
658.272	180.38
658.476	160.38
658.68	168.38
658.883	140.38
659.087	142.38
659.291	122.38
659.494	131.38
659.698	138.38
659.901	145.38
660.105	141.38
660.309	124.38
660.512	118.38
660.716	133.38
660.919	121.38
661.123	112.38
661.326	106.38
661.53	120.38
661.733	122.38
661.936	106.38
662.14	101.38
662.343	107.38
662.546	96.38
662.75	92.38
662.953	86.38
663.156	95.38
663.36	92.38
663.563	100.38
663.766	85.38
663.969	101.38
664.173	81.38
664.376	84.38
664.579	77.38
664.782	81.38
664.985	77.38
665.188	95.38
665.391	94.38
665.594	91.38
665.797	87.38
666	89.38
666.203	82.38
666.406	90.38
666.609	76.38
666.812	81.38
667.015	89.38
667.218	87.38
667.421	69.38
667.624	83.38
667.827	81.38
668.03	96.38
668.232	78.38
668.435	77.38
668.638	88.38
668.841	86.38
669.043	73.38
669.246	95.38
669.449	82.38
669.651	77.38
669.854	86.38
670.057	86.38
670.259	86.38
670.462	88.38
670.665	87.38
670.867	80.38
671.07	76.38
671.272	71.38
671.475	70.38
671.677	72.38
671.88	89.38
672.082	78.38
672.284	86.38
672.487	86.38
672.689	69.38
672.892	76.38
