Data from WStandard_LampEnergy10_LIBS07252019.E.O._I.C._HRD10591_15-54-44-928.txt Node
Date: Thu Jul 25 15:54:44 EDT 2019
User: cochatt
Spectrometer: HR+D1059
Trigger mode: 1
Integration Time (sec): 1.000000E-1
Scans to average: 1
Electric dark correction enabled: true
Nonlinearity correction enabled: false
Boxcar width: 0
XAxis mode: Wavelengths
Number of Pixels in Spectrum: 2048
>>>>>Begin Spectral Data<<<<<
223.165	-20.56
223.4	-20.56
223.635	-20.56
223.869	-20.56
224.104	-19.56
224.338	-1.56
224.573	-17.56
224.808	-8.56
225.042	-16.56
225.277	-12.56
225.511	12.44
225.746	6.44
225.98	11.44
226.215	18.44
226.449	14.44
226.683	21.44
226.918	10.44
227.152	22.44
227.387	13.44
227.621	33.44
227.856	41.44
228.09	43.44
228.324	55.44
228.559	53.44
228.793	67.44
229.027	127.44
229.262	135.44
229.496	133.44
229.73	148.44
229.964	152.44
230.199	156.44
230.433	175.44
230.667	164.44
230.901	192.44
231.136	188.44
231.37	179.44
231.604	176.44
231.838	177.44
232.072	186.44
232.306	180.44
232.541	198.44
232.775	199.44
233.009	217.44
233.243	187.44
233.477	176.44
233.711	203.44
233.945	203.44
234.179	191.44
234.413	191.44
234.647	218.44
234.881	190.44
235.115	207.44
235.349	177.44
235.583	187.44
235.817	189.44
236.051	181.44
236.285	199.44
236.519	219.44
236.753	220.44
236.987	215.44
237.221	215.44
237.455	220.44
237.689	216.44
237.922	207.44
238.156	207.44
238.39	211.44
238.624	224.44
238.858	227.44
239.091	247.44
239.325	269.44
239.559	282.44
239.793	300.44
240.027	310.44
240.26	284.44
240.494	233.44
240.728	230.44
240.961	228.44
241.195	237.44
241.429	255.44
241.662	251.44
241.896	228.44
242.13	232.44
242.363	272.44
242.597	265.44
242.83	269.44
243.064	275.44
243.298	300.44
243.531	289.44
243.765	276.44
243.998	291.44
244.232	231.44
244.465	232.44
244.699	267.44
244.932	273.44
245.166	325.44
245.399	277.44
245.633	288.44
245.866	287.44
246.099	288.44
246.333	289.44
246.566	309.44
246.8	311.44
247.033	343.44
247.266	321.44
247.5	299.44
247.733	317.44
247.966	324.44
248.2	353.44
248.433	328.44
248.666	345.44
248.899	389.44
249.133	420.44
249.366	468.44
249.599	385.44
249.832	357.44
250.066	352.44
250.299	364.44
250.532	357.44
250.765	324.44
250.998	312.44
251.231	335.44
251.465	348.44
251.698	352.44
251.931	344.44
252.164	351.44
252.397	329.44
252.63	351.44
252.863	297.44
253.096	333.44
253.329	338.44
253.562	369.44
253.795	359.44
254.028	353.44
254.261	331.44
254.494	339.44
254.727	332.44
254.96	341.44
255.193	370.44
255.426	395.44
255.659	444.44
255.892	465.44
256.124	407.44
256.357	386.44
256.59	396.44
256.823	408.44
257.056	401.44
257.289	464.44
257.521	493.44
257.754	463.44
257.987	462.44
258.22	465.44
258.452	465.44
258.685	388.44
258.918	381.44
259.151	388.44
259.383	373.44
259.616	336.44
259.849	379.44
260.081	405.44
260.314	452.44
260.547	471.44
260.779	464.44
261.012	437.44
261.244	409.44
261.477	385.44
261.71	387.44
261.942	379.44
262.175	407.44
262.407	405.44
262.64	400.44
262.872	387.44
263.105	357.44
263.337	379.44
263.57	378.44
263.802	385.44
264.035	371.44
264.267	348.44
264.499	347.44
264.732	360.44
264.964	386.44
265.197	409.44
265.429	414.44
265.661	455.44
265.894	483.44
266.126	482.44
266.358	461.44
266.591	469.44
266.823	473.44
267.055	441.44
267.287	442.44
267.52	422.44
267.752	447.44
267.984	425.44
268.216	439.44
268.448	469.44
268.681	457.44
268.913	424.44
269.145	415.44
269.377	440.44
269.609	442.44
269.841	519.44
270.073	592.44
270.306	619.44
270.538	624.44
270.77	529.44
271.002	481.44
271.234	463.44
271.466	465.44
271.698	516.44
271.93	616.44
272.162	602.44
272.394	533.44
272.626	518.44
272.858	450.44
273.09	419.44
273.322	385.44
273.553	402.44
273.785	381.44
274.017	408.44
274.249	419.44
274.481	427.44
274.713	410.44
274.945	400.44
275.176	398.44
275.408	413.44
275.64	396.44
275.872	400.44
276.104	455.44
276.335	484.44
276.567	532.44
276.799	544.44
277.031	503.44
277.262	456.44
277.494	489.44
277.726	518.44
277.957	522.44
278.189	461.44
278.421	424.44
278.652	423.44
278.884	429.44
279.115	433.44
279.347	428.44
279.579	434.44
279.81	440.44
280.042	496.44
280.273	496.44
280.505	510.44
280.736	499.44
280.968	473.44
281.199	433.44
281.431	407.44
281.662	424.44
281.894	421.44
282.125	430.44
282.356	437.44
282.588	448.44
282.819	460.44
283.051	480.44
283.282	504.44
283.513	486.44
283.745	420.44
283.976	420.44
284.207	425.44
284.439	426.44
284.67	431.44
284.901	464.44
285.132	455.44
285.364	472.44
285.595	453.44
285.826	431.44
286.057	459.44
286.288	428.44
286.52	475.44
286.751	495.44
286.982	497.44
287.213	448.44
287.444	407.44
287.675	435.44
287.906	446.44
288.138	501.44
288.369	471.44
288.6	447.44
288.831	421.44
289.062	437.44
289.293	436.44
289.524	455.44
289.755	455.44
289.986	451.44
290.217	431.44
290.448	431.44
290.679	471.44
290.91	460.44
291.141	462.44
291.371	478.44
291.602	492.44
291.833	471.44
292.064	473.44
292.295	495.44
292.526	512.44
292.757	485.44
292.987	476.44
293.218	485.44
293.449	514.44
293.68	580.44
293.91	573.44
294.141	548.44
294.372	548.44
294.603	552.44
294.833	586.44
295.064	546.44
295.295	494.44
295.525	451.44
295.756	447.44
295.987	439.44
296.217	448.44
296.448	447.44
296.679	440.44
296.909	455.44
297.14	456.44
297.37	467.44
297.601	494.44
297.831	526.44
298.062	516.44
298.292	499.44
298.523	454.44
298.753	457.44
298.984	469.44
299.214	478.44
299.445	481.44
299.675	479.44
299.905	503.44
300.136	482.44
300.366	479.44
300.597	425.44
300.827	456.44
301.057	479.44
301.288	512.44
301.518	491.44
301.748	535.44
301.979	544.44
302.209	552.44
302.439	599.44
302.669	582.44
302.9	555.44
303.13	521.44
303.36	494.44
303.59	505.44
303.82	500.44
304.051	517.44
304.281	517.44
304.511	534.44
304.741	595.44
304.971	607.44
305.201	601.44
305.431	566.44
305.661	485.44
305.891	441.44
306.121	469.44
306.352	464.44
306.582	532.44
306.812	550.44
307.042	577.44
307.272	587.44
307.502	596.44
307.731	623.44
307.961	622.44
308.191	584.44
308.421	525.44
308.651	493.44
308.881	479.44
309.111	507.44
309.341	483.44
309.571	491.44
309.8	486.44
310.03	483.44
310.26	489.44
310.49	489.44
310.72	496.44
310.949	545.44
311.179	534.44
311.409	477.44
311.639	486.44
311.868	481.44
312.098	510.44
312.328	499.44
312.557	509.44
312.787	512.44
313.017	511.44
313.246	507.44
313.476	519.44
313.706	528.44
313.935	530.44
314.165	556.44
314.394	564.44
314.624	598.44
314.853	610.44
315.083	626.44
315.312	628.44
315.542	565.44
315.771	514.44
316.001	528.44
316.23	579.44
316.46	567.44
316.689	569.44
316.919	546.44
317.148	499.44
317.377	544.44
317.607	593.44
317.836	640.44
318.065	643.44
318.295	603.44
318.524	584.44
318.753	565.44
318.983	549.44
319.212	551.44
319.441	532.44
319.67	546.44
319.9	574.44
320.129	585.44
320.358	610.44
320.587	592.44
320.816	606.44
321.046	596.44
321.275	579.44
321.504	580.44
321.733	634.44
321.962	621.44
322.191	581.44
322.42	548.44
322.649	537.44
322.878	552.44
323.108	572.44
323.337	582.44
323.566	552.44
323.795	573.44
324.024	590.44
324.253	555.44
324.482	558.44
324.71	550.44
324.939	542.44
325.168	543.44
325.397	568.44
325.626	585.44
325.855	568.44
326.084	568.44
326.313	562.44
326.542	550.44
326.77	582.44
326.999	566.44
327.228	551.44
327.457	521.44
327.686	547.44
327.914	535.44
328.143	540.44
328.372	560.44
328.6	545.44
328.829	566.44
329.058	539.44
329.287	544.44
329.515	557.44
329.744	571.44
329.972	600.44
330.201	621.44
330.43	613.44
330.658	573.44
330.887	593.44
331.115	613.44
331.344	605.44
331.572	579.44
331.801	573.44
332.03	590.44
332.258	602.44
332.486	594.44
332.715	612.44
332.943	598.44
333.172	596.44
333.4	571.44
333.629	597.44
333.857	693.44
334.085	737.44
334.314	808.44
334.542	831.44
334.771	745.44
334.999	672.44
335.227	631.44
335.455	641.44
335.684	646.44
335.912	636.44
336.14	648.44
336.369	614.44
336.597	584.44
336.825	568.44
337.053	625.44
337.281	641.44
337.51	660.44
337.738	685.44
337.966	648.44
338.194	576.44
338.422	598.44
338.65	601.44
338.878	593.44
339.106	573.44
339.334	557.44
339.562	533.44
339.79	574.44
340.018	604.44
340.246	627.44
340.474	629.44
340.702	632.44
340.93	641.44
341.158	615.44
341.386	607.44
341.614	611.44
341.842	593.44
342.07	598.44
342.298	586.44
342.526	600.44
342.754	582.44
342.981	578.44
343.209	569.44
343.437	613.44
343.665	594.44
343.893	605.44
344.12	644.44
344.348	620.44
344.576	592.44
344.804	583.44
345.031	612.44
345.259	589.44
345.487	559.44
345.714	551.44
345.942	529.44
346.17	545.44
346.397	536.44
346.625	568.44
346.853	533.44
347.08	546.44
347.308	539.44
347.535	552.44
347.763	583.44
347.99	579.44
348.218	551.44
348.445	564.44
348.673	554.44
348.9	584.44
349.128	601.44
349.355	621.44
349.583	603.44
349.81	559.44
350.037	515.44
350.265	539.44
350.492	539.44
350.72	557.44
350.947	575.44
351.174	579.44
351.402	540.44
351.629	516.44
351.856	529.44
352.083	542.44
352.311	533.44
352.538	549.44
352.765	564.44
352.992	577.44
353.22	555.44
353.447	552.44
353.674	581.44
353.901	555.44
354.128	542.44
354.355	535.44
354.583	605.44
354.81	591.44
355.037	565.44
355.264	565.44
355.491	555.44
355.718	570.44
355.945	549.44
356.172	533.44
356.399	533.44
356.626	543.44
356.853	584.44
357.08	630.44
357.307	649.44
357.534	643.44
357.761	558.44
357.988	542.44
358.215	535.44
358.441	541.44
358.668	552.44
358.895	568.44
359.122	604.44
359.349	623.44
359.576	593.44
359.802	539.44
360.029	548.44
360.256	549.44
360.483	545.44
360.709	583.44
360.936	595.44
361.163	617.44
361.39	689.44
361.616	719.44
361.843	685.44
362.07	631.44
362.296	578.44
362.523	555.44
362.749	561.44
362.976	571.44
363.203	591.44
363.429	557.44
363.656	558.44
363.882	597.44
364.109	646.44
364.335	677.44
364.562	626.44
364.788	575.44
365.015	555.44
365.241	555.44
365.468	577.44
365.694	616.44
365.92	604.44
366.147	566.44
366.373	523.44
366.599	535.44
366.826	571.44
367.052	573.44
367.278	580.44
367.505	597.44
367.731	589.44
367.957	605.44
368.184	627.44
368.41	666.44
368.636	670.44
368.862	685.44
369.089	678.44
369.315	641.44
369.541	613.44
369.767	582.44
369.993	582.44
370.219	596.44
370.445	598.44
370.672	649.44
370.898	686.44
371.124	636.44
371.35	610.44
371.576	643.44
371.802	669.44
372.028	623.44
372.254	607.44
372.48	591.44
372.706	585.44
372.932	587.44
373.158	602.44
373.384	612.44
373.61	633.44
373.835	646.44
374.061	629.44
374.287	617.44
374.513	637.44
374.739	614.44
374.965	629.44
375.191	663.44
375.416	637.44
375.642	642.44
375.868	693.44
376.094	719.44
376.319	668.44
376.545	625.44
376.771	651.44
376.997	695.44
377.222	687.44
377.448	674.44
377.674	652.44
377.899	696.44
378.125	720.44
378.35	692.44
378.576	632.44
378.802	604.44
379.027	603.44
379.253	614.44
379.478	608.44
379.704	640.44
379.929	638.44
380.155	653.44
380.38	640.44
380.606	658.44
380.831	657.44
381.057	691.44
381.282	705.44
381.507	707.44
381.733	763.44
381.958	729.44
382.184	686.44
382.409	667.44
382.634	668.44
382.86	689.44
383.085	670.44
383.31	729.44
383.535	778.44
383.761	803.44
383.986	759.44
384.211	731.44
384.436	722.44
384.662	768.44
384.887	747.44
385.112	712.44
385.337	728.44
385.562	732.44
385.787	726.44
386.013	776.44
386.238	763.44
386.463	761.44
386.688	807.44
386.913	863.44
387.138	814.44
387.363	756.44
387.588	781.44
387.813	778.44
388.038	781.44
388.263	814.44
388.488	761.44
388.713	719.44
388.938	749.44
389.163	731.44
389.387	712.44
389.612	726.44
389.837	739.44
390.062	742.44
390.287	752.44
390.512	752.44
390.736	702.44
390.961	711.44
391.186	732.44
391.411	716.44
391.636	732.44
391.86	729.44
392.085	747.44
392.31	741.44
392.534	736.44
392.759	765.44
392.984	769.44
393.208	784.44
393.433	793.44
393.658	823.44
393.882	806.44
394.107	754.44
394.331	736.44
394.556	735.44
394.78	783.44
395.005	793.44
395.229	861.44
395.454	877.44
395.678	857.44
395.903	819.44
396.127	805.44
396.352	796.44
396.576	841.44
396.801	835.44
397.025	823.44
397.249	813.44
397.474	824.44
397.698	804.44
397.922	858.44
398.147	883.44
398.371	923.44
398.595	875.44
398.82	864.44
399.044	881.44
399.268	927.44
399.492	930.44
399.717	983.44
399.941	1000.44
400.165	954.44
400.389	941.44
400.613	983.44
400.837	1125.44
401.062	1199.44
401.286	1017.44
401.51	969.44
401.734	982.44
401.958	931.44
402.182	860.44
402.406	853.44
402.63	889.44
402.854	871.44
403.078	868.44
403.302	872.44
403.526	883.44
403.75	925.44
403.974	916.44
404.198	932.44
404.422	967.44
404.645	1015.44
404.869	961.44
405.093	925.44
405.317	899.44
405.541	906.44
405.765	933.44
405.988	901.44
406.212	940.44
406.436	966.44
406.66	991.44
406.883	1053.44
407.107	1131.44
407.331	1208.44
407.555	1261.44
407.778	1109.44
408.002	974.44
408.226	969.44
408.449	947.44
408.673	911.44
408.896	936.44
409.12	933.44
409.344	913.44
409.567	944.44
409.791	939.44
410.014	972.44
410.238	1018.44
410.461	1041.44
410.685	967.44
410.908	928.44
411.132	963.44
411.355	913.44
411.578	944.44
411.802	933.44
412.025	945.44
412.249	906.44
412.472	892.44
412.695	925.44
412.919	907.44
413.142	935.44
413.365	933.44
413.589	974.44
413.812	983.44
414.035	994.44
414.258	920.44
414.482	916.44
414.705	914.44
414.928	912.44
415.151	901.44
415.374	935.44
415.597	912.44
415.821	927.44
416.044	975.44
416.267	946.44
416.49	893.44
416.713	885.44
416.936	951.44
417.159	975.44
417.382	926.44
417.605	912.44
417.828	935.44
418.051	954.44
418.274	933.44
418.497	904.44
418.72	932.44
418.943	926.44
419.166	968.44
419.389	956.44
419.611	929.44
419.834	906.44
420.057	922.44
420.28	913.44
420.503	911.44
420.726	965.44
420.948	945.44
421.171	897.44
421.394	899.44
421.617	983.44
421.839	948.44
422.062	988.44
422.285	900.44
422.507	905.44
422.73	924.44
422.953	887.44
423.175	882.44
423.398	917.44
423.621	897.44
423.843	936.44
424.066	1005.44
424.288	992.44
424.511	1039.44
424.733	985.44
424.956	897.44
425.178	926.44
425.401	922.44
425.623	956.44
425.846	936.44
426.068	979.44
426.291	977.44
426.513	960.44
426.735	967.44
426.958	1031.44
427.18	1056.44
427.402	1013.44
427.625	1007.44
427.847	971.44
428.069	925.44
428.292	913.44
428.514	875.44
428.736	889.44
428.958	893.44
429.181	900.44
429.403	1071.44
429.625	1250.44
429.847	1021.44
430.069	953.44
430.292	1065.44
430.514	1044.44
430.736	969.44
430.958	985.44
431.18	915.44
431.402	887.44
431.624	848.44
431.846	783.44
432.068	711.44
432.29	754.44
432.512	793.44
432.734	867.44
432.956	908.44
433.178	954.44
433.4	931.44
433.622	952.44
433.844	902.44
434.066	835.44
434.287	805.44
434.509	794.44
434.731	839.44
434.953	911.44
435.175	922.44
435.397	907.44
435.618	901.44
435.84	824.44
436.062	838.44
436.284	901.44
436.505	919.44
436.727	989.44
436.949	917.44
437.17	905.44
437.392	883.44
437.614	864.44
437.835	820.44
438.057	823.44
438.278	835.44
438.5	864.44
438.721	915.44
438.943	945.44
439.165	929.44
439.386	889.44
439.608	952.44
439.829	951.44
440.05	942.44
440.272	957.44
440.493	972.44
440.715	950.44
440.936	1008.44
441.158	1075.44
441.379	1031.44
441.6	1016.44
441.822	991.44
442.043	998.44
442.264	982.44
442.486	954.44
442.707	939.44
442.928	944.44
443.149	947.44
443.371	985.44
443.592	1008.44
443.813	994.44
444.034	977.44
444.255	998.44
444.476	1022.44
444.698	1063.44
444.919	1036.44
445.14	1155.44
445.361	1099.44
445.582	1063.44
445.803	1054.44
446.024	1016.44
446.245	1068.44
446.466	1040.44
446.687	1020.44
446.908	1027.44
447.129	1046.44
447.35	1007.44
447.571	977.44
447.792	949.44
448.013	971.44
448.234	952.44
448.455	973.44
448.675	983.44
448.896	896.44
449.117	923.44
449.338	896.44
449.559	965.44
449.779	984.44
450	1017.44
450.221	1061.44
450.442	1013.44
450.662	930.44
450.883	851.44
451.104	857.44
451.324	872.44
451.545	875.44
451.766	851.44
451.986	813.44
452.207	829.44
452.428	825.44
452.648	806.44
452.869	775.44
453.089	772.44
453.31	816.44
453.53	776.44
453.751	730.44
453.971	723.44
454.192	713.44
454.412	799.44
454.633	787.44
454.853	817.44
455.073	765.44
455.294	762.44
455.514	748.44
455.734	775.44
455.955	729.44
456.175	747.44
456.395	730.44
456.616	725.44
456.836	739.44
457.056	740.44
457.276	704.44
457.497	701.44
457.717	704.44
457.937	699.44
458.157	727.44
458.377	693.44
458.598	668.44
458.818	679.44
459.038	678.44
459.258	692.44
459.478	708.44
459.698	712.44
459.918	722.44
460.138	774.44
460.358	827.44
460.578	847.44
460.798	837.44
461.018	899.44
461.238	857.44
461.458	854.44
461.678	857.44
461.898	816.44
462.118	820.44
462.338	823.44
462.558	842.44
462.777	858.44
462.997	868.44
463.217	887.44
463.437	895.44
463.657	837.44
463.876	823.44
464.096	815.44
464.316	864.44
464.536	835.44
464.755	893.44
464.975	863.44
465.195	880.44
465.414	870.44
465.634	883.44
465.854	883.44
466.073	968.44
466.293	929.44
466.512	877.44
466.732	862.44
466.951	876.44
467.171	897.44
467.391	857.44
467.61	887.44
467.829	888.44
468.049	975.44
468.268	1051.44
468.488	955.44
468.707	931.44
468.927	913.44
469.146	878.44
469.365	916.44
469.585	919.44
469.804	915.44
470.023	933.44
470.243	959.44
470.462	931.44
470.681	928.44
470.901	928.44
471.12	916.44
471.339	913.44
471.558	880.44
471.777	895.44
471.997	865.44
472.216	861.44
472.435	762.44
472.654	762.44
472.873	777.44
473.092	808.44
473.311	823.44
473.53	801.44
473.749	810.44
473.968	845.44
474.187	809.44
474.406	852.44
474.625	843.44
474.844	893.44
475.063	893.44
475.282	851.44
475.501	827.44
475.72	848.44
475.939	893.44
476.158	865.44
476.377	873.44
476.596	841.44
476.814	836.44
477.033	791.44
477.252	840.44
477.471	909.44
477.69	915.44
477.908	932.44
478.127	971.44
478.346	1031.44
478.564	1020.44
478.783	1005.44
479.002	1027.44
479.22	990.44
479.439	1028.44
479.658	1056.44
479.876	1003.44
480.095	907.44
480.313	865.44
480.532	887.44
480.751	864.44
480.969	821.44
481.188	787.44
481.406	758.44
481.624	752.44
481.843	808.44
482.061	826.44
482.28	905.44
482.498	900.44
482.717	833.44
482.935	897.44
483.153	981.44
483.372	1017.44
483.59	980.44
483.808	962.44
484.027	947.44
484.245	999.44
484.463	1223.44
484.681	1295.44
484.9	1029.44
485.118	956.44
485.336	935.44
485.554	925.44
485.772	893.44
485.99	889.44
486.209	889.44
486.427	902.44
486.645	932.44
486.863	1000.44
487.081	1032.44
487.299	990.44
487.517	1013.44
487.735	1112.44
487.953	1229.44
488.171	1184.44
488.389	1133.44
488.607	1088.44
488.825	1117.44
489.043	1015.44
489.261	971.44
489.479	1047.44
489.696	1056.44
489.914	1055.44
490.132	1035.44
490.35	1076.44
490.568	1171.44
490.786	1157.44
491.003	1195.44
491.221	1243.44
491.439	1279.44
491.657	1303.44
491.874	1369.44
492.092	1415.44
492.31	1528.44
492.527	1452.44
492.745	1363.44
492.963	1337.44
493.18	1300.44
493.398	1364.44
493.615	1340.44
493.833	1280.44
494.05	1230.44
494.268	1205.44
494.485	1221.44
494.703	1209.44
494.92	1232.44
495.138	1214.44
495.355	1220.44
495.573	1242.44
495.79	1311.44
496.008	1267.44
496.225	1212.44
496.442	1245.44
496.66	1234.44
496.877	1179.44
497.094	1233.44
497.312	1203.44
497.529	1183.44
497.746	1167.44
497.963	1251.44
498.181	1337.44
498.398	1220.44
498.615	1186.44
498.832	1171.44
499.049	1137.44
499.267	1186.44
499.484	1258.44
499.701	1365.44
499.918	1349.44
500.135	1463.44
500.352	1568.44
500.569	1572.44
500.786	1728.44
501.003	1540.44
501.22	1435.44
501.437	1412.44
501.654	1423.44
501.871	1345.44
502.088	1209.44
502.305	1178.44
502.522	1133.44
502.739	1091.44
502.956	1084.44
503.172	1051.44
503.389	1024.44
503.606	989.44
503.823	995.44
504.04	986.44
504.256	1007.44
504.473	990.44
504.69	994.44
504.907	981.44
505.123	968.44
505.34	1075.44
505.557	1361.44
505.773	1090.44
505.99	943.44
506.207	907.44
506.423	910.44
506.64	892.44
506.856	923.44
507.073	1013.44
507.289	1060.44
507.506	967.44
507.722	889.44
507.939	858.44
508.155	844.44
508.372	871.44
508.588	827.44
508.805	827.44
509.021	805.44
509.238	736.44
509.454	754.44
509.67	753.44
509.887	716.44
510.103	729.44
510.319	729.44
510.536	765.44
510.752	783.44
510.968	767.44
511.184	823.44
511.401	773.44
511.617	693.44
511.833	696.44
512.049	701.44
512.265	697.44
512.481	739.44
512.698	719.44
512.914	763.44
513.13	753.44
513.346	715.44
513.562	697.44
513.778	726.44
513.994	737.44
514.21	760.44
514.426	744.44
514.642	824.44
514.858	782.44
515.074	696.44
515.29	732.44
515.506	726.44
515.721	712.44
515.937	751.44
516.153	811.44
516.369	776.44
516.585	745.44
516.801	728.44
517.016	724.44
517.232	753.44
517.448	780.44
517.664	769.44
517.879	823.44
518.095	827.44
518.311	783.44
518.527	766.44
518.742	731.44
518.958	750.44
519.173	749.44
519.389	793.44
519.605	801.44
519.82	776.44
520.036	806.44
520.251	774.44
520.467	774.44
520.682	793.44
520.898	800.44
521.113	721.44
521.329	707.44
521.544	755.44
521.76	729.44
521.975	713.44
522.19	719.44
522.406	721.44
522.621	920.44
522.836	854.44
523.052	768.44
523.267	734.44
523.482	745.44
523.698	742.44
523.913	704.44
524.128	732.44
524.343	808.44
524.559	809.44
524.774	785.44
524.989	778.44
525.204	760.44
525.419	725.44
525.634	724.44
525.849	739.44
526.064	717.44
526.28	709.44
526.495	662.44
526.71	649.44
526.925	614.44
527.14	600.44
527.355	616.44
527.57	622.44
527.785	645.44
527.999	659.44
528.214	675.44
528.429	698.44
528.644	739.44
528.859	785.44
529.074	813.44
529.289	872.44
529.503	888.44
529.718	819.44
529.933	710.44
530.148	678.44
530.363	651.44
530.577	646.44
530.792	626.44
531.007	652.44
531.221	621.44
531.436	632.44
531.651	641.44
531.865	677.44
532.08	669.44
532.295	604.44
532.509	601.44
532.724	613.44
532.938	679.44
533.153	707.44
533.367	718.44
533.582	739.44
533.796	737.44
534.011	719.44
534.225	663.44
534.44	626.44
534.654	605.44
534.868	673.44
535.083	695.44
535.297	675.44
535.511	675.44
535.726	683.44
535.94	671.44
536.154	660.44
536.369	609.44
536.583	591.44
536.797	608.44
537.011	600.44
537.225	580.44
537.44	617.44
537.654	633.44
537.868	601.44
538.082	581.44
538.296	589.44
538.51	605.44
538.724	655.44
538.938	685.44
539.153	739.44
539.367	693.44
539.581	672.44
539.795	659.44
540.009	642.44
540.222	615.44
540.436	673.44
540.65	759.44
540.864	784.44
541.078	801.44
541.292	840.44
541.506	888.44
541.72	938.44
541.934	1027.44
542.147	1053.44
542.361	989.44
542.575	911.44
542.789	831.44
543.002	749.44
543.216	733.44
543.43	747.44
543.644	784.44
543.857	871.44
544.071	909.44
544.285	923.44
544.498	908.44
544.712	900.44
544.925	953.44
545.139	964.44
545.352	931.44
545.566	918.44
545.779	919.44
545.993	946.44
546.206	983.44
546.42	950.44
546.633	919.44
546.847	951.44
547.06	964.44
547.274	977.44
547.487	975.44
547.7	977.44
547.914	934.44
548.127	947.44
548.34	942.44
548.554	917.44
548.767	935.44
548.98	911.44
549.193	902.44
549.407	948.44
549.62	926.44
549.833	906.44
550.046	912.44
550.259	902.44
550.473	872.44
550.686	887.44
550.899	850.44
551.112	849.44
551.325	834.44
551.538	831.44
551.751	830.44
551.964	665.44
552.177	718.44
552.39	788.44
552.603	831.44
552.816	834.44
553.029	931.44
553.242	923.44
553.455	919.44
553.667	894.44
553.88	891.44
554.093	852.44
554.306	864.44
554.519	823.44
554.732	826.44
554.944	831.44
555.157	830.44
555.37	832.44
555.583	795.44
555.795	776.44
556.008	714.44
556.221	694.44
556.433	704.44
556.646	725.44
556.859	729.44
557.071	728.44
557.284	755.44
557.496	760.44
557.709	751.44
557.921	736.44
558.134	692.44
558.346	694.44
558.559	713.44
558.771	709.44
558.984	669.44
559.196	676.44
559.409	676.44
559.621	665.44
559.833	659.44
560.046	659.44
560.258	671.44
560.47	681.44
560.683	685.44
560.895	685.44
561.107	652.44
561.32	671.44
561.532	663.44
561.744	666.44
561.956	694.44
562.168	655.44
562.381	656.44
562.593	643.44
562.805	624.44
563.017	609.44
563.229	645.44
563.441	613.44
563.653	629.44
563.865	613.44
564.077	596.44
564.289	603.44
564.501	613.44
564.713	622.44
564.925	636.44
565.137	677.44
565.349	641.44
565.561	610.44
565.773	601.44
565.985	613.44
566.197	678.44
566.408	696.44
566.62	661.44
566.832	671.44
567.044	658.44
567.255	662.44
567.467	652.44
567.679	641.44
567.891	655.44
568.102	627.44
568.314	589.44
568.526	534.44
568.737	506.44
568.949	485.44
569.161	456.44
569.372	469.44
569.584	452.44
569.795	449.44
570.007	452.44
570.218	436.44
570.43	423.44
570.641	448.44
570.853	460.44
571.064	482.44
571.276	479.44
571.487	454.44
571.698	464.44
571.91	455.44
572.121	447.44
572.333	436.44
572.544	416.44
572.755	421.44
572.966	406.44
573.178	392.44
573.389	380.44
573.6	407.44
573.811	451.44
574.023	386.44
574.234	414.44
574.445	368.44
574.656	386.44
574.867	403.44
575.078	421.44
575.289	414.44
575.501	380.44
575.712	393.44
575.923	381.44
576.134	395.44
576.345	395.44
576.556	386.44
576.767	386.44
576.978	391.44
577.188	378.44
577.399	389.44
577.61	379.44
577.821	358.44
578.032	358.44
578.243	383.44
578.454	355.44
578.665	360.44
578.875	346.44
579.086	315.44
579.297	339.44
579.508	345.44
579.718	345.44
579.929	350.44
580.14	335.44
580.35	338.44
580.561	352.44
580.772	379.44
580.982	367.44
581.193	336.44
581.403	341.44
581.614	350.44
581.825	333.44
582.035	342.44
582.246	331.44
582.456	328.44
582.667	349.44
582.877	325.44
583.087	357.44
583.298	329.44
583.508	324.44
583.719	328.44
583.929	338.44
584.139	335.44
584.35	333.44
584.56	329.44
584.77	337.44
584.981	324.44
585.191	308.44
585.401	335.44
585.611	322.44
585.821	326.44
586.032	307.44
586.242	318.44
586.452	301.44
586.662	317.44
586.872	303.44
587.082	316.44
587.292	324.44
587.502	330.44
587.713	331.44
587.923	294.44
588.133	307.44
588.343	296.44
588.553	283.44
588.762	327.44
588.972	312.44
589.182	319.44
589.392	309.44
589.602	328.44
589.812	310.44
590.022	326.44
590.232	306.44
590.441	312.44
590.651	309.44
590.861	312.44
591.071	294.44
591.281	302.44
591.49	307.44
591.7	307.44
591.91	296.44
592.119	305.44
592.329	312.44
592.539	334.44
592.748	320.44
592.958	312.44
593.167	314.44
593.377	301.44
593.587	339.44
593.796	324.44
594.006	323.44
594.215	317.44
594.424	325.44
594.634	336.44
594.843	349.44
595.053	339.44
595.262	327.44
595.472	315.44
595.681	308.44
595.89	313.44
596.1	330.44
596.309	317.44
596.518	311.44
596.727	345.44
596.937	335.44
597.146	310.44
597.355	302.44
597.564	303.44
597.774	283.44
597.983	284.44
598.192	295.44
598.401	298.44
598.61	279.44
598.819	264.44
599.028	289.44
599.237	283.44
599.446	288.44
599.655	289.44
599.864	304.44
600.073	291.44
600.282	294.44
600.491	287.44
600.7	284.44
600.909	303.44
601.118	315.44
601.327	320.44
601.536	329.44
601.745	364.44
601.953	346.44
602.162	348.44
602.371	345.44
602.58	353.44
602.789	346.44
602.997	327.44
603.206	356.44
603.415	340.44
603.623	329.44
603.832	348.44
604.041	313.44
604.249	311.44
604.458	311.44
604.666	283.44
604.875	294.44
605.084	329.44
605.292	312.44
605.501	340.44
605.709	350.44
605.918	341.44
606.126	356.44
606.334	359.44
606.543	366.44
606.751	368.44
606.96	351.44
607.168	352.44
607.376	330.44
607.585	349.44
607.793	337.44
608.001	373.44
608.21	356.44
608.418	354.44
608.626	368.44
608.834	367.44
609.043	349.44
609.251	356.44
609.459	344.44
609.667	355.44
609.875	371.44
610.083	386.44
610.291	359.44
610.499	340.44
610.707	349.44
610.916	373.44
611.124	367.44
611.332	371.44
611.54	359.44
611.748	350.44
611.955	348.44
612.163	357.44
612.371	357.44
612.579	340.44
612.787	349.44
612.995	356.44
613.203	355.44
613.411	344.44
613.618	335.44
613.826	354.44
614.034	352.44
614.242	363.44
614.449	345.44
614.657	363.44
614.865	340.44
615.072	355.44
615.28	355.44
615.488	355.44
615.695	355.44
615.903	359.44
616.111	340.44
616.318	347.44
616.526	352.44
616.733	333.44
616.941	335.44
617.148	343.44
617.356	331.44
617.563	342.44
617.771	331.44
617.978	323.44
618.185	338.44
618.393	329.44
618.6	320.44
618.807	323.44
619.015	325.44
619.222	330.44
619.429	338.44
619.637	295.44
619.844	293.44
620.051	297.44
620.258	311.44
620.466	307.44
620.673	302.44
620.88	306.44
621.087	308.44
621.294	302.44
621.501	305.44
621.708	298.44
621.915	293.44
622.122	314.44
622.329	322.44
622.536	339.44
622.743	317.44
622.95	305.44
623.157	304.44
623.364	323.44
623.571	323.44
623.778	332.44
623.985	333.44
624.192	303.44
624.399	308.44
624.606	307.44
624.812	278.44
625.019	296.44
625.226	290.44
625.433	272.44
625.639	280.44
625.846	263.44
626.053	243.44
626.259	242.44
626.466	241.44
626.673	239.44
626.879	237.44
627.086	256.44
627.293	269.44
627.499	304.44
627.706	265.44
627.912	317.44
628.119	299.44
628.325	296.44
628.532	296.44
628.738	291.44
628.945	293.44
629.151	273.44
629.357	283.44
629.564	284.44
629.77	283.44
629.976	269.44
630.183	259.44
630.389	263.44
630.595	276.44
630.802	275.44
631.008	281.44
631.214	276.44
631.42	262.44
631.627	251.44
631.833	251.44
632.039	260.44
632.245	257.44
632.451	239.44
632.657	259.44
632.863	265.44
633.069	262.44
633.275	256.44
633.481	232.44
633.688	241.44
633.893	258.44
634.099	263.44
634.305	239.44
634.511	245.44
634.717	253.44
634.923	215.44
635.129	224.44
635.335	223.44
635.541	231.44
635.747	247.44
635.952	240.44
636.158	274.44
636.364	261.44
636.57	245.44
636.775	262.44
636.981	244.44
637.187	252.44
637.392	262.44
637.598	263.44
637.804	256.44
638.009	266.44
638.215	242.44
638.421	253.44
638.626	241.44
638.832	253.44
639.037	252.44
639.243	239.44
639.448	240.44
639.654	240.44
639.859	228.44
640.065	237.44
640.27	237.44
640.475	242.44
640.681	247.44
640.886	245.44
641.091	241.44
641.297	244.44
641.502	241.44
641.707	260.44
641.913	242.44
642.118	232.44
642.323	235.44
642.528	235.44
642.733	251.44
642.939	241.44
643.144	237.44
643.349	253.44
643.554	230.44
643.759	242.44
643.964	230.44
644.169	240.44
644.374	235.44
644.579	235.44
644.784	241.44
644.989	244.44
645.194	237.44
645.399	253.44
645.604	220.44
645.809	235.44
646.014	262.44
646.219	249.44
646.423	233.44
646.628	251.44
646.833	235.44
647.038	240.44
647.243	248.44
647.447	246.44
647.652	223.44
647.857	227.44
648.062	249.44
648.266	226.44
648.471	224.44
648.676	230.44
648.88	230.44
649.085	236.44
649.289	233.44
649.494	219.44
649.698	239.44
649.903	241.44
650.107	224.44
650.312	210.44
650.516	216.44
650.721	222.44
650.925	226.44
651.13	228.44
651.334	211.44
651.539	211.44
651.743	214.44
651.947	219.44
652.152	205.44
652.356	212.44
652.56	213.44
652.764	198.44
652.969	201.44
653.173	196.44
653.377	198.44
653.581	201.44
653.785	216.44
653.99	204.44
654.194	189.44
654.398	203.44
654.602	173.44
654.806	190.44
655.01	203.44
655.214	187.44
655.418	193.44
655.622	205.44
655.826	197.44
656.03	224.44
656.234	224.44
656.438	238.44
656.642	224.44
656.846	204.44
657.049	220.44
657.253	201.44
657.457	207.44
657.661	165.44
657.865	155.44
658.068	158.44
658.272	147.44
658.476	168.44
658.68	148.44
658.883	133.44
659.087	137.44
659.291	140.44
659.494	126.44
659.698	120.44
659.901	122.44
660.105	128.44
660.309	124.44
660.512	129.44
660.716	118.44
660.919	104.44
661.123	116.44
661.326	117.44
661.53	98.44
661.733	100.44
661.936	79.44
662.14	93.44
662.343	101.44
662.546	95.44
662.75	88.44
662.953	87.44
663.156	83.44
663.36	72.44
663.563	78.44
663.766	84.44
663.969	98.44
664.173	64.44
664.376	85.44
664.579	79.44
664.782	86.44
664.985	81.44
665.188	77.44
665.391	75.44
665.594	84.44
665.797	75.44
666	80.44
666.203	80.44
666.406	78.44
666.609	79.44
666.812	82.44
667.015	81.44
667.218	58.44
667.421	82.44
667.624	75.44
667.827	80.44
668.03	83.44
668.232	81.44
668.435	72.44
668.638	81.44
668.841	84.44
669.043	77.44
669.246	86.44
669.449	77.44
669.651	83.44
669.854	75.44
670.057	78.44
670.259	68.44
670.462	80.44
670.665	83.44
670.867	65.44
671.07	74.44
671.272	67.44
671.475	92.44
671.677	75.44
671.88	73.44
672.082	67.44
672.284	69.44
672.487	81.44
672.689	63.44
672.892	73.44
