Data from WStandard_LampEnergy10_LIBS07252019.E.O._I.C._HRD10591_15-55-00-928.txt Node
Date: Thu Jul 25 15:55:00 EDT 2019
User: cochatt
Spectrometer: HR+D1059
Trigger mode: 1
Integration Time (sec): 1.000000E-1
Scans to average: 1
Electric dark correction enabled: true
Nonlinearity correction enabled: false
Boxcar width: 0
XAxis mode: Wavelengths
Number of Pixels in Spectrum: 2048
>>>>>Begin Spectral Data<<<<<
223.165	-14.38
223.4	-14.38
223.635	-14.38
223.869	-11.38
224.104	-11.38
224.338	-17.38
224.573	-17.38
224.808	-16.38
225.042	-23.38
225.277	-5.38
225.511	-3.38
225.746	-5.38
225.98	4.62
226.215	16.62
226.449	18.62
226.683	25.62
226.918	30.62
227.152	29.62
227.387	40.62
227.621	42.62
227.856	44.62
228.09	38.62
228.324	36.62
228.559	50.62
228.793	76.62
229.027	133.62
229.262	145.62
229.496	141.62
229.73	159.62
229.964	179.62
230.199	184.62
230.433	165.62
230.667	197.62
230.901	180.62
231.136	169.62
231.37	176.62
231.604	153.62
231.838	149.62
232.072	173.62
232.306	181.62
232.541	176.62
232.775	218.62
233.009	204.62
233.243	192.62
233.477	196.62
233.711	200.62
233.945	200.62
234.179	185.62
234.413	201.62
234.647	212.62
234.881	201.62
235.115	191.62
235.349	190.62
235.583	193.62
235.817	195.62
236.051	180.62
236.285	213.62
236.519	209.62
236.753	220.62
236.987	221.62
237.221	226.62
237.455	239.62
237.689	224.62
237.922	212.62
238.156	220.62
238.39	222.62
238.624	225.62
238.858	245.62
239.091	242.62
239.325	273.62
239.559	291.62
239.793	284.62
240.027	310.62
240.26	285.62
240.494	245.62
240.728	250.62
240.961	237.62
241.195	244.62
241.429	257.62
241.662	256.62
241.896	257.62
242.13	227.62
242.363	282.62
242.597	280.62
242.83	276.62
243.064	286.62
243.298	288.62
243.531	293.62
243.765	278.62
243.998	284.62
244.232	240.62
244.465	259.62
244.699	268.62
244.932	289.62
245.166	307.62
245.399	308.62
245.633	278.62
245.866	280.62
246.099	292.62
246.333	289.62
246.566	308.62
246.8	329.62
247.033	351.62
247.266	329.62
247.5	306.62
247.733	313.62
247.966	336.62
248.2	364.62
248.433	346.62
248.666	366.62
248.899	380.62
249.133	425.62
249.366	458.62
249.599	392.62
249.832	376.62
250.066	383.62
250.299	351.62
250.532	332.62
250.765	319.62
250.998	345.62
251.231	320.62
251.465	355.62
251.698	339.62
251.931	337.62
252.164	341.62
252.397	378.62
252.63	370.62
252.863	317.62
253.096	338.62
253.329	341.62
253.562	346.62
253.795	372.62
254.028	335.62
254.261	349.62
254.494	330.62
254.727	324.62
254.96	353.62
255.193	401.62
255.426	407.62
255.659	471.62
255.892	452.62
256.124	390.62
256.357	360.62
256.59	387.62
256.823	412.62
257.056	426.62
257.289	507.62
257.521	490.62
257.754	464.62
257.987	432.62
258.22	464.62
258.452	457.62
258.685	378.62
258.918	368.62
259.151	376.62
259.383	394.62
259.616	351.62
259.849	348.62
260.081	412.62
260.314	444.62
260.547	472.62
260.779	458.62
261.012	431.62
261.244	406.62
261.477	399.62
261.71	395.62
261.942	406.62
262.175	412.62
262.407	402.62
262.64	392.62
262.872	394.62
263.105	353.62
263.337	366.62
263.57	382.62
263.802	386.62
264.035	337.62
264.267	332.62
264.499	356.62
264.732	381.62
264.964	400.62
265.197	393.62
265.429	428.62
265.661	462.62
265.894	488.62
266.126	485.62
266.358	465.62
266.591	478.62
266.823	500.62
267.055	432.62
267.287	436.62
267.52	433.62
267.752	455.62
267.984	433.62
268.216	462.62
268.448	493.62
268.681	464.62
268.913	422.62
269.145	416.62
269.377	413.62
269.609	447.62
269.841	511.62
270.073	575.62
270.306	627.62
270.538	611.62
270.77	538.62
271.002	488.62
271.234	454.62
271.466	477.62
271.698	516.62
271.93	581.62
272.162	579.62
272.394	546.62
272.626	520.62
272.858	449.62
273.09	400.62
273.322	402.62
273.553	401.62
273.785	404.62
274.017	432.62
274.249	440.62
274.481	455.62
274.713	432.62
274.945	415.62
275.176	393.62
275.408	391.62
275.64	417.62
275.872	411.62
276.104	446.62
276.335	512.62
276.567	533.62
276.799	529.62
277.031	487.62
277.262	484.62
277.494	517.62
277.726	529.62
277.957	500.62
278.189	475.62
278.421	463.62
278.652	434.62
278.884	407.62
279.115	426.62
279.347	444.62
279.579	436.62
279.81	430.62
280.042	499.62
280.273	493.62
280.505	528.62
280.736	525.62
280.968	486.62
281.199	430.62
281.431	419.62
281.662	418.62
281.894	425.62
282.125	430.62
282.356	460.62
282.588	462.62
282.819	443.62
283.051	498.62
283.282	506.62
283.513	499.62
283.745	436.62
283.976	441.62
284.207	416.62
284.439	447.62
284.67	435.62
284.901	451.62
285.132	456.62
285.364	449.62
285.595	458.62
285.826	448.62
286.057	469.62
286.288	442.62
286.52	480.62
286.751	476.62
286.982	488.62
287.213	438.62
287.444	425.62
287.675	442.62
287.906	452.62
288.138	492.62
288.369	454.62
288.6	438.62
288.831	433.62
289.062	415.62
289.293	446.62
289.524	453.62
289.755	478.62
289.986	475.62
290.217	447.62
290.448	443.62
290.679	474.62
290.91	462.62
291.141	482.62
291.371	481.62
291.602	465.62
291.833	471.62
292.064	498.62
292.295	474.62
292.526	501.62
292.757	523.62
292.987	492.62
293.218	504.62
293.449	527.62
293.68	573.62
293.91	589.62
294.141	567.62
294.372	548.62
294.603	569.62
294.833	570.62
295.064	541.62
295.295	508.62
295.525	466.62
295.756	471.62
295.987	448.62
296.217	466.62
296.448	466.62
296.679	456.62
296.909	446.62
297.14	466.62
297.37	476.62
297.601	503.62
297.831	539.62
298.062	542.62
298.292	485.62
298.523	469.62
298.753	482.62
298.984	460.62
299.214	494.62
299.445	485.62
299.675	471.62
299.905	500.62
300.136	479.62
300.366	474.62
300.597	459.62
300.827	454.62
301.057	504.62
301.288	514.62
301.518	517.62
301.748	538.62
301.979	553.62
302.209	543.62
302.439	564.62
302.669	609.62
302.9	550.62
303.13	520.62
303.36	501.62
303.59	526.62
303.82	516.62
304.051	521.62
304.281	528.62
304.511	546.62
304.741	580.62
304.971	630.62
305.201	636.62
305.431	570.62
305.661	502.62
305.891	448.62
306.121	452.62
306.352	482.62
306.582	510.62
306.812	556.62
307.042	578.62
307.272	566.62
307.502	605.62
307.731	622.62
307.961	636.62
308.191	583.62
308.421	542.62
308.651	494.62
308.881	494.62
309.111	496.62
309.341	479.62
309.571	503.62
309.8	501.62
310.03	485.62
310.26	502.62
310.49	500.62
310.72	514.62
310.949	536.62
311.179	538.62
311.409	521.62
311.639	512.62
311.868	522.62
312.098	524.62
312.328	492.62
312.557	499.62
312.787	514.62
313.017	506.62
313.246	528.62
313.476	530.62
313.706	525.62
313.935	551.62
314.165	544.62
314.394	544.62
314.624	574.62
314.853	603.62
315.083	631.62
315.312	620.62
315.542	586.62
315.771	535.62
316.001	551.62
316.23	571.62
316.46	554.62
316.689	554.62
316.919	510.62
317.148	528.62
317.377	542.62
317.607	577.62
317.836	642.62
318.065	646.62
318.295	621.62
318.524	601.62
318.753	568.62
318.983	566.62
319.212	563.62
319.441	537.62
319.67	554.62
319.9	562.62
320.129	592.62
320.358	615.62
320.587	632.62
320.816	603.62
321.046	597.62
321.275	585.62
321.504	586.62
321.733	627.62
321.962	594.62
322.191	590.62
322.42	576.62
322.649	560.62
322.878	536.62
323.108	568.62
323.337	581.62
323.566	540.62
323.795	557.62
324.024	577.62
324.253	571.62
324.482	584.62
324.71	528.62
324.939	558.62
325.168	541.62
325.397	572.62
325.626	555.62
325.855	580.62
326.084	561.62
326.313	548.62
326.542	574.62
326.77	562.62
326.999	579.62
327.228	540.62
327.457	532.62
327.686	549.62
327.914	541.62
328.143	552.62
328.372	593.62
328.6	548.62
328.829	561.62
329.058	564.62
329.287	557.62
329.515	564.62
329.744	581.62
329.972	617.62
330.201	623.62
330.43	617.62
330.658	584.62
330.887	588.62
331.115	634.62
331.344	600.62
331.572	565.62
331.801	582.62
332.03	589.62
332.258	604.62
332.486	606.62
332.715	616.62
332.943	610.62
333.172	588.62
333.4	622.62
333.629	640.62
333.857	688.62
334.085	762.62
334.314	835.62
334.542	870.62
334.771	763.62
334.999	675.62
335.227	647.62
335.455	634.62
335.684	638.62
335.912	676.62
336.14	657.62
336.369	628.62
336.597	610.62
336.825	611.62
337.053	634.62
337.281	656.62
337.51	685.62
337.738	707.62
337.966	654.62
338.194	606.62
338.422	600.62
338.65	573.62
338.878	566.62
339.106	559.62
339.334	554.62
339.562	593.62
339.79	585.62
340.018	634.62
340.246	646.62
340.474	637.62
340.702	609.62
340.93	604.62
341.158	600.62
341.386	607.62
341.614	650.62
341.842	611.62
342.07	578.62
342.298	607.62
342.526	611.62
342.754	569.62
342.981	590.62
343.209	623.62
343.437	583.62
343.665	610.62
343.893	647.62
344.12	654.62
344.348	623.62
344.576	588.62
344.804	580.62
345.031	605.62
345.259	598.62
345.487	596.62
345.714	573.62
345.942	545.62
346.17	576.62
346.397	575.62
346.625	580.62
346.853	543.62
347.08	554.62
347.308	546.62
347.535	574.62
347.763	586.62
347.99	581.62
348.218	539.62
348.445	531.62
348.673	582.62
348.9	578.62
349.128	595.62
349.355	610.62
349.583	596.62
349.81	566.62
350.037	564.62
350.265	520.62
350.492	561.62
350.72	569.62
350.947	591.62
351.174	575.62
351.402	536.62
351.629	536.62
351.856	540.62
352.083	547.62
352.311	542.62
352.538	565.62
352.765	586.62
352.992	580.62
353.22	572.62
353.447	558.62
353.674	574.62
353.901	572.62
354.128	560.62
354.355	577.62
354.583	601.62
354.81	593.62
355.037	588.62
355.264	585.62
355.491	571.62
355.718	585.62
355.945	569.62
356.172	540.62
356.399	540.62
356.626	545.62
356.853	581.62
357.08	628.62
357.307	720.62
357.534	651.62
357.761	573.62
357.988	556.62
358.215	548.62
358.441	563.62
358.668	543.62
358.895	550.62
359.122	606.62
359.349	636.62
359.576	623.62
359.802	551.62
360.029	544.62
360.256	550.62
360.483	562.62
360.709	590.62
360.936	600.62
361.163	648.62
361.39	686.62
361.616	706.62
361.843	696.62
362.07	639.62
362.296	570.62
362.523	552.62
362.749	556.62
362.976	580.62
363.203	589.62
363.429	586.62
363.656	583.62
363.882	579.62
364.109	666.62
364.335	680.62
364.562	613.62
364.788	600.62
365.015	561.62
365.241	560.62
365.468	575.62
365.694	593.62
365.92	609.62
366.147	593.62
366.373	575.62
366.599	569.62
366.826	571.62
367.052	568.62
367.278	572.62
367.505	594.62
367.731	602.62
367.957	605.62
368.184	658.62
368.41	694.62
368.636	669.62
368.862	673.62
369.089	645.62
369.315	632.62
369.541	611.62
369.767	615.62
369.993	570.62
370.219	592.62
370.445	617.62
370.672	660.62
370.898	672.62
371.124	653.62
371.35	629.62
371.576	652.62
371.802	661.62
372.028	640.62
372.254	590.62
372.48	598.62
372.706	603.62
372.932	639.62
373.158	600.62
373.384	611.62
373.61	652.62
373.835	670.62
374.061	622.62
374.287	644.62
374.513	622.62
374.739	644.62
374.965	628.62
375.191	653.62
375.416	651.62
375.642	660.62
375.868	696.62
376.094	697.62
376.319	669.62
376.545	646.62
376.771	662.62
376.997	682.62
377.222	677.62
377.448	672.62
377.674	685.62
377.899	677.62
378.125	715.62
378.35	704.62
378.576	632.62
378.802	647.62
379.027	633.62
379.253	648.62
379.478	618.62
379.704	641.62
379.929	633.62
380.155	639.62
380.38	654.62
380.606	664.62
380.831	663.62
381.057	714.62
381.282	685.62
381.507	702.62
381.733	733.62
381.958	737.62
382.184	698.62
382.409	674.62
382.634	684.62
382.86	656.62
383.085	675.62
383.31	723.62
383.535	780.62
383.761	829.62
383.986	777.62
384.211	726.62
384.436	741.62
384.662	758.62
384.887	788.62
385.112	729.62
385.337	755.62
385.562	733.62
385.787	730.62
386.013	778.62
386.238	748.62
386.463	772.62
386.688	826.62
386.913	857.62
387.138	814.62
387.363	774.62
387.588	755.62
387.813	784.62
388.038	777.62
388.263	802.62
388.488	769.62
388.713	709.62
388.938	740.62
389.163	733.62
389.387	744.62
389.612	735.62
389.837	773.62
390.062	767.62
390.287	760.62
390.512	735.62
390.736	720.62
390.961	724.62
391.186	718.62
391.411	721.62
391.636	737.62
391.86	750.62
392.085	771.62
392.31	750.62
392.534	732.62
392.759	745.62
392.984	762.62
393.208	800.62
393.433	776.62
393.658	823.62
393.882	832.62
394.107	768.62
394.331	772.62
394.556	749.62
394.78	783.62
395.005	816.62
395.229	831.62
395.454	886.62
395.678	861.62
395.903	817.62
396.127	821.62
396.352	824.62
396.576	842.62
396.801	843.62
397.025	836.62
397.249	844.62
397.474	820.62
397.698	828.62
397.922	881.62
398.147	880.62
398.371	921.62
398.595	904.62
398.82	887.62
399.044	893.62
399.268	929.62
399.492	973.62
399.717	969.62
399.941	984.62
400.165	983.62
400.389	970.62
400.613	1021.62
400.837	1159.62
401.062	1189.62
401.286	1008.62
401.51	987.62
401.734	978.62
401.958	937.62
402.182	915.62
402.406	884.62
402.63	880.62
402.854	873.62
403.078	903.62
403.302	896.62
403.526	920.62
403.75	935.62
403.974	933.62
404.198	912.62
404.422	970.62
404.645	1013.62
404.869	948.62
405.093	907.62
405.317	889.62
405.541	909.62
405.765	930.62
405.988	920.62
406.212	951.62
406.436	963.62
406.66	978.62
406.883	1030.62
407.107	1132.62
407.331	1231.62
407.555	1296.62
407.778	1100.62
408.002	1006.62
408.226	987.62
408.449	983.62
408.673	954.62
408.896	951.62
409.12	974.62
409.344	944.62
409.567	936.62
409.791	926.62
410.014	992.62
410.238	1030.62
410.461	1056.62
410.685	958.62
410.908	888.62
411.132	932.62
411.355	928.62
411.578	918.62
411.802	949.62
412.025	947.62
412.249	948.62
412.472	924.62
412.695	876.62
412.919	916.62
413.142	895.62
413.365	914.62
413.589	954.62
413.812	990.62
414.035	991.62
414.258	943.62
414.482	913.62
414.705	949.62
414.928	905.62
415.151	915.62
415.374	936.62
415.597	929.62
415.821	941.62
416.044	909.62
416.267	941.62
416.49	910.62
416.713	914.62
416.936	928.62
417.159	962.62
417.382	944.62
417.605	907.62
417.828	942.62
418.051	958.62
418.274	939.62
418.497	930.62
418.72	931.62
418.943	917.62
419.166	935.62
419.389	979.62
419.611	966.62
419.834	931.62
420.057	941.62
420.28	930.62
420.503	938.62
420.726	967.62
420.948	924.62
421.171	898.62
421.394	944.62
421.617	1002.62
421.839	1004.62
422.062	985.62
422.285	928.62
422.507	926.62
422.73	899.62
422.953	892.62
423.175	910.62
423.398	917.62
423.621	899.62
423.843	924.62
424.066	987.62
424.288	992.62
424.511	1033.62
424.733	1022.62
424.956	942.62
425.178	910.62
425.401	957.62
425.623	951.62
425.846	932.62
426.068	1001.62
426.291	957.62
426.513	947.62
426.735	942.62
426.958	1033.62
427.18	1073.62
427.402	968.62
427.625	1018.62
427.847	986.62
428.069	927.62
428.292	918.62
428.514	909.62
428.736	922.62
428.958	942.62
429.181	928.62
429.403	1096.62
429.625	1256.62
429.847	1063.62
430.069	948.62
430.292	1052.62
430.514	1033.62
430.736	986.62
430.958	988.62
431.18	921.62
431.402	893.62
431.624	844.62
431.846	784.62
432.068	724.62
432.29	773.62
432.512	812.62
432.734	860.62
432.956	943.62
433.178	970.62
433.4	957.62
433.622	963.62
433.844	901.62
434.066	857.62
434.287	815.62
434.509	798.62
434.731	823.62
434.953	916.62
435.175	916.62
435.397	894.62
435.618	882.62
435.84	848.62
436.062	860.62
436.284	905.62
436.505	940.62
436.727	973.62
436.949	906.62
437.17	915.62
437.392	888.62
437.614	859.62
437.835	810.62
438.057	836.62
438.278	852.62
438.5	850.62
438.721	881.62
438.943	914.62
439.165	924.62
439.386	917.62
439.608	959.62
439.829	958.62
440.05	958.62
440.272	969.62
440.493	939.62
440.715	987.62
440.936	1023.62
441.158	1084.62
441.379	1061.62
441.6	1045.62
441.822	1012.62
442.043	999.62
442.264	969.62
442.486	963.62
442.707	968.62
442.928	922.62
443.149	980.62
443.371	1004.62
443.592	1022.62
443.813	997.62
444.034	1005.62
444.255	1029.62
444.476	1023.62
444.698	1001.62
444.919	1058.62
445.14	1138.62
445.361	1090.62
445.582	1087.62
445.803	1069.62
446.024	1050.62
446.245	1079.62
446.466	1044.62
446.687	1025.62
446.908	1074.62
447.129	1020.62
447.35	1040.62
447.571	976.62
447.792	976.62
448.013	983.62
448.234	976.62
448.455	1018.62
448.675	994.62
448.896	934.62
449.117	906.62
449.338	935.62
449.559	969.62
449.779	966.62
450	1033.62
450.221	1058.62
450.442	1012.62
450.662	917.62
450.883	838.62
451.104	884.62
451.324	878.62
451.545	892.62
451.766	863.62
451.986	839.62
452.207	824.62
452.428	812.62
452.648	785.62
452.869	779.62
453.089	796.62
453.31	778.62
453.53	768.62
453.751	742.62
453.971	682.62
454.192	736.62
454.412	782.62
454.633	782.62
454.853	776.62
455.073	766.62
455.294	759.62
455.514	755.62
455.734	789.62
455.955	777.62
456.175	751.62
456.395	718.62
456.616	745.62
456.836	728.62
457.056	760.62
457.276	740.62
457.497	721.62
457.717	712.62
457.937	724.62
458.157	727.62
458.377	712.62
458.598	664.62
458.818	668.62
459.038	725.62
459.258	718.62
459.478	742.62
459.698	699.62
459.918	748.62
460.138	821.62
460.358	820.62
460.578	820.62
460.798	856.62
461.018	897.62
461.238	878.62
461.458	835.62
461.678	836.62
461.898	841.62
462.118	787.62
462.338	840.62
462.558	836.62
462.777	829.62
462.997	899.62
463.217	915.62
463.437	867.62
463.657	838.62
463.876	825.62
464.096	835.62
464.316	865.62
464.536	849.62
464.755	884.62
464.975	882.62
465.195	870.62
465.414	886.62
465.634	912.62
465.854	904.62
466.073	958.62
466.293	944.62
466.512	899.62
466.732	887.62
466.951	909.62
467.171	886.62
467.391	865.62
467.61	849.62
467.829	913.62
468.049	1006.62
468.268	1042.62
468.488	958.62
468.707	920.62
468.927	930.62
469.146	929.62
469.365	900.62
469.585	930.62
469.804	925.62
470.023	943.62
470.243	937.62
470.462	964.62
470.681	953.62
470.901	924.62
471.12	932.62
471.339	945.62
471.558	934.62
471.777	903.62
471.997	896.62
472.216	848.62
472.435	781.62
472.654	770.62
472.873	776.62
473.092	822.62
473.311	809.62
473.53	824.62
473.749	812.62
473.968	828.62
474.187	848.62
474.406	840.62
474.625	849.62
474.844	879.62
475.063	905.62
475.282	886.62
475.501	816.62
475.72	830.62
475.939	920.62
476.158	882.62
476.377	884.62
476.596	836.62
476.814	803.62
477.033	804.62
477.252	875.62
477.471	896.62
477.69	935.62
477.908	956.62
478.127	985.62
478.346	1014.62
478.564	985.62
478.783	1018.62
479.002	1048.62
479.22	1024.62
479.439	1022.62
479.658	1045.62
479.876	1004.62
480.095	904.62
480.313	910.62
480.532	899.62
480.751	860.62
480.969	824.62
481.188	794.62
481.406	796.62
481.624	790.62
481.843	792.62
482.061	838.62
482.28	888.62
482.498	913.62
482.717	860.62
482.935	891.62
483.153	996.62
483.372	1032.62
483.59	1026.62
483.808	983.62
484.027	942.62
484.245	998.62
484.463	1227.62
484.681	1272.62
484.9	1046.62
485.118	985.62
485.336	923.62
485.554	924.62
485.772	896.62
485.99	886.62
486.209	932.62
486.427	924.62
486.645	952.62
486.863	998.62
487.081	1072.62
487.299	1011.62
487.517	1009.62
487.735	1088.62
487.953	1217.62
488.171	1219.62
488.389	1151.62
488.607	1098.62
488.825	1159.62
489.043	1047.62
489.261	1016.62
489.479	1052.62
489.696	1072.62
489.914	1042.62
490.132	1048.62
490.35	1091.62
490.568	1158.62
490.786	1155.62
491.003	1216.62
491.221	1229.62
491.439	1290.62
491.657	1344.62
491.874	1382.62
492.092	1449.62
492.31	1536.62
492.527	1474.62
492.745	1364.62
492.963	1350.62
493.18	1340.62
493.398	1360.62
493.615	1346.62
493.833	1282.62
494.05	1231.62
494.268	1179.62
494.485	1258.62
494.703	1236.62
494.92	1234.62
495.138	1227.62
495.355	1242.62
495.573	1281.62
495.79	1330.62
496.008	1286.62
496.225	1239.62
496.442	1230.62
496.66	1237.62
496.877	1217.62
497.094	1244.62
497.312	1245.62
497.529	1184.62
497.746	1198.62
497.963	1301.62
498.181	1298.62
498.398	1262.62
498.615	1206.62
498.832	1146.62
499.049	1154.62
499.267	1181.62
499.484	1300.62
499.701	1317.62
499.918	1380.62
500.135	1479.62
500.352	1563.62
500.569	1561.62
500.786	1671.62
501.003	1551.62
501.22	1448.62
501.437	1414.62
501.654	1429.62
501.871	1369.62
502.088	1190.62
502.305	1174.62
502.522	1142.62
502.739	1113.62
502.956	1094.62
503.172	1080.62
503.389	1037.62
503.606	986.62
503.823	993.62
504.04	1024.62
504.256	1010.62
504.473	1042.62
504.69	1034.62
504.907	997.62
505.123	952.62
505.34	1105.62
505.557	1378.62
505.773	1155.62
505.99	954.62
506.207	904.62
506.423	888.62
506.64	880.62
506.856	920.62
507.073	1054.62
507.289	1092.62
507.506	1040.62
507.722	876.62
507.939	876.62
508.155	887.62
508.372	854.62
508.588	845.62
508.805	800.62
509.021	786.62
509.238	764.62
509.454	766.62
509.67	743.62
509.887	717.62
510.103	729.62
510.319	737.62
510.536	752.62
510.752	770.62
510.968	759.62
511.184	789.62
511.401	751.62
511.617	722.62
511.833	714.62
512.049	711.62
512.265	708.62
512.481	737.62
512.698	750.62
512.914	781.62
513.13	752.62
513.346	700.62
513.562	754.62
513.778	728.62
513.994	741.62
514.21	784.62
514.426	778.62
514.642	821.62
514.858	784.62
515.074	719.62
515.29	736.62
515.506	752.62
515.721	748.62
515.937	768.62
516.153	827.62
516.369	778.62
516.585	745.62
516.801	755.62
517.016	746.62
517.232	766.62
517.448	800.62
517.664	800.62
517.879	771.62
518.095	819.62
518.311	801.62
518.527	779.62
518.742	789.62
518.958	784.62
519.173	762.62
519.389	790.62
519.605	812.62
519.82	798.62
520.036	801.62
520.251	775.62
520.467	776.62
520.682	829.62
520.898	790.62
521.113	743.62
521.329	722.62
521.544	776.62
521.76	741.62
521.975	737.62
522.19	719.62
522.406	742.62
522.621	907.62
522.836	857.62
523.052	751.62
523.267	744.62
523.482	759.62
523.698	738.62
523.913	742.62
524.128	763.62
524.343	807.62
524.559	837.62
524.774	806.62
524.989	755.62
525.204	737.62
525.419	726.62
525.634	722.62
525.849	739.62
526.064	731.62
526.28	744.62
526.495	679.62
526.71	653.62
526.925	659.62
527.14	657.62
527.355	648.62
527.57	630.62
527.785	660.62
527.999	672.62
528.214	674.62
528.429	711.62
528.644	726.62
528.859	775.62
529.074	830.62
529.289	905.62
529.503	864.62
529.718	825.62
529.933	731.62
530.148	680.62
530.363	642.62
530.577	625.62
530.792	617.62
531.007	617.62
531.221	641.62
531.436	661.62
531.651	652.62
531.865	687.62
532.08	654.62
532.295	631.62
532.509	625.62
532.724	601.62
532.938	656.62
533.153	719.62
533.367	724.62
533.582	724.62
533.796	734.62
534.011	731.62
534.225	654.62
534.44	650.62
534.654	640.62
534.868	651.62
535.083	688.62
535.297	708.62
535.511	679.62
535.726	686.62
535.94	676.62
536.154	668.62
536.369	641.62
536.583	624.62
536.797	607.62
537.011	624.62
537.225	594.62
537.44	599.62
537.654	673.62
537.868	644.62
538.082	601.62
538.296	610.62
538.51	637.62
538.724	654.62
538.938	702.62
539.153	756.62
539.367	772.62
539.581	692.62
539.795	711.62
540.009	654.62
540.222	657.62
540.436	691.62
540.65	761.62
540.864	802.62
541.078	820.62
541.292	871.62
541.506	904.62
541.72	939.62
541.934	1005.62
542.147	1060.62
542.361	1033.62
542.575	924.62
542.789	865.62
543.002	784.62
543.216	744.62
543.43	754.62
543.644	776.62
543.857	894.62
544.071	904.62
544.285	893.62
544.498	907.62
544.712	914.62
544.925	906.62
545.139	959.62
545.352	916.62
545.566	912.62
545.779	913.62
545.993	929.62
546.206	976.62
546.42	975.62
546.633	952.62
546.847	934.62
547.06	930.62
547.274	968.62
547.487	997.62
547.7	1001.62
547.914	954.62
548.127	977.62
548.34	972.62
548.554	905.62
548.767	910.62
548.98	901.62
549.193	937.62
549.407	961.62
549.62	960.62
549.833	900.62
550.046	926.62
550.259	905.62
550.473	886.62
550.686	861.62
550.899	837.62
551.112	819.62
551.325	808.62
551.538	851.62
551.751	854.62
551.964	692.62
552.177	722.62
552.39	786.62
552.603	832.62
552.816	843.62
553.029	890.62
553.242	888.62
553.455	921.62
553.667	899.62
553.88	918.62
554.093	880.62
554.306	837.62
554.519	826.62
554.732	842.62
554.944	848.62
555.157	837.62
555.37	830.62
555.583	783.62
555.795	748.62
556.008	752.62
556.221	741.62
556.433	737.62
556.646	718.62
556.859	763.62
557.071	729.62
557.284	752.62
557.496	725.62
557.709	756.62
557.921	734.62
558.134	736.62
558.346	742.62
558.559	729.62
558.771	719.62
558.984	686.62
559.196	662.62
559.409	669.62
559.621	664.62
559.833	647.62
560.046	677.62
560.258	700.62
560.47	684.62
560.683	705.62
560.895	699.62
561.107	680.62
561.32	671.62
561.532	671.62
561.744	654.62
561.956	685.62
562.168	681.62
562.381	662.62
562.593	649.62
562.805	646.62
563.017	632.62
563.229	636.62
563.441	628.62
563.653	630.62
563.865	624.62
564.077	614.62
564.289	627.62
564.501	620.62
564.713	630.62
564.925	647.62
565.137	662.62
565.349	630.62
565.561	614.62
565.773	605.62
565.985	641.62
566.197	671.62
566.408	705.62
566.62	673.62
566.832	682.62
567.044	690.62
567.255	671.62
567.467	657.62
567.679	638.62
567.891	657.62
568.102	620.62
568.314	584.62
568.526	545.62
568.737	506.62
568.949	483.62
569.161	475.62
569.372	467.62
569.584	451.62
569.795	460.62
570.007	450.62
570.218	437.62
570.43	444.62
570.641	441.62
570.853	459.62
571.064	470.62
571.276	500.62
571.487	458.62
571.698	469.62
571.91	461.62
572.121	481.62
572.333	455.62
572.544	446.62
572.755	389.62
572.966	394.62
573.178	381.62
573.389	386.62
573.6	396.62
573.811	453.62
574.023	406.62
574.234	402.62
574.445	398.62
574.656	398.62
574.867	394.62
575.078	396.62
575.289	390.62
575.501	390.62
575.712	386.62
575.923	382.62
576.134	399.62
576.345	403.62
576.556	409.62
576.767	393.62
576.978	393.62
577.188	399.62
577.399	389.62
577.61	379.62
577.821	373.62
578.032	366.62
578.243	369.62
578.454	357.62
578.665	370.62
578.875	320.62
579.086	334.62
579.297	345.62
579.508	369.62
579.718	369.62
579.929	333.62
580.14	336.62
580.35	335.62
580.561	367.62
580.772	401.62
580.982	367.62
581.193	380.62
581.403	341.62
581.614	361.62
581.825	341.62
582.035	349.62
582.246	353.62
582.456	379.62
582.667	352.62
582.877	337.62
583.087	334.62
583.298	338.62
583.508	333.62
583.719	324.62
583.929	323.62
584.139	326.62
584.35	313.62
584.56	318.62
584.77	329.62
584.981	328.62
585.191	335.62
585.401	331.62
585.611	333.62
585.821	331.62
586.032	349.62
586.242	319.62
586.452	320.62
586.662	346.62
586.872	325.62
587.082	291.62
587.292	343.62
587.502	328.62
587.713	313.62
587.923	310.62
588.133	321.62
588.343	318.62
588.553	329.62
588.762	309.62
588.972	304.62
589.182	308.62
589.392	309.62
589.602	316.62
589.812	323.62
590.022	327.62
590.232	304.62
590.441	309.62
590.651	322.62
590.861	301.62
591.071	304.62
591.281	307.62
591.49	302.62
591.7	303.62
591.91	316.62
592.119	324.62
592.329	314.62
592.539	320.62
592.748	321.62
592.958	319.62
593.167	327.62
593.377	331.62
593.587	342.62
593.796	309.62
594.006	310.62
594.215	322.62
594.424	338.62
594.634	344.62
594.843	339.62
595.053	370.62
595.262	326.62
595.472	318.62
595.681	308.62
595.89	313.62
596.1	305.62
596.309	309.62
596.518	330.62
596.727	330.62
596.937	328.62
597.146	322.62
597.355	309.62
597.564	308.62
597.774	312.62
597.983	276.62
598.192	291.62
598.401	285.62
598.61	274.62
598.819	288.62
599.028	281.62
599.237	298.62
599.446	292.62
599.655	301.62
599.864	280.62
600.073	300.62
600.282	284.62
600.491	284.62
600.7	302.62
600.909	296.62
601.118	288.62
601.327	329.62
601.536	345.62
601.745	346.62
601.953	336.62
602.162	354.62
602.371	354.62
602.58	370.62
602.789	343.62
602.997	348.62
603.206	352.62
603.415	344.62
603.623	317.62
603.832	341.62
604.041	328.62
604.249	318.62
604.458	283.62
604.666	288.62
604.875	296.62
605.084	312.62
605.292	330.62
605.501	342.62
605.709	376.62
605.918	374.62
606.126	374.62
606.334	359.62
606.543	368.62
606.751	362.62
606.96	351.62
607.168	349.62
607.376	351.62
607.585	347.62
607.793	356.62
608.001	351.62
608.21	352.62
608.418	372.62
608.626	358.62
608.834	347.62
609.043	350.62
609.251	356.62
609.459	354.62
609.667	374.62
609.875	400.62
610.083	363.62
610.291	359.62
610.499	356.62
610.707	356.62
610.916	376.62
611.124	366.62
611.332	363.62
611.54	370.62
611.748	371.62
611.955	361.62
612.163	351.62
612.371	364.62
612.579	370.62
612.787	346.62
612.995	368.62
613.203	372.62
613.411	360.62
613.618	345.62
613.826	354.62
614.034	366.62
614.242	340.62
614.449	332.62
614.657	329.62
614.865	345.62
615.072	342.62
615.28	339.62
615.488	354.62
615.695	364.62
615.903	345.62
616.111	356.62
616.318	352.62
616.526	358.62
616.733	345.62
616.941	342.62
617.148	356.62
617.356	361.62
617.563	334.62
617.771	335.62
617.978	357.62
618.185	329.62
618.393	335.62
618.6	341.62
618.807	340.62
619.015	342.62
619.222	351.62
619.429	330.62
619.637	307.62
619.844	310.62
620.051	294.62
620.258	319.62
620.466	334.62
620.673	317.62
620.88	324.62
621.087	298.62
621.294	303.62
621.501	302.62
621.708	294.62
621.915	330.62
622.122	334.62
622.329	323.62
622.536	328.62
622.743	326.62
622.95	328.62
623.157	315.62
623.364	328.62
623.571	307.62
623.778	294.62
623.985	304.62
624.192	308.62
624.399	321.62
624.606	296.62
624.812	311.62
625.019	297.62
625.226	289.62
625.433	284.62
625.639	261.62
625.846	257.62
626.053	239.62
626.259	234.62
626.466	240.62
626.673	226.62
626.879	240.62
627.086	236.62
627.293	266.62
627.499	281.62
627.706	288.62
627.912	294.62
628.119	293.62
628.325	297.62
628.532	304.62
628.738	292.62
628.945	293.62
629.151	266.62
629.357	267.62
629.564	269.62
629.77	285.62
629.976	261.62
630.183	265.62
630.389	262.62
630.595	256.62
630.802	296.62
631.008	264.62
631.214	276.62
631.42	278.62
631.627	278.62
631.833	244.62
632.039	250.62
632.245	253.62
632.451	262.62
632.657	274.62
632.863	261.62
633.069	259.62
633.275	257.62
633.481	249.62
633.688	237.62
633.893	249.62
634.099	243.62
634.305	227.62
634.511	240.62
634.717	222.62
634.923	232.62
635.129	233.62
635.335	239.62
635.541	245.62
635.747	230.62
635.952	240.62
636.158	244.62
636.364	245.62
636.57	240.62
636.775	249.62
636.981	276.62
637.187	252.62
637.392	244.62
637.598	260.62
637.804	257.62
638.009	272.62
638.215	271.62
638.421	256.62
638.626	247.62
638.832	244.62
639.037	245.62
639.243	229.62
639.448	242.62
639.654	242.62
639.859	242.62
640.065	252.62
640.27	244.62
640.475	258.62
640.681	248.62
640.886	240.62
641.091	239.62
641.297	247.62
641.502	245.62
641.707	241.62
641.913	242.62
642.118	272.62
642.323	252.62
642.528	229.62
642.733	235.62
642.939	231.62
643.144	260.62
643.349	227.62
643.554	244.62
643.759	223.62
643.964	245.62
644.169	236.62
644.374	231.62
644.579	231.62
644.784	237.62
644.989	222.62
645.194	229.62
645.399	243.62
645.604	218.62
645.809	215.62
646.014	231.62
646.219	218.62
646.423	240.62
646.628	239.62
646.833	237.62
647.038	253.62
647.243	245.62
647.447	247.62
647.652	231.62
647.857	216.62
648.062	213.62
648.266	235.62
648.471	229.62
648.676	240.62
648.88	244.62
649.085	221.62
649.289	244.62
649.494	234.62
649.698	223.62
649.903	242.62
650.107	236.62
650.312	227.62
650.516	230.62
650.721	233.62
650.925	211.62
651.13	217.62
651.334	234.62
651.539	234.62
651.743	222.62
651.947	222.62
652.152	215.62
652.356	215.62
652.56	218.62
652.764	214.62
652.969	206.62
653.173	190.62
653.377	211.62
653.581	199.62
653.785	205.62
653.99	201.62
654.194	210.62
654.398	206.62
654.602	220.62
654.806	202.62
655.01	208.62
655.214	202.62
655.418	200.62
655.622	191.62
655.826	202.62
656.03	215.62
656.234	222.62
656.438	224.62
656.642	231.62
656.846	215.62
657.049	212.62
657.253	188.62
657.457	175.62
657.661	178.62
657.865	169.62
658.068	144.62
658.272	156.62
658.476	176.62
658.68	152.62
658.883	151.62
659.087	132.62
659.291	121.62
659.494	135.62
659.698	133.62
659.901	124.62
660.105	131.62
660.309	122.62
660.512	113.62
660.716	122.62
660.919	102.62
661.123	116.62
661.326	114.62
661.53	90.62
661.733	99.62
661.936	101.62
662.14	103.62
662.343	87.62
662.546	96.62
662.75	94.62
662.953	99.62
663.156	87.62
663.36	101.62
663.563	86.62
663.766	93.62
663.969	78.62
664.173	73.62
664.376	76.62
664.579	78.62
664.782	79.62
664.985	94.62
665.188	68.62
665.391	86.62
665.594	65.62
665.797	65.62
666	83.62
666.203	88.62
666.406	69.62
666.609	94.62
666.812	67.62
667.015	69.62
667.218	82.62
667.421	88.62
667.624	84.62
667.827	91.62
668.03	83.62
668.232	77.62
668.435	97.62
668.638	84.62
668.841	80.62
669.043	86.62
669.246	83.62
669.449	74.62
669.651	80.62
669.854	77.62
670.057	80.62
670.259	75.62
670.462	73.62
670.665	93.62
670.867	69.62
671.07	78.62
671.272	82.62
671.475	81.62
671.677	74.62
671.88	79.62
672.082	74.62
672.284	83.62
672.487	84.62
672.689	67.62
672.892	87.62
