Data from WStandard_LampEnergy5.5LIBS07252019.E.O._I.C._HRD10591_16-08-19-920.txt Node
Date: Thu Jul 25 16:08:19 EDT 2019
User: cochatt
Spectrometer: HR+D1059
Trigger mode: 1
Integration Time (sec): 1.000000E-1
Scans to average: 1
Electric dark correction enabled: true
Nonlinearity correction enabled: false
Boxcar width: 0
XAxis mode: Wavelengths
Number of Pixels in Spectrum: 2048
>>>>>Begin Spectral Data<<<<<
223.165	-11.81
223.4	-11.81
223.635	-11.81
223.869	-11.81
224.104	-25.81
224.338	-20.81
224.573	-17.81
224.808	-9.81
225.042	-5.81
225.277	0.19
225.511	-11.81
225.746	10.19
225.98	14.19
226.215	0.19
226.449	11.19
226.683	19.19
226.918	28.19
227.152	32.19
227.387	34.19
227.621	33.19
227.856	49.19
228.09	50.19
228.324	27.19
228.559	53.19
228.793	148.19
229.027	358.19
229.262	373.19
229.496	364.19
229.73	400.19
229.964	430.19
230.199	456.19
230.433	476.19
230.667	519.19
230.901	529.19
231.136	481.19
231.37	461.19
231.604	459.19
231.838	444.19
232.072	456.19
232.306	446.19
232.541	474.19
232.775	552.19
233.009	588.19
233.243	579.19
233.477	555.19
233.711	537.19
233.945	585.19
234.179	536.19
234.413	587.19
234.647	636.19
234.881	587.19
235.115	541.19
235.349	537.19
235.583	556.19
235.817	560.19
236.051	538.19
236.285	553.19
236.519	580.19
236.753	644.19
236.987	676.19
237.221	681.19
237.455	722.19
237.689	731.19
237.922	668.19
238.156	664.19
238.39	657.19
238.624	707.19
238.858	750.19
239.091	780.19
239.325	803.19
239.559	905.19
239.793	967.19
240.027	1036.19
240.26	1048.19
240.494	742.19
240.728	696.19
240.961	711.19
241.195	722.19
241.429	809.19
241.662	801.19
241.896	735.19
242.13	759.19
242.363	867.19
242.597	895.19
242.83	890.19
243.064	898.19
243.298	965.19
243.531	929.19
243.765	912.19
243.998	936.19
244.232	788.19
244.465	812.19
244.699	787.19
244.932	865.19
245.166	1025.19
245.399	966.19
245.633	884.19
245.866	858.19
246.099	928.19
246.333	926.19
246.566	946.19
246.8	1036.19
247.033	1179.19
247.266	1050.19
247.5	1011.19
247.733	1034.19
247.966	1122.19
248.2	1212.19
248.433	1152.19
248.666	1212.19
248.899	1319.19
249.133	1515.19
249.366	1761.19
249.599	1409.19
249.832	1232.19
250.066	1242.19
250.299	1294.19
250.532	1220.19
250.765	1059.19
250.998	1182.19
251.231	1170.19
251.465	1224.19
251.698	1182.19
251.931	1143.19
252.164	1216.19
252.397	1259.19
252.63	1249.19
252.863	1088.19
253.096	1087.19
253.329	1111.19
253.562	1160.19
253.795	1300.19
254.028	1251.19
254.261	1164.19
254.494	1188.19
254.727	1120.19
254.96	1134.19
255.193	1254.19
255.426	1421.19
255.659	1606.19
255.892	1688.19
256.124	1360.19
256.357	1313.19
256.59	1418.19
256.823	1422.19
257.056	1439.19
257.289	1668.19
257.521	1915.19
257.754	1697.19
257.987	1584.19
258.22	1765.19
258.452	1763.19
258.685	1415.19
258.918	1390.19
259.151	1397.19
259.383	1305.19
259.616	1158.19
259.849	1224.19
260.081	1366.19
260.314	1495.19
260.547	1690.19
260.779	1711.19
261.012	1584.19
261.244	1419.19
261.477	1334.19
261.71	1424.19
261.942	1442.19
262.175	1371.19
262.407	1476.19
262.64	1366.19
262.872	1325.19
263.105	1240.19
263.337	1265.19
263.57	1253.19
263.802	1251.19
264.035	1205.19
264.267	1154.19
264.499	1075.19
264.732	1200.19
264.964	1296.19
265.197	1340.19
265.429	1403.19
265.661	1561.19
265.894	1692.19
266.126	1820.19
266.358	1607.19
266.591	1651.19
266.823	1798.19
267.055	1595.19
267.287	1612.19
267.52	1558.19
267.752	1586.19
267.984	1526.19
268.216	1612.19
268.448	1656.19
268.681	1631.19
268.913	1524.19
269.145	1408.19
269.377	1379.19
269.609	1461.19
269.841	1714.19
270.073	1996.19
270.306	2240.19
270.538	2456.19
270.77	2058.19
271.002	1683.19
271.234	1641.19
271.466	1606.19
271.698	1845.19
271.93	2211.19
272.162	2178.19
272.394	2016.19
272.626	1941.19
272.858	1691.19
273.09	1456.19
273.322	1442.19
273.553	1324.19
273.785	1353.19
274.017	1429.19
274.249	1571.19
274.481	1546.19
274.713	1477.19
274.945	1410.19
275.176	1417.19
275.408	1378.19
275.64	1359.19
275.872	1361.19
276.104	1444.19
276.335	1625.19
276.567	1885.19
276.799	1912.19
277.031	1723.19
277.262	1582.19
277.494	1661.19
277.726	1849.19
277.957	1808.19
278.189	1653.19
278.421	1547.19
278.652	1455.19
278.884	1430.19
279.115	1467.19
279.347	1538.19
279.579	1474.19
279.81	1415.19
280.042	1611.19
280.273	1729.19
280.505	1748.19
280.736	1818.19
280.968	1710.19
281.199	1522.19
281.431	1438.19
281.662	1385.19
281.894	1402.19
282.125	1442.19
282.356	1526.19
282.588	1557.19
282.819	1499.19
283.051	1619.19
283.282	1787.19
283.513	1727.19
283.745	1501.19
283.976	1392.19
284.207	1408.19
284.439	1481.19
284.67	1483.19
284.901	1519.19
285.132	1515.19
285.364	1489.19
285.595	1547.19
285.826	1496.19
286.057	1504.19
286.288	1489.19
286.52	1522.19
286.751	1656.19
286.982	1739.19
287.213	1591.19
287.444	1440.19
287.675	1467.19
287.906	1511.19
288.138	1610.19
288.369	1601.19
288.6	1464.19
288.831	1473.19
289.062	1482.19
289.293	1488.19
289.524	1520.19
289.755	1500.19
289.986	1545.19
290.217	1424.19
290.448	1428.19
290.679	1517.19
290.91	1508.19
291.141	1563.19
291.371	1637.19
291.602	1608.19
291.833	1544.19
292.064	1618.19
292.295	1574.19
292.526	1612.19
292.757	1726.19
292.987	1636.19
293.218	1526.19
293.449	1639.19
293.68	1894.19
293.91	2052.19
294.141	1885.19
294.372	1753.19
294.603	1770.19
294.833	1911.19
295.064	1830.19
295.295	1623.19
295.525	1610.19
295.756	1486.19
295.987	1406.19
296.217	1430.19
296.448	1469.19
296.679	1500.19
296.909	1488.19
297.14	1464.19
297.37	1470.19
297.601	1594.19
297.831	1722.19
298.062	1696.19
298.292	1582.19
298.523	1486.19
298.753	1519.19
298.984	1549.19
299.214	1534.19
299.445	1508.19
299.675	1618.19
299.905	1577.19
300.136	1536.19
300.366	1521.19
300.597	1447.19
300.827	1478.19
301.057	1544.19
301.288	1615.19
301.518	1607.19
301.748	1617.19
301.979	1714.19
302.209	1745.19
302.439	1885.19
302.669	1942.19
302.9	1837.19
303.13	1590.19
303.36	1637.19
303.59	1684.19
303.82	1639.19
304.051	1622.19
304.281	1629.19
304.511	1633.19
304.741	1721.19
304.971	1879.19
305.201	2070.19
305.431	1930.19
305.661	1553.19
305.891	1414.19
306.121	1432.19
306.352	1455.19
306.582	1571.19
306.812	1656.19
307.042	1829.19
307.272	1840.19
307.502	1829.19
307.731	1968.19
307.961	2137.19
308.191	1980.19
308.421	1697.19
308.651	1598.19
308.881	1558.19
309.111	1583.19
309.341	1528.19
309.571	1538.19
309.8	1576.19
310.03	1516.19
310.26	1540.19
310.49	1505.19
310.72	1536.19
310.949	1653.19
311.179	1688.19
311.409	1652.19
311.639	1608.19
311.868	1541.19
312.098	1603.19
312.328	1580.19
312.557	1521.19
312.787	1579.19
313.017	1638.19
313.246	1637.19
313.476	1596.19
313.706	1684.19
313.935	1661.19
314.165	1664.19
314.394	1702.19
314.624	1800.19
314.853	1859.19
315.083	2001.19
315.312	2012.19
315.542	1903.19
315.771	1686.19
316.001	1667.19
316.23	1747.19
316.46	1788.19
316.689	1759.19
316.919	1660.19
317.148	1611.19
317.377	1563.19
317.607	1695.19
317.836	1966.19
318.065	2003.19
318.295	1953.19
318.524	1847.19
318.753	1767.19
318.983	1805.19
319.212	1703.19
319.441	1692.19
319.67	1678.19
319.9	1696.19
320.129	1785.19
320.358	1863.19
320.587	1912.19
320.816	1877.19
321.046	1856.19
321.275	1737.19
321.504	1770.19
321.733	1942.19
321.962	1881.19
322.191	1712.19
322.42	1716.19
322.649	1680.19
322.878	1664.19
323.108	1673.19
323.337	1740.19
323.566	1765.19
323.795	1769.19
324.024	1786.19
324.253	1703.19
324.482	1756.19
324.71	1675.19
324.939	1584.19
325.168	1619.19
325.397	1660.19
325.626	1714.19
325.855	1729.19
326.084	1698.19
326.313	1696.19
326.542	1679.19
326.77	1788.19
326.999	1826.19
327.228	1705.19
327.457	1576.19
327.686	1598.19
327.914	1644.19
328.143	1712.19
328.372	1692.19
328.6	1714.19
328.829	1688.19
329.058	1638.19
329.287	1654.19
329.515	1703.19
329.744	1755.19
329.972	1820.19
330.201	1889.19
330.43	1838.19
330.658	1798.19
330.887	1798.19
331.115	1805.19
331.344	1832.19
331.572	1778.19
331.801	1806.19
332.03	1774.19
332.258	1769.19
332.486	1818.19
332.715	1830.19
332.943	1838.19
333.172	1770.19
333.4	1820.19
333.629	1869.19
333.857	1954.19
334.085	2116.19
334.314	2387.19
334.542	2671.19
334.771	2444.19
334.999	2179.19
335.227	2077.19
335.455	1952.19
335.684	1913.19
335.912	1928.19
336.14	2038.19
336.369	1987.19
336.597	1851.19
336.825	1815.19
337.053	1868.19
337.281	1980.19
337.51	2061.19
337.738	2209.19
337.966	2045.19
338.194	1864.19
338.422	1768.19
338.65	1817.19
338.878	1781.19
339.106	1726.19
339.334	1714.19
339.562	1677.19
339.79	1675.19
340.018	1817.19
340.246	1910.19
340.474	1920.19
340.702	1858.19
340.93	1844.19
341.158	1847.19
341.386	1824.19
341.614	1819.19
341.842	1770.19
342.07	1783.19
342.298	1795.19
342.526	1820.19
342.754	1739.19
342.981	1752.19
343.209	1769.19
343.437	1767.19
343.665	1786.19
343.893	1796.19
344.12	1909.19
344.348	1876.19
344.576	1839.19
344.804	1777.19
345.031	1752.19
345.259	1789.19
345.487	1733.19
345.714	1701.19
345.942	1636.19
346.17	1640.19
346.397	1681.19
346.625	1703.19
346.853	1606.19
347.08	1561.19
347.308	1585.19
347.535	1632.19
347.763	1688.19
347.99	1699.19
348.218	1626.19
348.445	1592.19
348.673	1661.19
348.9	1690.19
349.128	1762.19
349.355	1772.19
349.583	1745.19
349.81	1650.19
350.037	1547.19
350.265	1562.19
350.492	1584.19
350.72	1600.19
350.947	1634.19
351.174	1746.19
351.402	1585.19
351.629	1546.19
351.856	1513.19
352.083	1525.19
352.311	1524.19
352.538	1592.19
352.765	1622.19
352.992	1697.19
353.22	1646.19
353.447	1574.19
353.674	1612.19
353.901	1603.19
354.128	1575.19
354.355	1563.19
354.583	1610.19
354.81	1667.19
355.037	1690.19
355.264	1671.19
355.491	1633.19
355.718	1685.19
355.945	1672.19
356.172	1611.19
356.399	1562.19
356.626	1588.19
356.853	1630.19
357.08	1717.19
357.307	1941.19
357.534	1961.19
357.761	1724.19
357.988	1569.19
358.215	1516.19
358.441	1556.19
358.668	1549.19
358.895	1536.19
359.122	1668.19
359.349	1842.19
359.576	1815.19
359.802	1643.19
360.029	1572.19
360.256	1514.19
360.483	1600.19
360.709	1617.19
360.936	1698.19
361.163	1728.19
361.39	1882.19
361.616	2026.19
361.843	1980.19
362.07	1886.19
362.296	1646.19
362.523	1618.19
362.749	1613.19
362.976	1639.19
363.203	1650.19
363.429	1642.19
363.656	1537.19
363.882	1625.19
364.109	1777.19
364.335	1960.19
364.562	1852.19
364.788	1736.19
365.015	1640.19
365.241	1576.19
365.468	1654.19
365.694	1737.19
365.92	1800.19
366.147	1697.19
366.373	1627.19
366.599	1583.19
366.826	1574.19
367.052	1578.19
367.278	1631.19
367.505	1620.19
367.731	1671.19
367.957	1628.19
368.184	1664.19
368.41	1803.19
368.636	1751.19
368.862	1814.19
369.089	1845.19
369.315	1748.19
369.541	1733.19
369.767	1655.19
369.993	1602.19
370.219	1599.19
370.445	1644.19
370.672	1757.19
370.898	1812.19
371.124	1822.19
371.35	1664.19
371.576	1737.19
371.802	1835.19
372.028	1746.19
372.254	1708.19
372.48	1641.19
372.706	1630.19
372.932	1619.19
373.158	1639.19
373.384	1650.19
373.61	1698.19
373.835	1822.19
374.061	1704.19
374.287	1684.19
374.513	1667.19
374.739	1712.19
374.965	1743.19
375.191	1727.19
375.416	1735.19
375.642	1746.19
375.868	1818.19
376.094	1880.19
376.319	1834.19
376.545	1698.19
376.771	1745.19
376.997	1833.19
377.222	1782.19
377.448	1710.19
377.674	1796.19
377.899	1776.19
378.125	1856.19
378.35	1866.19
378.576	1697.19
378.802	1631.19
379.027	1660.19
379.253	1696.19
379.478	1687.19
379.704	1714.19
379.929	1668.19
380.155	1701.19
380.38	1709.19
380.606	1748.19
380.831	1752.19
381.057	1819.19
381.282	1822.19
381.507	1774.19
381.733	1832.19
381.958	1972.19
382.184	1769.19
382.409	1759.19
382.634	1784.19
382.86	1755.19
383.085	1761.19
383.31	1837.19
383.535	1951.19
383.761	2042.19
383.986	1974.19
384.211	1906.19
384.436	1887.19
384.662	1996.19
384.887	2087.19
385.112	1927.19
385.337	2001.19
385.562	1986.19
385.787	1966.19
386.013	1987.19
386.238	2012.19
386.463	1987.19
386.688	2087.19
386.913	2213.19
387.138	2223.19
387.363	1959.19
387.588	1958.19
387.813	2007.19
388.038	1987.19
388.263	2076.19
388.488	2064.19
388.713	1840.19
388.938	1833.19
389.163	1870.19
389.387	1936.19
389.612	1891.19
389.837	1971.19
390.062	2003.19
390.287	2008.19
390.512	1989.19
390.736	1906.19
390.961	1897.19
391.186	1835.19
391.411	1867.19
391.636	1905.19
391.86	1923.19
392.085	1905.19
392.31	1905.19
392.534	1910.19
392.759	1942.19
392.984	1943.19
393.208	1978.19
393.433	1992.19
393.658	2107.19
393.882	2116.19
394.107	1989.19
394.331	1920.19
394.556	1930.19
394.78	1978.19
395.005	2015.19
395.229	2098.19
395.454	2197.19
395.678	2253.19
395.903	2163.19
396.127	2066.19
396.352	2066.19
396.576	2158.19
396.801	2128.19
397.025	2106.19
397.249	2061.19
397.474	2083.19
397.698	2078.19
397.922	2122.19
398.147	2214.19
398.371	2246.19
398.595	2294.19
398.82	2202.19
399.044	2238.19
399.268	2340.19
399.492	2502.19
399.717	2606.19
399.941	2626.19
400.165	2550.19
400.389	2476.19
400.613	2455.19
400.837	2687.19
401.062	3105.19
401.286	2680.19
401.51	2393.19
401.734	2532.19
401.958	2464.19
402.182	2283.19
402.406	2192.19
402.63	2143.19
402.854	2190.19
403.078	2213.19
403.302	2251.19
403.526	2291.19
403.75	2287.19
403.974	2328.19
404.198	2271.19
404.422	2345.19
404.645	2460.19
404.869	2475.19
405.093	2241.19
405.317	2224.19
405.541	2301.19
405.765	2359.19
405.988	2308.19
406.212	2335.19
406.436	2416.19
406.66	2491.19
406.883	2479.19
407.107	2768.19
407.331	2975.19
407.555	3233.19
407.778	3020.19
408.002	2543.19
408.226	2452.19
408.449	2432.19
408.673	2344.19
408.896	2382.19
409.12	2427.19
409.344	2378.19
409.567	2267.19
409.791	2290.19
410.014	2348.19
410.238	2456.19
410.461	2604.19
410.685	2352.19
410.908	2268.19
411.132	2329.19
411.355	2330.19
411.578	2235.19
411.802	2292.19
412.025	2295.19
412.249	2273.19
412.472	2186.19
412.695	2166.19
412.919	2169.19
413.142	2185.19
413.365	2213.19
413.589	2300.19
413.812	2352.19
414.035	2412.19
414.258	2219.19
414.482	2182.19
414.705	2238.19
414.928	2188.19
415.151	2202.19
415.374	2251.19
415.597	2261.19
415.821	2261.19
416.044	2306.19
416.267	2296.19
416.49	2120.19
416.713	2104.19
416.936	2163.19
417.159	2254.19
417.382	2317.19
417.605	2150.19
417.828	2209.19
418.051	2264.19
418.274	2195.19
418.497	2108.19
418.72	2158.19
418.943	2131.19
419.166	2277.19
419.389	2384.19
419.611	2200.19
419.834	2178.19
420.057	2187.19
420.28	2110.19
420.503	2081.19
420.726	2194.19
420.948	2148.19
421.171	2068.19
421.394	2142.19
421.617	2215.19
421.839	2172.19
422.062	2121.19
422.285	2080.19
422.507	2137.19
422.73	2020.19
422.953	1977.19
423.175	2050.19
423.398	2088.19
423.621	2115.19
423.843	2119.19
424.066	2171.19
424.288	2295.19
424.511	2282.19
424.733	2224.19
424.956	2018.19
425.178	1992.19
425.401	2030.19
425.623	2061.19
425.846	2007.19
426.068	2177.19
426.291	2182.19
426.513	2185.19
426.735	2140.19
426.958	2300.19
427.18	2433.19
427.402	2261.19
427.625	2360.19
427.847	2346.19
428.069	2165.19
428.292	2100.19
428.514	2006.19
428.736	1993.19
428.958	2083.19
429.181	2073.19
429.403	2325.19
429.625	2922.19
429.847	2529.19
430.069	2175.19
430.292	2306.19
430.514	2411.19
430.736	2176.19
430.958	2343.19
431.18	2249.19
431.402	2054.19
431.624	2056.19
431.846	2046.19
432.068	1980.19
432.29	2033.19
432.512	2050.19
432.734	2123.19
432.956	2127.19
433.178	2293.19
433.4	2234.19
433.622	2231.19
433.844	2102.19
434.066	2005.19
434.287	2015.19
434.509	2151.19
434.731	2178.19
434.953	2303.19
435.175	2282.19
435.397	2174.19
435.618	2164.19
435.84	2207.19
436.062	2189.19
436.284	2134.19
436.505	2169.19
436.727	2183.19
436.949	2154.19
437.17	2112.19
437.392	2054.19
437.614	2065.19
437.835	2052.19
438.057	2163.19
438.278	2251.19
438.5	2096.19
438.721	2020.19
438.943	2010.19
439.165	2062.19
439.386	1998.19
439.608	2013.19
439.829	2054.19
440.05	2066.19
440.272	1988.19
440.493	1955.19
440.715	2045.19
440.936	2167.19
441.158	2404.19
441.379	2367.19
441.6	2240.19
441.822	2256.19
442.043	2175.19
442.264	2114.19
442.486	2044.19
442.707	2040.19
442.928	1995.19
443.149	2105.19
443.371	2230.19
443.592	2264.19
443.813	2225.19
444.034	2240.19
444.255	2252.19
444.476	2291.19
444.698	2346.19
444.919	2284.19
445.14	2380.19
445.361	2402.19
445.582	2461.19
445.803	2311.19
446.024	2235.19
446.245	2322.19
446.466	2252.19
446.687	2145.19
446.908	2143.19
447.129	2101.19
447.35	2119.19
447.571	2120.19
447.792	2017.19
448.013	1999.19
448.234	2061.19
448.455	2160.19
448.675	2166.19
448.896	1981.19
449.117	1929.19
449.338	1990.19
449.559	2052.19
449.779	2171.19
450	2471.19
450.221	2611.19
450.442	2577.19
450.662	2216.19
450.883	1983.19
451.104	1894.19
451.324	1936.19
451.545	1999.19
451.766	1999.19
451.986	1912.19
452.207	1912.19
452.428	1830.19
452.648	1830.19
452.869	1896.19
453.089	1992.19
453.31	2002.19
453.53	2075.19
453.751	1970.19
453.971	1840.19
454.192	1882.19
454.412	2047.19
454.633	1940.19
454.853	1914.19
455.073	1795.19
455.294	1788.19
455.514	1833.19
455.734	1828.19
455.955	1840.19
456.175	1867.19
456.395	1854.19
456.616	1908.19
456.836	1948.19
457.056	1897.19
457.276	1856.19
457.497	1835.19
457.717	1765.19
457.937	1810.19
458.157	1871.19
458.377	1843.19
458.598	1827.19
458.818	1851.19
459.038	1961.19
459.258	2133.19
459.478	2064.19
459.698	2012.19
459.918	2071.19
460.138	2134.19
460.358	2214.19
460.578	2172.19
460.798	2283.19
461.018	2434.19
461.238	2280.19
461.458	2196.19
461.678	2215.19
461.898	2147.19
462.118	2087.19
462.338	2237.19
462.558	2170.19
462.777	2230.19
462.997	2291.19
463.217	2418.19
463.437	2422.19
463.657	2246.19
463.876	2200.19
464.096	2166.19
464.316	2241.19
464.536	2275.19
464.755	2322.19
464.975	2326.19
465.195	2227.19
465.414	2335.19
465.634	2350.19
465.854	2172.19
466.073	2339.19
466.293	2289.19
466.512	2009.19
466.732	2059.19
466.951	2132.19
467.171	2110.19
467.391	2024.19
467.61	1978.19
467.829	2006.19
468.049	2141.19
468.268	2380.19
468.488	2234.19
468.707	2139.19
468.927	2070.19
469.146	2014.19
469.365	1978.19
469.585	1968.19
469.804	1972.19
470.023	2006.19
470.243	1973.19
470.462	1943.19
470.681	1985.19
470.901	2016.19
471.12	1978.19
471.339	2012.19
471.558	1921.19
471.777	1929.19
471.997	1987.19
472.216	1966.19
472.435	1871.19
472.654	1960.19
472.873	2032.19
473.092	2136.19
473.311	2065.19
473.53	1916.19
473.749	1878.19
473.968	1956.19
474.187	2082.19
474.406	2167.19
474.625	2064.19
474.844	2048.19
475.063	2000.19
475.282	2060.19
475.501	2025.19
475.72	1991.19
475.939	2120.19
476.158	2068.19
476.377	2021.19
476.596	2056.19
476.814	2121.19
477.033	2133.19
477.252	2196.19
477.471	2237.19
477.69	2119.19
477.908	2112.19
478.127	2210.19
478.346	2446.19
478.564	2396.19
478.783	2380.19
479.002	2523.19
479.22	2390.19
479.439	2481.19
479.658	2827.19
479.876	2793.19
480.095	2467.19
480.313	2388.19
480.532	2215.19
480.751	2287.19
480.969	2359.19
481.188	2326.19
481.406	2255.19
481.624	2176.19
481.843	2238.19
482.061	2244.19
482.28	2296.19
482.498	2341.19
482.717	2342.19
482.935	2228.19
483.153	2263.19
483.372	2244.19
483.59	2212.19
483.808	2232.19
484.027	2294.19
484.245	2446.19
484.463	2800.19
484.681	3194.19
484.9	2530.19
485.118	2326.19
485.336	2286.19
485.554	2367.19
485.772	2452.19
485.99	2398.19
486.209	2472.19
486.427	2370.19
486.645	2407.19
486.863	2374.19
487.081	2402.19
487.299	2535.19
487.517	2402.19
487.735	2356.19
487.953	2339.19
488.171	2308.19
488.389	2302.19
488.607	2320.19
488.825	2586.19
489.043	2605.19
489.261	2328.19
489.479	2472.19
489.696	2454.19
489.914	2498.19
490.132	2456.19
490.35	2356.19
490.568	2521.19
490.786	2388.19
491.003	2266.19
491.221	2335.19
491.439	2451.19
491.657	2386.19
491.874	2390.19
492.092	2444.19
492.31	2427.19
492.527	2438.19
492.745	2395.19
492.963	2356.19
493.18	2494.19
493.398	2673.19
493.615	2723.19
493.833	2492.19
494.05	2415.19
494.268	2469.19
494.485	2488.19
494.703	2469.19
494.92	2401.19
495.138	2394.19
495.355	2432.19
495.573	2529.19
495.79	2716.19
496.008	2707.19
496.225	2528.19
496.442	2551.19
496.66	2558.19
496.877	2583.19
497.094	2681.19
497.312	2678.19
497.529	2648.19
497.746	2699.19
497.963	3224.19
498.181	3546.19
498.398	3272.19
498.615	3232.19
498.832	3108.19
499.049	3089.19
499.267	3078.19
499.484	3364.19
499.701	3556.19
499.918	3615.19
500.135	3841.19
500.352	4144.19
500.569	4066.19
500.786	4327.19
501.003	4086.19
501.22	3738.19
501.437	3634.19
501.654	3571.19
501.871	3519.19
502.088	3107.19
502.305	3130.19
502.522	2983.19
502.739	2830.19
502.956	2692.19
503.172	2715.19
503.389	2592.19
503.606	2564.19
503.823	2607.19
504.04	2576.19
504.256	2617.19
504.473	2580.19
504.69	2672.19
504.907	2563.19
505.123	2409.19
505.34	2511.19
505.557	3258.19
505.773	2786.19
505.99	2416.19
506.207	2263.19
506.423	2182.19
506.64	2153.19
506.856	2200.19
507.073	2480.19
507.289	2690.19
507.506	2583.19
507.722	2196.19
507.939	2160.19
508.155	2112.19
508.372	2162.19
508.588	2082.19
508.805	2063.19
509.021	2022.19
509.238	2027.19
509.454	1985.19
509.67	2015.19
509.887	2001.19
510.103	1997.19
510.319	2019.19
510.536	2122.19
510.752	2179.19
510.968	2138.19
511.184	2318.19
511.401	2328.19
511.617	1986.19
511.833	1966.19
512.049	1911.19
512.265	1946.19
512.481	1911.19
512.698	2046.19
512.914	2129.19
513.13	2072.19
513.346	1982.19
513.562	1912.19
513.778	1957.19
513.994	2066.19
514.21	2114.19
514.426	2123.19
514.642	2426.19
514.858	2238.19
515.074	2035.19
515.29	2011.19
515.506	2020.19
515.721	2054.19
515.937	2066.19
516.153	2369.19
516.369	2232.19
516.585	2135.19
516.801	2032.19
517.016	2031.19
517.232	2050.19
517.448	2121.19
517.664	2118.19
517.879	2127.19
518.095	2282.19
518.311	2153.19
518.527	2076.19
518.742	2057.19
518.958	1959.19
519.173	1975.19
519.389	1998.19
519.605	2015.19
519.82	2035.19
520.036	2086.19
520.251	1991.19
520.467	1971.19
520.682	2162.19
520.898	2240.19
521.113	2022.19
521.329	1969.19
521.544	2087.19
521.76	2057.19
521.975	1930.19
522.19	1891.19
522.406	1847.19
522.621	2239.19
522.836	2266.19
523.052	1856.19
523.267	1866.19
523.482	1924.19
523.698	1836.19
523.913	1775.19
524.128	1803.19
524.343	1903.19
524.559	1924.19
524.774	1811.19
524.989	1855.19
525.204	1766.19
525.419	1780.19
525.634	1760.19
525.849	1771.19
526.064	1799.19
526.28	1811.19
526.495	1750.19
526.71	1722.19
526.925	1742.19
527.14	1730.19
527.355	1709.19
527.57	1672.19
527.785	1741.19
527.999	1706.19
528.214	1668.19
528.429	1639.19
528.644	1627.19
528.859	1658.19
529.074	1720.19
529.289	1717.19
529.503	1755.19
529.718	1771.19
529.933	1711.19
530.148	1598.19
530.363	1620.19
530.577	1686.19
530.792	1702.19
531.007	1708.19
531.221	1710.19
531.436	1743.19
531.651	1764.19
531.865	1868.19
532.08	1774.19
532.295	1674.19
532.509	1613.19
532.724	1658.19
532.938	1733.19
533.153	1846.19
533.367	1744.19
533.582	1673.19
533.796	1647.19
534.011	1672.19
534.225	1726.19
534.44	1668.19
534.654	1643.19
534.868	1657.19
535.083	1700.19
535.297	1742.19
535.511	1660.19
535.726	1696.19
535.94	1655.19
536.154	1664.19
536.369	1671.19
536.583	1626.19
536.797	1595.19
537.011	1685.19
537.225	1615.19
537.44	1599.19
537.654	1646.19
537.868	1591.19
538.082	1528.19
538.296	1497.19
538.51	1530.19
538.724	1546.19
538.938	1540.19
539.153	1587.19
539.367	1578.19
539.581	1566.19
539.795	1669.19
540.009	1629.19
540.222	1602.19
540.436	1660.19
540.65	1800.19
540.864	1793.19
541.078	1660.19
541.292	1577.19
541.506	1541.19
541.72	1607.19
541.934	1596.19
542.147	1633.19
542.361	1583.19
542.575	1540.19
542.789	1523.19
543.002	1493.19
543.216	1518.19
543.43	1571.19
543.644	1677.19
543.857	1723.19
544.071	1654.19
544.285	1593.19
544.498	1575.19
544.712	1553.19
544.925	1626.19
545.139	1650.19
545.352	1521.19
545.566	1526.19
545.779	1478.19
545.993	1516.19
546.206	1570.19
546.42	1477.19
546.633	1463.19
546.847	1427.19
547.06	1504.19
547.274	1477.19
547.487	1460.19
547.7	1503.19
547.914	1468.19
548.127	1511.19
548.34	1510.19
548.554	1528.19
548.767	1476.19
548.98	1480.19
549.193	1510.19
549.407	1586.19
549.62	1597.19
549.833	1495.19
550.046	1499.19
550.259	1487.19
550.473	1447.19
550.686	1471.19
550.899	1427.19
551.112	1435.19
551.325	1402.19
551.538	1512.19
551.751	1772.19
551.964	1414.19
552.177	1399.19
552.39	1418.19
552.603	1460.19
552.816	1463.19
553.029	1520.19
553.242	1573.19
553.455	1486.19
553.667	1487.19
553.88	1468.19
554.093	1435.19
554.306	1444.19
554.519	1373.19
554.732	1368.19
554.944	1385.19
555.157	1440.19
555.37	1372.19
555.583	1409.19
555.795	1336.19
556.008	1330.19
556.221	1315.19
556.433	1265.19
556.646	1247.19
556.859	1273.19
557.071	1270.19
557.284	1262.19
557.496	1299.19
557.709	1244.19
557.921	1218.19
558.134	1251.19
558.346	1282.19
558.559	1240.19
558.771	1225.19
558.984	1208.19
559.196	1172.19
559.409	1156.19
559.621	1207.19
559.833	1208.19
560.046	1250.19
560.258	1266.19
560.47	1219.19
560.683	1228.19
560.895	1208.19
561.107	1203.19
561.32	1221.19
561.532	1251.19
561.744	1208.19
561.956	1231.19
562.168	1171.19
562.381	1189.19
562.593	1193.19
562.805	1215.19
563.017	1170.19
563.229	1178.19
563.441	1237.19
563.653	1186.19
563.865	1208.19
564.077	1178.19
564.289	1152.19
564.501	1204.19
564.713	1244.19
564.925	1246.19
565.137	1342.19
565.349	1278.19
565.561	1256.19
565.773	1246.19
565.985	1292.19
566.197	1359.19
566.408	1438.19
566.62	1488.19
566.832	1479.19
567.044	1439.19
567.255	1391.19
567.467	1457.19
567.679	1474.19
567.891	1514.19
568.102	1502.19
568.314	1441.19
568.526	1346.19
568.737	1320.19
568.949	1252.19
569.161	1212.19
569.372	1190.19
569.584	1200.19
569.795	1162.19
570.007	1154.19
570.218	1108.19
570.43	1090.19
570.641	1080.19
570.853	1097.19
571.064	1060.19
571.276	1040.19
571.487	1076.19
571.698	1043.19
571.91	1012.19
572.121	1016.19
572.333	1016.19
572.544	983.19
572.755	952.19
572.966	954.19
573.178	951.19
573.389	982.19
573.6	1003.19
573.811	1083.19
574.023	978.19
574.234	971.19
574.445	930.19
574.656	896.19
574.867	911.19
575.078	922.19
575.289	946.19
575.501	908.19
575.712	894.19
575.923	902.19
576.134	944.19
576.345	884.19
576.556	866.19
576.767	871.19
576.978	871.19
577.188	874.19
577.399	864.19
577.61	856.19
577.821	830.19
578.032	814.19
578.243	828.19
578.454	835.19
578.665	840.19
578.875	816.19
579.086	794.19
579.297	846.19
579.508	865.19
579.718	833.19
579.929	831.19
580.14	780.19
580.35	766.19
580.561	826.19
580.772	897.19
580.982	851.19
581.193	787.19
581.403	782.19
581.614	779.19
581.825	763.19
582.035	788.19
582.246	772.19
582.456	796.19
582.667	817.19
582.877	760.19
583.087	761.19
583.298	755.19
583.508	761.19
583.719	776.19
583.929	811.19
584.139	756.19
584.35	760.19
584.56	741.19
584.77	773.19
584.981	757.19
585.191	766.19
585.401	798.19
585.611	756.19
585.821	754.19
586.032	737.19
586.242	717.19
586.452	753.19
586.662	723.19
586.872	736.19
587.082	714.19
587.292	784.19
587.502	758.19
587.713	752.19
587.923	746.19
588.133	742.19
588.343	748.19
588.553	717.19
588.762	707.19
588.972	716.19
589.182	748.19
589.392	726.19
589.602	770.19
589.812	743.19
590.022	692.19
590.232	717.19
590.441	742.19
590.651	719.19
590.861	730.19
591.071	718.19
591.281	710.19
591.49	710.19
591.7	727.19
591.91	715.19
592.119	716.19
592.329	732.19
592.539	735.19
592.748	741.19
592.958	729.19
593.167	746.19
593.377	746.19
593.587	756.19
593.796	737.19
594.006	767.19
594.215	752.19
594.424	734.19
594.634	747.19
594.843	740.19
595.053	773.19
595.262	711.19
595.472	720.19
595.681	734.19
595.89	708.19
596.1	693.19
596.309	672.19
596.518	666.19
596.727	681.19
596.937	678.19
597.146	659.19
597.355	643.19
597.564	642.19
597.774	636.19
597.983	636.19
598.192	619.19
598.401	610.19
598.61	607.19
598.819	594.19
599.028	619.19
599.237	606.19
599.446	618.19
599.655	586.19
599.864	602.19
600.073	599.19
600.282	565.19
600.491	608.19
600.7	602.19
600.909	580.19
601.118	586.19
601.327	600.19
601.536	590.19
601.745	572.19
601.953	585.19
602.162	596.19
602.371	589.19
602.58	555.19
602.789	609.19
602.997	582.19
603.206	570.19
603.415	577.19
603.623	582.19
603.832	574.19
604.041	589.19
604.249	566.19
604.458	559.19
604.666	594.19
604.875	573.19
605.084	582.19
605.292	564.19
605.501	561.19
605.709	546.19
605.918	550.19
606.126	523.19
606.334	539.19
606.543	537.19
606.751	550.19
606.96	561.19
607.168	538.19
607.376	523.19
607.585	534.19
607.793	535.19
608.001	565.19
608.21	530.19
608.418	535.19
608.626	528.19
608.834	517.19
609.043	511.19
609.251	528.19
609.459	522.19
609.667	531.19
609.875	526.19
610.083	563.19
610.291	536.19
610.499	555.19
610.707	529.19
610.916	513.19
611.124	540.19
611.332	524.19
611.54	518.19
611.748	542.19
611.955	505.19
612.163	474.19
612.371	507.19
612.579	549.19
612.787	513.19
612.995	517.19
613.203	518.19
613.411	534.19
613.618	514.19
613.826	528.19
614.034	519.19
614.242	518.19
614.449	502.19
614.657	499.19
614.865	491.19
615.072	523.19
615.28	506.19
615.488	508.19
615.695	535.19
615.903	501.19
616.111	500.19
616.318	484.19
616.526	526.19
616.733	499.19
616.941	498.19
617.148	482.19
617.356	492.19
617.563	498.19
617.771	490.19
617.978	463.19
618.185	499.19
618.393	480.19
618.6	462.19
618.807	499.19
619.015	486.19
619.222	487.19
619.429	469.19
619.637	510.19
619.844	485.19
620.051	473.19
620.258	469.19
620.466	467.19
620.673	446.19
620.88	454.19
621.087	431.19
621.294	454.19
621.501	460.19
621.708	456.19
621.915	464.19
622.122	459.19
622.329	453.19
622.536	459.19
622.743	466.19
622.95	452.19
623.157	439.19
623.364	430.19
623.571	436.19
623.778	450.19
623.985	440.19
624.192	436.19
624.399	436.19
624.606	431.19
624.812	422.19
625.019	428.19
625.226	440.19
625.433	425.19
625.639	443.19
625.846	408.19
626.053	419.19
626.259	415.19
626.466	413.19
626.673	405.19
626.879	396.19
627.086	390.19
627.293	388.19
627.499	390.19
627.706	391.19
627.912	417.19
628.119	411.19
628.325	410.19
628.532	385.19
628.738	379.19
628.945	401.19
629.151	400.19
629.357	422.19
629.564	388.19
629.77	415.19
629.976	379.19
630.183	377.19
630.389	383.19
630.595	388.19
630.802	390.19
631.008	382.19
631.214	373.19
631.42	381.19
631.627	367.19
631.833	359.19
632.039	369.19
632.245	363.19
632.451	363.19
632.657	343.19
632.863	357.19
633.069	359.19
633.275	360.19
633.481	360.19
633.688	354.19
633.893	361.19
634.099	370.19
634.305	368.19
634.511	332.19
634.717	358.19
634.923	363.19
635.129	346.19
635.335	345.19
635.541	353.19
635.747	356.19
635.952	341.19
636.158	326.19
636.364	357.19
636.57	348.19
636.775	318.19
636.981	332.19
637.187	357.19
637.392	335.19
637.598	332.19
637.804	352.19
638.009	334.19
638.215	340.19
638.421	340.19
638.626	322.19
638.832	325.19
639.037	342.19
639.243	308.19
639.448	341.19
639.654	335.19
639.859	347.19
640.065	307.19
640.27	322.19
640.475	315.19
640.681	323.19
640.886	303.19
641.091	340.19
641.297	324.19
641.502	315.19
641.707	309.19
641.913	330.19
642.118	324.19
642.323	312.19
642.528	324.19
642.733	297.19
642.939	316.19
643.144	311.19
643.349	304.19
643.554	301.19
643.759	300.19
643.964	310.19
644.169	308.19
644.374	304.19
644.579	311.19
644.784	341.19
644.989	326.19
645.194	311.19
645.399	305.19
645.604	282.19
645.809	301.19
646.014	315.19
646.219	314.19
646.423	315.19
646.628	316.19
646.833	327.19
647.038	307.19
647.243	311.19
647.447	307.19
647.652	306.19
647.857	318.19
648.062	304.19
648.266	318.19
648.471	325.19
648.676	306.19
648.88	308.19
649.085	313.19
649.289	328.19
649.494	302.19
649.698	320.19
649.903	300.19
650.107	306.19
650.312	279.19
650.516	294.19
650.721	268.19
650.925	281.19
651.13	276.19
651.334	278.19
651.539	276.19
651.743	273.19
651.947	259.19
652.152	258.19
652.356	245.19
652.56	216.19
652.764	244.19
652.969	244.19
653.173	249.19
653.377	254.19
653.581	250.19
653.785	239.19
653.99	222.19
654.194	231.19
654.398	226.19
654.602	250.19
654.806	243.19
655.01	235.19
655.214	235.19
655.418	237.19
655.622	231.19
655.826	244.19
656.03	235.19
656.234	244.19
656.438	268.19
656.642	266.19
656.846	271.19
657.049	229.19
657.253	227.19
657.457	214.19
657.661	186.19
657.865	170.19
658.068	190.19
658.272	169.19
658.476	167.19
658.68	148.19
658.883	143.19
659.087	138.19
659.291	135.19
659.494	128.19
659.698	128.19
659.901	122.19
660.105	129.19
660.309	110.19
660.512	112.19
660.716	103.19
660.919	101.19
661.123	111.19
661.326	98.19
661.53	114.19
661.733	111.19
661.936	106.19
662.14	95.19
662.343	102.19
662.546	85.19
662.75	91.19
662.953	88.19
663.156	92.19
663.36	83.19
663.563	88.19
663.766	81.19
663.969	85.19
664.173	82.19
664.376	89.19
664.579	79.19
664.782	91.19
664.985	91.19
665.188	75.19
665.391	76.19
665.594	73.19
665.797	75.19
666	80.19
666.203	78.19
666.406	95.19
666.609	88.19
666.812	91.19
667.015	91.19
667.218	81.19
667.421	90.19
667.624	68.19
667.827	81.19
668.03	78.19
668.232	71.19
668.435	93.19
668.638	91.19
668.841	75.19
669.043	89.19
669.246	98.19
669.449	93.19
669.651	89.19
669.854	77.19
670.057	85.19
670.259	75.19
670.462	80.19
670.665	71.19
670.867	86.19
671.07	82.19
671.272	75.19
671.475	94.19
671.677	80.19
671.88	81.19
672.082	58.19
672.284	80.19
672.487	82.19
672.689	84.19
672.892	86.19
