Data from WStandard_LampEnergy10_LIBS07252019.E.O._I.C._HRD10591_15-53-23-928.txt Node
Date: Thu Jul 25 15:53:23 EDT 2019
User: cochatt
Spectrometer: HR+D1059
Trigger mode: 1
Integration Time (sec): 1.000000E-1
Scans to average: 1
Electric dark correction enabled: true
Nonlinearity correction enabled: false
Boxcar width: 0
XAxis mode: Wavelengths
Number of Pixels in Spectrum: 2048
>>>>>Begin Spectral Data<<<<<
223.165	-15.12
223.4	-15.12
223.635	-15.12
223.869	-10.12
224.104	-20.12
224.338	-15.12
224.573	-6.12
224.808	-10.12
225.042	-10.12
225.277	-12.12
225.511	-1.12
225.746	-2.12
225.98	-6.12
226.215	18.88
226.449	19.88
226.683	14.88
226.918	34.88
227.152	19.88
227.387	31.88
227.621	43.88
227.856	42.88
228.09	57.88
228.324	57.88
228.559	59.88
228.793	78.88
229.027	146.88
229.262	145.88
229.496	147.88
229.73	148.88
229.964	178.88
230.199	169.88
230.433	176.88
230.667	180.88
230.901	192.88
231.136	182.88
231.37	167.88
231.604	165.88
231.838	200.88
232.072	185.88
232.306	187.88
232.541	184.88
232.775	208.88
233.009	211.88
233.243	210.88
233.477	202.88
233.711	193.88
233.945	204.88
234.179	208.88
234.413	218.88
234.647	218.88
234.881	213.88
235.115	186.88
235.349	205.88
235.583	202.88
235.817	201.88
236.051	202.88
236.285	195.88
236.519	206.88
236.753	228.88
236.987	227.88
237.221	234.88
237.455	250.88
237.689	241.88
237.922	252.88
238.156	219.88
238.39	222.88
238.624	242.88
238.858	244.88
239.091	267.88
239.325	270.88
239.559	304.88
239.793	317.88
240.027	298.88
240.26	308.88
240.494	241.88
240.728	227.88
240.961	250.88
241.195	232.88
241.429	246.88
241.662	251.88
241.896	258.88
242.13	247.88
242.363	277.88
242.597	274.88
242.83	279.88
243.064	282.88
243.298	283.88
243.531	287.88
243.765	277.88
243.998	305.88
244.232	253.88
244.465	269.88
244.699	267.88
244.932	300.88
245.166	325.88
245.399	306.88
245.633	275.88
245.866	315.88
246.099	315.88
246.333	301.88
246.566	306.88
246.8	312.88
247.033	354.88
247.266	317.88
247.5	315.88
247.733	327.88
247.966	330.88
248.2	384.88
248.433	359.88
248.666	381.88
248.899	404.88
249.133	443.88
249.366	473.88
249.599	408.88
249.832	368.88
250.066	366.88
250.299	369.88
250.532	361.88
250.765	345.88
250.998	340.88
251.231	367.88
251.465	367.88
251.698	343.88
251.931	339.88
252.164	367.88
252.397	375.88
252.63	350.88
252.863	332.88
253.096	330.88
253.329	341.88
253.562	352.88
253.795	383.88
254.028	371.88
254.261	347.88
254.494	358.88
254.727	359.88
254.96	366.88
255.193	362.88
255.426	411.88
255.659	445.88
255.892	484.88
256.124	393.88
256.357	394.88
256.59	412.88
256.823	422.88
257.056	434.88
257.289	475.88
257.521	521.88
257.754	468.88
257.987	467.88
258.22	484.88
258.452	478.88
258.685	408.88
258.918	405.88
259.151	393.88
259.383	384.88
259.616	357.88
259.849	381.88
260.081	413.88
260.314	442.88
260.547	486.88
260.779	473.88
261.012	445.88
261.244	408.88
261.477	387.88
261.71	413.88
261.942	407.88
262.175	394.88
262.407	429.88
262.64	400.88
262.872	379.88
263.105	373.88
263.337	387.88
263.57	379.88
263.802	369.88
264.035	372.88
264.267	365.88
264.499	347.88
264.732	379.88
264.964	389.88
265.197	414.88
265.429	436.88
265.661	445.88
265.894	503.88
266.126	504.88
266.358	468.88
266.591	477.88
266.823	507.88
267.055	459.88
267.287	457.88
267.52	453.88
267.752	472.88
267.984	445.88
268.216	471.88
268.448	467.88
268.681	472.88
268.913	439.88
269.145	412.88
269.377	402.88
269.609	476.88
269.841	517.88
270.073	567.88
270.306	635.88
270.538	624.88
270.77	559.88
271.002	489.88
271.234	500.88
271.466	488.88
271.698	520.88
271.93	599.88
272.162	590.88
272.394	550.88
272.626	507.88
272.858	490.88
273.09	423.88
273.322	421.88
273.553	408.88
273.785	432.88
274.017	407.88
274.249	447.88
274.481	430.88
274.713	423.88
274.945	434.88
275.176	430.88
275.408	402.88
275.64	411.88
275.872	439.88
276.104	450.88
276.335	470.88
276.567	531.88
276.799	527.88
277.031	495.88
277.262	505.88
277.494	535.88
277.726	523.88
277.957	525.88
278.189	491.88
278.421	464.88
278.652	430.88
278.884	439.88
279.115	435.88
279.347	447.88
279.579	433.88
279.81	443.88
280.042	472.88
280.273	545.88
280.505	525.88
280.736	528.88
280.968	507.88
281.199	437.88
281.431	424.88
281.662	425.88
281.894	430.88
282.125	452.88
282.356	443.88
282.588	460.88
282.819	459.88
283.051	488.88
283.282	513.88
283.513	479.88
283.745	449.88
283.976	445.88
284.207	422.88
284.439	457.88
284.67	457.88
284.901	440.88
285.132	469.88
285.364	467.88
285.595	481.88
285.826	443.88
286.057	465.88
286.288	465.88
286.52	466.88
286.751	518.88
286.982	510.88
287.213	477.88
287.444	433.88
287.675	445.88
287.906	486.88
288.138	489.88
288.369	480.88
288.6	465.88
288.831	443.88
289.062	464.88
289.293	466.88
289.524	465.88
289.755	459.88
289.986	458.88
290.217	456.88
290.448	435.88
290.679	472.88
290.91	467.88
291.141	482.88
291.371	494.88
291.602	492.88
291.833	494.88
292.064	509.88
292.295	530.88
292.526	522.88
292.757	519.88
292.987	484.88
293.218	486.88
293.449	507.88
293.68	576.88
293.91	593.88
294.141	567.88
294.372	579.88
294.603	555.88
294.833	578.88
295.064	544.88
295.295	505.88
295.525	474.88
295.756	465.88
295.987	467.88
296.217	462.88
296.448	484.88
296.679	479.88
296.909	464.88
297.14	477.88
297.37	507.88
297.601	517.88
297.831	530.88
298.062	519.88
298.292	491.88
298.523	483.88
298.753	487.88
298.984	501.88
299.214	485.88
299.445	517.88
299.675	511.88
299.905	515.88
300.136	513.88
300.366	486.88
300.597	467.88
300.827	472.88
301.057	498.88
301.288	489.88
301.518	517.88
301.748	525.88
301.979	544.88
302.209	585.88
302.439	588.88
302.669	593.88
302.9	565.88
303.13	519.88
303.36	522.88
303.59	528.88
303.82	525.88
304.051	529.88
304.281	554.88
304.511	552.88
304.741	562.88
304.971	640.88
305.201	608.88
305.431	557.88
305.661	499.88
305.891	433.88
306.121	467.88
306.352	490.88
306.582	530.88
306.812	547.88
307.042	558.88
307.272	577.88
307.502	599.88
307.731	647.88
307.961	659.88
308.191	606.88
308.421	543.88
308.651	504.88
308.881	498.88
309.111	518.88
309.341	507.88
309.571	511.88
309.8	505.88
310.03	483.88
310.26	489.88
310.49	506.88
310.72	519.88
310.949	542.88
311.179	545.88
311.409	521.88
311.639	521.88
311.868	532.88
312.098	509.88
312.328	505.88
312.557	509.88
312.787	507.88
313.017	531.88
313.246	544.88
313.476	547.88
313.706	548.88
313.935	543.88
314.165	569.88
314.394	550.88
314.624	585.88
314.853	622.88
315.083	629.88
315.312	611.88
315.542	592.88
315.771	553.88
316.001	548.88
316.23	577.88
316.46	585.88
316.689	565.88
316.919	544.88
317.148	521.88
317.377	548.88
317.607	585.88
317.836	635.88
318.065	629.88
318.295	615.88
318.524	602.88
318.753	561.88
318.983	562.88
319.212	561.88
319.441	572.88
319.67	570.88
319.9	586.88
320.129	588.88
320.358	620.88
320.587	636.88
320.816	630.88
321.046	603.88
321.275	593.88
321.504	587.88
321.733	629.88
321.962	606.88
322.191	562.88
322.42	545.88
322.649	570.88
322.878	584.88
323.108	567.88
323.337	581.88
323.566	598.88
323.795	583.88
324.024	579.88
324.253	566.88
324.482	562.88
324.71	562.88
324.939	534.88
325.168	554.88
325.397	590.88
325.626	567.88
325.855	577.88
326.084	567.88
326.313	569.88
326.542	575.88
326.77	624.88
326.999	587.88
327.228	567.88
327.457	549.88
327.686	535.88
327.914	544.88
328.143	549.88
328.372	550.88
328.6	554.88
328.829	540.88
329.058	541.88
329.287	536.88
329.515	552.88
329.744	606.88
329.972	618.88
330.201	624.88
330.43	624.88
330.658	620.88
330.887	601.88
331.115	612.88
331.344	603.88
331.572	584.88
331.801	587.88
332.03	604.88
332.258	596.88
332.486	617.88
332.715	620.88
332.943	633.88
333.172	626.88
333.4	614.88
333.629	613.88
333.857	679.88
334.085	742.88
334.314	813.88
334.542	843.88
334.771	777.88
334.999	689.88
335.227	633.88
335.455	645.88
335.684	638.88
335.912	634.88
336.14	675.88
336.369	606.88
336.597	618.88
336.825	623.88
337.053	635.88
337.281	681.88
337.51	695.88
337.738	701.88
337.966	675.88
338.194	611.88
338.422	619.88
338.65	586.88
338.878	604.88
339.106	573.88
339.334	565.88
339.562	567.88
339.79	605.88
340.018	630.88
340.246	651.88
340.474	631.88
340.702	614.88
340.93	650.88
341.158	613.88
341.386	608.88
341.614	644.88
341.842	605.88
342.07	624.88
342.298	621.88
342.526	612.88
342.754	618.88
342.981	622.88
343.209	598.88
343.437	601.88
343.665	604.88
343.893	619.88
344.12	649.88
344.348	650.88
344.576	622.88
344.804	597.88
345.031	593.88
345.259	595.88
345.487	576.88
345.714	556.88
345.942	565.88
346.17	587.88
346.397	589.88
346.625	598.88
346.853	535.88
347.08	567.88
347.308	560.88
347.535	587.88
347.763	581.88
347.99	571.88
348.218	565.88
348.445	565.88
348.673	570.88
348.9	579.88
349.128	605.88
349.355	644.88
349.583	592.88
349.81	591.88
350.037	529.88
350.265	532.88
350.492	547.88
350.72	559.88
350.947	594.88
351.174	586.88
351.402	557.88
351.629	554.88
351.856	535.88
352.083	535.88
352.311	575.88
352.538	554.88
352.765	603.88
352.992	577.88
353.22	581.88
353.447	555.88
353.674	583.88
353.901	574.88
354.128	540.88
354.355	575.88
354.583	594.88
354.81	599.88
355.037	601.88
355.264	563.88
355.491	577.88
355.718	575.88
355.945	571.88
356.172	559.88
356.399	534.88
356.626	540.88
356.853	600.88
357.08	647.88
357.307	673.88
357.534	671.88
357.761	577.88
357.988	561.88
358.215	537.88
358.441	553.88
358.668	552.88
358.895	568.88
359.122	621.88
359.349	649.88
359.576	631.88
359.802	569.88
360.029	571.88
360.256	559.88
360.483	573.88
360.709	590.88
360.936	600.88
361.163	622.88
361.39	689.88
361.616	756.88
361.843	698.88
362.07	661.88
362.296	586.88
362.523	579.88
362.749	569.88
362.976	595.88
363.203	584.88
363.429	574.88
363.656	580.88
363.882	607.88
364.109	674.88
364.335	679.88
364.562	623.88
364.788	610.88
365.015	581.88
365.241	565.88
365.468	589.88
365.694	602.88
365.92	636.88
366.147	599.88
366.373	575.88
366.599	572.88
366.826	556.88
367.052	567.88
367.278	591.88
367.505	589.88
367.731	598.88
367.957	603.88
368.184	643.88
368.41	666.88
368.636	663.88
368.862	681.88
369.089	682.88
369.315	653.88
369.541	618.88
369.767	593.88
369.993	593.88
370.219	605.88
370.445	618.88
370.672	674.88
370.898	671.88
371.124	665.88
371.35	653.88
371.576	659.88
371.802	678.88
372.028	644.88
372.254	640.88
372.48	612.88
372.706	618.88
372.932	603.88
373.158	626.88
373.384	641.88
373.61	659.88
373.835	669.88
374.061	631.88
374.287	641.88
374.513	640.88
374.739	639.88
374.965	634.88
375.191	641.88
375.416	691.88
375.642	659.88
375.868	721.88
376.094	704.88
376.319	662.88
376.545	641.88
376.771	663.88
376.997	704.88
377.222	683.88
377.448	675.88
377.674	656.88
377.899	669.88
378.125	718.88
378.35	685.88
378.576	625.88
378.802	619.88
379.027	613.88
379.253	646.88
379.478	646.88
379.704	677.88
379.929	637.88
380.155	625.88
380.38	657.88
380.606	664.88
380.831	685.88
381.057	717.88
381.282	708.88
381.507	707.88
381.733	747.88
381.958	751.88
382.184	672.88
382.409	681.88
382.634	695.88
382.86	692.88
383.085	659.88
383.31	695.88
383.535	806.88
383.761	803.88
383.986	761.88
384.211	745.88
384.436	739.88
384.662	768.88
384.887	772.88
385.112	733.88
385.337	747.88
385.562	757.88
385.787	765.88
386.013	786.88
386.238	752.88
386.463	776.88
386.688	798.88
386.913	843.88
387.138	810.88
387.363	781.88
387.588	773.88
387.813	774.88
388.038	791.88
388.263	816.88
388.488	786.88
388.713	753.88
388.938	747.88
389.163	742.88
389.387	771.88
389.612	765.88
389.837	768.88
390.062	773.88
390.287	763.88
390.512	761.88
390.736	746.88
390.961	751.88
391.186	741.88
391.411	746.88
391.636	766.88
391.86	749.88
392.085	752.88
392.31	746.88
392.534	760.88
392.759	773.88
392.984	749.88
393.208	750.88
393.433	817.88
393.658	827.88
393.882	817.88
394.107	809.88
394.331	771.88
394.556	771.88
394.78	794.88
395.005	825.88
395.229	862.88
395.454	871.88
395.678	854.88
395.903	849.88
396.127	825.88
396.352	829.88
396.576	849.88
396.801	841.88
397.025	850.88
397.249	846.88
397.474	845.88
397.698	795.88
397.922	849.88
398.147	906.88
398.371	897.88
398.595	917.88
398.82	861.88
399.044	893.88
399.268	933.88
399.492	955.88
399.717	977.88
399.941	1004.88
400.165	980.88
400.389	958.88
400.613	1013.88
400.837	1105.88
401.062	1163.88
401.286	1039.88
401.51	983.88
401.734	986.88
401.958	955.88
402.182	914.88
402.406	875.88
402.63	873.88
402.854	899.88
403.078	901.88
403.302	920.88
403.526	913.88
403.75	959.88
403.974	919.88
404.198	950.88
404.422	969.88
404.645	1015.88
404.869	980.88
405.093	897.88
405.317	892.88
405.541	939.88
405.765	930.88
405.988	919.88
406.212	951.88
406.436	968.88
406.66	989.88
406.883	1033.88
407.107	1149.88
407.331	1206.88
407.555	1290.88
407.778	1129.88
408.002	1007.88
408.226	977.88
408.449	969.88
408.673	953.88
408.896	958.88
409.12	937.88
409.344	955.88
409.567	938.88
409.791	962.88
410.014	988.88
410.238	1033.88
410.461	1077.88
410.685	952.88
410.908	938.88
411.132	938.88
411.355	955.88
411.578	941.88
411.802	945.88
412.025	958.88
412.249	935.88
412.472	918.88
412.695	925.88
412.919	894.88
413.142	946.88
413.365	938.88
413.589	949.88
413.812	1000.88
414.035	1046.88
414.258	919.88
414.482	929.88
414.705	963.88
414.928	907.88
415.151	909.88
415.374	937.88
415.597	930.88
415.821	953.88
416.044	944.88
416.267	957.88
416.49	931.88
416.713	913.88
416.936	962.88
417.159	990.88
417.382	945.88
417.605	934.88
417.828	957.88
418.051	959.88
418.274	911.88
418.497	941.88
418.72	961.88
418.943	931.88
419.166	975.88
419.389	982.88
419.611	968.88
419.834	984.88
420.057	937.88
420.28	937.88
420.503	933.88
420.726	959.88
420.948	963.88
421.171	960.88
421.394	939.88
421.617	980.88
421.839	1000.88
422.062	992.88
422.285	966.88
422.507	959.88
422.73	914.88
422.953	905.88
423.175	877.88
423.398	917.88
423.621	917.88
423.843	957.88
424.066	982.88
424.288	1041.88
424.511	1040.88
424.733	1016.88
424.956	935.88
425.178	924.88
425.401	933.88
425.623	957.88
425.846	955.88
426.068	997.88
426.291	979.88
426.513	961.88
426.735	970.88
426.958	1033.88
427.18	1085.88
427.402	1014.88
427.625	1031.88
427.847	993.88
428.069	938.88
428.292	941.88
428.514	913.88
428.736	909.88
428.958	906.88
429.181	943.88
429.403	1085.88
429.625	1258.88
429.847	1061.88
430.069	951.88
430.292	1021.88
430.514	1025.88
430.736	976.88
430.958	971.88
431.18	931.88
431.402	872.88
431.624	863.88
431.846	818.88
432.068	721.88
432.29	748.88
432.512	787.88
432.734	860.88
432.956	911.88
433.178	969.88
433.4	983.88
433.622	951.88
433.844	911.88
434.066	874.88
434.287	825.88
434.509	789.88
434.731	825.88
434.953	918.88
435.175	909.88
435.397	901.88
435.618	898.88
435.84	854.88
436.062	875.88
436.284	938.88
436.505	944.88
436.727	929.88
436.949	933.88
437.17	906.88
437.392	928.88
437.614	855.88
437.835	812.88
438.057	802.88
438.278	878.88
438.5	869.88
438.721	905.88
438.943	951.88
439.165	933.88
439.386	925.88
439.608	966.88
439.829	956.88
440.05	976.88
440.272	962.88
440.493	946.88
440.715	986.88
440.936	1029.88
441.158	1085.88
441.379	1077.88
441.6	1068.88
441.822	1029.88
442.043	1029.88
442.264	979.88
442.486	957.88
442.707	964.88
442.928	965.88
443.149	987.88
443.371	1024.88
443.592	1045.88
443.813	1039.88
444.034	1029.88
444.255	1010.88
444.476	1037.88
444.698	1056.88
444.919	1057.88
445.14	1150.88
445.361	1106.88
445.582	1081.88
445.803	1083.88
446.024	1053.88
446.245	1087.88
446.466	1081.88
446.687	1044.88
446.908	1026.88
447.129	1049.88
447.35	1033.88
447.571	1014.88
447.792	997.88
448.013	957.88
448.234	955.88
448.455	1003.88
448.675	1027.88
448.896	935.88
449.117	901.88
449.338	914.88
449.559	966.88
449.779	953.88
450	1045.88
450.221	1015.88
450.442	1056.88
450.662	952.88
450.883	905.88
451.104	894.88
451.324	890.88
451.545	913.88
451.766	851.88
451.986	827.88
452.207	838.88
452.428	831.88
452.648	791.88
452.869	763.88
453.089	791.88
453.31	793.88
453.53	773.88
453.751	753.88
453.971	727.88
454.192	753.88
454.412	781.88
454.633	809.88
454.853	777.88
455.073	754.88
455.294	784.88
455.514	746.88
455.734	787.88
455.955	769.88
456.175	765.88
456.395	726.88
456.616	743.88
456.836	763.88
457.056	734.88
457.276	737.88
457.497	715.88
457.717	706.88
457.937	726.88
458.157	724.88
458.377	708.88
458.598	714.88
458.818	658.88
459.038	720.88
459.258	700.88
459.478	729.88
459.698	706.88
459.918	760.88
460.138	804.88
460.358	821.88
460.578	853.88
460.798	839.88
461.018	906.88
461.238	876.88
461.458	863.88
461.678	840.88
461.898	803.88
462.118	816.88
462.338	828.88
462.558	872.88
462.777	874.88
462.997	896.88
463.217	900.88
463.437	887.88
463.657	830.88
463.876	843.88
464.096	862.88
464.316	840.88
464.536	870.88
464.755	918.88
464.975	892.88
465.195	864.88
465.414	874.88
465.634	883.88
465.854	887.88
466.073	967.88
466.293	951.88
466.512	872.88
466.732	890.88
466.951	907.88
467.171	913.88
467.391	874.88
467.61	884.88
467.829	925.88
468.049	995.88
468.268	1044.88
468.488	977.88
468.707	913.88
468.927	901.88
469.146	911.88
469.365	901.88
469.585	945.88
469.804	926.88
470.023	946.88
470.243	930.88
470.462	974.88
470.681	959.88
470.901	933.88
471.12	940.88
471.339	935.88
471.558	894.88
471.777	912.88
471.997	933.88
472.216	861.88
472.435	791.88
472.654	775.88
472.873	797.88
473.092	826.88
473.311	859.88
473.53	817.88
473.749	848.88
473.968	846.88
474.187	856.88
474.406	847.88
474.625	873.88
474.844	872.88
475.063	885.88
475.282	897.88
475.501	844.88
475.72	846.88
475.939	937.88
476.158	881.88
476.377	881.88
476.596	858.88
476.814	836.88
477.033	810.88
477.252	868.88
477.471	897.88
477.69	939.88
477.908	962.88
478.127	1001.88
478.346	1029.88
478.564	1021.88
478.783	1002.88
479.002	1032.88
479.22	1017.88
479.439	1035.88
479.658	1040.88
479.876	991.88
480.095	893.88
480.313	892.88
480.532	913.88
480.751	894.88
480.969	867.88
481.188	817.88
481.406	789.88
481.624	785.88
481.843	801.88
482.061	803.88
482.28	902.88
482.498	903.88
482.717	871.88
482.935	892.88
483.153	973.88
483.372	1060.88
483.59	1026.88
483.808	997.88
484.027	963.88
484.245	987.88
484.463	1177.88
484.681	1307.88
484.9	1054.88
485.118	955.88
485.336	935.88
485.554	936.88
485.772	872.88
485.99	890.88
486.209	901.88
486.427	906.88
486.645	929.88
486.863	1010.88
487.081	1036.88
487.299	1034.88
487.517	1021.88
487.735	1105.88
487.953	1221.88
488.171	1186.88
488.389	1141.88
488.607	1149.88
488.825	1162.88
489.043	1078.88
489.261	1009.88
489.479	1063.88
489.696	1049.88
489.914	1039.88
490.132	1039.88
490.35	1095.88
490.568	1177.88
490.786	1205.88
491.003	1213.88
491.221	1247.88
491.439	1293.88
491.657	1314.88
491.874	1362.88
492.092	1453.88
492.31	1525.88
492.527	1455.88
492.745	1402.88
492.963	1311.88
493.18	1320.88
493.398	1341.88
493.615	1340.88
493.833	1263.88
494.05	1277.88
494.268	1217.88
494.485	1232.88
494.703	1279.88
494.92	1251.88
495.138	1253.88
495.355	1248.88
495.573	1249.88
495.79	1280.88
496.008	1271.88
496.225	1213.88
496.442	1242.88
496.66	1275.88
496.877	1240.88
497.094	1252.88
497.312	1220.88
497.529	1190.88
497.746	1215.88
497.963	1317.88
498.181	1289.88
498.398	1275.88
498.615	1172.88
498.832	1155.88
499.049	1150.88
499.267	1156.88
499.484	1271.88
499.701	1366.88
499.918	1356.88
500.135	1495.88
500.352	1539.88
500.569	1567.88
500.786	1715.88
501.003	1593.88
501.22	1422.88
501.437	1413.88
501.654	1440.88
501.871	1340.88
502.088	1214.88
502.305	1211.88
502.522	1130.88
502.739	1093.88
502.956	1064.88
503.172	1083.88
503.389	1026.88
503.606	993.88
503.823	1003.88
504.04	1010.88
504.256	1013.88
504.473	1008.88
504.69	1053.88
504.907	993.88
505.123	1005.88
505.34	1081.88
505.557	1341.88
505.773	1124.88
505.99	949.88
506.207	883.88
506.423	911.88
506.64	889.88
506.856	944.88
507.073	1010.88
507.289	1098.88
507.506	1024.88
507.722	903.88
507.939	905.88
508.155	874.88
508.372	864.88
508.588	825.88
508.805	811.88
509.021	768.88
509.238	775.88
509.454	777.88
509.67	752.88
509.887	730.88
510.103	738.88
510.319	763.88
510.536	736.88
510.752	771.88
510.968	754.88
511.184	792.88
511.401	764.88
511.617	714.88
511.833	716.88
512.049	711.88
512.265	728.88
512.481	721.88
512.698	752.88
512.914	783.88
513.13	754.88
513.346	717.88
513.562	711.88
513.778	715.88
513.994	757.88
514.21	781.88
514.426	758.88
514.642	795.88
514.858	766.88
515.074	713.88
515.29	699.88
515.506	730.88
515.721	742.88
515.937	736.88
516.153	805.88
516.369	811.88
516.585	745.88
516.801	710.88
517.016	725.88
517.232	750.88
517.448	790.88
517.664	782.88
517.879	800.88
518.095	807.88
518.311	773.88
518.527	758.88
518.742	762.88
518.958	739.88
519.173	769.88
519.389	796.88
519.605	817.88
519.82	809.88
520.036	779.88
520.251	749.88
520.467	788.88
520.682	823.88
520.898	801.88
521.113	733.88
521.329	719.88
521.544	767.88
521.76	743.88
521.975	721.88
522.19	733.88
522.406	740.88
522.621	921.88
522.836	866.88
523.052	749.88
523.267	729.88
523.482	749.88
523.698	752.88
523.913	734.88
524.128	793.88
524.343	799.88
524.559	815.88
524.774	787.88
524.989	763.88
525.204	786.88
525.419	748.88
525.634	731.88
525.849	754.88
526.064	712.88
526.28	719.88
526.495	684.88
526.71	665.88
526.925	659.88
527.14	652.88
527.355	634.88
527.57	634.88
527.785	683.88
527.999	666.88
528.214	680.88
528.429	739.88
528.644	778.88
528.859	807.88
529.074	823.88
529.289	881.88
529.503	883.88
529.718	810.88
529.933	733.88
530.148	700.88
530.363	653.88
530.577	642.88
530.792	618.88
531.007	629.88
531.221	622.88
531.436	649.88
531.651	653.88
531.865	658.88
532.08	690.88
532.295	627.88
532.509	606.88
532.724	619.88
532.938	645.88
533.153	699.88
533.367	739.88
533.582	733.88
533.796	728.88
534.011	723.88
534.225	675.88
534.44	640.88
534.654	638.88
534.868	666.88
535.083	681.88
535.297	706.88
535.511	677.88
535.726	686.88
535.94	695.88
536.154	654.88
536.369	609.88
536.583	647.88
536.797	616.88
537.011	617.88
537.225	595.88
537.44	618.88
537.654	649.88
537.868	639.88
538.082	593.88
538.296	609.88
538.51	641.88
538.724	674.88
538.938	702.88
539.153	729.88
539.367	763.88
539.581	705.88
539.795	677.88
540.009	649.88
540.222	654.88
540.436	686.88
540.65	775.88
540.864	797.88
541.078	844.88
541.292	875.88
541.506	889.88
541.72	963.88
541.934	1033.88
542.147	1083.88
542.361	1023.88
542.575	914.88
542.789	849.88
543.002	771.88
543.216	766.88
543.43	740.88
543.644	797.88
543.857	886.88
544.071	899.88
544.285	963.88
544.498	942.88
544.712	898.88
544.925	972.88
545.139	989.88
545.352	944.88
545.566	942.88
545.779	915.88
545.993	929.88
546.206	982.88
546.42	977.88
546.633	941.88
546.847	971.88
547.06	964.88
547.274	993.88
547.487	1018.88
547.7	1004.88
547.914	1002.88
548.127	978.88
548.34	962.88
548.554	969.88
548.767	922.88
548.98	937.88
549.193	918.88
549.407	986.88
549.62	970.88
549.833	945.88
550.046	894.88
550.259	911.88
550.473	890.88
550.686	889.88
550.899	894.88
551.112	846.88
551.325	835.88
551.538	867.88
551.751	859.88
551.964	715.88
552.177	746.88
552.39	777.88
552.603	847.88
552.816	877.88
553.029	911.88
553.242	929.88
553.455	914.88
553.667	900.88
553.88	886.88
554.093	886.88
554.306	848.88
554.519	841.88
554.732	813.88
554.944	826.88
555.157	841.88
555.37	797.88
555.583	821.88
555.795	779.88
556.008	742.88
556.221	718.88
556.433	734.88
556.646	752.88
556.859	773.88
557.071	749.88
557.284	775.88
557.496	802.88
557.709	775.88
557.921	759.88
558.134	729.88
558.346	754.88
558.559	713.88
558.771	748.88
558.984	691.88
559.196	684.88
559.409	689.88
559.621	652.88
559.833	685.88
560.046	683.88
560.258	688.88
560.47	668.88
560.683	699.88
560.895	668.88
561.107	675.88
561.32	688.88
561.532	712.88
561.744	690.88
561.956	671.88
562.168	673.88
562.381	659.88
562.593	669.88
562.805	651.88
563.017	656.88
563.229	680.88
563.441	655.88
563.653	640.88
563.865	648.88
564.077	631.88
564.289	635.88
564.501	620.88
564.713	647.88
564.925	649.88
565.137	668.88
565.349	632.88
565.561	616.88
565.773	619.88
565.985	654.88
566.197	677.88
566.408	689.88
566.62	667.88
566.832	686.88
567.044	673.88
567.255	669.88
567.467	667.88
567.679	654.88
567.891	674.88
568.102	615.88
568.314	590.88
568.526	542.88
568.737	519.88
568.949	505.88
569.161	491.88
569.372	471.88
569.584	444.88
569.795	462.88
570.007	444.88
570.218	443.88
570.43	448.88
570.641	467.88
570.853	465.88
571.064	485.88
571.276	480.88
571.487	468.88
571.698	485.88
571.91	475.88
572.121	464.88
572.333	451.88
572.544	424.88
572.755	433.88
572.966	418.88
573.178	399.88
573.389	396.88
573.6	410.88
573.811	441.88
574.023	399.88
574.234	399.88
574.445	395.88
574.656	395.88
574.867	397.88
575.078	404.88
575.289	437.88
575.501	427.88
575.712	388.88
575.923	397.88
576.134	426.88
576.345	416.88
576.556	411.88
576.767	405.88
576.978	409.88
577.188	383.88
577.399	370.88
577.61	371.88
577.821	390.88
578.032	381.88
578.243	379.88
578.454	364.88
578.665	357.88
578.875	347.88
579.086	344.88
579.297	330.88
579.508	353.88
579.718	353.88
579.929	349.88
580.14	344.88
580.35	346.88
580.561	349.88
580.772	383.88
580.982	351.88
581.193	370.88
581.403	353.88
581.614	358.88
581.825	359.88
582.035	355.88
582.246	339.88
582.456	368.88
582.667	360.88
582.877	338.88
583.087	331.88
583.298	325.88
583.508	348.88
583.719	332.88
583.929	353.88
584.139	346.88
584.35	327.88
584.56	321.88
584.77	319.88
584.981	337.88
585.191	339.88
585.401	334.88
585.611	345.88
585.821	335.88
586.032	338.88
586.242	298.88
586.452	313.88
586.662	298.88
586.872	325.88
587.082	305.88
587.292	324.88
587.502	317.88
587.713	319.88
587.923	305.88
588.133	321.88
588.343	328.88
588.553	318.88
588.762	295.88
588.972	328.88
589.182	319.88
589.392	312.88
589.602	322.88
589.812	314.88
590.022	317.88
590.232	313.88
590.441	313.88
590.651	312.88
590.861	307.88
591.071	301.88
591.281	305.88
591.49	300.88
591.7	321.88
591.91	309.88
592.119	321.88
592.329	323.88
592.539	328.88
592.748	322.88
592.958	340.88
593.167	338.88
593.377	330.88
593.587	326.88
593.796	325.88
594.006	334.88
594.215	322.88
594.424	348.88
594.634	368.88
594.843	361.88
595.053	338.88
595.262	328.88
595.472	305.88
595.681	321.88
595.89	315.88
596.1	317.88
596.309	321.88
596.518	342.88
596.727	344.88
596.937	331.88
597.146	345.88
597.355	318.88
597.564	317.88
597.774	321.88
597.983	284.88
598.192	294.88
598.401	295.88
598.61	272.88
598.819	298.88
599.028	289.88
599.237	305.88
599.446	304.88
599.655	303.88
599.864	285.88
600.073	296.88
600.282	304.88
600.491	298.88
600.7	292.88
600.909	307.88
601.118	333.88
601.327	346.88
601.536	343.88
601.745	346.88
601.953	353.88
602.162	349.88
602.371	381.88
602.58	353.88
602.789	365.88
602.997	379.88
603.206	362.88
603.415	350.88
603.623	360.88
603.832	363.88
604.041	352.88
604.249	332.88
604.458	330.88
604.666	302.88
604.875	313.88
605.084	313.88
605.292	338.88
605.501	376.88
605.709	373.88
605.918	374.88
606.126	345.88
606.334	379.88
606.543	357.88
606.751	376.88
606.96	362.88
607.168	357.88
607.376	359.88
607.585	356.88
607.793	374.88
608.001	364.88
608.21	353.88
608.418	379.88
608.626	371.88
608.834	371.88
609.043	345.88
609.251	368.88
609.459	369.88
609.667	377.88
609.875	385.88
610.083	375.88
610.291	363.88
610.499	373.88
610.707	375.88
610.916	359.88
611.124	381.88
611.332	370.88
611.54	362.88
611.748	353.88
611.955	367.88
612.163	370.88
612.371	368.88
612.579	361.88
612.787	365.88
612.995	367.88
613.203	353.88
613.411	347.88
613.618	352.88
613.826	371.88
614.034	366.88
614.242	370.88
614.449	374.88
614.657	371.88
614.865	362.88
615.072	365.88
615.28	356.88
615.488	374.88
615.695	380.88
615.903	365.88
616.111	377.88
616.318	387.88
616.526	373.88
616.733	350.88
616.941	373.88
617.148	360.88
617.356	343.88
617.563	357.88
617.771	349.88
617.978	318.88
618.185	359.88
618.393	346.88
618.6	353.88
618.807	353.88
619.015	374.88
619.222	344.88
619.429	323.88
619.637	332.88
619.844	317.88
620.051	309.88
620.258	326.88
620.466	327.88
620.673	336.88
620.88	327.88
621.087	319.88
621.294	309.88
621.501	299.88
621.708	309.88
621.915	310.88
622.122	341.88
622.329	305.88
622.536	333.88
622.743	329.88
622.95	327.88
623.157	325.88
623.364	337.88
623.571	343.88
623.778	351.88
623.985	322.88
624.192	329.88
624.399	318.88
624.606	322.88
624.812	326.88
625.019	321.88
625.226	296.88
625.433	269.88
625.639	275.88
625.846	274.88
626.053	246.88
626.259	258.88
626.466	276.88
626.673	257.88
626.879	229.88
627.086	243.88
627.293	284.88
627.499	309.88
627.706	319.88
627.912	304.88
628.119	306.88
628.325	317.88
628.532	314.88
628.738	293.88
628.945	309.88
629.151	302.88
629.357	281.88
629.564	279.88
629.77	294.88
629.976	274.88
630.183	269.88
630.389	271.88
630.595	294.88
630.802	294.88
631.008	287.88
631.214	278.88
631.42	294.88
631.627	269.88
631.833	265.88
632.039	276.88
632.245	277.88
632.451	270.88
632.657	281.88
632.863	285.88
633.069	277.88
633.275	251.88
633.481	279.88
633.688	271.88
633.893	273.88
634.099	281.88
634.305	261.88
634.511	260.88
634.717	234.88
634.923	240.88
635.129	230.88
635.335	231.88
635.541	242.88
635.747	252.88
635.952	251.88
636.158	275.88
636.364	292.88
636.57	272.88
636.775	273.88
636.981	270.88
637.187	267.88
637.392	275.88
637.598	271.88
637.804	282.88
638.009	281.88
638.215	263.88
638.421	259.88
638.626	270.88
638.832	247.88
639.037	261.88
639.243	251.88
639.448	261.88
639.654	258.88
639.859	255.88
640.065	261.88
640.27	269.88
640.475	263.88
640.681	262.88
640.886	257.88
641.091	247.88
641.297	262.88
641.502	263.88
641.707	263.88
641.913	261.88
642.118	242.88
642.323	250.88
642.528	261.88
642.733	259.88
642.939	264.88
643.144	267.88
643.349	260.88
643.554	257.88
643.759	240.88
643.964	242.88
644.169	242.88
644.374	254.88
644.579	242.88
644.784	245.88
644.989	238.88
645.194	255.88
645.399	256.88
645.604	248.88
645.809	227.88
646.014	245.88
646.219	255.88
646.423	264.88
646.628	252.88
646.833	253.88
647.038	246.88
647.243	251.88
647.447	240.88
647.652	234.88
647.857	248.88
648.062	249.88
648.266	262.88
648.471	247.88
648.676	235.88
648.88	266.88
649.085	231.88
649.289	246.88
649.494	246.88
649.698	235.88
649.903	228.88
650.107	261.88
650.312	243.88
650.516	243.88
650.721	239.88
650.925	230.88
651.13	246.88
651.334	229.88
651.539	211.88
651.743	216.88
651.947	239.88
652.152	221.88
652.356	206.88
652.56	225.88
652.764	221.88
652.969	240.88
653.173	208.88
653.377	210.88
653.581	223.88
653.785	199.88
653.99	226.88
654.194	213.88
654.398	207.88
654.602	221.88
654.806	219.88
655.01	209.88
655.214	209.88
655.418	214.88
655.622	208.88
655.826	217.88
656.03	221.88
656.234	216.88
656.438	230.88
656.642	224.88
656.846	217.88
657.049	226.88
657.253	201.88
657.457	196.88
657.661	191.88
657.865	189.88
658.068	174.88
658.272	170.88
658.476	161.88
658.68	159.88
658.883	140.88
659.087	171.88
659.291	151.88
659.494	128.88
659.698	133.88
659.901	126.88
660.105	138.88
660.309	147.88
660.512	120.88
660.716	115.88
660.919	129.88
661.123	134.88
661.326	126.88
661.53	104.88
661.733	116.88
661.936	110.88
662.14	108.88
662.343	106.88
662.546	113.88
662.75	88.88
662.953	90.88
663.156	102.88
663.36	103.88
663.563	98.88
663.766	100.88
663.969	109.88
664.173	102.88
664.376	101.88
664.579	93.88
664.782	88.88
664.985	80.88
665.188	107.88
665.391	98.88
665.594	110.88
665.797	91.88
666	94.88
666.203	89.88
666.406	83.88
666.609	94.88
666.812	91.88
667.015	92.88
667.218	92.88
667.421	81.88
667.624	94.88
667.827	71.88
668.03	101.88
668.232	84.88
668.435	78.88
668.638	82.88
668.841	100.88
669.043	83.88
669.246	87.88
669.449	94.88
669.651	86.88
669.854	90.88
670.057	82.88
670.259	86.88
670.462	80.88
670.665	86.88
670.867	78.88
671.07	92.88
671.272	98.88
671.475	105.88
671.677	107.88
671.88	83.88
672.082	95.88
672.284	73.88
672.487	96.88
672.689	88.88
672.892	87.88
