Data from WStandard_LampEnergy8_LIBS07252019.E.O._I.C._HRD10591_15-58-21-929.txt Node
Date: Thu Jul 25 15:58:21 EDT 2019
User: cochatt
Spectrometer: HR+D1059
Trigger mode: 1
Integration Time (sec): 1.000000E-1
Scans to average: 1
Electric dark correction enabled: true
Nonlinearity correction enabled: false
Boxcar width: 0
XAxis mode: Wavelengths
Number of Pixels in Spectrum: 2048
>>>>>Begin Spectral Data<<<<<
223.165	-13.19
223.4	-13.19
223.635	-13.19
223.869	-16.19
224.104	-13.19
224.338	-6.19
224.573	-27.19
224.808	-16.19
225.042	-2.19
225.277	-16.19
225.511	-4.19
225.746	-3.19
225.98	-0.19
226.215	17.81
226.449	22.81
226.683	29.81
226.918	26.81
227.152	20.81
227.387	34.81
227.621	29.81
227.856	42.81
228.09	53.81
228.324	53.81
228.559	61.81
228.793	91.81
229.027	194.81
229.262	214.81
229.496	222.81
229.73	213.81
229.964	222.81
230.199	256.81
230.433	266.81
230.667	274.81
230.901	279.81
231.136	296.81
231.37	284.81
231.604	274.81
231.838	268.81
232.072	282.81
232.306	265.81
232.541	274.81
232.775	307.81
233.009	310.81
233.243	325.81
233.477	309.81
233.711	280.81
233.945	327.81
234.179	308.81
234.413	331.81
234.647	343.81
234.881	320.81
235.115	285.81
235.349	298.81
235.583	300.81
235.817	315.81
236.051	267.81
236.285	325.81
236.519	322.81
236.753	373.81
236.987	367.81
237.221	373.81
237.455	385.81
237.689	363.81
237.922	348.81
238.156	355.81
238.39	342.81
238.624	372.81
238.858	397.81
239.091	405.81
239.325	433.81
239.559	458.81
239.793	523.81
240.027	525.81
240.26	505.81
240.494	396.81
240.728	379.81
240.961	389.81
241.195	385.81
241.429	419.81
241.662	418.81
241.896	397.81
242.13	423.81
242.363	459.81
242.597	461.81
242.83	468.81
243.064	452.81
243.298	498.81
243.531	485.81
243.765	491.81
243.998	458.81
244.232	411.81
244.465	412.81
244.699	413.81
244.932	483.81
245.166	520.81
245.399	489.81
245.633	491.81
245.866	467.81
246.099	516.81
246.333	495.81
246.566	476.81
246.8	521.81
247.033	599.81
247.266	554.81
247.5	525.81
247.733	541.81
247.966	574.81
248.2	623.81
248.433	605.81
248.666	607.81
248.899	680.81
249.133	743.81
249.366	809.81
249.599	699.81
249.832	615.81
250.066	637.81
250.299	649.81
250.532	587.81
250.765	556.81
250.998	588.81
251.231	621.81
251.465	611.81
251.698	593.81
251.931	595.81
252.164	611.81
252.397	651.81
252.63	617.81
252.863	561.81
253.096	580.81
253.329	563.81
253.562	597.81
253.795	625.81
254.028	603.81
254.261	591.81
254.494	592.81
254.727	586.81
254.96	596.81
255.193	665.81
255.426	722.81
255.659	810.81
255.892	817.81
256.124	677.81
256.357	637.81
256.59	706.81
256.823	721.81
257.056	708.81
257.289	849.81
257.521	897.81
257.754	826.81
257.987	791.81
258.22	859.81
258.452	791.81
258.685	699.81
258.918	695.81
259.151	671.81
259.383	648.81
259.616	594.81
259.849	636.81
260.081	724.81
260.314	786.81
260.547	842.81
260.779	823.81
261.012	751.81
261.244	714.81
261.477	687.81
261.71	690.81
261.942	706.81
262.175	675.81
262.407	715.81
262.64	689.81
262.872	645.81
263.105	629.81
263.337	626.81
263.57	619.81
263.802	641.81
264.035	622.81
264.267	580.81
264.499	585.81
264.732	618.81
264.964	673.81
265.197	663.81
265.429	722.81
265.661	810.81
265.894	860.81
266.126	867.81
266.358	819.81
266.591	841.81
266.823	869.81
267.055	793.81
267.287	819.81
267.52	764.81
267.752	777.81
267.984	775.81
268.216	843.81
268.448	818.81
268.681	774.81
268.913	717.81
269.145	721.81
269.377	704.81
269.609	775.81
269.841	891.81
270.073	1016.81
270.306	1100.81
270.538	1122.81
270.77	959.81
271.002	851.81
271.234	840.81
271.466	850.81
271.698	966.81
271.93	1092.81
272.162	1085.81
272.394	978.81
272.626	897.81
272.858	813.81
273.09	723.81
273.322	729.81
273.553	693.81
273.785	697.81
274.017	716.81
274.249	781.81
274.481	780.81
274.713	733.81
274.945	699.81
275.176	709.81
275.408	687.81
275.64	684.81
275.872	697.81
276.104	763.81
276.335	857.81
276.567	954.81
276.799	949.81
277.031	847.81
277.262	832.81
277.494	849.81
277.726	934.81
277.957	893.81
278.189	834.81
278.421	759.81
278.652	751.81
278.884	736.81
279.115	739.81
279.347	793.81
279.579	733.81
279.81	757.81
280.042	835.81
280.273	910.81
280.505	901.81
280.736	874.81
280.968	849.81
281.199	738.81
281.431	723.81
281.662	731.81
281.894	729.81
282.125	749.81
282.356	800.81
282.588	782.81
282.819	799.81
283.051	849.81
283.282	896.81
283.513	867.81
283.745	757.81
283.976	737.81
284.207	717.81
284.439	755.81
284.67	789.81
284.901	818.81
285.132	805.81
285.364	792.81
285.595	787.81
285.826	777.81
286.057	778.81
286.288	786.81
286.52	804.81
286.751	849.81
286.982	846.81
287.213	759.81
287.444	742.81
287.675	740.81
287.906	793.81
288.138	849.81
288.369	799.81
288.6	772.81
288.831	744.81
289.062	746.81
289.293	771.81
289.524	771.81
289.755	810.81
289.986	803.81
290.217	741.81
290.448	747.81
290.679	793.81
290.91	807.81
291.141	818.81
291.371	852.81
291.602	826.81
291.833	815.81
292.064	871.81
292.295	849.81
292.526	892.81
292.757	892.81
292.987	855.81
293.218	827.81
293.449	873.81
293.68	979.81
293.91	1025.81
294.141	957.81
294.372	934.81
294.603	948.81
294.833	1003.81
295.064	945.81
295.295	860.81
295.525	817.81
295.756	755.81
295.987	775.81
296.217	803.81
296.448	773.81
296.679	779.81
296.909	803.81
297.14	794.81
297.37	806.81
297.601	883.81
297.831	919.81
298.062	902.81
298.292	824.81
298.523	787.81
298.753	799.81
298.984	827.81
299.214	817.81
299.445	857.81
299.675	857.81
299.905	835.81
300.136	810.81
300.366	821.81
300.597	783.81
300.827	807.81
301.057	828.81
301.288	851.81
301.518	870.81
301.748	881.81
301.979	921.81
302.209	954.81
302.439	1023.81
302.669	1021.81
302.9	964.81
303.13	877.81
303.36	867.81
303.59	889.81
303.82	885.81
304.051	881.81
304.281	871.81
304.511	892.81
304.741	979.81
304.971	1037.81
305.201	1118.81
305.431	993.81
305.661	801.81
305.891	773.81
306.121	797.81
306.352	791.81
306.582	859.81
306.812	915.81
307.042	948.81
307.272	969.81
307.502	1009.81
307.731	1082.81
307.961	1130.81
308.191	1011.81
308.421	899.81
308.651	847.81
308.881	859.81
309.111	829.81
309.341	855.81
309.571	854.81
309.8	836.81
310.03	833.81
310.26	812.81
310.49	843.81
310.72	854.81
310.949	901.81
311.179	883.81
311.409	869.81
311.639	868.81
311.868	821.81
312.098	861.81
312.328	859.81
312.557	813.81
312.787	856.81
313.017	899.81
313.246	890.81
313.476	872.81
313.706	920.81
313.935	903.81
314.165	912.81
314.394	962.81
314.624	1010.81
314.853	1054.81
315.083	1088.81
315.312	1087.81
315.542	991.81
315.771	910.81
316.001	934.81
316.23	993.81
316.46	966.81
316.689	937.81
316.919	897.81
317.148	894.81
317.377	905.81
317.607	954.81
317.836	1113.81
318.065	1119.81
318.295	1031.81
318.524	1002.81
318.753	969.81
318.983	965.81
319.212	937.81
319.441	903.81
319.67	945.81
319.9	922.81
320.129	1012.81
320.358	1078.81
320.587	1071.81
320.816	1049.81
321.046	1044.81
321.275	994.81
321.504	1005.81
321.733	1046.81
321.962	1047.81
322.191	956.81
322.42	941.81
322.649	893.81
322.878	923.81
323.108	925.81
323.337	967.81
323.566	973.81
323.795	956.81
324.024	947.81
324.253	955.81
324.482	965.81
324.71	918.81
324.939	899.81
325.168	913.81
325.397	943.81
325.626	968.81
325.855	952.81
326.084	954.81
326.313	949.81
326.542	957.81
326.77	997.81
326.999	964.81
327.228	917.81
327.457	886.81
327.686	919.81
327.914	941.81
328.143	968.81
328.372	984.81
328.6	927.81
328.829	951.81
329.058	902.81
329.287	931.81
329.515	954.81
329.744	982.81
329.972	1026.81
330.201	1059.81
330.43	1025.81
330.658	1034.81
330.887	1004.81
331.115	1027.81
331.344	1033.81
331.572	1003.81
331.801	1004.81
332.03	968.81
332.258	1011.81
332.486	1013.81
332.715	1029.81
332.943	1013.81
333.172	990.81
333.4	1023.81
333.629	1020.81
333.857	1104.81
334.085	1247.81
334.314	1431.81
334.542	1474.81
334.771	1318.81
334.999	1179.81
335.227	1117.81
335.455	1059.81
335.684	1101.81
335.912	1110.81
336.14	1144.81
336.369	1067.81
336.597	1033.81
336.825	987.81
337.053	1052.81
337.281	1136.81
337.51	1179.81
337.738	1224.81
337.966	1117.81
338.194	1025.81
338.422	993.81
338.65	1020.81
338.878	981.81
339.106	962.81
339.334	980.81
339.562	945.81
339.79	959.81
340.018	1041.81
340.246	1073.81
340.474	1084.81
340.702	1052.81
340.93	1041.81
341.158	1041.81
341.386	1021.81
341.614	1009.81
341.842	1007.81
342.07	984.81
342.298	1009.81
342.526	1021.81
342.754	1003.81
342.981	998.81
343.209	1041.81
343.437	985.81
343.665	995.81
343.893	1011.81
344.12	1059.81
344.348	1055.81
344.576	1040.81
344.804	964.81
345.031	978.81
345.259	970.81
345.487	975.81
345.714	953.81
345.942	930.81
346.17	945.81
346.397	944.81
346.625	953.81
346.853	906.81
347.08	904.81
347.308	917.81
347.535	936.81
347.763	994.81
347.99	950.81
348.218	925.81
348.445	907.81
348.673	945.81
348.9	973.81
349.128	994.81
349.355	1015.81
349.583	998.81
349.81	927.81
350.037	881.81
350.265	863.81
350.492	893.81
350.72	919.81
350.947	971.81
351.174	959.81
351.402	927.81
351.629	877.81
351.856	889.81
352.083	885.81
352.311	893.81
352.538	917.81
352.765	952.81
352.992	945.81
353.22	909.81
353.447	908.81
353.674	928.81
353.901	932.81
354.128	911.81
354.355	929.81
354.583	980.81
354.81	994.81
355.037	999.81
355.264	966.81
355.491	941.81
355.718	927.81
355.945	928.81
356.172	930.81
356.399	912.81
356.626	907.81
356.853	981.81
357.08	1085.81
357.307	1136.81
357.534	1075.81
357.761	967.81
357.988	901.81
358.215	883.81
358.441	906.81
358.668	904.81
358.895	903.81
359.122	993.81
359.349	1084.81
359.576	988.81
359.802	940.81
360.029	885.81
360.256	901.81
360.483	914.81
360.709	938.81
360.936	982.81
361.163	1036.81
361.39	1118.81
361.616	1199.81
361.843	1186.81
362.07	1049.81
362.296	950.81
362.523	924.81
362.749	943.81
362.976	967.81
363.203	965.81
363.429	938.81
363.656	913.81
363.882	968.81
364.109	1081.81
364.335	1117.81
364.562	1049.81
364.788	994.81
365.015	922.81
365.241	898.81
365.468	957.81
365.694	1010.81
365.92	1004.81
366.147	986.81
366.373	933.81
366.599	903.81
366.826	904.81
367.052	916.81
367.278	943.81
367.505	963.81
367.731	980.81
367.957	1000.81
368.184	998.81
368.41	1063.81
368.636	1097.81
368.862	1107.81
369.089	1090.81
369.315	1044.81
369.541	997.81
369.767	953.81
369.993	904.81
370.219	946.81
370.445	949.81
370.672	1028.81
370.898	1107.81
371.124	1075.81
371.35	987.81
371.576	1075.81
371.802	1045.81
372.028	998.81
372.254	959.81
372.48	977.81
372.706	949.81
372.932	967.81
373.158	984.81
373.384	964.81
373.61	992.81
373.835	1060.81
374.061	987.81
374.287	1011.81
374.513	983.81
374.739	1009.81
374.965	1019.81
375.191	1000.81
375.416	1031.81
375.642	1049.81
375.868	1113.81
376.094	1120.81
376.319	1075.81
376.545	1030.81
376.771	1082.81
376.997	1066.81
377.222	1060.81
377.448	1052.81
377.674	1061.81
377.899	1071.81
378.125	1136.81
378.35	1101.81
378.576	1010.81
378.802	995.81
379.027	967.81
379.253	976.81
379.478	989.81
379.704	984.81
379.929	979.81
380.155	1031.81
380.38	1050.81
380.606	1064.81
380.831	1064.81
381.057	1081.81
381.282	1105.81
381.507	1095.81
381.733	1140.81
381.958	1181.81
382.184	1052.81
382.409	1028.81
382.634	1061.81
382.86	1052.81
383.085	1060.81
383.31	1123.81
383.535	1227.81
383.761	1246.81
383.986	1164.81
384.211	1172.81
384.436	1142.81
384.662	1232.81
384.887	1239.81
385.112	1166.81
385.337	1155.81
385.562	1122.81
385.787	1137.81
386.013	1181.81
386.238	1185.81
386.463	1160.81
386.688	1282.81
386.913	1350.81
387.138	1303.81
387.363	1196.81
387.588	1207.81
387.813	1173.81
388.038	1193.81
388.263	1239.81
388.488	1163.81
388.713	1103.81
388.938	1121.81
389.163	1121.81
389.387	1127.81
389.612	1150.81
389.837	1165.81
390.062	1123.81
390.287	1153.81
390.512	1138.81
390.736	1121.81
390.961	1100.81
391.186	1107.81
391.411	1089.81
391.636	1155.81
391.86	1156.81
392.085	1125.81
392.31	1144.81
392.534	1159.81
392.759	1163.81
392.984	1139.81
393.208	1164.81
393.433	1178.81
393.658	1241.81
393.882	1237.81
394.107	1187.81
394.331	1144.81
394.556	1164.81
394.78	1154.81
395.005	1226.81
395.229	1250.81
395.454	1368.81
395.678	1306.81
395.903	1258.81
396.127	1218.81
396.352	1248.81
396.576	1249.81
396.801	1285.81
397.025	1228.81
397.249	1269.81
397.474	1216.81
397.698	1223.81
397.922	1332.81
398.147	1336.81
398.371	1383.81
398.595	1375.81
398.82	1341.81
399.044	1395.81
399.268	1387.81
399.492	1466.81
399.717	1501.81
399.941	1517.81
400.165	1459.81
400.389	1517.81
400.613	1467.81
400.837	1726.81
401.062	1817.81
401.286	1568.81
401.51	1458.81
401.734	1513.81
401.958	1441.81
402.182	1330.81
402.406	1305.81
402.63	1313.81
402.854	1288.81
403.078	1363.81
403.302	1359.81
403.526	1373.81
403.75	1354.81
403.974	1409.81
404.198	1376.81
404.422	1441.81
404.645	1527.81
404.869	1463.81
405.093	1358.81
405.317	1327.81
405.541	1364.81
405.765	1380.81
405.988	1369.81
406.212	1422.81
406.436	1428.81
406.66	1511.81
406.883	1495.81
407.107	1662.81
407.331	1876.81
407.555	1958.81
407.778	1725.81
408.002	1440.81
408.226	1415.81
408.449	1427.81
408.673	1380.81
408.896	1407.81
409.12	1426.81
409.344	1374.81
409.567	1367.81
409.791	1371.81
410.014	1420.81
410.238	1509.81
410.461	1586.81
410.685	1377.81
410.908	1367.81
411.132	1355.81
411.355	1349.81
411.578	1360.81
411.802	1355.81
412.025	1387.81
412.249	1364.81
412.472	1299.81
412.695	1313.81
412.919	1327.81
413.142	1332.81
413.365	1343.81
413.589	1363.81
413.812	1371.81
414.035	1458.81
414.258	1359.81
414.482	1345.81
414.705	1341.81
414.928	1327.81
415.151	1327.81
415.374	1306.81
415.597	1371.81
415.821	1357.81
416.044	1370.81
416.267	1361.81
416.49	1292.81
416.713	1284.81
416.936	1365.81
417.159	1398.81
417.382	1378.81
417.605	1320.81
417.828	1368.81
418.051	1363.81
418.274	1341.81
418.497	1319.81
418.72	1314.81
418.943	1311.81
419.166	1372.81
419.389	1359.81
419.611	1318.81
419.834	1323.81
420.057	1321.81
420.28	1333.81
420.503	1299.81
420.726	1312.81
420.948	1304.81
421.171	1289.81
421.394	1308.81
421.617	1350.81
421.839	1349.81
422.062	1363.81
422.285	1291.81
422.507	1292.81
422.73	1271.81
422.953	1231.81
423.175	1229.81
423.398	1294.81
423.621	1331.81
423.843	1311.81
424.066	1342.81
424.288	1408.81
424.511	1484.81
424.733	1359.81
424.956	1284.81
425.178	1233.81
425.401	1269.81
425.623	1313.81
425.846	1293.81
426.068	1366.81
426.291	1371.81
426.513	1317.81
426.735	1356.81
426.958	1487.81
427.18	1509.81
427.402	1378.81
427.625	1453.81
427.847	1429.81
428.069	1280.81
428.292	1292.81
428.514	1292.81
428.736	1244.81
428.958	1274.81
429.181	1297.81
429.403	1479.81
429.625	1782.81
429.847	1516.81
430.069	1311.81
430.292	1445.81
430.514	1484.81
430.736	1359.81
430.958	1411.81
431.18	1307.81
431.402	1244.81
431.624	1226.81
431.846	1173.81
432.068	1121.81
432.29	1176.81
432.512	1192.81
432.734	1264.81
432.956	1308.81
433.178	1370.81
433.4	1317.81
433.622	1317.81
433.844	1278.81
434.066	1218.81
434.287	1211.81
434.509	1228.81
434.731	1285.81
434.953	1379.81
435.175	1355.81
435.397	1303.81
435.618	1297.81
435.84	1254.81
436.062	1252.81
436.284	1317.81
436.505	1313.81
436.727	1325.81
436.949	1296.81
437.17	1253.81
437.392	1236.81
437.614	1194.81
437.835	1183.81
438.057	1265.81
438.278	1254.81
438.5	1251.81
438.721	1207.81
438.943	1260.81
439.165	1266.81
439.386	1243.81
439.608	1242.81
439.829	1223.81
440.05	1274.81
440.272	1277.81
440.493	1265.81
440.715	1283.81
440.936	1372.81
441.158	1457.81
441.379	1411.81
441.6	1387.81
441.822	1359.81
442.043	1377.81
442.264	1322.81
442.486	1285.81
442.707	1287.81
442.928	1296.81
443.149	1310.81
443.371	1403.81
443.592	1409.81
443.813	1403.81
444.034	1393.81
444.255	1390.81
444.476	1419.81
444.698	1440.81
444.919	1445.81
445.14	1497.81
445.361	1480.81
445.582	1476.81
445.803	1431.81
446.024	1411.81
446.245	1431.81
446.466	1406.81
446.687	1363.81
446.908	1379.81
447.129	1333.81
447.35	1332.81
447.571	1314.81
447.792	1267.81
448.013	1237.81
448.234	1289.81
448.455	1348.81
448.675	1369.81
448.896	1247.81
449.117	1229.81
449.338	1238.81
449.559	1265.81
449.779	1348.81
450	1431.81
450.221	1493.81
450.442	1460.81
450.662	1265.81
450.883	1191.81
451.104	1183.81
451.324	1204.81
451.545	1217.81
451.766	1175.81
451.986	1141.81
452.207	1098.81
452.428	1136.81
452.648	1097.81
452.869	1132.81
453.089	1162.81
453.31	1156.81
453.53	1151.81
453.751	1121.81
453.971	1093.81
454.192	1125.81
454.412	1196.81
454.633	1157.81
454.853	1117.81
455.073	1066.81
455.294	1087.81
455.514	1069.81
455.734	1079.81
455.955	1084.81
456.175	1098.81
456.395	1064.81
456.616	1120.81
456.836	1126.81
457.056	1110.81
457.276	1116.81
457.497	1058.81
457.717	1056.81
457.937	1056.81
458.157	1080.81
458.377	1069.81
458.598	1048.81
458.818	1077.81
459.038	1128.81
459.258	1178.81
459.478	1189.81
459.698	1151.81
459.918	1180.81
460.138	1266.81
460.358	1252.81
460.578	1285.81
460.798	1288.81
461.018	1379.81
461.238	1312.81
461.458	1284.81
461.678	1302.81
461.898	1217.81
462.118	1231.81
462.338	1285.81
462.558	1281.81
462.777	1272.81
462.997	1336.81
463.217	1363.81
463.437	1381.81
463.657	1308.81
463.876	1309.81
464.096	1286.81
464.316	1279.81
464.536	1363.81
464.755	1345.81
464.975	1315.81
465.195	1292.81
465.414	1323.81
465.634	1305.81
465.854	1329.81
466.073	1404.81
466.293	1346.81
466.512	1207.81
466.732	1202.81
466.951	1265.81
467.171	1282.81
467.391	1222.81
467.61	1214.81
467.829	1249.81
468.049	1361.81
468.268	1504.81
468.488	1377.81
468.707	1266.81
468.927	1240.81
469.146	1216.81
469.365	1240.81
469.585	1269.81
469.804	1234.81
470.023	1259.81
470.243	1307.81
470.462	1267.81
470.681	1239.81
470.901	1258.81
471.12	1224.81
471.339	1260.81
471.558	1192.81
471.777	1212.81
471.997	1216.81
472.216	1203.81
472.435	1145.81
472.654	1173.81
472.873	1191.81
473.092	1263.81
473.311	1205.81
473.53	1159.81
473.749	1158.81
473.968	1196.81
474.187	1199.81
474.406	1250.81
474.625	1227.81
474.844	1225.81
475.063	1199.81
475.282	1237.81
475.501	1197.81
475.72	1233.81
475.939	1295.81
476.158	1258.81
476.377	1235.81
476.596	1216.81
476.814	1226.81
477.033	1227.81
477.252	1294.81
477.471	1327.81
477.69	1295.81
477.908	1315.81
478.127	1365.81
478.346	1446.81
478.564	1437.81
478.783	1427.81
479.002	1457.81
479.22	1394.81
479.439	1497.81
479.658	1600.81
479.876	1519.81
480.095	1415.81
480.313	1335.81
480.532	1324.81
480.751	1358.81
480.969	1341.81
481.188	1311.81
481.406	1231.81
481.624	1243.81
481.843	1289.81
482.061	1335.81
482.28	1323.81
482.498	1337.81
482.717	1323.81
482.935	1345.81
483.153	1383.81
483.372	1389.81
483.59	1394.81
483.808	1366.81
484.027	1383.81
484.245	1457.81
484.463	1749.81
484.681	1925.81
484.9	1485.81
485.118	1397.81
485.336	1386.81
485.554	1391.81
485.772	1409.81
485.99	1363.81
486.209	1427.81
486.427	1388.81
486.645	1437.81
486.863	1425.81
487.081	1494.81
487.299	1488.81
487.517	1469.81
487.735	1469.81
487.953	1506.81
488.171	1509.81
488.389	1477.81
488.607	1434.81
488.825	1681.81
489.043	1576.81
489.261	1443.81
489.479	1504.81
489.696	1491.81
489.914	1493.81
490.132	1460.81
490.35	1452.81
490.568	1578.81
490.786	1556.81
491.003	1497.81
491.221	1571.81
491.439	1611.81
491.657	1643.81
491.874	1626.81
492.092	1678.81
492.31	1699.81
492.527	1683.81
492.745	1639.81
492.963	1591.81
493.18	1648.81
493.398	1754.81
493.615	1772.81
493.833	1578.81
494.05	1566.81
494.268	1566.81
494.485	1599.81
494.703	1565.81
494.92	1549.81
495.138	1562.81
495.355	1576.81
495.573	1603.81
495.79	1693.81
496.008	1684.81
496.225	1606.81
496.442	1639.81
496.66	1653.81
496.877	1590.81
497.094	1660.81
497.312	1639.81
497.529	1617.81
497.746	1683.81
497.963	1878.81
498.181	2022.81
498.398	1956.81
498.615	1844.81
498.832	1751.81
499.049	1746.81
499.267	1797.81
499.484	1915.81
499.701	2119.81
499.918	2089.81
500.135	2248.81
500.352	2433.81
500.569	2431.81
500.786	2550.81
501.003	2316.81
501.22	2141.81
501.437	2104.81
501.654	2145.81
501.871	2025.81
502.088	1842.81
502.305	1785.81
502.522	1712.81
502.739	1605.81
502.956	1578.81
503.172	1559.81
503.389	1511.81
503.606	1526.81
503.823	1500.81
504.04	1503.81
504.256	1537.81
504.473	1493.81
504.69	1546.81
504.907	1484.81
505.123	1419.81
505.34	1583.81
505.557	2088.81
505.773	1695.81
505.99	1446.81
506.207	1332.81
506.423	1287.81
506.64	1320.81
506.856	1391.81
507.073	1549.81
507.289	1658.81
507.506	1551.81
507.722	1316.81
507.939	1281.81
508.155	1292.81
508.372	1291.81
508.588	1239.81
508.805	1205.81
509.021	1192.81
509.238	1195.81
509.454	1173.81
509.67	1185.81
509.887	1178.81
510.103	1161.81
510.319	1182.81
510.536	1195.81
510.752	1248.81
510.968	1243.81
511.184	1272.81
511.401	1253.81
511.617	1139.81
511.833	1115.81
512.049	1107.81
512.265	1123.81
512.481	1125.81
512.698	1206.81
512.914	1235.81
513.13	1188.81
513.346	1152.81
513.562	1111.81
513.778	1133.81
513.994	1190.81
514.21	1194.81
514.426	1226.81
514.642	1338.81
514.858	1232.81
515.074	1139.81
515.29	1137.81
515.506	1135.81
515.721	1180.81
515.937	1230.81
516.153	1295.81
516.369	1269.81
516.585	1220.81
516.801	1164.81
517.016	1156.81
517.232	1215.81
517.448	1221.81
517.664	1245.81
517.879	1239.81
518.095	1272.81
518.311	1229.81
518.527	1186.81
518.742	1176.81
518.958	1142.81
519.173	1157.81
519.389	1178.81
519.605	1175.81
519.82	1172.81
520.036	1217.81
520.251	1167.81
520.467	1173.81
520.682	1299.81
520.898	1264.81
521.113	1139.81
521.329	1120.81
521.544	1179.81
521.76	1176.81
521.975	1100.81
522.19	1091.81
522.406	1111.81
522.621	1365.81
522.836	1355.81
523.052	1146.81
523.267	1133.81
523.482	1139.81
523.698	1111.81
523.913	1082.81
524.128	1083.81
524.343	1156.81
524.559	1164.81
524.774	1114.81
524.989	1119.81
525.204	1083.81
525.419	1069.81
525.634	1045.81
525.849	1095.81
526.064	1077.81
526.28	1078.81
526.495	1026.81
526.71	1004.81
526.925	1028.81
527.14	1010.81
527.355	1004.81
527.57	1013.81
527.785	1043.81
527.999	1004.81
528.214	995.81
528.429	986.81
528.644	1030.81
528.859	1075.81
529.074	1081.81
529.289	1122.81
529.503	1107.81
529.718	1081.81
529.933	1032.81
530.148	989.81
530.363	970.81
530.577	972.81
530.792	994.81
531.007	1012.81
531.221	984.81
531.436	1032.81
531.651	1053.81
531.865	1072.81
532.08	1047.81
532.295	983.81
532.509	960.81
532.724	978.81
532.938	1025.81
533.153	1074.81
533.367	1063.81
533.582	1059.81
533.796	1018.81
534.011	1030.81
534.225	1021.81
534.44	981.81
534.654	972.81
534.868	983.81
535.083	988.81
535.297	1025.81
535.511	1009.81
535.726	1023.81
535.94	1010.81
536.154	1007.81
536.369	959.81
536.583	937.81
536.797	944.81
537.011	962.81
537.225	945.81
537.44	937.81
537.654	988.81
537.868	945.81
538.082	910.81
538.296	901.81
538.51	915.81
538.724	936.81
538.938	958.81
539.153	995.81
539.367	1015.81
539.581	972.81
539.795	1005.81
540.009	995.81
540.222	947.81
540.436	1004.81
540.65	1072.81
540.864	1103.81
541.078	1081.81
541.292	1050.81
541.506	1058.81
541.72	1116.81
541.934	1173.81
542.147	1253.81
542.361	1175.81
542.575	1071.81
542.789	1029.81
543.002	977.81
543.216	976.81
543.43	1045.81
543.644	1045.81
543.857	1124.81
544.071	1091.81
544.285	1119.81
544.498	1105.81
544.712	1113.81
544.925	1124.81
545.139	1137.81
545.352	1094.81
545.566	1050.81
545.779	1049.81
545.993	1093.81
546.206	1083.81
546.42	1073.81
546.633	1095.81
546.847	1097.81
547.06	1090.81
547.274	1067.81
547.487	1109.81
547.7	1103.81
547.914	1110.81
548.127	1094.81
548.34	1090.81
548.554	1081.81
548.767	1077.81
548.98	1066.81
549.193	1057.81
549.407	1112.81
549.62	1089.81
549.833	1029.81
550.046	1105.81
550.259	1075.81
550.473	1045.81
550.686	1037.81
550.899	1030.81
551.112	1013.81
551.325	995.81
551.538	1065.81
551.751	1163.81
551.964	947.81
552.177	938.81
552.39	987.81
552.603	999.81
552.816	1007.81
553.029	1076.81
553.242	1093.81
553.455	1067.81
553.667	1047.81
553.88	1038.81
554.093	1027.81
554.306	987.81
554.519	980.81
554.732	961.81
554.944	977.81
555.157	1009.81
555.37	968.81
555.583	956.81
555.795	949.81
556.008	920.81
556.221	890.81
556.433	893.81
556.646	910.81
556.859	891.81
557.071	907.81
557.284	895.81
557.496	908.81
557.709	882.81
557.921	885.81
558.134	886.81
558.346	856.81
558.559	853.81
558.771	879.81
558.984	833.81
559.196	813.81
559.409	813.81
559.621	813.81
559.833	831.81
560.046	863.81
560.258	862.81
560.47	822.81
560.683	826.81
560.895	809.81
561.107	845.81
561.32	844.81
561.532	860.81
561.744	839.81
561.956	829.81
562.168	818.81
562.381	810.81
562.593	802.81
562.805	798.81
563.017	805.81
563.229	804.81
563.441	861.81
563.653	807.81
563.865	780.81
564.077	783.81
564.289	785.81
564.501	802.81
564.713	812.81
564.925	845.81
565.137	901.81
565.349	819.81
565.561	780.81
565.773	845.81
565.985	841.81
566.197	900.81
566.408	892.81
566.62	922.81
566.832	905.81
567.044	961.81
567.255	876.81
567.467	907.81
567.679	939.81
567.891	963.81
568.102	895.81
568.314	859.81
568.526	830.81
568.737	768.81
568.949	736.81
569.161	715.81
569.372	698.81
569.584	691.81
569.795	680.81
570.007	693.81
570.218	653.81
570.43	647.81
570.641	672.81
570.853	654.81
571.064	691.81
571.276	665.81
571.487	651.81
571.698	668.81
571.91	628.81
572.121	638.81
572.333	625.81
572.544	625.81
572.755	597.81
572.966	585.81
573.178	610.81
573.389	585.81
573.6	631.81
573.811	651.81
574.023	608.81
574.234	601.81
574.445	574.81
574.656	556.81
574.867	565.81
575.078	593.81
575.289	586.81
575.501	553.81
575.712	565.81
575.923	541.81
576.134	567.81
576.345	563.81
576.556	557.81
576.767	550.81
576.978	539.81
577.188	551.81
577.399	543.81
577.61	530.81
577.821	516.81
578.032	520.81
578.243	536.81
578.454	517.81
578.665	515.81
578.875	517.81
579.086	489.81
579.297	511.81
579.508	523.81
579.718	543.81
579.929	516.81
580.14	507.81
580.35	510.81
580.561	504.81
580.772	574.81
580.982	504.81
581.193	497.81
581.403	501.81
581.614	484.81
581.825	497.81
582.035	476.81
582.246	501.81
582.456	522.81
582.667	466.81
582.877	492.81
583.087	467.81
583.298	475.81
583.508	479.81
583.719	475.81
583.929	490.81
584.139	490.81
584.35	460.81
584.56	464.81
584.77	458.81
584.981	437.81
585.191	482.81
585.401	464.81
585.611	445.81
585.821	458.81
586.032	469.81
586.242	455.81
586.452	467.81
586.662	485.81
586.872	457.81
587.082	457.81
587.292	459.81
587.502	467.81
587.713	477.81
587.923	449.81
588.133	446.81
588.343	458.81
588.553	450.81
588.762	463.81
588.972	467.81
589.182	439.81
589.392	442.81
589.602	478.81
589.812	459.81
590.022	424.81
590.232	442.81
590.441	446.81
590.651	469.81
590.861	439.81
591.071	445.81
591.281	419.81
591.49	434.81
591.7	435.81
591.91	433.81
592.119	476.81
592.329	461.81
592.539	486.81
592.748	445.81
592.958	478.81
593.167	466.81
593.377	471.81
593.587	476.81
593.796	466.81
594.006	466.81
594.215	468.81
594.424	491.81
594.634	461.81
594.843	458.81
595.053	485.81
595.262	460.81
595.472	452.81
595.681	441.81
595.89	453.81
596.1	427.81
596.309	436.81
596.518	415.81
596.727	443.81
596.937	446.81
597.146	419.81
597.355	421.81
597.564	434.81
597.774	409.81
597.983	407.81
598.192	393.81
598.401	417.81
598.61	401.81
598.819	411.81
599.028	403.81
599.237	406.81
599.446	391.81
599.655	411.81
599.864	401.81
600.073	389.81
600.282	391.81
600.491	373.81
600.7	391.81
600.909	364.81
601.118	404.81
601.327	410.81
601.536	403.81
601.745	409.81
601.953	423.81
602.162	421.81
602.371	425.81
602.58	423.81
602.789	420.81
602.997	416.81
603.206	427.81
603.415	405.81
603.623	410.81
603.832	413.81
604.041	399.81
604.249	403.81
604.458	392.81
604.666	377.81
604.875	381.81
605.084	413.81
605.292	400.81
605.501	416.81
605.709	408.81
605.918	409.81
606.126	422.81
606.334	415.81
606.543	391.81
606.751	412.81
606.96	406.81
607.168	415.81
607.376	396.81
607.585	387.81
607.793	401.81
608.001	420.81
608.21	424.81
608.418	415.81
608.626	414.81
608.834	402.81
609.043	413.81
609.251	422.81
609.459	405.81
609.667	405.81
609.875	408.81
610.083	423.81
610.291	414.81
610.499	418.81
610.707	406.81
610.916	381.81
611.124	402.81
611.332	393.81
611.54	375.81
611.748	404.81
611.955	403.81
612.163	403.81
612.371	390.81
612.579	381.81
612.787	404.81
612.995	407.81
613.203	410.81
613.411	383.81
613.618	397.81
613.826	402.81
614.034	402.81
614.242	387.81
614.449	394.81
614.657	403.81
614.865	407.81
615.072	422.81
615.28	386.81
615.488	380.81
615.695	414.81
615.903	400.81
616.111	389.81
616.318	405.81
616.526	385.81
616.733	409.81
616.941	387.81
617.148	394.81
617.356	380.81
617.563	390.81
617.771	384.81
617.978	370.81
618.185	360.81
618.393	391.81
618.6	395.81
618.807	390.81
619.015	387.81
619.222	373.81
619.429	360.81
619.637	371.81
619.844	340.81
620.051	358.81
620.258	351.81
620.466	350.81
620.673	356.81
620.88	347.81
621.087	361.81
621.294	351.81
621.501	327.81
621.708	340.81
621.915	348.81
622.122	354.81
622.329	374.81
622.536	379.81
622.743	353.81
622.95	341.81
623.157	347.81
623.364	346.81
623.571	359.81
623.778	371.81
623.985	367.81
624.192	349.81
624.399	356.81
624.606	344.81
624.812	332.81
625.019	354.81
625.226	331.81
625.433	347.81
625.639	338.81
625.846	313.81
626.053	314.81
626.259	295.81
626.466	295.81
626.673	291.81
626.879	275.81
627.086	296.81
627.293	320.81
627.499	338.81
627.706	334.81
627.912	329.81
628.119	327.81
628.325	309.81
628.532	326.81
628.738	312.81
628.945	336.81
629.151	299.81
629.357	305.81
629.564	338.81
629.77	314.81
629.976	300.81
630.183	311.81
630.389	295.81
630.595	316.81
630.802	298.81
631.008	297.81
631.214	323.81
631.42	282.81
631.627	285.81
631.833	273.81
632.039	293.81
632.245	296.81
632.451	304.81
632.657	294.81
632.863	307.81
633.069	287.81
633.275	305.81
633.481	268.81
633.688	273.81
633.893	275.81
634.099	284.81
634.305	283.81
634.511	277.81
634.717	285.81
634.923	268.81
635.129	280.81
635.335	277.81
635.541	260.81
635.747	280.81
635.952	281.81
636.158	275.81
636.364	296.81
636.57	271.81
636.775	294.81
636.981	289.81
637.187	291.81
637.392	292.81
637.598	284.81
637.804	281.81
638.009	292.81
638.215	291.81
638.421	283.81
638.626	276.81
638.832	268.81
639.037	275.81
639.243	267.81
639.448	259.81
639.654	264.81
639.859	268.81
640.065	259.81
640.27	245.81
640.475	264.81
640.681	255.81
640.886	255.81
641.091	257.81
641.297	273.81
641.502	263.81
641.707	246.81
641.913	281.81
642.118	239.81
642.323	257.81
642.528	260.81
642.733	261.81
642.939	266.81
643.144	266.81
643.349	256.81
643.554	241.81
643.759	273.81
643.964	259.81
644.169	273.81
644.374	255.81
644.579	246.81
644.784	267.81
644.989	265.81
645.194	251.81
645.399	261.81
645.604	251.81
645.809	270.81
646.014	257.81
646.219	259.81
646.423	235.81
646.628	267.81
646.833	264.81
647.038	244.81
647.243	243.81
647.447	250.81
647.652	255.81
647.857	249.81
648.062	264.81
648.266	250.81
648.471	276.81
648.676	260.81
648.88	271.81
649.085	243.81
649.289	235.81
649.494	235.81
649.698	248.81
649.903	242.81
650.107	257.81
650.312	246.81
650.516	255.81
650.721	259.81
650.925	250.81
651.13	249.81
651.334	242.81
651.539	248.81
651.743	232.81
651.947	213.81
652.152	247.81
652.356	227.81
652.56	231.81
652.764	224.81
652.969	232.81
653.173	209.81
653.377	223.81
653.581	230.81
653.785	217.81
653.99	216.81
654.194	240.81
654.398	209.81
654.602	223.81
654.806	217.81
655.01	216.81
655.214	228.81
655.418	216.81
655.622	232.81
655.826	249.81
656.03	228.81
656.234	247.81
656.438	268.81
656.642	245.81
656.846	258.81
657.049	239.81
657.253	217.81
657.457	198.81
657.661	188.81
657.865	188.81
658.068	179.81
658.272	170.81
658.476	157.81
658.68	139.81
658.883	141.81
659.087	153.81
659.291	136.81
659.494	143.81
659.698	149.81
659.901	145.81
660.105	130.81
660.309	145.81
660.512	119.81
660.716	136.81
660.919	132.81
661.123	125.81
661.326	124.81
661.53	113.81
661.733	116.81
661.936	100.81
662.14	105.81
662.343	91.81
662.546	106.81
662.75	98.81
662.953	97.81
663.156	89.81
663.36	79.81
663.563	85.81
663.766	87.81
663.969	92.81
664.173	84.81
664.376	80.81
664.579	84.81
664.782	81.81
664.985	90.81
665.188	97.81
665.391	76.81
665.594	79.81
665.797	77.81
666	99.81
666.203	78.81
666.406	74.81
666.609	90.81
666.812	93.81
667.015	89.81
667.218	84.81
667.421	83.81
667.624	78.81
667.827	80.81
668.03	77.81
668.232	86.81
668.435	83.81
668.638	91.81
668.841	96.81
669.043	88.81
669.246	77.81
669.449	79.81
669.651	89.81
669.854	69.81
670.057	72.81
670.259	73.81
670.462	81.81
670.665	85.81
670.867	94.81
671.07	88.81
671.272	82.81
671.475	85.81
671.677	82.81
671.88	86.81
672.082	83.81
672.284	81.81
672.487	73.81
672.689	78.81
672.892	80.81
