Data from WStandard_LampEnergy8_LIBS07252019.E.O._I.C._HRD10591_15-59-24-930.txt Node
Date: Thu Jul 25 15:59:24 EDT 2019
User: cochatt
Spectrometer: HR+D1059
Trigger mode: 1
Integration Time (sec): 1.000000E-1
Scans to average: 1
Electric dark correction enabled: true
Nonlinearity correction enabled: false
Boxcar width: 0
XAxis mode: Wavelengths
Number of Pixels in Spectrum: 2048
>>>>>Begin Spectral Data<<<<<
223.165	-6.56
223.4	-6.56
223.635	-6.56
223.869	-13.56
224.104	-20.56
224.338	-7.56
224.573	-1.56
224.808	-13.56
225.042	-22.56
225.277	-6.56
225.511	1.44
225.746	2.44
225.98	10.44
226.215	13.44
226.449	2.44
226.683	15.44
226.918	18.44
227.152	28.44
227.387	31.44
227.621	34.44
227.856	27.44
228.09	26.44
228.324	46.44
228.559	65.44
228.793	84.44
229.027	202.44
229.262	212.44
229.496	209.44
229.73	240.44
229.964	234.44
230.199	240.44
230.433	265.44
230.667	274.44
230.901	291.44
231.136	261.44
231.37	253.44
231.604	252.44
231.838	264.44
232.072	264.44
232.306	256.44
232.541	281.44
232.775	322.44
233.009	333.44
233.243	315.44
233.477	290.44
233.711	320.44
233.945	314.44
234.179	282.44
234.413	332.44
234.647	355.44
234.881	304.44
235.115	298.44
235.349	292.44
235.583	308.44
235.817	287.44
236.051	288.44
236.285	305.44
236.519	336.44
236.753	369.44
236.987	372.44
237.221	372.44
237.455	369.44
237.689	378.44
237.922	360.44
238.156	359.44
238.39	378.44
238.624	365.44
238.858	378.44
239.091	396.44
239.325	425.44
239.559	483.44
239.793	484.44
240.027	514.44
240.26	493.44
240.494	411.44
240.728	358.44
240.961	397.44
241.195	400.44
241.429	410.44
241.662	429.44
241.896	376.44
242.13	402.44
242.363	442.44
242.597	466.44
242.83	452.44
243.064	445.44
243.298	500.44
243.531	451.44
243.765	471.44
243.998	451.44
244.232	422.44
244.465	400.44
244.699	403.44
244.932	451.44
245.166	517.44
245.399	488.44
245.633	469.44
245.866	462.44
246.099	472.44
246.333	492.44
246.566	497.44
246.8	552.44
247.033	598.44
247.266	541.44
247.5	547.44
247.733	543.44
247.966	563.44
248.2	606.44
248.433	611.44
248.666	619.44
248.899	652.44
249.133	760.44
249.366	810.44
249.599	696.44
249.832	619.44
250.066	613.44
250.299	631.44
250.532	583.44
250.765	550.44
250.998	589.44
251.231	617.44
251.465	605.44
251.698	579.44
251.931	604.44
252.164	589.44
252.397	614.44
252.63	630.44
252.863	587.44
253.096	551.44
253.329	568.44
253.562	585.44
253.795	642.44
254.028	617.44
254.261	567.44
254.494	554.44
254.727	566.44
254.96	595.44
255.193	637.44
255.426	705.44
255.659	803.44
255.892	817.44
256.124	679.44
256.357	637.44
256.59	676.44
256.823	707.44
257.056	716.44
257.289	828.44
257.521	899.44
257.754	816.44
257.987	756.44
258.22	846.44
258.452	828.44
258.685	685.44
258.918	652.44
259.151	659.44
259.383	626.44
259.616	580.44
259.849	603.44
260.081	705.44
260.314	781.44
260.547	825.44
260.779	829.44
261.012	756.44
261.244	728.44
261.477	669.44
261.71	690.44
261.942	690.44
262.175	683.44
262.407	706.44
262.64	658.44
262.872	628.44
263.105	622.44
263.337	644.44
263.57	654.44
263.802	633.44
264.035	592.44
264.267	583.44
264.499	579.44
264.732	613.44
264.964	643.44
265.197	686.44
265.429	716.44
265.661	800.44
265.894	868.44
266.126	871.44
266.358	776.44
266.591	834.44
266.823	844.44
267.055	800.44
267.287	760.44
267.52	775.44
267.752	797.44
267.984	774.44
268.216	817.44
268.448	812.44
268.681	802.44
268.913	723.44
269.145	685.44
269.377	708.44
269.609	772.44
269.841	869.44
270.073	1024.44
270.306	1090.44
270.538	1110.44
270.77	971.44
271.002	820.44
271.234	804.44
271.466	821.44
271.698	922.44
271.93	1076.44
272.162	1028.44
272.394	936.44
272.626	891.44
272.858	809.44
273.09	689.44
273.322	701.44
273.553	672.44
273.785	709.44
274.017	718.44
274.249	774.44
274.481	782.44
274.713	738.44
274.945	715.44
275.176	704.44
275.408	672.44
275.64	689.44
275.872	651.44
276.104	737.44
276.335	833.44
276.567	900.44
276.799	907.44
277.031	850.44
277.262	787.44
277.494	854.44
277.726	912.44
277.957	892.44
278.189	814.44
278.421	759.44
278.652	757.44
278.884	742.44
279.115	757.44
279.347	758.44
279.579	736.44
279.81	752.44
280.042	817.44
280.273	912.44
280.505	888.44
280.736	912.44
280.968	813.44
281.199	728.44
281.431	688.44
281.662	703.44
281.894	706.44
282.125	737.44
282.356	780.44
282.588	762.44
282.819	783.44
283.051	828.44
283.282	876.44
283.513	836.44
283.745	783.44
283.976	717.44
284.207	728.44
284.439	762.44
284.67	767.44
284.901	800.44
285.132	791.44
285.364	784.44
285.595	773.44
285.826	772.44
286.057	765.44
286.288	744.44
286.52	802.44
286.751	870.44
286.982	852.44
287.213	778.44
287.444	742.44
287.675	744.44
287.906	806.44
288.138	855.44
288.369	803.44
288.6	775.44
288.831	754.44
289.062	752.44
289.293	790.44
289.524	800.44
289.755	806.44
289.986	789.44
290.217	740.44
290.448	757.44
290.679	804.44
290.91	777.44
291.141	824.44
291.371	819.44
291.602	808.44
291.833	789.44
292.064	834.44
292.295	839.44
292.526	847.44
292.757	885.44
292.987	824.44
293.218	823.44
293.449	856.44
293.68	985.44
293.91	1030.44
294.141	946.44
294.372	916.44
294.603	957.44
294.833	986.44
295.064	936.44
295.295	849.44
295.525	820.44
295.756	760.44
295.987	749.44
296.217	738.44
296.448	776.44
296.679	793.44
296.909	789.44
297.14	779.44
297.37	813.44
297.601	870.44
297.831	906.44
298.062	880.44
298.292	813.44
298.523	788.44
298.753	783.44
298.984	822.44
299.214	808.44
299.445	846.44
299.675	858.44
299.905	838.44
300.136	825.44
300.366	794.44
300.597	772.44
300.827	799.44
301.057	819.44
301.288	888.44
301.518	846.44
301.748	861.44
301.979	906.44
302.209	948.44
302.439	982.44
302.669	996.44
302.9	949.44
303.13	860.44
303.36	860.44
303.59	844.44
303.82	864.44
304.051	882.44
304.281	867.44
304.511	880.44
304.741	932.44
304.971	1036.44
305.201	1057.44
305.431	945.44
305.661	784.44
305.891	749.44
306.121	747.44
306.352	789.44
306.582	852.44
306.812	898.44
307.042	964.44
307.272	967.44
307.502	1024.44
307.731	1086.44
307.961	1100.44
308.191	990.44
308.421	892.44
308.651	882.44
308.881	825.44
309.111	836.44
309.341	822.44
309.571	840.44
309.8	825.44
310.03	833.44
310.26	812.44
310.49	846.44
310.72	889.44
310.949	878.44
311.179	886.44
311.409	877.44
311.639	870.44
311.868	842.44
312.098	845.44
312.328	846.44
312.557	848.44
312.787	860.44
313.017	869.44
313.246	881.44
313.476	871.44
313.706	916.44
313.935	925.44
314.165	910.44
314.394	928.44
314.624	1003.44
314.853	1043.44
315.083	1063.44
315.312	1054.44
315.542	1016.44
315.771	901.44
316.001	934.44
316.23	966.44
316.46	938.44
316.689	935.44
316.919	878.44
317.148	886.44
317.377	880.44
317.607	952.44
317.836	1073.44
318.065	1078.44
318.295	1052.44
318.524	1005.44
318.753	930.44
318.983	961.44
319.212	921.44
319.441	898.44
319.67	933.44
319.9	944.44
320.129	972.44
320.358	1004.44
320.587	1017.44
320.816	1054.44
321.046	1014.44
321.275	1007.44
321.504	997.44
321.733	1065.44
321.962	1007.44
322.191	918.44
322.42	937.44
322.649	918.44
322.878	912.44
323.108	939.44
323.337	976.44
323.566	950.44
323.795	948.44
324.024	961.44
324.253	961.44
324.482	927.44
324.71	903.44
324.939	881.44
325.168	904.44
325.397	937.44
325.626	958.44
325.855	973.44
326.084	898.44
326.313	941.44
326.542	966.44
326.77	966.44
326.999	976.44
327.228	939.44
327.457	904.44
327.686	883.44
327.914	913.44
328.143	919.44
328.372	919.44
328.6	929.44
328.829	929.44
329.058	906.44
329.287	941.44
329.515	959.44
329.744	972.44
329.972	994.44
330.201	1049.44
330.43	1036.44
330.658	1001.44
330.887	1002.44
331.115	986.44
331.344	983.44
331.572	988.44
331.801	976.44
332.03	972.44
332.258	1003.44
332.486	988.44
332.715	1019.44
332.943	1005.44
333.172	1021.44
333.4	1014.44
333.629	1012.44
333.857	1136.44
334.085	1191.44
334.314	1344.44
334.542	1467.44
334.771	1293.44
334.999	1180.44
335.227	1093.44
335.455	1106.44
335.684	1074.44
335.912	1086.44
336.14	1098.44
336.369	1065.44
336.597	986.44
336.825	1004.44
337.053	1065.44
337.281	1110.44
337.51	1144.44
337.738	1156.44
337.966	1069.44
338.194	1005.44
338.422	960.44
338.65	1021.44
338.878	993.44
339.106	962.44
339.334	956.44
339.562	928.44
339.79	967.44
340.018	1008.44
340.246	1068.44
340.474	1044.44
340.702	1004.44
340.93	1013.44
341.158	1035.44
341.386	979.44
341.614	1024.44
341.842	1007.44
342.07	993.44
342.298	998.44
342.526	976.44
342.754	990.44
342.981	961.44
343.209	952.44
343.437	984.44
343.665	1011.44
343.893	1028.44
344.12	1074.44
344.348	1061.44
344.576	1046.44
344.804	1021.44
345.031	960.44
345.259	1011.44
345.487	946.44
345.714	899.44
345.942	912.44
346.17	956.44
346.397	944.44
346.625	955.44
346.853	896.44
347.08	881.44
347.308	910.44
347.535	925.44
347.763	947.44
347.99	901.44
348.218	916.44
348.445	898.44
348.673	924.44
348.9	963.44
349.128	992.44
349.355	1016.44
349.583	972.44
349.81	925.44
350.037	879.44
350.265	866.44
350.492	880.44
350.72	906.44
350.947	944.44
351.174	950.44
351.402	900.44
351.629	899.44
351.856	866.44
352.083	865.44
352.311	864.44
352.538	906.44
352.765	924.44
352.992	941.44
353.22	947.44
353.447	894.44
353.674	924.44
353.901	926.44
354.128	887.44
354.355	892.44
354.583	980.44
354.81	988.44
355.037	946.44
355.264	952.44
355.491	948.44
355.718	920.44
355.945	942.44
356.172	897.44
356.399	904.44
356.626	888.44
356.853	968.44
357.08	1052.44
357.307	1115.44
357.534	1078.44
357.761	965.44
357.988	873.44
358.215	904.44
358.441	912.44
358.668	894.44
358.895	918.44
359.122	954.44
359.349	1044.44
359.576	1026.44
359.802	916.44
360.029	859.44
360.256	906.44
360.483	916.44
360.709	965.44
360.936	966.44
361.163	1030.44
361.39	1094.44
361.616	1167.44
361.843	1133.44
362.07	1062.44
362.296	931.44
362.523	922.44
362.749	925.44
362.976	952.44
363.203	944.44
363.429	927.44
363.656	912.44
363.882	952.44
364.109	1068.44
364.335	1079.44
364.562	1015.44
364.788	1003.44
365.015	931.44
365.241	919.44
365.468	924.44
365.694	977.44
365.92	1018.44
366.147	950.44
366.373	912.44
366.599	885.44
366.826	921.44
367.052	900.44
367.278	938.44
367.505	956.44
367.731	954.44
367.957	962.44
368.184	1008.44
368.41	1065.44
368.636	1102.44
368.862	1059.44
369.089	1086.44
369.315	1024.44
369.541	954.44
369.767	948.44
369.993	941.44
370.219	920.44
370.445	961.44
370.672	1036.44
370.898	1088.44
371.124	1043.44
371.35	984.44
371.576	1038.44
371.802	1067.44
372.028	984.44
372.254	989.44
372.48	949.44
372.706	949.44
372.932	960.44
373.158	989.44
373.384	1003.44
373.61	1006.44
373.835	1041.44
374.061	1012.44
374.287	998.44
374.513	990.44
374.739	997.44
374.965	1001.44
375.191	1031.44
375.416	997.44
375.642	1042.44
375.868	1099.44
376.094	1143.44
376.319	1053.44
376.545	1014.44
376.771	1047.44
376.997	1074.44
377.222	1086.44
377.448	1052.44
377.674	992.44
377.899	1056.44
378.125	1113.44
378.35	1068.44
378.576	973.44
378.802	948.44
379.027	962.44
379.253	988.44
379.478	982.44
379.704	1001.44
379.929	971.44
380.155	1008.44
380.38	1024.44
380.606	993.44
380.831	1002.44
381.057	1075.44
381.282	1061.44
381.507	1064.44
381.733	1141.44
381.958	1156.44
382.184	1056.44
382.409	1031.44
382.634	1042.44
382.86	1048.44
383.085	1088.44
383.31	1068.44
383.535	1192.44
383.761	1229.44
383.986	1139.44
384.211	1148.44
384.436	1129.44
384.662	1184.44
384.887	1240.44
385.112	1144.44
385.337	1176.44
385.562	1123.44
385.787	1125.44
386.013	1179.44
386.238	1165.44
386.463	1189.44
386.688	1242.44
386.913	1307.44
387.138	1254.44
387.363	1188.44
387.588	1188.44
387.813	1183.44
388.038	1185.44
388.263	1248.44
388.488	1164.44
388.713	1091.44
388.938	1076.44
389.163	1123.44
389.387	1103.44
389.612	1113.44
389.837	1168.44
390.062	1145.44
390.287	1141.44
390.512	1117.44
390.736	1117.44
390.961	1107.44
391.186	1080.44
391.411	1078.44
391.636	1097.44
391.86	1096.44
392.085	1136.44
392.31	1131.44
392.534	1131.44
392.759	1139.44
392.984	1144.44
393.208	1140.44
393.433	1177.44
393.658	1256.44
393.882	1217.44
394.107	1184.44
394.331	1126.44
394.556	1143.44
394.78	1174.44
395.005	1170.44
395.229	1220.44
395.454	1324.44
395.678	1298.44
395.903	1236.44
396.127	1215.44
396.352	1238.44
396.576	1286.44
396.801	1302.44
397.025	1278.44
397.249	1220.44
397.474	1224.44
397.698	1218.44
397.922	1278.44
398.147	1333.44
398.371	1392.44
398.595	1375.44
398.82	1298.44
399.044	1329.44
399.268	1384.44
399.492	1458.44
399.717	1500.44
399.941	1545.44
400.165	1487.44
400.389	1451.44
400.613	1459.44
400.837	1658.44
401.062	1840.44
401.286	1547.44
401.51	1460.44
401.734	1510.44
401.958	1418.44
402.182	1332.44
402.406	1309.44
402.63	1258.44
402.854	1303.44
403.078	1318.44
403.302	1332.44
403.526	1363.44
403.75	1345.44
403.974	1373.44
404.198	1376.44
404.422	1450.44
404.645	1464.44
404.869	1443.44
405.093	1335.44
405.317	1350.44
405.541	1346.44
405.765	1393.44
405.988	1342.44
406.212	1369.44
406.436	1400.44
406.66	1462.44
406.883	1491.44
407.107	1670.44
407.331	1811.44
407.555	1936.44
407.778	1710.44
408.002	1458.44
408.226	1418.44
408.449	1404.44
408.673	1376.44
408.896	1356.44
409.12	1426.44
409.344	1389.44
409.567	1300.44
409.791	1349.44
410.014	1393.44
410.238	1474.44
410.461	1541.44
410.685	1387.44
410.908	1357.44
411.132	1367.44
411.355	1330.44
411.578	1331.44
411.802	1350.44
412.025	1361.44
412.249	1357.44
412.472	1309.44
412.695	1294.44
412.919	1306.44
413.142	1284.44
413.365	1337.44
413.589	1377.44
413.812	1466.44
414.035	1446.44
414.258	1326.44
414.482	1330.44
414.705	1338.44
414.928	1308.44
415.151	1316.44
415.374	1310.44
415.597	1335.44
415.821	1338.44
416.044	1337.44
416.267	1324.44
416.49	1277.44
416.713	1268.44
416.936	1334.44
417.159	1382.44
417.382	1382.44
417.605	1313.44
417.828	1317.44
418.051	1352.44
418.274	1292.44
418.497	1289.44
418.72	1272.44
418.943	1289.44
419.166	1333.44
419.389	1354.44
419.611	1306.44
419.834	1288.44
420.057	1311.44
420.28	1301.44
420.503	1315.44
420.726	1340.44
420.948	1305.44
421.171	1272.44
421.394	1316.44
421.617	1330.44
421.839	1358.44
422.062	1321.44
422.285	1279.44
422.507	1278.44
422.73	1256.44
422.953	1255.44
423.175	1244.44
423.398	1285.44
423.621	1257.44
423.843	1302.44
424.066	1306.44
424.288	1378.44
424.511	1398.44
424.733	1389.44
424.956	1276.44
425.178	1241.44
425.401	1245.44
425.623	1252.44
425.846	1271.44
426.068	1348.44
426.291	1357.44
426.513	1317.44
426.735	1339.44
426.958	1476.44
427.18	1510.44
427.402	1381.44
427.625	1407.44
427.847	1392.44
428.069	1280.44
428.292	1250.44
428.514	1234.44
428.736	1246.44
428.958	1244.44
429.181	1268.44
429.403	1504.44
429.625	1764.44
429.847	1471.44
430.069	1276.44
430.292	1472.44
430.514	1442.44
430.736	1382.44
430.958	1366.44
431.18	1300.44
431.402	1229.44
431.624	1221.44
431.846	1170.44
432.068	1144.44
432.29	1169.44
432.512	1210.44
432.734	1250.44
432.956	1288.44
433.178	1360.44
433.4	1316.44
433.622	1323.44
433.844	1274.44
434.066	1242.44
434.287	1182.44
434.509	1225.44
434.731	1288.44
434.953	1384.44
435.175	1360.44
435.397	1282.44
435.618	1266.44
435.84	1252.44
436.062	1250.44
436.284	1286.44
436.505	1312.44
436.727	1314.44
436.949	1293.44
437.17	1264.44
437.392	1233.44
437.614	1211.44
437.835	1216.44
438.057	1233.44
438.278	1234.44
438.5	1230.44
438.721	1247.44
438.943	1259.44
439.165	1243.44
439.386	1192.44
439.608	1234.44
439.829	1255.44
440.05	1290.44
440.272	1251.44
440.493	1228.44
440.715	1287.44
440.936	1364.44
441.158	1448.44
441.379	1378.44
441.6	1345.44
441.822	1383.44
442.043	1323.44
442.264	1328.44
442.486	1291.44
442.707	1250.44
442.928	1284.44
443.149	1305.44
443.371	1360.44
443.592	1422.44
443.813	1355.44
444.034	1364.44
444.255	1336.44
444.476	1381.44
444.698	1403.44
444.919	1408.44
445.14	1457.44
445.361	1432.44
445.582	1456.44
445.803	1419.44
446.024	1374.44
446.245	1444.44
446.466	1412.44
446.687	1331.44
446.908	1356.44
447.129	1316.44
447.35	1309.44
447.571	1292.44
447.792	1221.44
448.013	1267.44
448.234	1257.44
448.455	1296.44
448.675	1318.44
448.896	1241.44
449.117	1176.44
449.338	1240.44
449.559	1275.44
449.779	1334.44
450	1434.44
450.221	1440.44
450.442	1418.44
450.662	1301.44
450.883	1174.44
451.104	1173.44
451.324	1197.44
451.545	1219.44
451.766	1214.44
451.986	1123.44
452.207	1138.44
452.428	1088.44
452.648	1101.44
452.869	1088.44
453.089	1118.44
453.31	1144.44
453.53	1166.44
453.751	1136.44
453.971	1047.44
454.192	1104.44
454.412	1150.44
454.633	1126.44
454.853	1115.44
455.073	1074.44
455.294	1082.44
455.514	1085.44
455.734	1077.44
455.955	1116.44
456.175	1094.44
456.395	1059.44
456.616	1077.44
456.836	1097.44
457.056	1115.44
457.276	1089.44
457.497	1047.44
457.717	1014.44
457.937	1028.44
458.157	1073.44
458.377	1050.44
458.598	1044.44
458.818	1048.44
459.038	1115.44
459.258	1132.44
459.478	1117.44
459.698	1107.44
459.918	1141.44
460.138	1251.44
460.358	1248.44
460.578	1270.44
460.798	1300.44
461.018	1330.44
461.238	1332.44
461.458	1244.44
461.678	1256.44
461.898	1238.44
462.118	1226.44
462.338	1284.44
462.558	1242.44
462.777	1233.44
462.997	1329.44
463.217	1410.44
463.437	1382.44
463.657	1274.44
463.876	1264.44
464.096	1251.44
464.316	1267.44
464.536	1291.44
464.755	1298.44
464.975	1300.44
465.195	1288.44
465.414	1332.44
465.634	1311.44
465.854	1270.44
466.073	1394.44
466.293	1354.44
466.512	1209.44
466.732	1185.44
466.951	1244.44
467.171	1221.44
467.391	1219.44
467.61	1197.44
467.829	1204.44
468.049	1361.44
468.268	1466.44
468.488	1356.44
468.707	1294.44
468.927	1284.44
469.146	1234.44
469.365	1238.44
469.585	1253.44
469.804	1232.44
470.023	1236.44
470.243	1257.44
470.462	1248.44
470.681	1194.44
470.901	1251.44
471.12	1226.44
471.339	1256.44
471.558	1198.44
471.777	1243.44
471.997	1221.44
472.216	1186.44
472.435	1148.44
472.654	1147.44
472.873	1200.44
473.092	1243.44
473.311	1197.44
473.53	1166.44
473.749	1105.44
473.968	1197.44
474.187	1212.44
474.406	1241.44
474.625	1204.44
474.844	1224.44
475.063	1233.44
475.282	1280.44
475.501	1179.44
475.72	1200.44
475.939	1299.44
476.158	1248.44
476.377	1245.44
476.596	1238.44
476.814	1209.44
477.033	1185.44
477.252	1268.44
477.471	1319.44
477.69	1274.44
477.908	1282.44
478.127	1356.44
478.346	1431.44
478.564	1430.44
478.783	1409.44
479.002	1459.44
479.22	1435.44
479.439	1448.44
479.658	1594.44
479.876	1554.44
480.095	1378.44
480.313	1355.44
480.532	1326.44
480.751	1335.44
480.969	1255.44
481.188	1277.44
481.406	1260.44
481.624	1220.44
481.843	1248.44
482.061	1278.44
482.28	1336.44
482.498	1362.44
482.717	1314.44
482.935	1314.44
483.153	1369.44
483.372	1367.44
483.59	1367.44
483.808	1349.44
484.027	1388.44
484.245	1463.44
484.463	1744.44
484.681	1864.44
484.9	1440.44
485.118	1378.44
485.336	1367.44
485.554	1395.44
485.772	1414.44
485.99	1373.44
486.209	1384.44
486.427	1387.44
486.645	1419.44
486.863	1442.44
487.081	1491.44
487.299	1465.44
487.517	1472.44
487.735	1470.44
487.953	1503.44
488.171	1487.44
488.389	1471.44
488.607	1481.44
488.825	1609.44
489.043	1547.44
489.261	1429.44
489.479	1461.44
489.696	1492.44
489.914	1438.44
490.132	1422.44
490.35	1392.44
490.568	1562.44
490.786	1495.44
491.003	1489.44
491.221	1550.44
491.439	1605.44
491.657	1597.44
491.874	1636.44
492.092	1719.44
492.31	1707.44
492.527	1661.44
492.745	1599.44
492.963	1621.44
493.18	1644.44
493.398	1702.44
493.615	1720.44
493.833	1626.44
494.05	1556.44
494.268	1572.44
494.485	1578.44
494.703	1609.44
494.92	1549.44
495.138	1548.44
495.355	1569.44
495.573	1636.44
495.79	1708.44
496.008	1701.44
496.225	1642.44
496.442	1607.44
496.66	1612.44
496.877	1628.44
497.094	1664.44
497.312	1662.44
497.529	1644.44
497.746	1656.44
497.963	1875.44
498.181	1966.44
498.398	1910.44
498.615	1879.44
498.832	1794.44
499.049	1779.44
499.267	1822.44
499.484	1908.44
499.701	2046.44
499.918	2052.44
500.135	2217.44
500.352	2358.44
500.569	2341.44
500.786	2514.44
501.003	2285.44
501.22	2156.44
501.437	2052.44
501.654	2109.44
501.871	2011.44
502.088	1767.44
502.305	1750.44
502.522	1663.44
502.739	1612.44
502.956	1597.44
503.172	1571.44
503.389	1518.44
503.606	1492.44
503.823	1524.44
504.04	1484.44
504.256	1516.44
504.473	1507.44
504.69	1560.44
504.907	1467.44
505.123	1439.44
505.34	1557.44
505.557	1983.44
505.773	1643.44
505.99	1419.44
506.207	1344.44
506.423	1302.44
506.64	1293.44
506.856	1272.44
507.073	1534.44
507.289	1607.44
507.506	1509.44
507.722	1316.44
507.939	1256.44
508.155	1257.44
508.372	1274.44
508.588	1243.44
508.805	1197.44
509.021	1160.44
509.238	1166.44
509.454	1182.44
509.67	1151.44
509.887	1124.44
510.103	1132.44
510.319	1147.44
510.536	1185.44
510.752	1239.44
510.968	1205.44
511.184	1284.44
511.401	1255.44
511.617	1115.44
511.833	1101.44
512.049	1114.44
512.265	1144.44
512.481	1110.44
512.698	1167.44
512.914	1224.44
513.13	1180.44
513.346	1157.44
513.562	1076.44
513.778	1114.44
513.994	1176.44
514.21	1200.44
514.426	1214.44
514.642	1303.44
514.858	1229.44
515.074	1128.44
515.29	1074.44
515.506	1138.44
515.721	1162.44
515.937	1207.44
516.153	1298.44
516.369	1256.44
516.585	1174.44
516.801	1142.44
517.016	1161.44
517.232	1177.44
517.448	1216.44
517.664	1198.44
517.879	1224.44
518.095	1244.44
518.311	1256.44
518.527	1180.44
518.742	1187.44
518.958	1169.44
519.173	1143.44
519.389	1186.44
519.605	1181.44
519.82	1198.44
520.036	1194.44
520.251	1157.44
520.467	1178.44
520.682	1245.44
520.898	1272.44
521.113	1149.44
521.329	1137.44
521.544	1220.44
521.76	1171.44
521.975	1113.44
522.19	1078.44
522.406	1109.44
522.621	1374.44
522.836	1314.44
523.052	1121.44
523.267	1104.44
523.482	1140.44
523.698	1067.44
523.913	1040.44
524.128	1127.44
524.343	1142.44
524.559	1160.44
524.774	1094.44
524.989	1074.44
525.204	1069.44
525.419	1051.44
525.634	1098.44
525.849	1100.44
526.064	1050.44
526.28	1077.44
526.495	1038.44
526.71	999.44
526.925	990.44
527.14	966.44
527.355	967.44
527.57	986.44
527.785	1012.44
527.999	1022.44
528.214	1003.44
528.429	980.44
528.644	1012.44
528.859	1049.44
529.074	1107.44
529.289	1122.44
529.503	1125.44
529.718	1076.44
529.933	1018.44
530.148	985.44
530.363	965.44
530.577	978.44
530.792	1001.44
531.007	979.44
531.221	969.44
531.436	1024.44
531.651	1025.44
531.865	1057.44
532.08	989.44
532.295	954.44
532.509	919.44
532.724	957.44
532.938	1016.44
533.153	1066.44
533.367	1052.44
533.582	1036.44
533.796	995.44
534.011	1019.44
534.225	1001.44
534.44	960.44
534.654	959.44
534.868	958.44
535.083	1014.44
535.297	1031.44
535.511	1034.44
535.726	1005.44
535.94	973.44
536.154	984.44
536.369	944.44
536.583	952.44
536.797	971.44
537.011	982.44
537.225	947.44
537.44	926.44
537.654	997.44
537.868	922.44
538.082	927.44
538.296	927.44
538.51	919.44
538.724	923.44
538.938	927.44
539.153	1032.44
539.367	986.44
539.581	978.44
539.795	990.44
540.009	951.44
540.222	970.44
540.436	984.44
540.65	1071.44
540.864	1100.44
541.078	1038.44
541.292	1003.44
541.506	1076.44
541.72	1097.44
541.934	1136.44
542.147	1206.44
542.361	1140.44
542.575	1078.44
542.789	1012.44
543.002	970.44
543.216	980.44
543.43	999.44
543.644	1058.44
543.857	1138.44
544.071	1121.44
544.285	1110.44
544.498	1112.44
544.712	1097.44
544.925	1086.44
545.139	1144.44
545.352	1066.44
545.566	1065.44
545.779	1070.44
545.993	1099.44
546.206	1095.44
546.42	1093.44
546.633	1088.44
546.847	1053.44
547.06	1078.44
547.274	1077.44
547.487	1102.44
547.7	1105.44
547.914	1086.44
548.127	1100.44
548.34	1083.44
548.554	1049.44
548.767	1070.44
548.98	1053.44
549.193	1072.44
549.407	1117.44
549.62	1121.44
549.833	1038.44
550.046	1044.44
550.259	1046.44
550.473	1039.44
550.686	1011.44
550.899	994.44
551.112	975.44
551.325	975.44
551.538	1037.44
551.751	1138.44
551.964	905.44
552.177	900.44
552.39	954.44
552.603	984.44
552.816	1022.44
553.029	1080.44
553.242	1054.44
553.455	1050.44
553.667	1032.44
553.88	1037.44
554.093	990.44
554.306	987.44
554.519	969.44
554.732	946.44
554.944	969.44
555.157	1021.44
555.37	963.44
555.583	958.44
555.795	938.44
556.008	895.44
556.221	882.44
556.433	869.44
556.646	891.44
556.859	870.44
557.071	864.44
557.284	871.44
557.496	884.44
557.709	860.44
557.921	857.44
558.134	852.44
558.346	866.44
558.559	839.44
558.771	866.44
558.984	818.44
559.196	796.44
559.409	812.44
559.621	810.44
559.833	832.44
560.046	853.44
560.258	859.44
560.47	806.44
560.683	836.44
560.895	829.44
561.107	845.44
561.32	824.44
561.532	823.44
561.744	834.44
561.956	827.44
562.168	804.44
562.381	813.44
562.593	795.44
562.805	778.44
563.017	772.44
563.229	809.44
563.441	810.44
563.653	792.44
563.865	760.44
564.077	796.44
564.289	789.44
564.501	796.44
564.713	826.44
564.925	826.44
565.137	913.44
565.349	821.44
565.561	804.44
565.773	828.44
565.985	851.44
566.197	875.44
566.408	895.44
566.62	909.44
566.832	927.44
567.044	914.44
567.255	892.44
567.467	886.44
567.679	888.44
567.891	905.44
568.102	880.44
568.314	846.44
568.526	810.44
568.737	778.44
568.949	733.44
569.161	739.44
569.372	691.44
569.584	695.44
569.795	690.44
570.007	672.44
570.218	647.44
570.43	628.44
570.641	665.44
570.853	647.44
571.064	645.44
571.276	669.44
571.487	652.44
571.698	652.44
571.91	645.44
572.121	653.44
572.333	632.44
572.544	616.44
572.755	598.44
572.966	574.44
573.178	576.44
573.389	583.44
573.6	613.44
573.811	641.44
574.023	592.44
574.234	573.44
574.445	584.44
574.656	568.44
574.867	573.44
575.078	561.44
575.289	548.44
575.501	563.44
575.712	540.44
575.923	561.44
576.134	562.44
576.345	567.44
576.556	540.44
576.767	562.44
576.978	538.44
577.188	538.44
577.399	533.44
577.61	506.44
577.821	522.44
578.032	505.44
578.243	497.44
578.454	523.44
578.665	513.44
578.875	516.44
579.086	489.44
579.297	486.44
579.508	512.44
579.718	506.44
579.929	497.44
580.14	476.44
580.35	492.44
580.561	517.44
580.772	578.44
580.982	528.44
581.193	482.44
581.403	486.44
581.614	473.44
581.825	461.44
582.035	475.44
582.246	477.44
582.456	483.44
582.667	485.44
582.877	480.44
583.087	490.44
583.298	459.44
583.508	462.44
583.719	458.44
583.929	476.44
584.139	475.44
584.35	475.44
584.56	458.44
584.77	461.44
584.981	465.44
585.191	480.44
585.401	471.44
585.611	474.44
585.821	471.44
586.032	446.44
586.242	452.44
586.452	452.44
586.662	450.44
586.872	479.44
587.082	434.44
587.292	486.44
587.502	460.44
587.713	439.44
587.923	445.44
588.133	435.44
588.343	453.44
588.553	449.44
588.762	446.44
588.972	434.44
589.182	451.44
589.392	447.44
589.602	467.44
589.812	442.44
590.022	455.44
590.232	446.44
590.441	471.44
590.651	451.44
590.861	457.44
591.071	435.44
591.281	429.44
591.49	438.44
591.7	423.44
591.91	424.44
592.119	455.44
592.329	440.44
592.539	461.44
592.748	446.44
592.958	425.44
593.167	486.44
593.377	452.44
593.587	469.44
593.796	464.44
594.006	444.44
594.215	462.44
594.424	451.44
594.634	467.44
594.843	480.44
595.053	490.44
595.262	468.44
595.472	450.44
595.681	473.44
595.89	428.44
596.1	453.44
596.309	445.44
596.518	451.44
596.727	432.44
596.937	424.44
597.146	414.44
597.355	421.44
597.564	424.44
597.774	402.44
597.983	403.44
598.192	397.44
598.401	403.44
598.61	391.44
598.819	387.44
599.028	403.44
599.237	409.44
599.446	398.44
599.655	397.44
599.864	396.44
600.073	392.44
600.282	392.44
600.491	366.44
600.7	366.44
600.909	379.44
601.118	376.44
601.327	409.44
601.536	424.44
601.745	412.44
601.953	398.44
602.162	413.44
602.371	420.44
602.58	421.44
602.789	411.44
602.997	409.44
603.206	411.44
603.415	419.44
603.623	400.44
603.832	401.44
604.041	385.44
604.249	372.44
604.458	376.44
604.666	365.44
604.875	384.44
605.084	400.44
605.292	410.44
605.501	405.44
605.709	416.44
605.918	393.44
606.126	398.44
606.334	405.44
606.543	415.44
606.751	411.44
606.96	400.44
607.168	406.44
607.376	383.44
607.585	397.44
607.793	405.44
608.001	396.44
608.21	385.44
608.418	418.44
608.626	418.44
608.834	411.44
609.043	409.44
609.251	401.44
609.459	376.44
609.667	390.44
609.875	407.44
610.083	409.44
610.291	407.44
610.499	414.44
610.707	414.44
610.916	420.44
611.124	405.44
611.332	398.44
611.54	392.44
611.748	394.44
611.955	393.44
612.163	392.44
612.371	399.44
612.579	384.44
612.787	384.44
612.995	381.44
613.203	402.44
613.411	393.44
613.618	392.44
613.826	384.44
614.034	397.44
614.242	393.44
614.449	380.44
614.657	382.44
614.865	382.44
615.072	376.44
615.28	399.44
615.488	412.44
615.695	423.44
615.903	403.44
616.111	388.44
616.318	403.44
616.526	391.44
616.733	390.44
616.941	369.44
617.148	363.44
617.356	382.44
617.563	358.44
617.771	349.44
617.978	372.44
618.185	360.44
618.393	373.44
618.6	368.44
618.807	364.44
619.015	380.44
619.222	387.44
619.429	374.44
619.637	338.44
619.844	352.44
620.051	362.44
620.258	345.44
620.466	361.44
620.673	346.44
620.88	334.44
621.087	360.44
621.294	343.44
621.501	329.44
621.708	341.44
621.915	337.44
622.122	347.44
622.329	356.44
622.536	339.44
622.743	360.44
622.95	345.44
623.157	333.44
623.364	341.44
623.571	352.44
623.778	347.44
623.985	346.44
624.192	349.44
624.399	359.44
624.606	334.44
624.812	333.44
625.019	314.44
625.226	322.44
625.433	319.44
625.639	323.44
625.846	289.44
626.053	295.44
626.259	300.44
626.466	280.44
626.673	283.44
626.879	297.44
627.086	294.44
627.293	299.44
627.499	315.44
627.706	334.44
627.912	323.44
628.119	328.44
628.325	330.44
628.532	315.44
628.738	318.44
628.945	330.44
629.151	329.44
629.357	296.44
629.564	331.44
629.77	311.44
629.976	290.44
630.183	318.44
630.389	301.44
630.595	316.44
630.802	307.44
631.008	305.44
631.214	318.44
631.42	282.44
631.627	299.44
631.833	279.44
632.039	301.44
632.245	306.44
632.451	279.44
632.657	282.44
632.863	294.44
633.069	291.44
633.275	284.44
633.481	297.44
633.688	283.44
633.893	265.44
634.099	294.44
634.305	262.44
634.511	277.44
634.717	268.44
634.923	270.44
635.129	265.44
635.335	269.44
635.541	294.44
635.747	277.44
635.952	259.44
636.158	294.44
636.364	284.44
636.57	296.44
636.775	276.44
636.981	280.44
637.187	283.44
637.392	261.44
637.598	294.44
637.804	276.44
638.009	271.44
638.215	280.44
638.421	265.44
638.626	285.44
638.832	262.44
639.037	292.44
639.243	277.44
639.448	276.44
639.654	269.44
639.859	289.44
640.065	273.44
640.27	262.44
640.475	266.44
640.681	281.44
640.886	278.44
641.091	260.44
641.297	278.44
641.502	254.44
641.707	269.44
641.913	270.44
642.118	247.44
642.323	263.44
642.528	269.44
642.733	249.44
642.939	236.44
643.144	266.44
643.349	269.44
643.554	259.44
643.759	258.44
643.964	257.44
644.169	270.44
644.374	265.44
644.579	264.44
644.784	274.44
644.989	261.44
645.194	264.44
645.399	264.44
645.604	270.44
645.809	246.44
646.014	268.44
646.219	256.44
646.423	263.44
646.628	252.44
646.833	261.44
647.038	248.44
647.243	252.44
647.447	245.44
647.652	256.44
647.857	258.44
648.062	253.44
648.266	252.44
648.471	244.44
648.676	243.44
648.88	277.44
649.085	251.44
649.289	262.44
649.494	264.44
649.698	261.44
649.903	248.44
650.107	260.44
650.312	244.44
650.516	243.44
650.721	248.44
650.925	247.44
651.13	228.44
651.334	240.44
651.539	229.44
651.743	232.44
651.947	228.44
652.152	224.44
652.356	222.44
652.56	229.44
652.764	197.44
652.969	234.44
653.173	230.44
653.377	205.44
653.581	235.44
653.785	227.44
653.99	224.44
654.194	214.44
654.398	206.44
654.602	228.44
654.806	228.44
655.01	230.44
655.214	226.44
655.418	233.44
655.622	251.44
655.826	229.44
656.03	223.44
656.234	240.44
656.438	248.44
656.642	252.44
656.846	250.44
657.049	240.44
657.253	220.44
657.457	222.44
657.661	191.44
657.865	173.44
658.068	181.44
658.272	152.44
658.476	179.44
658.68	166.44
658.883	161.44
659.087	158.44
659.291	137.44
659.494	109.44
659.698	135.44
659.901	132.44
660.105	138.44
660.309	125.44
660.512	124.44
660.716	131.44
660.919	112.44
661.123	109.44
661.326	108.44
661.53	98.44
661.733	119.44
661.936	117.44
662.14	102.44
662.343	94.44
662.546	114.44
662.75	100.44
662.953	107.44
663.156	84.44
663.36	91.44
663.563	88.44
663.766	99.44
663.969	90.44
664.173	93.44
664.376	81.44
664.579	68.44
664.782	78.44
664.985	92.44
665.188	95.44
665.391	77.44
665.594	85.44
665.797	81.44
666	91.44
666.203	79.44
666.406	72.44
666.609	92.44
666.812	75.44
667.015	84.44
667.218	84.44
667.421	85.44
667.624	93.44
667.827	94.44
668.03	92.44
668.232	93.44
668.435	75.44
668.638	86.44
668.841	75.44
669.043	93.44
669.246	95.44
669.449	89.44
669.651	93.44
669.854	86.44
670.057	81.44
670.259	81.44
670.462	92.44
670.665	86.44
670.867	82.44
671.07	89.44
671.272	100.44
671.475	96.44
671.677	82.44
671.88	72.44
672.082	91.44
672.284	80.44
672.487	78.44
672.689	82.44
672.892	78.44
