Data from WStandard_LampEnergy10_LIBS07252019.E.O._I.C._HRD10591_15-55-20-928.txt Node
Date: Thu Jul 25 15:55:20 EDT 2019
User: cochatt
Spectrometer: HR+D1059
Trigger mode: 1
Integration Time (sec): 1.000000E-1
Scans to average: 1
Electric dark correction enabled: true
Nonlinearity correction enabled: false
Boxcar width: 0
XAxis mode: Wavelengths
Number of Pixels in Spectrum: 2048
>>>>>Begin Spectral Data<<<<<
223.165	-20.25
223.4	-20.25
223.635	-20.25
223.869	-20.25
224.104	-28.25
224.338	-10.25
224.573	-17.25
224.808	-6.25
225.042	-24.25
225.277	-13.25
225.511	8.75
225.746	-2.25
225.98	15.75
226.215	22.75
226.449	17.75
226.683	33.75
226.918	14.75
227.152	28.75
227.387	48.75
227.621	38.75
227.856	56.75
228.09	59.75
228.324	60.75
228.559	72.75
228.793	90.75
229.027	140.75
229.262	143.75
229.496	142.75
229.73	153.75
229.964	185.75
230.199	167.75
230.433	164.75
230.667	186.75
230.901	181.75
231.136	174.75
231.37	178.75
231.604	186.75
231.838	194.75
232.072	180.75
232.306	168.75
232.541	173.75
232.775	187.75
233.009	211.75
233.243	191.75
233.477	185.75
233.711	194.75
233.945	195.75
234.179	194.75
234.413	200.75
234.647	197.75
234.881	204.75
235.115	167.75
235.349	189.75
235.583	186.75
235.817	199.75
236.051	201.75
236.285	209.75
236.519	226.75
236.753	228.75
236.987	223.75
237.221	221.75
237.455	244.75
237.689	233.75
237.922	222.75
238.156	214.75
238.39	226.75
238.624	237.75
238.858	244.75
239.091	253.75
239.325	256.75
239.559	268.75
239.793	289.75
240.027	330.75
240.26	284.75
240.494	249.75
240.728	218.75
240.961	242.75
241.195	245.75
241.429	255.75
241.662	234.75
241.896	252.75
242.13	257.75
242.363	265.75
242.597	282.75
242.83	278.75
243.064	285.75
243.298	287.75
243.531	279.75
243.765	278.75
243.998	273.75
244.232	257.75
244.465	245.75
244.699	261.75
244.932	283.75
245.166	311.75
245.399	309.75
245.633	300.75
245.866	264.75
246.099	287.75
246.333	281.75
246.566	290.75
246.8	315.75
247.033	348.75
247.266	327.75
247.5	317.75
247.733	324.75
247.966	338.75
248.2	361.75
248.433	343.75
248.666	377.75
248.899	388.75
249.133	432.75
249.366	460.75
249.599	408.75
249.832	364.75
250.066	361.75
250.299	366.75
250.532	327.75
250.765	329.75
250.998	333.75
251.231	349.75
251.465	356.75
251.698	347.75
251.931	351.75
252.164	358.75
252.397	360.75
252.63	342.75
252.863	355.75
253.096	320.75
253.329	332.75
253.562	326.75
253.795	353.75
254.028	349.75
254.261	329.75
254.494	339.75
254.727	327.75
254.96	333.75
255.193	351.75
255.426	399.75
255.659	441.75
255.892	444.75
256.124	394.75
256.357	363.75
256.59	390.75
256.823	402.75
257.056	425.75
257.289	476.75
257.521	501.75
257.754	452.75
257.987	448.75
258.22	466.75
258.452	453.75
258.685	397.75
258.918	396.75
259.151	400.75
259.383	356.75
259.616	364.75
259.849	367.75
260.081	410.75
260.314	432.75
260.547	473.75
260.779	474.75
261.012	461.75
261.244	394.75
261.477	383.75
261.71	397.75
261.942	393.75
262.175	395.75
262.407	418.75
262.64	394.75
262.872	379.75
263.105	366.75
263.337	381.75
263.57	395.75
263.802	383.75
264.035	349.75
264.267	333.75
264.499	347.75
264.732	373.75
264.964	374.75
265.197	387.75
265.429	428.75
265.661	452.75
265.894	516.75
266.126	493.75
266.358	463.75
266.591	486.75
266.823	485.75
267.055	452.75
267.287	441.75
267.52	447.75
267.752	430.75
267.984	455.75
268.216	463.75
268.448	459.75
268.681	440.75
268.913	410.75
269.145	406.75
269.377	425.75
269.609	446.75
269.841	516.75
270.073	592.75
270.306	610.75
270.538	622.75
270.77	534.75
271.002	460.75
271.234	475.75
271.466	484.75
271.698	550.75
271.93	606.75
272.162	570.75
272.394	525.75
272.626	511.75
272.858	469.75
273.09	417.75
273.322	400.75
273.553	392.75
273.785	412.75
274.017	436.75
274.249	445.75
274.481	412.75
274.713	398.75
274.945	413.75
275.176	388.75
275.408	397.75
275.64	406.75
275.872	395.75
276.104	442.75
276.335	491.75
276.567	524.75
276.799	537.75
277.031	460.75
277.262	474.75
277.494	508.75
277.726	528.75
277.957	499.75
278.189	458.75
278.421	436.75
278.652	419.75
278.884	428.75
279.115	432.75
279.347	422.75
279.579	420.75
279.81	438.75
280.042	484.75
280.273	504.75
280.505	499.75
280.736	502.75
280.968	466.75
281.199	431.75
281.431	457.75
281.662	407.75
281.894	415.75
282.125	462.75
282.356	456.75
282.588	461.75
282.819	458.75
283.051	469.75
283.282	506.75
283.513	474.75
283.745	415.75
283.976	413.75
284.207	439.75
284.439	440.75
284.67	460.75
284.901	470.75
285.132	451.75
285.364	477.75
285.595	436.75
285.826	456.75
286.057	444.75
286.288	421.75
286.52	485.75
286.751	495.75
286.982	506.75
287.213	441.75
287.444	452.75
287.675	435.75
287.906	465.75
288.138	495.75
288.369	465.75
288.6	429.75
288.831	427.75
289.062	436.75
289.293	450.75
289.524	446.75
289.755	453.75
289.986	455.75
290.217	455.75
290.448	456.75
290.679	465.75
290.91	459.75
291.141	482.75
291.371	511.75
291.602	476.75
291.833	486.75
292.064	495.75
292.295	489.75
292.526	505.75
292.757	510.75
292.987	496.75
293.218	475.75
293.449	517.75
293.68	555.75
293.91	570.75
294.141	564.75
294.372	511.75
294.603	550.75
294.833	532.75
295.064	521.75
295.295	466.75
295.525	463.75
295.756	472.75
295.987	441.75
296.217	461.75
296.448	468.75
296.679	452.75
296.909	463.75
297.14	462.75
297.37	470.75
297.601	514.75
297.831	508.75
298.062	516.75
298.292	493.75
298.523	451.75
298.753	476.75
298.984	451.75
299.214	476.75
299.445	492.75
299.675	495.75
299.905	485.75
300.136	467.75
300.366	465.75
300.597	462.75
300.827	475.75
301.057	464.75
301.288	504.75
301.518	529.75
301.748	503.75
301.979	533.75
302.209	550.75
302.439	557.75
302.669	566.75
302.9	540.75
303.13	504.75
303.36	515.75
303.59	542.75
303.82	506.75
304.051	498.75
304.281	498.75
304.511	516.75
304.741	578.75
304.971	615.75
305.201	602.75
305.431	564.75
305.661	503.75
305.891	447.75
306.121	450.75
306.352	489.75
306.582	522.75
306.812	536.75
307.042	556.75
307.272	536.75
307.502	562.75
307.731	618.75
307.961	606.75
308.191	576.75
308.421	502.75
308.651	512.75
308.881	486.75
309.111	501.75
309.341	495.75
309.571	500.75
309.8	491.75
310.03	500.75
310.26	490.75
310.49	484.75
310.72	517.75
310.949	541.75
311.179	522.75
311.409	511.75
311.639	506.75
311.868	505.75
312.098	509.75
312.328	516.75
312.557	514.75
312.787	526.75
313.017	512.75
313.246	504.75
313.476	520.75
313.706	546.75
313.935	551.75
314.165	544.75
314.394	573.75
314.624	593.75
314.853	626.75
315.083	642.75
315.312	629.75
315.542	574.75
315.771	539.75
316.001	535.75
316.23	551.75
316.46	583.75
316.689	536.75
316.919	500.75
317.148	522.75
317.377	548.75
317.607	592.75
317.836	634.75
318.065	626.75
318.295	606.75
318.524	595.75
318.753	602.75
318.983	585.75
319.212	552.75
319.441	541.75
319.67	556.75
319.9	576.75
320.129	585.75
320.358	612.75
320.587	623.75
320.816	606.75
321.046	596.75
321.275	603.75
321.504	573.75
321.733	619.75
321.962	587.75
322.191	565.75
322.42	539.75
322.649	567.75
322.878	575.75
323.108	578.75
323.337	578.75
323.566	556.75
323.795	559.75
324.024	575.75
324.253	560.75
324.482	566.75
324.71	564.75
324.939	532.75
325.168	526.75
325.397	568.75
325.626	570.75
325.855	558.75
326.084	549.75
326.313	550.75
326.542	575.75
326.77	579.75
326.999	553.75
327.228	546.75
327.457	534.75
327.686	532.75
327.914	553.75
328.143	570.75
328.372	532.75
328.6	549.75
328.829	539.75
329.058	543.75
329.287	560.75
329.515	577.75
329.744	562.75
329.972	604.75
330.201	618.75
330.43	589.75
330.658	595.75
330.887	597.75
331.115	603.75
331.344	620.75
331.572	582.75
331.801	582.75
332.03	584.75
332.258	606.75
332.486	588.75
332.715	581.75
332.943	605.75
333.172	584.75
333.4	575.75
333.629	623.75
333.857	640.75
334.085	736.75
334.314	806.75
334.542	841.75
334.771	756.75
334.999	662.75
335.227	650.75
335.455	610.75
335.684	622.75
335.912	649.75
336.14	621.75
336.369	654.75
336.597	611.75
336.825	621.75
337.053	630.75
337.281	662.75
337.51	706.75
337.738	701.75
337.966	649.75
338.194	587.75
338.422	568.75
338.65	584.75
338.878	591.75
339.106	583.75
339.334	573.75
339.562	556.75
339.79	607.75
340.018	593.75
340.246	619.75
340.474	614.75
340.702	618.75
340.93	593.75
341.158	621.75
341.386	629.75
341.614	582.75
341.842	596.75
342.07	599.75
342.298	629.75
342.526	605.75
342.754	575.75
342.981	602.75
343.209	597.75
343.437	589.75
343.665	609.75
343.893	624.75
344.12	640.75
344.348	627.75
344.576	599.75
344.804	595.75
345.031	588.75
345.259	572.75
345.487	567.75
345.714	559.75
345.942	567.75
346.17	572.75
346.397	578.75
346.625	585.75
346.853	533.75
347.08	528.75
347.308	569.75
347.535	598.75
347.763	580.75
347.99	549.75
348.218	531.75
348.445	566.75
348.673	583.75
348.9	574.75
349.128	600.75
349.355	625.75
349.583	580.75
349.81	562.75
350.037	545.75
350.265	543.75
350.492	546.75
350.72	543.75
350.947	574.75
351.174	596.75
351.402	559.75
351.629	521.75
351.856	519.75
352.083	514.75
352.311	537.75
352.538	548.75
352.765	571.75
352.992	548.75
353.22	556.75
353.447	550.75
353.674	563.75
353.901	559.75
354.128	564.75
354.355	566.75
354.583	586.75
354.81	592.75
355.037	581.75
355.264	558.75
355.491	558.75
355.718	542.75
355.945	555.75
356.172	558.75
356.399	542.75
356.626	544.75
356.853	580.75
357.08	644.75
357.307	668.75
357.534	642.75
357.761	567.75
357.988	559.75
358.215	539.75
358.441	559.75
358.668	550.75
358.895	556.75
359.122	599.75
359.349	636.75
359.576	602.75
359.802	556.75
360.029	544.75
360.256	555.75
360.483	578.75
360.709	586.75
360.936	589.75
361.163	644.75
361.39	705.75
361.616	721.75
361.843	724.75
362.07	633.75
362.296	583.75
362.523	576.75
362.749	582.75
362.976	584.75
363.203	589.75
363.429	555.75
363.656	565.75
363.882	584.75
364.109	654.75
364.335	672.75
364.562	622.75
364.788	605.75
365.015	547.75
365.241	566.75
365.468	605.75
365.694	629.75
365.92	616.75
366.147	592.75
366.373	565.75
366.599	570.75
366.826	553.75
367.052	545.75
367.278	550.75
367.505	559.75
367.731	618.75
367.957	607.75
368.184	620.75
368.41	685.75
368.636	668.75
368.862	682.75
369.089	657.75
369.315	642.75
369.541	625.75
369.767	591.75
369.993	584.75
370.219	596.75
370.445	602.75
370.672	651.75
370.898	664.75
371.124	636.75
371.35	623.75
371.576	675.75
371.802	680.75
372.028	622.75
372.254	633.75
372.48	594.75
372.706	600.75
372.932	582.75
373.158	626.75
373.384	635.75
373.61	646.75
373.835	648.75
374.061	642.75
374.287	640.75
374.513	598.75
374.739	644.75
374.965	636.75
375.191	629.75
375.416	653.75
375.642	661.75
375.868	723.75
376.094	699.75
376.319	709.75
376.545	632.75
376.771	682.75
376.997	692.75
377.222	678.75
377.448	660.75
377.674	682.75
377.899	665.75
378.125	695.75
378.35	700.75
378.576	660.75
378.802	591.75
379.027	623.75
379.253	624.75
379.478	648.75
379.704	636.75
379.929	652.75
380.155	658.75
380.38	643.75
380.606	674.75
380.831	661.75
381.057	688.75
381.282	687.75
381.507	695.75
381.733	750.75
381.958	731.75
382.184	695.75
382.409	684.75
382.634	685.75
382.86	674.75
383.085	682.75
383.31	710.75
383.535	751.75
383.761	802.75
383.986	737.75
384.211	729.75
384.436	724.75
384.662	779.75
384.887	752.75
385.112	743.75
385.337	756.75
385.562	741.75
385.787	719.75
386.013	778.75
386.238	747.75
386.463	734.75
386.688	840.75
386.913	842.75
387.138	823.75
387.363	765.75
387.588	753.75
387.813	783.75
388.038	787.75
388.263	792.75
388.488	744.75
388.713	716.75
388.938	717.75
389.163	708.75
389.387	774.75
389.612	758.75
389.837	741.75
390.062	754.75
390.287	752.75
390.512	734.75
390.736	719.75
390.961	713.75
391.186	739.75
391.411	738.75
391.636	767.75
391.86	767.75
392.085	768.75
392.31	782.75
392.534	711.75
392.759	773.75
392.984	735.75
393.208	768.75
393.433	815.75
393.658	820.75
393.882	840.75
394.107	787.75
394.331	788.75
394.556	774.75
394.78	785.75
395.005	797.75
395.229	806.75
395.454	875.75
395.678	864.75
395.903	838.75
396.127	845.75
396.352	834.75
396.576	813.75
396.801	836.75
397.025	843.75
397.249	843.75
397.474	812.75
397.698	820.75
397.922	854.75
398.147	885.75
398.371	908.75
398.595	897.75
398.82	868.75
399.044	880.75
399.268	895.75
399.492	954.75
399.717	963.75
399.941	982.75
400.165	958.75
400.389	975.75
400.613	1023.75
400.837	1143.75
401.062	1203.75
401.286	1016.75
401.51	995.75
401.734	983.75
401.958	926.75
402.182	900.75
402.406	877.75
402.63	853.75
402.854	875.75
403.078	890.75
403.302	905.75
403.526	904.75
403.75	908.75
403.974	933.75
404.198	957.75
404.422	994.75
404.645	1003.75
404.869	962.75
405.093	908.75
405.317	896.75
405.541	920.75
405.765	934.75
405.988	905.75
406.212	947.75
406.436	970.75
406.66	988.75
406.883	1012.75
407.107	1149.75
407.331	1213.75
407.555	1279.75
407.778	1108.75
408.002	999.75
408.226	960.75
408.449	926.75
408.673	947.75
408.896	958.75
409.12	935.75
409.344	933.75
409.567	932.75
409.791	934.75
410.014	961.75
410.238	1019.75
410.461	1017.75
410.685	936.75
410.908	930.75
411.132	944.75
411.355	902.75
411.578	933.75
411.802	931.75
412.025	962.75
412.249	911.75
412.472	913.75
412.695	928.75
412.919	916.75
413.142	905.75
413.365	920.75
413.589	958.75
413.812	965.75
414.035	984.75
414.258	940.75
414.482	904.75
414.705	900.75
414.928	904.75
415.151	912.75
415.374	931.75
415.597	916.75
415.821	930.75
416.044	937.75
416.267	925.75
416.49	883.75
416.713	899.75
416.936	974.75
417.159	987.75
417.382	966.75
417.605	933.75
417.828	925.75
418.051	934.75
418.274	917.75
418.497	920.75
418.72	890.75
418.943	916.75
419.166	961.75
419.389	975.75
419.611	963.75
419.834	956.75
420.057	943.75
420.28	926.75
420.503	929.75
420.726	957.75
420.948	943.75
421.171	906.75
421.394	929.75
421.617	959.75
421.839	988.75
422.062	1011.75
422.285	956.75
422.507	914.75
422.73	886.75
422.953	880.75
423.175	886.75
423.398	911.75
423.621	908.75
423.843	916.75
424.066	938.75
424.288	1020.75
424.511	1046.75
424.733	1006.75
424.956	924.75
425.178	942.75
425.401	923.75
425.623	933.75
425.846	948.75
426.068	990.75
426.291	946.75
426.513	961.75
426.735	939.75
426.958	1064.75
427.18	1046.75
427.402	996.75
427.625	997.75
427.847	984.75
428.069	948.75
428.292	916.75
428.514	892.75
428.736	904.75
428.958	925.75
429.181	923.75
429.403	1086.75
429.625	1199.75
429.847	1040.75
430.069	946.75
430.292	1040.75
430.514	1037.75
430.736	964.75
430.958	998.75
431.18	904.75
431.402	873.75
431.624	855.75
431.846	786.75
432.068	706.75
432.29	731.75
432.512	798.75
432.734	878.75
432.956	937.75
433.178	950.75
433.4	976.75
433.622	950.75
433.844	870.75
434.066	836.75
434.287	794.75
434.509	765.75
434.731	837.75
434.953	887.75
435.175	939.75
435.397	899.75
435.618	892.75
435.84	833.75
436.062	866.75
436.284	879.75
436.505	926.75
436.727	947.75
436.949	894.75
437.17	887.75
437.392	896.75
437.614	851.75
437.835	804.75
438.057	823.75
438.278	834.75
438.5	858.75
438.721	869.75
438.943	896.75
439.165	905.75
439.386	904.75
439.608	943.75
439.829	972.75
440.05	966.75
440.272	943.75
440.493	951.75
440.715	949.75
440.936	989.75
441.158	1052.75
441.379	1005.75
441.6	1035.75
441.822	1014.75
442.043	973.75
442.264	975.75
442.486	957.75
442.707	955.75
442.928	967.75
443.149	952.75
443.371	1005.75
443.592	1028.75
443.813	986.75
444.034	1018.75
444.255	1014.75
444.476	994.75
444.698	1036.75
444.919	1065.75
445.14	1125.75
445.361	1113.75
445.582	1055.75
445.803	1064.75
446.024	1036.75
446.245	1067.75
446.466	1047.75
446.687	1041.75
446.908	1029.75
447.129	1046.75
447.35	1012.75
447.571	1010.75
447.792	951.75
448.013	946.75
448.234	963.75
448.455	994.75
448.675	960.75
448.896	912.75
449.117	888.75
449.338	911.75
449.559	942.75
449.779	975.75
450	1036.75
450.221	1034.75
450.442	1014.75
450.662	938.75
450.883	854.75
451.104	850.75
451.324	883.75
451.545	864.75
451.766	857.75
451.986	838.75
452.207	846.75
452.428	799.75
452.648	771.75
452.869	796.75
453.089	804.75
453.31	766.75
453.53	776.75
453.751	715.75
453.971	691.75
454.192	711.75
454.412	741.75
454.633	771.75
454.853	798.75
455.073	747.75
455.294	768.75
455.514	762.75
455.734	750.75
455.955	746.75
456.175	728.75
456.395	754.75
456.616	734.75
456.836	747.75
457.056	746.75
457.276	717.75
457.497	718.75
457.717	686.75
457.937	707.75
458.157	712.75
458.377	698.75
458.598	678.75
458.818	665.75
459.038	717.75
459.258	736.75
459.478	717.75
459.698	710.75
459.918	740.75
460.138	807.75
460.358	847.75
460.578	820.75
460.798	860.75
461.018	878.75
461.238	875.75
461.458	892.75
461.678	837.75
461.898	829.75
462.118	783.75
462.338	834.75
462.558	834.75
462.777	866.75
462.997	880.75
463.217	882.75
463.437	879.75
463.657	838.75
463.876	837.75
464.096	818.75
464.316	821.75
464.536	860.75
464.755	855.75
464.975	871.75
465.195	858.75
465.414	846.75
465.634	896.75
465.854	894.75
466.073	957.75
466.293	925.75
466.512	879.75
466.732	895.75
466.951	902.75
467.171	909.75
467.391	860.75
467.61	886.75
467.829	909.75
468.049	944.75
468.268	1051.75
468.488	968.75
468.707	915.75
468.927	897.75
469.146	906.75
469.365	913.75
469.585	939.75
469.804	917.75
470.023	928.75
470.243	963.75
470.462	922.75
470.681	942.75
470.901	938.75
471.12	929.75
471.339	918.75
471.558	902.75
471.777	931.75
471.997	893.75
472.216	867.75
472.435	802.75
472.654	726.75
472.873	789.75
473.092	823.75
473.311	826.75
473.53	803.75
473.749	810.75
473.968	854.75
474.187	871.75
474.406	852.75
474.625	846.75
474.844	853.75
475.063	888.75
475.282	871.75
475.501	824.75
475.72	844.75
475.939	892.75
476.158	876.75
476.377	874.75
476.596	826.75
476.814	824.75
477.033	824.75
477.252	834.75
477.471	896.75
477.69	916.75
477.908	942.75
478.127	984.75
478.346	996.75
478.564	1021.75
478.783	991.75
479.002	1016.75
479.22	1002.75
479.439	982.75
479.658	1062.75
479.876	980.75
480.095	920.75
480.313	899.75
480.532	879.75
480.751	848.75
480.969	827.75
481.188	765.75
481.406	790.75
481.624	762.75
481.843	805.75
482.061	818.75
482.28	862.75
482.498	885.75
482.717	860.75
482.935	874.75
483.153	951.75
483.372	1032.75
483.59	982.75
483.808	968.75
484.027	951.75
484.245	971.75
484.463	1225.75
484.681	1294.75
484.9	1007.75
485.118	960.75
485.336	920.75
485.554	914.75
485.772	902.75
485.99	875.75
486.209	910.75
486.427	895.75
486.645	936.75
486.863	994.75
487.081	1030.75
487.299	1022.75
487.517	1028.75
487.735	1108.75
487.953	1205.75
488.171	1182.75
488.389	1135.75
488.607	1104.75
488.825	1132.75
489.043	1066.75
489.261	1010.75
489.479	1002.75
489.696	1035.75
489.914	1032.75
490.132	1033.75
490.35	1074.75
490.568	1171.75
490.786	1218.75
491.003	1182.75
491.221	1238.75
491.439	1278.75
491.657	1336.75
491.874	1365.75
492.092	1449.75
492.31	1517.75
492.527	1431.75
492.745	1402.75
492.963	1291.75
493.18	1325.75
493.398	1325.75
493.615	1313.75
493.833	1290.75
494.05	1213.75
494.268	1254.75
494.485	1266.75
494.703	1212.75
494.92	1218.75
495.138	1245.75
495.355	1239.75
495.573	1218.75
495.79	1272.75
496.008	1256.75
496.225	1243.75
496.442	1239.75
496.66	1244.75
496.877	1206.75
497.094	1243.75
497.312	1212.75
497.529	1208.75
497.746	1198.75
497.963	1302.75
498.181	1326.75
498.398	1251.75
498.615	1194.75
498.832	1139.75
499.049	1142.75
499.267	1162.75
499.484	1259.75
499.701	1348.75
499.918	1334.75
500.135	1469.75
500.352	1586.75
500.569	1558.75
500.786	1700.75
501.003	1531.75
501.22	1439.75
501.437	1414.75
501.654	1416.75
501.871	1340.75
502.088	1215.75
502.305	1175.75
502.522	1151.75
502.739	1110.75
502.956	1062.75
503.172	1053.75
503.389	998.75
503.606	994.75
503.823	978.75
504.04	1018.75
504.256	993.75
504.473	1002.75
504.69	987.75
504.907	947.75
505.123	981.75
505.34	1071.75
505.557	1330.75
505.773	1110.75
505.99	943.75
506.207	894.75
506.423	898.75
506.64	892.75
506.856	907.75
507.073	1040.75
507.289	1082.75
507.506	995.75
507.722	890.75
507.939	842.75
508.155	832.75
508.372	853.75
508.588	843.75
508.805	808.75
509.021	782.75
509.238	780.75
509.454	786.75
509.67	756.75
509.887	750.75
510.103	752.75
510.319	750.75
510.536	757.75
510.752	785.75
510.968	764.75
511.184	811.75
511.401	767.75
511.617	707.75
511.833	716.75
512.049	695.75
512.265	717.75
512.481	747.75
512.698	730.75
512.914	735.75
513.13	741.75
513.346	730.75
513.562	695.75
513.778	712.75
513.994	740.75
514.21	776.75
514.426	783.75
514.642	826.75
514.858	783.75
515.074	742.75
515.29	706.75
515.506	723.75
515.721	756.75
515.937	721.75
516.153	822.75
516.369	762.75
516.585	743.75
516.801	730.75
517.016	737.75
517.232	747.75
517.448	777.75
517.664	768.75
517.879	776.75
518.095	807.75
518.311	781.75
518.527	761.75
518.742	759.75
518.958	743.75
519.173	771.75
519.389	803.75
519.605	782.75
519.82	766.75
520.036	788.75
520.251	775.75
520.467	789.75
520.682	799.75
520.898	754.75
521.113	704.75
521.329	741.75
521.544	756.75
521.76	741.75
521.975	732.75
522.19	716.75
522.406	734.75
522.621	936.75
522.836	854.75
523.052	720.75
523.267	741.75
523.482	758.75
523.698	746.75
523.913	727.75
524.128	780.75
524.343	804.75
524.559	803.75
524.774	787.75
524.989	773.75
525.204	740.75
525.419	748.75
525.634	724.75
525.849	724.75
526.064	709.75
526.28	723.75
526.495	691.75
526.71	657.75
526.925	627.75
527.14	632.75
527.355	623.75
527.57	602.75
527.785	656.75
527.999	653.75
528.214	667.75
528.429	683.75
528.644	727.75
528.859	796.75
529.074	842.75
529.289	867.75
529.503	869.75
529.718	814.75
529.933	724.75
530.148	684.75
530.363	633.75
530.577	642.75
530.792	636.75
531.007	629.75
531.221	604.75
531.436	640.75
531.651	675.75
531.865	658.75
532.08	656.75
532.295	640.75
532.509	588.75
532.724	630.75
532.938	642.75
533.153	710.75
533.367	718.75
533.582	749.75
533.796	741.75
534.011	705.75
534.225	635.75
534.44	628.75
534.654	638.75
534.868	628.75
535.083	655.75
535.297	694.75
535.511	692.75
535.726	698.75
535.94	662.75
536.154	675.75
536.369	634.75
536.583	607.75
536.797	623.75
537.011	611.75
537.225	606.75
537.44	617.75
537.654	649.75
537.868	630.75
538.082	618.75
538.296	618.75
538.51	640.75
538.724	658.75
538.938	704.75
539.153	736.75
539.367	733.75
539.581	702.75
539.795	703.75
540.009	645.75
540.222	655.75
540.436	702.75
540.65	728.75
540.864	812.75
541.078	823.75
541.292	852.75
541.506	901.75
541.72	962.75
541.934	1019.75
542.147	1052.75
542.361	991.75
542.575	912.75
542.789	851.75
543.002	783.75
543.216	724.75
543.43	768.75
543.644	824.75
543.857	834.75
544.071	888.75
544.285	946.75
544.498	895.75
544.712	918.75
544.925	926.75
545.139	932.75
545.352	927.75
545.566	920.75
545.779	920.75
545.993	949.75
546.206	943.75
546.42	960.75
546.633	942.75
546.847	912.75
547.06	967.75
547.274	956.75
547.487	989.75
547.7	982.75
547.914	995.75
548.127	984.75
548.34	950.75
548.554	916.75
548.767	951.75
548.98	917.75
549.193	912.75
549.407	942.75
549.62	945.75
549.833	900.75
550.046	899.75
550.259	920.75
550.473	887.75
550.686	892.75
550.899	877.75
551.112	834.75
551.325	828.75
551.538	851.75
551.751	841.75
551.964	706.75
552.177	734.75
552.39	812.75
552.603	843.75
552.816	867.75
553.029	917.75
553.242	925.75
553.455	912.75
553.667	914.75
553.88	914.75
554.093	879.75
554.306	841.75
554.519	859.75
554.732	820.75
554.944	814.75
555.157	838.75
555.37	822.75
555.583	775.75
555.795	778.75
556.008	737.75
556.221	711.75
556.433	720.75
556.646	735.75
556.859	756.75
557.071	752.75
557.284	754.75
557.496	748.75
557.709	740.75
557.921	738.75
558.134	746.75
558.346	730.75
558.559	744.75
558.771	718.75
558.984	694.75
559.196	680.75
559.409	640.75
559.621	663.75
559.833	660.75
560.046	685.75
560.258	679.75
560.47	662.75
560.683	688.75
560.895	683.75
561.107	691.75
561.32	667.75
561.532	687.75
561.744	661.75
561.956	687.75
562.168	683.75
562.381	638.75
562.593	647.75
562.805	627.75
563.017	632.75
563.229	630.75
563.441	644.75
563.653	628.75
563.865	635.75
564.077	601.75
564.289	614.75
564.501	644.75
564.713	621.75
564.925	635.75
565.137	651.75
565.349	630.75
565.561	646.75
565.773	601.75
565.985	626.75
566.197	644.75
566.408	682.75
566.62	660.75
566.832	665.75
567.044	684.75
567.255	675.75
567.467	668.75
567.679	666.75
567.891	663.75
568.102	635.75
568.314	573.75
568.526	536.75
568.737	514.75
568.949	479.75
569.161	480.75
569.372	462.75
569.584	456.75
569.795	453.75
570.007	454.75
570.218	441.75
570.43	444.75
570.641	459.75
570.853	470.75
571.064	479.75
571.276	492.75
571.487	482.75
571.698	484.75
571.91	455.75
572.121	467.75
572.333	452.75
572.544	441.75
572.755	426.75
572.966	380.75
573.178	402.75
573.389	382.75
573.6	405.75
573.811	448.75
574.023	423.75
574.234	404.75
574.445	386.75
574.656	393.75
574.867	398.75
575.078	419.75
575.289	420.75
575.501	392.75
575.712	400.75
575.923	383.75
576.134	412.75
576.345	424.75
576.556	395.75
576.767	413.75
576.978	390.75
577.188	395.75
577.399	368.75
577.61	370.75
577.821	372.75
578.032	375.75
578.243	368.75
578.454	363.75
578.665	376.75
578.875	351.75
579.086	318.75
579.297	347.75
579.508	338.75
579.718	343.75
579.929	363.75
580.14	330.75
580.35	359.75
580.561	356.75
580.772	385.75
580.982	357.75
581.193	364.75
581.403	361.75
581.614	363.75
581.825	357.75
582.035	356.75
582.246	336.75
582.456	354.75
582.667	352.75
582.877	330.75
583.087	344.75
583.298	338.75
583.508	321.75
583.719	340.75
583.929	331.75
584.139	312.75
584.35	318.75
584.56	315.75
584.77	327.75
584.981	335.75
585.191	331.75
585.401	343.75
585.611	317.75
585.821	342.75
586.032	297.75
586.242	341.75
586.452	303.75
586.662	343.75
586.872	308.75
587.082	314.75
587.292	327.75
587.502	325.75
587.713	350.75
587.923	318.75
588.133	308.75
588.343	335.75
588.553	307.75
588.762	328.75
588.972	325.75
589.182	324.75
589.392	286.75
589.602	307.75
589.812	329.75
590.022	312.75
590.232	310.75
590.441	325.75
590.651	316.75
590.861	316.75
591.071	306.75
591.281	308.75
591.49	324.75
591.7	300.75
591.91	314.75
592.119	319.75
592.329	338.75
592.539	328.75
592.748	330.75
592.958	329.75
593.167	314.75
593.377	314.75
593.587	332.75
593.796	314.75
594.006	329.75
594.215	307.75
594.424	348.75
594.634	340.75
594.843	353.75
595.053	347.75
595.262	331.75
595.472	311.75
595.681	336.75
595.89	308.75
596.1	299.75
596.309	335.75
596.518	322.75
596.727	329.75
596.937	316.75
597.146	329.75
597.355	301.75
597.564	286.75
597.774	317.75
597.983	301.75
598.192	288.75
598.401	284.75
598.61	289.75
598.819	283.75
599.028	292.75
599.237	312.75
599.446	309.75
599.655	300.75
599.864	285.75
600.073	285.75
600.282	295.75
600.491	285.75
600.7	311.75
600.909	295.75
601.118	314.75
601.327	337.75
601.536	322.75
601.745	344.75
601.953	334.75
602.162	367.75
602.371	346.75
602.58	357.75
602.789	335.75
602.997	355.75
603.206	350.75
603.415	352.75
603.623	366.75
603.832	348.75
604.041	357.75
604.249	320.75
604.458	310.75
604.666	314.75
604.875	314.75
605.084	304.75
605.292	334.75
605.501	360.75
605.709	370.75
605.918	361.75
606.126	388.75
606.334	342.75
606.543	354.75
606.751	368.75
606.96	378.75
607.168	368.75
607.376	342.75
607.585	346.75
607.793	344.75
608.001	357.75
608.21	370.75
608.418	370.75
608.626	359.75
608.834	379.75
609.043	353.75
609.251	354.75
609.459	391.75
609.667	363.75
609.875	398.75
610.083	372.75
610.291	368.75
610.499	364.75
610.707	364.75
610.916	373.75
611.124	373.75
611.332	360.75
611.54	365.75
611.748	383.75
611.955	359.75
612.163	368.75
612.371	360.75
612.579	350.75
612.787	362.75
612.995	374.75
613.203	350.75
613.411	369.75
613.618	348.75
613.826	357.75
614.034	354.75
614.242	329.75
614.449	346.75
614.657	359.75
614.865	343.75
615.072	355.75
615.28	353.75
615.488	374.75
615.695	379.75
615.903	359.75
616.111	345.75
616.318	355.75
616.526	368.75
616.733	348.75
616.941	355.75
617.148	353.75
617.356	359.75
617.563	319.75
617.771	334.75
617.978	316.75
618.185	345.75
618.393	339.75
618.6	371.75
618.807	341.75
619.015	350.75
619.222	340.75
619.429	328.75
619.637	301.75
619.844	311.75
620.051	312.75
620.258	326.75
620.466	332.75
620.673	335.75
620.88	307.75
621.087	323.75
621.294	303.75
621.501	287.75
621.708	304.75
621.915	306.75
622.122	303.75
622.329	329.75
622.536	335.75
622.743	334.75
622.95	326.75
623.157	326.75
623.364	329.75
623.571	322.75
623.778	321.75
623.985	345.75
624.192	319.75
624.399	318.75
624.606	313.75
624.812	319.75
625.019	306.75
625.226	299.75
625.433	288.75
625.639	276.75
625.846	261.75
626.053	245.75
626.259	247.75
626.466	255.75
626.673	247.75
626.879	236.75
627.086	254.75
627.293	271.75
627.499	295.75
627.706	290.75
627.912	320.75
628.119	319.75
628.325	291.75
628.532	278.75
628.738	304.75
628.945	296.75
629.151	279.75
629.357	285.75
629.564	283.75
629.77	291.75
629.976	278.75
630.183	285.75
630.389	292.75
630.595	282.75
630.802	311.75
631.008	286.75
631.214	266.75
631.42	268.75
631.627	251.75
631.833	250.75
632.039	266.75
632.245	275.75
632.451	268.75
632.657	270.75
632.863	269.75
633.069	264.75
633.275	269.75
633.481	266.75
633.688	250.75
633.893	280.75
634.099	241.75
634.305	270.75
634.511	239.75
634.717	235.75
634.923	238.75
635.129	237.75
635.335	234.75
635.541	256.75
635.747	234.75
635.952	252.75
636.158	243.75
636.364	268.75
636.57	268.75
636.775	239.75
636.981	265.75
637.187	249.75
637.392	279.75
637.598	258.75
637.804	275.75
638.009	265.75
638.215	259.75
638.421	253.75
638.626	264.75
638.832	278.75
639.037	248.75
639.243	243.75
639.448	239.75
639.654	252.75
639.859	246.75
640.065	255.75
640.27	236.75
640.475	264.75
640.681	256.75
640.886	242.75
641.091	244.75
641.297	236.75
641.502	247.75
641.707	238.75
641.913	247.75
642.118	251.75
642.323	259.75
642.528	267.75
642.733	258.75
642.939	250.75
643.144	245.75
643.349	230.75
643.554	242.75
643.759	256.75
643.964	227.75
644.169	244.75
644.374	218.75
644.579	237.75
644.784	243.75
644.989	246.75
645.194	260.75
645.399	255.75
645.604	250.75
645.809	264.75
646.014	237.75
646.219	245.75
646.423	252.75
646.628	221.75
646.833	238.75
647.038	230.75
647.243	263.75
647.447	232.75
647.652	261.75
647.857	241.75
648.062	247.75
648.266	244.75
648.471	254.75
648.676	226.75
648.88	248.75
649.085	252.75
649.289	212.75
649.494	248.75
649.698	231.75
649.903	234.75
650.107	250.75
650.312	243.75
650.516	229.75
650.721	210.75
650.925	231.75
651.13	226.75
651.334	227.75
651.539	234.75
651.743	229.75
651.947	213.75
652.152	221.75
652.356	219.75
652.56	210.75
652.764	192.75
652.969	212.75
653.173	201.75
653.377	207.75
653.581	204.75
653.785	214.75
653.99	213.75
654.194	200.75
654.398	207.75
654.602	203.75
654.806	207.75
655.01	215.75
655.214	207.75
655.418	200.75
655.622	209.75
655.826	217.75
656.03	220.75
656.234	219.75
656.438	218.75
656.642	243.75
656.846	242.75
657.049	218.75
657.253	173.75
657.457	191.75
657.661	182.75
657.865	181.75
658.068	171.75
658.272	152.75
658.476	167.75
658.68	158.75
658.883	150.75
659.087	152.75
659.291	137.75
659.494	154.75
659.698	128.75
659.901	142.75
660.105	135.75
660.309	118.75
660.512	126.75
660.716	111.75
660.919	108.75
661.123	112.75
661.326	123.75
661.53	112.75
661.733	120.75
661.936	108.75
662.14	106.75
662.343	104.75
662.546	95.75
662.75	98.75
662.953	104.75
663.156	79.75
663.36	92.75
663.563	89.75
663.766	84.75
663.969	98.75
664.173	103.75
664.376	91.75
664.579	83.75
664.782	75.75
664.985	92.75
665.188	76.75
665.391	81.75
665.594	80.75
665.797	84.75
666	84.75
666.203	85.75
666.406	82.75
666.609	98.75
666.812	74.75
667.015	90.75
667.218	80.75
667.421	86.75
667.624	102.75
667.827	82.75
668.03	93.75
668.232	71.75
668.435	91.75
668.638	85.75
668.841	93.75
669.043	96.75
669.246	85.75
669.449	95.75
669.651	77.75
669.854	93.75
670.057	87.75
670.259	83.75
670.462	76.75
670.665	75.75
670.867	84.75
671.07	96.75
671.272	90.75
671.475	75.75
671.677	68.75
671.88	95.75
672.082	74.75
672.284	84.75
672.487	87.75
672.689	86.75
672.892	72.75
