Data from WStandard_LampEnergy8_LIBS07252019.E.O._I.C._HRD10591_15-59-14-929.txt Node
Date: Thu Jul 25 15:59:14 EDT 2019
User: cochatt
Spectrometer: HR+D1059
Trigger mode: 1
Integration Time (sec): 1.000000E-1
Scans to average: 1
Electric dark correction enabled: true
Nonlinearity correction enabled: false
Boxcar width: 0
XAxis mode: Wavelengths
Number of Pixels in Spectrum: 2048
>>>>>Begin Spectral Data<<<<<
223.165	-12.56
223.4	-12.56
223.635	-12.56
223.869	-14.56
224.104	-15.56
224.338	-7.56
224.573	-16.56
224.808	-9.56
225.042	-0.56
225.277	-11.56
225.511	2.44
225.746	6.44
225.98	9.44
226.215	14.44
226.449	7.44
226.683	0.44
226.918	20.44
227.152	27.44
227.387	35.44
227.621	43.44
227.856	44.44
228.09	46.44
228.324	60.44
228.559	81.44
228.793	81.44
229.027	187.44
229.262	230.44
229.496	228.44
229.73	234.44
229.964	264.44
230.199	265.44
230.433	256.44
230.667	291.44
230.901	299.44
231.136	280.44
231.37	268.44
231.604	272.44
231.838	267.44
232.072	283.44
232.306	256.44
232.541	275.44
232.775	296.44
233.009	325.44
233.243	323.44
233.477	312.44
233.711	303.44
233.945	326.44
234.179	313.44
234.413	326.44
234.647	336.44
234.881	329.44
235.115	302.44
235.349	302.44
235.583	315.44
235.817	317.44
236.051	320.44
236.285	310.44
236.519	330.44
236.753	368.44
236.987	368.44
237.221	357.44
237.455	392.44
237.689	377.44
237.922	375.44
238.156	341.44
238.39	364.44
238.624	391.44
238.858	405.44
239.091	391.44
239.325	427.44
239.559	496.44
239.793	493.44
240.027	519.44
240.26	504.44
240.494	388.44
240.728	361.44
240.961	409.44
241.195	377.44
241.429	411.44
241.662	423.44
241.896	417.44
242.13	402.44
242.363	425.44
242.597	461.44
242.83	464.44
243.064	468.44
243.298	500.44
243.531	499.44
243.765	491.44
243.998	466.44
244.232	411.44
244.465	390.44
244.699	430.44
244.932	482.44
245.166	527.44
245.399	481.44
245.633	460.44
245.866	475.44
246.099	485.44
246.333	499.44
246.566	511.44
246.8	547.44
247.033	587.44
247.266	555.44
247.5	548.44
247.733	557.44
247.966	551.44
248.2	624.44
248.433	638.44
248.666	622.44
248.899	679.44
249.133	773.44
249.366	815.44
249.599	699.44
249.832	632.44
250.066	649.44
250.299	648.44
250.532	595.44
250.765	560.44
250.998	600.44
251.231	587.44
251.465	611.44
251.698	590.44
251.931	596.44
252.164	613.44
252.397	629.44
252.63	635.44
252.863	572.44
253.096	561.44
253.329	581.44
253.562	620.44
253.795	635.44
254.028	649.44
254.261	585.44
254.494	572.44
254.727	564.44
254.96	587.44
255.193	637.44
255.426	736.44
255.659	803.44
255.892	803.44
256.124	666.44
256.357	652.44
256.59	714.44
256.823	713.44
257.056	720.44
257.289	831.44
257.521	913.44
257.754	819.44
257.987	825.44
258.22	821.44
258.452	815.44
258.685	701.44
258.918	684.44
259.151	675.44
259.383	663.44
259.616	597.44
259.849	646.44
260.081	697.44
260.314	777.44
260.547	822.44
260.779	836.44
261.012	798.44
261.244	684.44
261.477	685.44
261.71	699.44
261.942	712.44
262.175	704.44
262.407	747.44
262.64	683.44
262.872	656.44
263.105	641.44
263.337	628.44
263.57	648.44
263.802	638.44
264.035	613.44
264.267	591.44
264.499	561.44
264.732	615.44
264.964	664.44
265.197	699.44
265.429	725.44
265.661	792.44
265.894	868.44
266.126	863.44
266.358	803.44
266.591	821.44
266.823	876.44
267.055	806.44
267.287	808.44
267.52	807.44
267.752	780.44
267.984	782.44
268.216	791.44
268.448	837.44
268.681	806.44
268.913	748.44
269.145	720.44
269.377	691.44
269.609	781.44
269.841	921.44
270.073	1015.44
270.306	1109.44
270.538	1126.44
270.77	974.44
271.002	840.44
271.234	843.44
271.466	828.44
271.698	906.44
271.93	1085.44
272.162	1029.44
272.394	986.44
272.626	918.44
272.858	803.44
273.09	713.44
273.322	717.44
273.553	678.44
273.785	711.44
274.017	730.44
274.249	780.44
274.481	764.44
274.713	725.44
274.945	699.44
275.176	704.44
275.408	695.44
275.64	705.44
275.872	686.44
276.104	746.44
276.335	853.44
276.567	946.44
276.799	922.44
277.031	868.44
277.262	830.44
277.494	847.44
277.726	922.44
277.957	900.44
278.189	791.44
278.421	744.44
278.652	743.44
278.884	721.44
279.115	750.44
279.347	771.44
279.579	733.44
279.81	759.44
280.042	819.44
280.273	903.44
280.505	901.44
280.736	919.44
280.968	838.44
281.199	755.44
281.431	713.44
281.662	722.44
281.894	726.44
282.125	740.44
282.356	790.44
282.588	800.44
282.819	814.44
283.051	847.44
283.282	908.44
283.513	879.44
283.745	775.44
283.976	722.44
284.207	741.44
284.439	758.44
284.67	787.44
284.901	803.44
285.132	806.44
285.364	789.44
285.595	819.44
285.826	771.44
286.057	792.44
286.288	766.44
286.52	820.44
286.751	877.44
286.982	857.44
287.213	777.44
287.444	747.44
287.675	747.44
287.906	784.44
288.138	841.44
288.369	854.44
288.6	797.44
288.831	751.44
289.062	763.44
289.293	772.44
289.524	785.44
289.755	797.44
289.986	774.44
290.217	749.44
290.448	765.44
290.679	784.44
290.91	793.44
291.141	838.44
291.371	831.44
291.602	802.44
291.833	814.44
292.064	843.44
292.295	852.44
292.526	877.44
292.757	888.44
292.987	854.44
293.218	793.44
293.449	904.44
293.68	1000.44
293.91	1026.44
294.141	965.44
294.372	917.44
294.603	981.44
294.833	977.44
295.064	939.44
295.295	841.44
295.525	819.44
295.756	759.44
295.987	730.44
296.217	753.44
296.448	777.44
296.679	796.44
296.909	801.44
297.14	811.44
297.37	821.44
297.601	855.44
297.831	936.44
298.062	901.44
298.292	823.44
298.523	786.44
298.753	799.44
298.984	822.44
299.214	815.44
299.445	824.44
299.675	853.44
299.905	828.44
300.136	819.44
300.366	774.44
300.597	783.44
300.827	804.44
301.057	849.44
301.288	869.44
301.518	863.44
301.748	902.44
301.979	957.44
302.209	938.44
302.439	980.44
302.669	1006.44
302.9	936.44
303.13	859.44
303.36	870.44
303.59	875.44
303.82	882.44
304.051	873.44
304.281	869.44
304.511	902.44
304.741	979.44
304.971	1079.44
305.201	1071.44
305.431	967.44
305.661	836.44
305.891	783.44
306.121	763.44
306.352	826.44
306.582	871.44
306.812	908.44
307.042	933.44
307.272	962.44
307.502	1003.44
307.731	1079.44
307.961	1065.44
308.191	980.44
308.421	887.44
308.651	872.44
308.881	841.44
309.111	848.44
309.341	830.44
309.571	844.44
309.8	875.44
310.03	822.44
310.26	834.44
310.49	840.44
310.72	851.44
310.949	879.44
311.179	905.44
311.409	850.44
311.639	895.44
311.868	861.44
312.098	901.44
312.328	852.44
312.557	858.44
312.787	894.44
313.017	901.44
313.246	881.44
313.476	855.44
313.706	867.44
313.935	860.44
314.165	894.44
314.394	937.44
314.624	994.44
314.853	1056.44
315.083	1056.44
315.312	1059.44
315.542	1010.44
315.771	901.44
316.001	939.44
316.23	970.44
316.46	975.44
316.689	940.44
316.919	890.44
317.148	892.44
317.377	911.44
317.607	954.44
317.836	1103.44
318.065	1091.44
318.295	1028.44
318.524	997.44
318.753	978.44
318.983	964.44
319.212	964.44
319.441	935.44
319.67	912.44
319.9	935.44
320.129	980.44
320.358	1022.44
320.587	1064.44
320.816	1029.44
321.046	1032.44
321.275	1014.44
321.504	1026.44
321.733	1090.44
321.962	1028.44
322.191	953.44
322.42	941.44
322.649	935.44
322.878	919.44
323.108	960.44
323.337	982.44
323.566	975.44
323.795	965.44
324.024	952.44
324.253	922.44
324.482	933.44
324.71	910.44
324.939	900.44
325.168	924.44
325.397	953.44
325.626	965.44
325.855	964.44
326.084	925.44
326.313	938.44
326.542	972.44
326.77	988.44
326.999	992.44
327.228	913.44
327.457	908.44
327.686	873.44
327.914	907.44
328.143	945.44
328.372	932.44
328.6	932.44
328.829	948.44
329.058	899.44
329.287	923.44
329.515	944.44
329.744	999.44
329.972	1002.44
330.201	1054.44
330.43	1025.44
330.658	969.44
330.887	985.44
331.115	1001.44
331.344	1006.44
331.572	992.44
331.801	1012.44
332.03	1004.44
332.258	1020.44
332.486	997.44
332.715	1046.44
332.943	1013.44
333.172	995.44
333.4	1022.44
333.629	1045.44
333.857	1107.44
334.085	1236.44
334.314	1404.44
334.542	1437.44
334.771	1336.44
334.999	1168.44
335.227	1089.44
335.455	1069.44
335.684	1104.44
335.912	1104.44
336.14	1128.44
336.369	1074.44
336.597	1013.44
336.825	1025.44
337.053	1071.44
337.281	1135.44
337.51	1166.44
337.738	1205.44
337.966	1111.44
338.194	1017.44
338.422	1028.44
338.65	996.44
338.878	977.44
339.106	984.44
339.334	939.44
339.562	949.44
339.79	1007.44
340.018	1017.44
340.246	1049.44
340.474	1063.44
340.702	1050.44
340.93	1033.44
341.158	1036.44
341.386	995.44
341.614	992.44
341.842	996.44
342.07	998.44
342.298	1010.44
342.526	989.44
342.754	998.44
342.981	979.44
343.209	985.44
343.437	961.44
343.665	993.44
343.893	1047.44
344.12	1062.44
344.348	1059.44
344.576	1060.44
344.804	980.44
345.031	1004.44
345.259	973.44
345.487	960.44
345.714	920.44
345.942	917.44
346.17	930.44
346.397	951.44
346.625	957.44
346.853	896.44
347.08	928.44
347.308	913.44
347.535	948.44
347.763	949.44
347.99	953.44
348.218	910.44
348.445	948.44
348.673	944.44
348.9	972.44
349.128	1023.44
349.355	1008.44
349.583	999.44
349.81	926.44
350.037	901.44
350.265	886.44
350.492	891.44
350.72	917.44
350.947	952.44
351.174	972.44
351.402	921.44
351.629	893.44
351.856	870.44
352.083	862.44
352.311	859.44
352.538	900.44
352.765	939.44
352.992	954.44
353.22	892.44
353.447	907.44
353.674	894.44
353.901	920.44
354.128	890.44
354.355	922.44
354.583	976.44
354.81	973.44
355.037	986.44
355.264	947.44
355.491	950.44
355.718	923.44
355.945	930.44
356.172	897.44
356.399	901.44
356.626	919.44
356.853	982.44
357.08	1018.44
357.307	1086.44
357.534	1079.44
357.761	988.44
357.988	906.44
358.215	879.44
358.441	903.44
358.668	887.44
358.895	920.44
359.122	975.44
359.349	1076.44
359.576	1032.44
359.802	932.44
360.029	900.44
360.256	867.44
360.483	918.44
360.709	959.44
360.936	997.44
361.163	1068.44
361.39	1119.44
361.616	1158.44
361.843	1160.44
362.07	1076.44
362.296	957.44
362.523	914.44
362.749	947.44
362.976	987.44
363.203	971.44
363.429	932.44
363.656	921.44
363.882	967.44
364.109	1087.44
364.335	1136.44
364.562	1048.44
364.788	1003.44
365.015	934.44
365.241	928.44
365.468	940.44
365.694	985.44
365.92	1004.44
366.147	955.44
366.373	928.44
366.599	901.44
366.826	897.44
367.052	911.44
367.278	910.44
367.505	956.44
367.731	975.44
367.957	998.44
368.184	1041.44
368.41	1087.44
368.636	1061.44
368.862	1081.44
369.089	1087.44
369.315	1052.44
369.541	977.44
369.767	955.44
369.993	933.44
370.219	943.44
370.445	959.44
370.672	1044.44
370.898	1079.44
371.124	1065.44
371.35	1024.44
371.576	1056.44
371.802	1063.44
372.028	998.44
372.254	979.44
372.48	975.44
372.706	971.44
372.932	967.44
373.158	987.44
373.384	989.44
373.61	1048.44
373.835	1061.44
374.061	1016.44
374.287	985.44
374.513	1024.44
374.739	1012.44
374.965	1018.44
375.191	1025.44
375.416	1032.44
375.642	1055.44
375.868	1128.44
376.094	1123.44
376.319	1049.44
376.545	1035.44
376.771	1035.44
376.997	1086.44
377.222	1088.44
377.448	1023.44
377.674	1053.44
377.899	1058.44
378.125	1104.44
378.35	1099.44
378.576	991.44
378.802	977.44
379.027	988.44
379.253	978.44
379.478	998.44
379.704	1005.44
379.929	1000.44
380.155	1001.44
380.38	1003.44
380.606	1024.44
380.831	1059.44
381.057	1107.44
381.282	1062.44
381.507	1071.44
381.733	1140.44
381.958	1167.44
382.184	1060.44
382.409	1038.44
382.634	1049.44
382.86	1061.44
383.085	1061.44
383.31	1112.44
383.535	1205.44
383.761	1255.44
383.986	1177.44
384.211	1127.44
384.436	1121.44
384.662	1198.44
384.887	1188.44
385.112	1130.44
385.337	1165.44
385.562	1151.44
385.787	1145.44
386.013	1173.44
386.238	1177.44
386.463	1203.44
386.688	1287.44
386.913	1333.44
387.138	1292.44
387.363	1185.44
387.588	1202.44
387.813	1189.44
388.038	1208.44
388.263	1259.44
388.488	1212.44
388.713	1098.44
388.938	1066.44
389.163	1103.44
389.387	1160.44
389.612	1129.44
389.837	1152.44
390.062	1181.44
390.287	1191.44
390.512	1132.44
390.736	1131.44
390.961	1103.44
391.186	1096.44
391.411	1118.44
391.636	1121.44
391.86	1164.44
392.085	1140.44
392.31	1121.44
392.534	1148.44
392.759	1167.44
392.984	1145.44
393.208	1169.44
393.433	1182.44
393.658	1251.44
393.882	1241.44
394.107	1158.44
394.331	1151.44
394.556	1159.44
394.78	1140.44
395.005	1191.44
395.229	1244.44
395.454	1311.44
395.678	1305.44
395.903	1233.44
396.127	1201.44
396.352	1225.44
396.576	1288.44
396.801	1269.44
397.025	1270.44
397.249	1236.44
397.474	1237.44
397.698	1224.44
397.922	1284.44
398.147	1355.44
398.371	1381.44
398.595	1368.44
398.82	1306.44
399.044	1321.44
399.268	1409.44
399.492	1489.44
399.717	1520.44
399.941	1513.44
400.165	1475.44
400.389	1463.44
400.613	1487.44
400.837	1660.44
401.062	1857.44
401.286	1539.44
401.51	1445.44
401.734	1487.44
401.958	1438.44
402.182	1355.44
402.406	1320.44
402.63	1280.44
402.854	1327.44
403.078	1320.44
403.302	1367.44
403.526	1335.44
403.75	1383.44
403.974	1386.44
404.198	1336.44
404.422	1403.44
404.645	1503.44
404.869	1452.44
405.093	1326.44
405.317	1294.44
405.541	1354.44
405.765	1344.44
405.988	1365.44
406.212	1374.44
406.436	1428.44
406.66	1475.44
406.883	1507.44
407.107	1679.44
407.331	1821.44
407.555	1919.44
407.778	1740.44
408.002	1467.44
408.226	1454.44
408.449	1397.44
408.673	1376.44
408.896	1400.44
409.12	1419.44
409.344	1408.44
409.567	1356.44
409.791	1398.44
410.014	1411.44
410.238	1517.44
410.461	1589.44
410.685	1417.44
410.908	1363.44
411.132	1388.44
411.355	1380.44
411.578	1351.44
411.802	1350.44
412.025	1361.44
412.249	1331.44
412.472	1319.44
412.695	1344.44
412.919	1295.44
413.142	1322.44
413.365	1313.44
413.589	1364.44
413.812	1421.44
414.035	1486.44
414.258	1371.44
414.482	1318.44
414.705	1369.44
414.928	1313.44
415.151	1331.44
415.374	1330.44
415.597	1360.44
415.821	1373.44
416.044	1382.44
416.267	1367.44
416.49	1290.44
416.713	1289.44
416.936	1368.44
417.159	1393.44
417.382	1381.44
417.605	1313.44
417.828	1356.44
418.051	1354.44
418.274	1320.44
418.497	1315.44
418.72	1319.44
418.943	1283.44
419.166	1375.44
419.389	1367.44
419.611	1304.44
419.834	1320.44
420.057	1331.44
420.28	1307.44
420.503	1303.44
420.726	1327.44
420.948	1310.44
421.171	1280.44
421.394	1319.44
421.617	1347.44
421.839	1340.44
422.062	1331.44
422.285	1279.44
422.507	1300.44
422.73	1279.44
422.953	1224.44
423.175	1260.44
423.398	1292.44
423.621	1294.44
423.843	1301.44
424.066	1359.44
424.288	1382.44
424.511	1398.44
424.733	1381.44
424.956	1278.44
425.178	1286.44
425.401	1264.44
425.623	1292.44
425.846	1254.44
426.068	1343.44
426.291	1352.44
426.513	1311.44
426.735	1318.44
426.958	1434.44
427.18	1461.44
427.402	1400.44
427.625	1454.44
427.847	1387.44
428.069	1303.44
428.292	1299.44
428.514	1285.44
428.736	1246.44
428.958	1285.44
429.181	1301.44
429.403	1482.44
429.625	1775.44
429.847	1492.44
430.069	1311.44
430.292	1501.44
430.514	1483.44
430.736	1389.44
430.958	1374.44
431.18	1309.44
431.402	1234.44
431.624	1197.44
431.846	1191.44
432.068	1171.44
432.29	1144.44
432.512	1215.44
432.734	1260.44
432.956	1296.44
433.178	1365.44
433.4	1357.44
433.622	1336.44
433.844	1289.44
434.066	1249.44
434.287	1186.44
434.509	1209.44
434.731	1262.44
434.953	1373.44
435.175	1388.44
435.397	1318.44
435.618	1262.44
435.84	1239.44
436.062	1249.44
436.284	1301.44
436.505	1325.44
436.727	1334.44
436.949	1277.44
437.17	1269.44
437.392	1271.44
437.614	1212.44
437.835	1203.44
438.057	1220.44
438.278	1244.44
438.5	1228.44
438.721	1209.44
438.943	1237.44
439.165	1269.44
439.386	1245.44
439.608	1262.44
439.829	1270.44
440.05	1263.44
440.272	1241.44
440.493	1245.44
440.715	1297.44
440.936	1369.44
441.158	1459.44
441.379	1406.44
441.6	1403.44
441.822	1373.44
442.043	1345.44
442.264	1336.44
442.486	1271.44
442.707	1283.44
442.928	1295.44
443.149	1333.44
443.371	1373.44
443.592	1375.44
443.813	1364.44
444.034	1365.44
444.255	1374.44
444.476	1384.44
444.698	1423.44
444.919	1419.44
445.14	1515.44
445.361	1464.44
445.582	1481.44
445.803	1407.44
446.024	1368.44
446.245	1435.44
446.466	1391.44
446.687	1335.44
446.908	1362.44
447.129	1344.44
447.35	1337.44
447.571	1286.44
447.792	1281.44
448.013	1225.44
448.234	1286.44
448.455	1356.44
448.675	1293.44
448.896	1228.44
449.117	1219.44
449.338	1239.44
449.559	1288.44
449.779	1364.44
450	1426.44
450.221	1476.44
450.442	1470.44
450.662	1315.44
450.883	1200.44
451.104	1155.44
451.324	1163.44
451.545	1213.44
451.766	1211.44
451.986	1157.44
452.207	1164.44
452.428	1118.44
452.648	1104.44
452.869	1155.44
453.089	1145.44
453.31	1155.44
453.53	1185.44
453.751	1155.44
453.971	1071.44
454.192	1093.44
454.412	1207.44
454.633	1127.44
454.853	1136.44
455.073	1083.44
455.294	1094.44
455.514	1080.44
455.734	1062.44
455.955	1109.44
456.175	1061.44
456.395	1075.44
456.616	1088.44
456.836	1128.44
457.056	1079.44
457.276	1102.44
457.497	1046.44
457.717	1024.44
457.937	1032.44
458.157	1093.44
458.377	1028.44
458.598	1055.44
458.818	1054.44
459.038	1153.44
459.258	1150.44
459.478	1153.44
459.698	1125.44
459.918	1169.44
460.138	1264.44
460.358	1255.44
460.578	1258.44
460.798	1326.44
461.018	1354.44
461.238	1301.44
461.458	1289.44
461.678	1273.44
461.898	1231.44
462.118	1237.44
462.338	1275.44
462.558	1290.44
462.777	1238.44
462.997	1314.44
463.217	1411.44
463.437	1337.44
463.657	1295.44
463.876	1285.44
464.096	1263.44
464.316	1280.44
464.536	1312.44
464.755	1307.44
464.975	1304.44
465.195	1320.44
465.414	1315.44
465.634	1313.44
465.854	1336.44
466.073	1404.44
466.293	1375.44
466.512	1248.44
466.732	1230.44
466.951	1253.44
467.171	1251.44
467.391	1227.44
467.61	1204.44
467.829	1238.44
468.049	1355.44
468.268	1499.44
468.488	1357.44
468.707	1248.44
468.927	1261.44
469.146	1230.44
469.365	1248.44
469.585	1296.44
469.804	1213.44
470.023	1262.44
470.243	1289.44
470.462	1255.44
470.681	1231.44
470.901	1264.44
471.12	1269.44
471.339	1252.44
471.558	1191.44
471.777	1222.44
471.997	1236.44
472.216	1176.44
472.435	1143.44
472.654	1134.44
472.873	1203.44
473.092	1230.44
473.311	1209.44
473.53	1148.44
473.749	1148.44
473.968	1195.44
474.187	1241.44
474.406	1240.44
474.625	1225.44
474.844	1229.44
475.063	1221.44
475.282	1261.44
475.501	1230.44
475.72	1214.44
475.939	1322.44
476.158	1259.44
476.377	1235.44
476.596	1217.44
476.814	1235.44
477.033	1231.44
477.252	1310.44
477.471	1310.44
477.69	1282.44
477.908	1281.44
478.127	1368.44
478.346	1460.44
478.564	1439.44
478.783	1436.44
479.002	1451.44
479.22	1434.44
479.439	1461.44
479.658	1566.44
479.876	1511.44
480.095	1379.44
480.313	1358.44
480.532	1309.44
480.751	1341.44
480.969	1310.44
481.188	1285.44
481.406	1254.44
481.624	1246.44
481.843	1268.44
482.061	1292.44
482.28	1366.44
482.498	1363.44
482.717	1317.44
482.935	1339.44
483.153	1335.44
483.372	1399.44
483.59	1395.44
483.808	1372.44
484.027	1366.44
484.245	1471.44
484.463	1779.44
484.681	1896.44
484.9	1464.44
485.118	1403.44
485.336	1365.44
485.554	1383.44
485.772	1402.44
485.99	1378.44
486.209	1405.44
486.427	1405.44
486.645	1421.44
486.863	1457.44
487.081	1455.44
487.299	1495.44
487.517	1484.44
487.735	1489.44
487.953	1545.44
488.171	1495.44
488.389	1471.44
488.607	1484.44
488.825	1619.44
489.043	1545.44
489.261	1405.44
489.479	1490.44
489.696	1481.44
489.914	1492.44
490.132	1441.44
490.35	1485.44
490.568	1540.44
490.786	1520.44
491.003	1513.44
491.221	1560.44
491.439	1622.44
491.657	1630.44
491.874	1624.44
492.092	1703.44
492.31	1718.44
492.527	1683.44
492.745	1629.44
492.963	1589.44
493.18	1635.44
493.398	1716.44
493.615	1729.44
493.833	1585.44
494.05	1576.44
494.268	1590.44
494.485	1611.44
494.703	1580.44
494.92	1575.44
495.138	1584.44
495.355	1580.44
495.573	1627.44
495.79	1696.44
496.008	1682.44
496.225	1649.44
496.442	1648.44
496.66	1604.44
496.877	1589.44
497.094	1688.44
497.312	1645.44
497.529	1603.44
497.746	1671.44
497.963	1875.44
498.181	1998.44
498.398	1936.44
498.615	1845.44
498.832	1779.44
499.049	1804.44
499.267	1790.44
499.484	1934.44
499.701	2080.44
499.918	2086.44
500.135	2278.44
500.352	2358.44
500.569	2359.44
500.786	2552.44
501.003	2298.44
501.22	2124.44
501.437	2067.44
501.654	2111.44
501.871	2020.44
502.088	1783.44
502.305	1767.44
502.522	1716.44
502.739	1596.44
502.956	1606.44
503.172	1563.44
503.389	1539.44
503.606	1485.44
503.823	1479.44
504.04	1512.44
504.256	1521.44
504.473	1505.44
504.69	1549.44
504.907	1470.44
505.123	1421.44
505.34	1543.44
505.557	2025.44
505.773	1693.44
505.99	1415.44
506.207	1339.44
506.423	1303.44
506.64	1281.44
506.856	1351.44
507.073	1503.44
507.289	1622.44
507.506	1542.44
507.722	1315.44
507.939	1279.44
508.155	1259.44
508.372	1263.44
508.588	1223.44
508.805	1238.44
509.021	1176.44
509.238	1166.44
509.454	1143.44
509.67	1178.44
509.887	1149.44
510.103	1159.44
510.319	1177.44
510.536	1216.44
510.752	1225.44
510.968	1203.44
511.184	1324.44
511.401	1264.44
511.617	1137.44
511.833	1130.44
512.049	1109.44
512.265	1101.44
512.481	1118.44
512.698	1217.44
512.914	1233.44
513.13	1204.44
513.346	1159.44
513.562	1110.44
513.778	1112.44
513.994	1197.44
514.21	1207.44
514.426	1224.44
514.642	1312.44
514.858	1262.44
515.074	1185.44
515.29	1149.44
515.506	1180.44
515.721	1182.44
515.937	1192.44
516.153	1330.44
516.369	1287.44
516.585	1211.44
516.801	1139.44
517.016	1156.44
517.232	1172.44
517.448	1227.44
517.664	1267.44
517.879	1248.44
518.095	1299.44
518.311	1236.44
518.527	1227.44
518.742	1203.44
518.958	1169.44
519.173	1155.44
519.389	1203.44
519.605	1174.44
519.82	1205.44
520.036	1212.44
520.251	1168.44
520.467	1191.44
520.682	1272.44
520.898	1259.44
521.113	1142.44
521.329	1120.44
521.544	1222.44
521.76	1177.44
521.975	1140.44
522.19	1097.44
522.406	1139.44
522.621	1371.44
522.836	1344.44
523.052	1115.44
523.267	1123.44
523.482	1129.44
523.698	1102.44
523.913	1057.44
524.128	1104.44
524.343	1160.44
524.559	1200.44
524.774	1102.44
524.989	1112.44
525.204	1077.44
525.419	1082.44
525.634	1056.44
525.849	1094.44
526.064	1091.44
526.28	1073.44
526.495	1019.44
526.71	996.44
526.925	1037.44
527.14	973.44
527.355	972.44
527.57	1003.44
527.785	1027.44
527.999	1004.44
528.214	1004.44
528.429	991.44
528.644	1030.44
528.859	1097.44
529.074	1071.44
529.289	1131.44
529.503	1122.44
529.718	1082.44
529.933	1073.44
530.148	1006.44
530.363	992.44
530.577	1003.44
530.792	995.44
531.007	998.44
531.221	1023.44
531.436	1025.44
531.651	1032.44
531.865	1072.44
532.08	1037.44
532.295	1004.44
532.509	932.44
532.724	974.44
532.938	1005.44
533.153	1079.44
533.367	1038.44
533.582	1064.44
533.796	1040.44
534.011	1056.44
534.225	1030.44
534.44	947.44
534.654	952.44
534.868	998.44
535.083	1047.44
535.297	1047.44
535.511	1023.44
535.726	1020.44
535.94	1004.44
536.154	991.44
536.369	976.44
536.583	944.44
536.797	953.44
537.011	981.44
537.225	949.44
537.44	967.44
537.654	1001.44
537.868	937.44
538.082	921.44
538.296	922.44
538.51	935.44
538.724	968.44
538.938	944.44
539.153	1029.44
539.367	1015.44
539.581	980.44
539.795	1008.44
540.009	963.44
540.222	965.44
540.436	957.44
540.65	1073.44
540.864	1112.44
541.078	1069.44
541.292	1059.44
541.506	1087.44
541.72	1101.44
541.934	1170.44
542.147	1211.44
542.361	1148.44
542.575	1072.44
542.789	1036.44
543.002	1003.44
543.216	957.44
543.43	1015.44
543.644	1079.44
543.857	1124.44
544.071	1104.44
544.285	1109.44
544.498	1072.44
544.712	1092.44
544.925	1143.44
545.139	1111.44
545.352	1110.44
545.566	1093.44
545.779	1070.44
545.993	1106.44
546.206	1083.44
546.42	1085.44
546.633	1051.44
546.847	1091.44
547.06	1064.44
547.274	1080.44
547.487	1109.44
547.7	1090.44
547.914	1109.44
548.127	1078.44
548.34	1095.44
548.554	1079.44
548.767	1067.44
548.98	1070.44
549.193	1102.44
549.407	1117.44
549.62	1129.44
549.833	1048.44
550.046	1084.44
550.259	1071.44
550.473	1033.44
550.686	1029.44
550.899	1006.44
551.112	1002.44
551.325	1019.44
551.538	1049.44
551.751	1180.44
551.964	941.44
552.177	973.44
552.39	963.44
552.603	999.44
552.816	1027.44
553.029	1078.44
553.242	1104.44
553.455	1102.44
553.667	1032.44
553.88	1058.44
554.093	1042.44
554.306	1003.44
554.519	989.44
554.732	975.44
554.944	984.44
555.157	1001.44
555.37	959.44
555.583	980.44
555.795	924.44
556.008	893.44
556.221	882.44
556.433	886.44
556.646	890.44
556.859	859.44
557.071	892.44
557.284	887.44
557.496	885.44
557.709	873.44
557.921	867.44
558.134	877.44
558.346	867.44
558.559	883.44
558.771	856.44
558.984	821.44
559.196	814.44
559.409	832.44
559.621	825.44
559.833	824.44
560.046	849.44
560.258	841.44
560.47	830.44
560.683	832.44
560.895	829.44
561.107	823.44
561.32	848.44
561.532	854.44
561.744	839.44
561.956	832.44
562.168	837.44
562.381	808.44
562.593	797.44
562.805	807.44
563.017	775.44
563.229	807.44
563.441	838.44
563.653	798.44
563.865	804.44
564.077	772.44
564.289	793.44
564.501	812.44
564.713	829.44
564.925	857.44
565.137	904.44
565.349	833.44
565.561	849.44
565.773	831.44
565.985	840.44
566.197	883.44
566.408	937.44
566.62	901.44
566.832	919.44
567.044	915.44
567.255	901.44
567.467	900.44
567.679	926.44
567.891	935.44
568.102	911.44
568.314	854.44
568.526	804.44
568.737	783.44
568.949	743.44
569.161	719.44
569.372	695.44
569.584	702.44
569.795	704.44
570.007	683.44
570.218	661.44
570.43	677.44
570.641	679.44
570.853	660.44
571.064	670.44
571.276	698.44
571.487	672.44
571.698	649.44
571.91	640.44
572.121	633.44
572.333	631.44
572.544	617.44
572.755	588.44
572.966	583.44
573.178	607.44
573.389	576.44
573.6	608.44
573.811	647.44
574.023	601.44
574.234	588.44
574.445	581.44
574.656	577.44
574.867	581.44
575.078	585.44
575.289	573.44
575.501	567.44
575.712	572.44
575.923	564.44
576.134	544.44
576.345	573.44
576.556	552.44
576.767	548.44
576.978	545.44
577.188	534.44
577.399	527.44
577.61	525.44
577.821	528.44
578.032	532.44
578.243	494.44
578.454	521.44
578.665	523.44
578.875	509.44
579.086	515.44
579.297	519.44
579.508	518.44
579.718	523.44
579.929	517.44
580.14	497.44
580.35	504.44
580.561	531.44
580.772	560.44
580.982	529.44
581.193	520.44
581.403	496.44
581.614	484.44
581.825	492.44
582.035	517.44
582.246	511.44
582.456	515.44
582.667	496.44
582.877	471.44
583.087	480.44
583.298	487.44
583.508	464.44
583.719	468.44
583.929	476.44
584.139	479.44
584.35	465.44
584.56	470.44
584.77	465.44
584.981	479.44
585.191	474.44
585.401	505.44
585.611	465.44
585.821	484.44
586.032	462.44
586.242	442.44
586.452	462.44
586.662	476.44
586.872	463.44
587.082	438.44
587.292	472.44
587.502	472.44
587.713	465.44
587.923	451.44
588.133	459.44
588.343	478.44
588.553	448.44
588.762	454.44
588.972	458.44
589.182	462.44
589.392	455.44
589.602	500.44
589.812	470.44
590.022	436.44
590.232	460.44
590.441	465.44
590.651	465.44
590.861	455.44
591.071	440.44
591.281	444.44
591.49	436.44
591.7	435.44
591.91	440.44
592.119	451.44
592.329	449.44
592.539	473.44
592.748	475.44
592.958	453.44
593.167	486.44
593.377	479.44
593.587	481.44
593.796	475.44
594.006	472.44
594.215	481.44
594.424	467.44
594.634	462.44
594.843	475.44
595.053	470.44
595.262	463.44
595.472	464.44
595.681	455.44
595.89	452.44
596.1	428.44
596.309	445.44
596.518	441.44
596.727	452.44
596.937	425.44
597.146	424.44
597.355	439.44
597.564	403.44
597.774	409.44
597.983	390.44
598.192	402.44
598.401	405.44
598.61	402.44
598.819	384.44
599.028	400.44
599.237	409.44
599.446	393.44
599.655	400.44
599.864	371.44
600.073	401.44
600.282	382.44
600.491	392.44
600.7	391.44
600.909	380.44
601.118	411.44
601.327	417.44
601.536	424.44
601.745	391.44
601.953	405.44
602.162	419.44
602.371	457.44
602.58	418.44
602.789	419.44
602.997	422.44
603.206	419.44
603.415	405.44
603.623	428.44
603.832	403.44
604.041	389.44
604.249	389.44
604.458	376.44
604.666	413.44
604.875	391.44
605.084	379.44
605.292	415.44
605.501	392.44
605.709	402.44
605.918	412.44
606.126	398.44
606.334	415.44
606.543	400.44
606.751	420.44
606.96	438.44
607.168	400.44
607.376	391.44
607.585	398.44
607.793	400.44
608.001	398.44
608.21	405.44
608.418	415.44
608.626	419.44
608.834	402.44
609.043	402.44
609.251	397.44
609.459	398.44
609.667	405.44
609.875	428.44
610.083	421.44
610.291	425.44
610.499	440.44
610.707	405.44
610.916	389.44
611.124	397.44
611.332	406.44
611.54	400.44
611.748	385.44
611.955	417.44
612.163	390.44
612.371	396.44
612.579	395.44
612.787	367.44
612.995	405.44
613.203	387.44
613.411	408.44
613.618	424.44
613.826	379.44
614.034	389.44
614.242	380.44
614.449	385.44
614.657	393.44
614.865	394.44
615.072	409.44
615.28	400.44
615.488	394.44
615.695	415.44
615.903	403.44
616.111	389.44
616.318	398.44
616.526	389.44
616.733	410.44
616.941	363.44
617.148	381.44
617.356	399.44
617.563	379.44
617.771	377.44
617.978	375.44
618.185	373.44
618.393	367.44
618.6	383.44
618.807	364.44
619.015	363.44
619.222	380.44
619.429	371.44
619.637	364.44
619.844	362.44
620.051	354.44
620.258	353.44
620.466	371.44
620.673	356.44
620.88	361.44
621.087	341.44
621.294	346.44
621.501	329.44
621.708	335.44
621.915	362.44
622.122	357.44
622.329	372.44
622.536	364.44
622.743	347.44
622.95	376.44
623.157	359.44
623.364	340.44
623.571	356.44
623.778	359.44
623.985	349.44
624.192	357.44
624.399	343.44
624.606	357.44
624.812	358.44
625.019	331.44
625.226	343.44
625.433	329.44
625.639	345.44
625.846	323.44
626.053	304.44
626.259	297.44
626.466	308.44
626.673	295.44
626.879	298.44
627.086	295.44
627.293	315.44
627.499	328.44
627.706	333.44
627.912	348.44
628.119	332.44
628.325	314.44
628.532	321.44
628.738	331.44
628.945	327.44
629.151	320.44
629.357	323.44
629.564	315.44
629.77	310.44
629.976	308.44
630.183	315.44
630.389	315.44
630.595	320.44
630.802	289.44
631.008	294.44
631.214	304.44
631.42	306.44
631.627	297.44
631.833	281.44
632.039	292.44
632.245	292.44
632.451	303.44
632.657	296.44
632.863	298.44
633.069	284.44
633.275	286.44
633.481	299.44
633.688	297.44
633.893	290.44
634.099	296.44
634.305	286.44
634.511	293.44
634.717	277.44
634.923	271.44
635.129	271.44
635.335	268.44
635.541	286.44
635.747	284.44
635.952	269.44
636.158	281.44
636.364	283.44
636.57	285.44
636.775	264.44
636.981	293.44
637.187	278.44
637.392	283.44
637.598	300.44
637.804	281.44
638.009	272.44
638.215	288.44
638.421	281.44
638.626	279.44
638.832	271.44
639.037	292.44
639.243	256.44
639.448	278.44
639.654	285.44
639.859	245.44
640.065	273.44
640.27	272.44
640.475	280.44
640.681	268.44
640.886	280.44
641.091	265.44
641.297	276.44
641.502	265.44
641.707	284.44
641.913	255.44
642.118	262.44
642.323	255.44
642.528	270.44
642.733	264.44
642.939	270.44
643.144	246.44
643.349	300.44
643.554	275.44
643.759	262.44
643.964	248.44
644.169	272.44
644.374	260.44
644.579	259.44
644.784	270.44
644.989	263.44
645.194	264.44
645.399	262.44
645.604	257.44
645.809	249.44
646.014	260.44
646.219	252.44
646.423	273.44
646.628	261.44
646.833	260.44
647.038	251.44
647.243	263.44
647.447	262.44
647.652	262.44
647.857	256.44
648.062	250.44
648.266	249.44
648.471	274.44
648.676	281.44
648.88	274.44
649.085	273.44
649.289	259.44
649.494	262.44
649.698	276.44
649.903	272.44
650.107	244.44
650.312	261.44
650.516	248.44
650.721	235.44
650.925	247.44
651.13	259.44
651.334	244.44
651.539	251.44
651.743	233.44
651.947	224.44
652.152	249.44
652.356	225.44
652.56	234.44
652.764	236.44
652.969	230.44
653.173	230.44
653.377	235.44
653.581	227.44
653.785	220.44
653.99	199.44
654.194	215.44
654.398	229.44
654.602	221.44
654.806	220.44
655.01	216.44
655.214	216.44
655.418	219.44
655.622	219.44
655.826	238.44
656.03	229.44
656.234	224.44
656.438	278.44
656.642	285.44
656.846	264.44
657.049	251.44
657.253	208.44
657.457	211.44
657.661	208.44
657.865	181.44
658.068	174.44
658.272	179.44
658.476	158.44
658.68	173.44
658.883	155.44
659.087	164.44
659.291	124.44
659.494	138.44
659.698	128.44
659.901	135.44
660.105	139.44
660.309	130.44
660.512	134.44
660.716	117.44
660.919	110.44
661.123	121.44
661.326	127.44
661.53	116.44
661.733	102.44
661.936	109.44
662.14	98.44
662.343	97.44
662.546	101.44
662.75	109.44
662.953	96.44
663.156	93.44
663.36	94.44
663.563	106.44
663.766	101.44
663.969	92.44
664.173	105.44
664.376	87.44
664.579	93.44
664.782	99.44
664.985	96.44
665.188	90.44
665.391	91.44
665.594	80.44
665.797	82.44
666	81.44
666.203	76.44
666.406	87.44
666.609	74.44
666.812	86.44
667.015	83.44
667.218	78.44
667.421	80.44
667.624	92.44
667.827	84.44
668.03	91.44
668.232	95.44
668.435	81.44
668.638	100.44
668.841	87.44
669.043	89.44
669.246	89.44
669.449	86.44
669.651	85.44
669.854	81.44
670.057	88.44
670.259	87.44
670.462	81.44
670.665	99.44
670.867	101.44
671.07	87.44
671.272	95.44
671.475	80.44
671.677	72.44
671.88	92.44
672.082	81.44
672.284	90.44
672.487	79.44
672.689	91.44
672.892	83.44
