Data from WStandard_LampEnergy8_LIBS07252019.E.O._I.C._HRD10591_16-01-00-930.txt Node
Date: Thu Jul 25 16:01:00 EDT 2019
User: cochatt
Spectrometer: HR+D1059
Trigger mode: 1
Integration Time (sec): 1.000000E-1
Scans to average: 1
Electric dark correction enabled: true
Nonlinearity correction enabled: false
Boxcar width: 0
XAxis mode: Wavelengths
Number of Pixels in Spectrum: 2048
>>>>>Begin Spectral Data<<<<<
223.165	-18.56
223.4	-18.56
223.635	-18.56
223.869	-29.56
224.104	-26.56
224.338	-14.56
224.573	-13.56
224.808	-7.56
225.042	-3.56
225.277	-7.56
225.511	-7.56
225.746	11.44
225.98	8.44
226.215	5.44
226.449	25.44
226.683	17.44
226.918	29.44
227.152	31.44
227.387	37.44
227.621	41.44
227.856	43.44
228.09	53.44
228.324	61.44
228.559	52.44
228.793	99.44
229.027	209.44
229.262	207.44
229.496	194.44
229.73	225.44
229.964	249.44
230.199	266.44
230.433	262.44
230.667	285.44
230.901	279.44
231.136	245.44
231.37	245.44
231.604	253.44
231.838	265.44
232.072	255.44
232.306	253.44
232.541	262.44
232.775	296.44
233.009	328.44
233.243	304.44
233.477	275.44
233.711	307.44
233.945	285.44
234.179	313.44
234.413	280.44
234.647	333.44
234.881	323.44
235.115	293.44
235.349	301.44
235.583	290.44
235.817	296.44
236.051	285.44
236.285	298.44
236.519	317.44
236.753	346.44
236.987	352.44
237.221	342.44
237.455	374.44
237.689	355.44
237.922	338.44
238.156	335.44
238.39	334.44
238.624	368.44
238.858	386.44
239.091	385.44
239.325	409.44
239.559	463.44
239.793	470.44
240.027	514.44
240.26	482.44
240.494	394.44
240.728	354.44
240.961	381.44
241.195	376.44
241.429	398.44
241.662	408.44
241.896	397.44
242.13	378.44
242.363	418.44
242.597	455.44
242.83	410.44
243.064	443.44
243.298	489.44
243.531	467.44
243.765	441.44
243.998	447.44
244.232	391.44
244.465	384.44
244.699	391.44
244.932	454.44
245.166	493.44
245.399	484.44
245.633	455.44
245.866	466.44
246.099	465.44
246.333	465.44
246.566	480.44
246.8	515.44
247.033	563.44
247.266	532.44
247.5	515.44
247.733	495.44
247.966	568.44
248.2	573.44
248.433	574.44
248.666	615.44
248.899	657.44
249.133	740.44
249.366	793.44
249.599	655.44
249.832	587.44
250.066	591.44
250.299	625.44
250.532	563.44
250.765	513.44
250.998	568.44
251.231	581.44
251.465	580.44
251.698	541.44
251.931	557.44
252.164	591.44
252.397	610.44
252.63	612.44
252.863	543.44
253.096	518.44
253.329	547.44
253.562	608.44
253.795	613.44
254.028	583.44
254.261	576.44
254.494	546.44
254.727	541.44
254.96	573.44
255.193	610.44
255.426	685.44
255.659	768.44
255.892	756.44
256.124	660.44
256.357	645.44
256.59	690.44
256.823	685.44
257.056	687.44
257.289	806.44
257.521	848.44
257.754	806.44
257.987	742.44
258.22	824.44
258.452	803.44
258.685	659.44
258.918	638.44
259.151	661.44
259.383	647.44
259.616	575.44
259.849	601.44
260.081	697.44
260.314	736.44
260.547	778.44
260.779	797.44
261.012	743.44
261.244	675.44
261.477	640.44
261.71	695.44
261.942	675.44
262.175	663.44
262.407	697.44
262.64	658.44
262.872	585.44
263.105	607.44
263.337	602.44
263.57	633.44
263.802	609.44
264.035	594.44
264.267	576.44
264.499	557.44
264.732	611.44
264.964	648.44
265.197	657.44
265.429	715.44
265.661	775.44
265.894	810.44
266.126	832.44
266.358	774.44
266.591	787.44
266.823	810.44
267.055	759.44
267.287	779.44
267.52	738.44
267.752	720.44
267.984	733.44
268.216	780.44
268.448	788.44
268.681	772.44
268.913	693.44
269.145	691.44
269.377	664.44
269.609	723.44
269.841	868.44
270.073	949.44
270.306	1056.44
270.538	1093.44
270.77	943.44
271.002	804.44
271.234	788.44
271.466	783.44
271.698	890.44
271.93	1030.44
272.162	986.44
272.394	920.44
272.626	866.44
272.858	750.44
273.09	727.44
273.322	673.44
273.553	653.44
273.785	641.44
274.017	715.44
274.249	752.44
274.481	739.44
274.713	697.44
274.945	685.44
275.176	693.44
275.408	697.44
275.64	660.44
275.872	658.44
276.104	725.44
276.335	829.44
276.567	909.44
276.799	903.44
277.031	828.44
277.262	787.44
277.494	853.44
277.726	878.44
277.957	853.44
278.189	791.44
278.421	731.44
278.652	704.44
278.884	700.44
279.115	717.44
279.347	741.44
279.579	719.44
279.81	728.44
280.042	793.44
280.273	869.44
280.505	884.44
280.736	832.44
280.968	808.44
281.199	735.44
281.431	689.44
281.662	698.44
281.894	711.44
282.125	720.44
282.356	749.44
282.588	769.44
282.819	744.44
283.051	814.44
283.282	873.44
283.513	833.44
283.745	745.44
283.976	719.44
284.207	717.44
284.439	742.44
284.67	746.44
284.901	765.44
285.132	757.44
285.364	767.44
285.595	763.44
285.826	756.44
286.057	729.44
286.288	754.44
286.52	775.44
286.751	819.44
286.982	828.44
287.213	774.44
287.444	697.44
287.675	738.44
287.906	784.44
288.138	827.44
288.369	769.44
288.6	739.44
288.831	736.44
289.062	746.44
289.293	753.44
289.524	755.44
289.755	807.44
289.986	770.44
290.217	719.44
290.448	738.44
290.679	765.44
290.91	769.44
291.141	791.44
291.371	803.44
291.602	795.44
291.833	809.44
292.064	826.44
292.295	810.44
292.526	838.44
292.757	842.44
292.987	806.44
293.218	783.44
293.449	863.44
293.68	958.44
293.91	965.44
294.141	937.44
294.372	905.44
294.603	930.44
294.833	966.44
295.064	898.44
295.295	822.44
295.525	791.44
295.756	745.44
295.987	700.44
296.217	749.44
296.448	775.44
296.679	745.44
296.909	765.44
297.14	767.44
297.37	777.44
297.601	819.44
297.831	838.44
298.062	882.44
298.292	780.44
298.523	754.44
298.753	745.44
298.984	795.44
299.214	806.44
299.445	801.44
299.675	827.44
299.905	828.44
300.136	785.44
300.366	787.44
300.597	736.44
300.827	753.44
301.057	791.44
301.288	845.44
301.518	858.44
301.748	879.44
301.979	899.44
302.209	907.44
302.439	966.44
302.669	985.44
302.9	915.44
303.13	825.44
303.36	838.44
303.59	857.44
303.82	846.44
304.051	835.44
304.281	864.44
304.511	856.44
304.741	928.44
304.971	1001.44
305.201	1059.44
305.431	941.44
305.661	806.44
305.891	746.44
306.121	756.44
306.352	779.44
306.582	823.44
306.812	893.44
307.042	929.44
307.272	921.44
307.502	975.44
307.731	1029.44
307.961	1090.44
308.191	956.44
308.421	871.44
308.651	825.44
308.881	837.44
309.111	805.44
309.341	809.44
309.571	823.44
309.8	819.44
310.03	808.44
310.26	815.44
310.49	805.44
310.72	830.44
310.949	869.44
311.179	877.44
311.409	844.44
311.639	852.44
311.868	835.44
312.098	837.44
312.328	856.44
312.557	825.44
312.787	845.44
313.017	837.44
313.246	869.44
313.476	887.44
313.706	887.44
313.935	886.44
314.165	903.44
314.394	916.44
314.624	962.44
314.853	993.44
315.083	1031.44
315.312	1047.44
315.542	964.44
315.771	897.44
316.001	897.44
316.23	945.44
316.46	929.44
316.689	918.44
316.919	842.44
317.148	832.44
317.377	844.44
317.607	957.44
317.836	1037.44
318.065	1056.44
318.295	1009.44
318.524	974.44
318.753	945.44
318.983	927.44
319.212	897.44
319.441	901.44
319.67	877.44
319.9	908.44
320.129	957.44
320.358	988.44
320.587	997.44
320.816	998.44
321.046	991.44
321.275	951.44
321.504	979.44
321.733	1059.44
321.962	997.44
322.191	938.44
322.42	910.44
322.649	881.44
322.878	895.44
323.108	911.44
323.337	951.44
323.566	951.44
323.795	953.44
324.024	918.44
324.253	906.44
324.482	911.44
324.71	876.44
324.939	875.44
325.168	868.44
325.397	903.44
325.626	947.44
325.855	952.44
326.084	926.44
326.313	929.44
326.542	914.44
326.77	934.44
326.999	933.44
327.228	895.44
327.457	835.44
327.686	867.44
327.914	905.44
328.143	941.44
328.372	904.44
328.6	877.44
328.829	909.44
329.058	899.44
329.287	893.44
329.515	936.44
329.744	926.44
329.972	970.44
330.201	996.44
330.43	966.44
330.658	954.44
330.887	975.44
331.115	966.44
331.344	969.44
331.572	960.44
331.801	959.44
332.03	954.44
332.258	948.44
332.486	973.44
332.715	986.44
332.943	1003.44
333.172	976.44
333.4	996.44
333.629	1023.44
333.857	1098.44
334.085	1189.44
334.314	1351.44
334.542	1392.44
334.771	1274.44
334.999	1138.44
335.227	1087.44
335.455	1052.44
335.684	1033.44
335.912	1067.44
336.14	1089.44
336.369	1058.44
336.597	1002.44
336.825	974.44
337.053	1038.44
337.281	1081.44
337.51	1124.44
337.738	1172.44
337.966	1067.44
338.194	1023.44
338.422	985.44
338.65	955.44
338.878	957.44
339.106	941.44
339.334	935.44
339.562	934.44
339.79	948.44
340.018	987.44
340.246	1051.44
340.474	1013.44
340.702	1016.44
340.93	1011.44
341.158	1001.44
341.386	964.44
341.614	973.44
341.842	971.44
342.07	979.44
342.298	991.44
342.526	947.44
342.754	959.44
342.981	975.44
343.209	969.44
343.437	959.44
343.665	968.44
343.893	987.44
344.12	1025.44
344.348	1011.44
344.576	981.44
344.804	993.44
345.031	952.44
345.259	952.44
345.487	932.44
345.714	899.44
345.942	887.44
346.17	897.44
346.397	933.44
346.625	915.44
346.853	870.44
347.08	874.44
347.308	892.44
347.535	932.44
347.763	953.44
347.99	909.44
348.218	877.44
348.445	902.44
348.673	913.44
348.9	929.44
349.128	966.44
349.355	1008.44
349.583	986.44
349.81	912.44
350.037	858.44
350.265	848.44
350.492	883.44
350.72	858.44
350.947	936.44
351.174	927.44
351.402	890.44
351.629	846.44
351.856	823.44
352.083	852.44
352.311	863.44
352.538	881.44
352.765	943.44
352.992	909.44
353.22	884.44
353.447	870.44
353.674	914.44
353.901	901.44
354.128	885.44
354.355	904.44
354.583	951.44
354.81	938.44
355.037	983.44
355.264	923.44
355.491	914.44
355.718	903.44
355.945	927.44
356.172	922.44
356.399	900.44
356.626	881.44
356.853	929.44
357.08	1001.44
357.307	1090.44
357.534	1012.44
357.761	941.44
357.988	879.44
358.215	875.44
358.441	879.44
358.668	859.44
358.895	895.44
359.122	985.44
359.349	1024.44
359.576	980.44
359.802	900.44
360.029	897.44
360.256	885.44
360.483	899.44
360.709	914.44
360.936	952.44
361.163	995.44
361.39	1046.44
361.616	1127.44
361.843	1133.44
362.07	999.44
362.296	899.44
362.523	906.44
362.749	953.44
362.976	927.44
363.203	933.44
363.429	894.44
363.656	879.44
363.882	933.44
364.109	1083.44
364.335	1081.44
364.562	1008.44
364.788	976.44
365.015	930.44
365.241	892.44
365.468	915.44
365.694	935.44
365.92	950.44
366.147	935.44
366.373	929.44
366.599	886.44
366.826	909.44
367.052	901.44
367.278	921.44
367.505	953.44
367.731	968.44
367.957	959.44
368.184	967.44
368.41	1058.44
368.636	1020.44
368.862	1049.44
369.089	1037.44
369.315	999.44
369.541	962.44
369.767	917.44
369.993	911.44
370.219	924.44
370.445	948.44
370.672	1009.44
370.898	1032.44
371.124	1045.44
371.35	1030.44
371.576	1002.44
371.802	1031.44
372.028	1009.44
372.254	950.44
372.48	938.44
372.706	950.44
372.932	927.44
373.158	959.44
373.384	977.44
373.61	961.44
373.835	1019.44
374.061	970.44
374.287	996.44
374.513	970.44
374.739	982.44
374.965	948.44
375.191	990.44
375.416	1049.44
375.642	1013.44
375.868	1093.44
376.094	1113.44
376.319	1043.44
376.545	1006.44
376.771	1016.44
376.997	1074.44
377.222	1041.44
377.448	1005.44
377.674	1035.44
377.899	1012.44
378.125	1069.44
378.35	1057.44
378.576	962.44
378.802	936.44
379.027	968.44
379.253	963.44
379.478	962.44
379.704	977.44
379.929	965.44
380.155	963.44
380.38	977.44
380.606	980.44
380.831	997.44
381.057	1053.44
381.282	1061.44
381.507	1013.44
381.733	1079.44
381.958	1152.44
382.184	1049.44
382.409	1022.44
382.634	992.44
382.86	1042.44
383.085	1053.44
383.31	1080.44
383.535	1173.44
383.761	1215.44
383.986	1153.44
384.211	1097.44
384.436	1118.44
384.662	1146.44
384.887	1147.44
385.112	1117.44
385.337	1121.44
385.562	1131.44
385.787	1114.44
386.013	1143.44
386.238	1137.44
386.463	1149.44
386.688	1235.44
386.913	1306.44
387.138	1265.44
387.363	1145.44
387.588	1141.44
387.813	1145.44
388.038	1189.44
388.263	1186.44
388.488	1159.44
388.713	1079.44
388.938	1053.44
389.163	1109.44
389.387	1118.44
389.612	1089.44
389.837	1129.44
390.062	1144.44
390.287	1109.44
390.512	1131.44
390.736	1110.44
390.961	1088.44
391.186	1058.44
391.411	1073.44
391.636	1134.44
391.86	1099.44
392.085	1112.44
392.31	1090.44
392.534	1147.44
392.759	1133.44
392.984	1105.44
393.208	1123.44
393.433	1151.44
393.658	1189.44
393.882	1215.44
394.107	1141.44
394.331	1101.44
394.556	1122.44
394.78	1170.44
395.005	1192.44
395.229	1183.44
395.454	1287.44
395.678	1267.44
395.903	1211.44
396.127	1168.44
396.352	1182.44
396.576	1233.44
396.801	1258.44
397.025	1225.44
397.249	1213.44
397.474	1210.44
397.698	1174.44
397.922	1256.44
398.147	1288.44
398.371	1311.44
398.595	1335.44
398.82	1271.44
399.044	1293.44
399.268	1339.44
399.492	1378.44
399.717	1488.44
399.941	1505.44
400.165	1465.44
400.389	1407.44
400.613	1457.44
400.837	1638.44
401.062	1789.44
401.286	1543.44
401.51	1413.44
401.734	1442.44
401.958	1365.44
402.182	1331.44
402.406	1251.44
402.63	1238.44
402.854	1269.44
403.078	1277.44
403.302	1268.44
403.526	1349.44
403.75	1360.44
403.974	1372.44
404.198	1339.44
404.422	1395.44
404.645	1422.44
404.869	1388.44
405.093	1310.44
405.317	1274.44
405.541	1322.44
405.765	1357.44
405.988	1374.44
406.212	1351.44
406.436	1376.44
406.66	1427.44
406.883	1510.44
407.107	1666.44
407.331	1787.44
407.555	1929.44
407.778	1662.44
408.002	1439.44
408.226	1390.44
408.449	1373.44
408.673	1362.44
408.896	1363.44
409.12	1368.44
409.344	1342.44
409.567	1336.44
409.791	1339.44
410.014	1385.44
410.238	1445.44
410.461	1506.44
410.685	1342.44
410.908	1336.44
411.132	1360.44
411.355	1308.44
411.578	1297.44
411.802	1351.44
412.025	1361.44
412.249	1310.44
412.472	1279.44
412.695	1306.44
412.919	1304.44
413.142	1277.44
413.365	1286.44
413.589	1349.44
413.812	1384.44
414.035	1441.44
414.258	1310.44
414.482	1275.44
414.705	1307.44
414.928	1266.44
415.151	1287.44
415.374	1291.44
415.597	1308.44
415.821	1290.44
416.044	1335.44
416.267	1355.44
416.49	1265.44
416.713	1257.44
416.936	1314.44
417.159	1385.44
417.382	1345.44
417.605	1288.44
417.828	1319.44
418.051	1339.44
418.274	1316.44
418.497	1289.44
418.72	1257.44
418.943	1258.44
419.166	1325.44
419.389	1373.44
419.611	1309.44
419.834	1281.44
420.057	1274.44
420.28	1271.44
420.503	1266.44
420.726	1342.44
420.948	1288.44
421.171	1267.44
421.394	1267.44
421.617	1330.44
421.839	1331.44
422.062	1267.44
422.285	1275.44
422.507	1249.44
422.73	1219.44
422.953	1202.44
423.175	1203.44
423.398	1261.44
423.621	1235.44
423.843	1258.44
424.066	1310.44
424.288	1358.44
424.511	1397.44
424.733	1345.44
424.956	1239.44
425.178	1211.44
425.401	1256.44
425.623	1254.44
425.846	1266.44
426.068	1304.44
426.291	1322.44
426.513	1320.44
426.735	1282.44
426.958	1411.44
427.18	1479.44
427.402	1333.44
427.625	1381.44
427.847	1361.44
428.069	1248.44
428.292	1243.44
428.514	1217.44
428.736	1217.44
428.958	1232.44
429.181	1276.44
429.403	1457.44
429.625	1720.44
429.847	1457.44
430.069	1293.44
430.292	1411.44
430.514	1441.44
430.736	1343.44
430.958	1351.44
431.18	1269.44
431.402	1216.44
431.624	1201.44
431.846	1151.44
432.068	1123.44
432.29	1108.44
432.512	1171.44
432.734	1273.44
432.956	1283.44
433.178	1342.44
433.4	1288.44
433.622	1335.44
433.844	1229.44
434.066	1173.44
434.287	1153.44
434.509	1193.44
434.731	1287.44
434.953	1334.44
435.175	1330.44
435.397	1274.44
435.618	1242.44
435.84	1228.44
436.062	1170.44
436.284	1240.44
436.505	1267.44
436.727	1311.44
436.949	1234.44
437.17	1231.44
437.392	1192.44
437.614	1206.44
437.835	1175.44
438.057	1216.44
438.278	1258.44
438.5	1194.44
438.721	1221.44
438.943	1217.44
439.165	1184.44
439.386	1185.44
439.608	1234.44
439.829	1219.44
440.05	1224.44
440.272	1239.44
440.493	1222.44
440.715	1224.44
440.936	1309.44
441.158	1397.44
441.379	1385.44
441.6	1307.44
441.822	1270.44
442.043	1307.44
442.264	1306.44
442.486	1239.44
442.707	1250.44
442.928	1239.44
443.149	1281.44
443.371	1363.44
443.592	1383.44
443.813	1376.44
444.034	1320.44
444.255	1335.44
444.476	1394.44
444.698	1394.44
444.919	1395.44
445.14	1445.44
445.361	1411.44
445.582	1426.44
445.803	1379.44
446.024	1347.44
446.245	1395.44
446.466	1355.44
446.687	1316.44
446.908	1297.44
447.129	1306.44
447.35	1294.44
447.571	1272.44
447.792	1238.44
448.013	1236.44
448.234	1270.44
448.455	1306.44
448.675	1321.44
448.896	1208.44
449.117	1192.44
449.338	1200.44
449.559	1246.44
449.779	1310.44
450	1409.44
450.221	1442.44
450.442	1386.44
450.662	1246.44
450.883	1144.44
451.104	1147.44
451.324	1170.44
451.545	1223.44
451.766	1173.44
451.986	1149.44
452.207	1117.44
452.428	1110.44
452.648	1071.44
452.869	1096.44
453.089	1130.44
453.31	1146.44
453.53	1173.44
453.751	1089.44
453.971	1037.44
454.192	1065.44
454.412	1136.44
454.633	1141.44
454.853	1103.44
455.073	1065.44
455.294	1042.44
455.514	1030.44
455.734	1065.44
455.955	1075.44
456.175	1055.44
456.395	1064.44
456.616	1074.44
456.836	1061.44
457.056	1079.44
457.276	1077.44
457.497	1046.44
457.717	971.44
457.937	1043.44
458.157	1021.44
458.377	1015.44
458.598	1008.44
458.818	1031.44
459.038	1094.44
459.258	1139.44
459.478	1113.44
459.698	1099.44
459.918	1151.44
460.138	1201.44
460.358	1245.44
460.578	1243.44
460.798	1267.44
461.018	1330.44
461.238	1279.44
461.458	1257.44
461.678	1218.44
461.898	1218.44
462.118	1173.44
462.338	1244.44
462.558	1246.44
462.777	1238.44
462.997	1289.44
463.217	1363.44
463.437	1312.44
463.657	1268.44
463.876	1247.44
464.096	1219.44
464.316	1238.44
464.536	1293.44
464.755	1281.44
464.975	1327.44
465.195	1265.44
465.414	1295.44
465.634	1288.44
465.854	1242.44
466.073	1353.44
466.293	1326.44
466.512	1173.44
466.732	1199.44
466.951	1242.44
467.171	1198.44
467.391	1174.44
467.61	1201.44
467.829	1173.44
468.049	1313.44
468.268	1407.44
468.488	1318.44
468.707	1218.44
468.927	1207.44
469.146	1199.44
469.365	1223.44
469.585	1190.44
469.804	1249.44
470.023	1200.44
470.243	1219.44
470.462	1187.44
470.681	1192.44
470.901	1234.44
471.12	1217.44
471.339	1219.44
471.558	1182.44
471.777	1167.44
471.997	1199.44
472.216	1162.44
472.435	1109.44
472.654	1119.44
472.873	1144.44
473.092	1230.44
473.311	1189.44
473.53	1130.44
473.749	1154.44
473.968	1173.44
474.187	1190.44
474.406	1212.44
474.625	1164.44
474.844	1193.44
475.063	1164.44
475.282	1217.44
475.501	1175.44
475.72	1186.44
475.939	1256.44
476.158	1240.44
476.377	1207.44
476.596	1205.44
476.814	1176.44
477.033	1180.44
477.252	1281.44
477.471	1297.44
477.69	1258.44
477.908	1271.44
478.127	1355.44
478.346	1411.44
478.564	1403.44
478.783	1384.44
479.002	1429.44
479.22	1385.44
479.439	1430.44
479.658	1544.44
479.876	1495.44
480.095	1363.44
480.313	1325.44
480.532	1304.44
480.751	1315.44
480.969	1313.44
481.188	1279.44
481.406	1270.44
481.624	1204.44
481.843	1194.44
482.061	1277.44
482.28	1315.44
482.498	1328.44
482.717	1302.44
482.935	1273.44
483.153	1322.44
483.372	1327.44
483.59	1314.44
483.808	1326.44
484.027	1328.44
484.245	1403.44
484.463	1706.44
484.681	1907.44
484.9	1443.44
485.118	1369.44
485.336	1319.44
485.554	1351.44
485.772	1355.44
485.99	1371.44
486.209	1375.44
486.427	1401.44
486.645	1403.44
486.863	1402.44
487.081	1428.44
487.299	1442.44
487.517	1413.44
487.735	1453.44
487.953	1515.44
488.171	1465.44
488.389	1465.44
488.607	1457.44
488.825	1574.44
489.043	1533.44
489.261	1389.44
489.479	1475.44
489.696	1435.44
489.914	1462.44
490.132	1402.44
490.35	1411.44
490.568	1519.44
490.786	1482.44
491.003	1449.44
491.221	1516.44
491.439	1592.44
491.657	1561.44
491.874	1605.44
492.092	1666.44
492.31	1656.44
492.527	1634.44
492.745	1601.44
492.963	1554.44
493.18	1604.44
493.398	1685.44
493.615	1673.44
493.833	1557.44
494.05	1519.44
494.268	1531.44
494.485	1540.44
494.703	1571.44
494.92	1512.44
495.138	1568.44
495.355	1546.44
495.573	1569.44
495.79	1658.44
496.008	1630.44
496.225	1553.44
496.442	1583.44
496.66	1606.44
496.877	1559.44
497.094	1621.44
497.312	1653.44
497.529	1608.44
497.746	1617.44
497.963	1839.44
498.181	1924.44
498.398	1837.44
498.615	1809.44
498.832	1755.44
499.049	1754.44
499.267	1734.44
499.484	1868.44
499.701	1975.44
499.918	2047.44
500.135	2190.44
500.352	2317.44
500.569	2313.44
500.786	2535.44
501.003	2287.44
501.22	2083.44
501.437	2030.44
501.654	2048.44
501.871	1960.44
502.088	1760.44
502.305	1737.44
502.522	1662.44
502.739	1613.44
502.956	1535.44
503.172	1524.44
503.389	1481.44
503.606	1451.44
503.823	1498.44
504.04	1482.44
504.256	1444.44
504.473	1490.44
504.69	1513.44
504.907	1444.44
505.123	1403.44
505.34	1550.44
505.557	1913.44
505.773	1604.44
505.99	1358.44
506.207	1314.44
506.423	1296.44
506.64	1280.44
506.856	1317.44
507.073	1467.44
507.289	1561.44
507.506	1447.44
507.722	1307.44
507.939	1218.44
508.155	1213.44
508.372	1222.44
508.588	1225.44
508.805	1171.44
509.021	1178.44
509.238	1173.44
509.454	1148.44
509.67	1146.44
509.887	1118.44
510.103	1088.44
510.319	1125.44
510.536	1173.44
510.752	1220.44
510.968	1202.44
511.184	1244.44
511.401	1204.44
511.617	1106.44
511.833	1099.44
512.049	1100.44
512.265	1090.44
512.481	1096.44
512.698	1133.44
512.914	1183.44
513.13	1137.44
513.346	1070.44
513.562	1094.44
513.778	1121.44
513.994	1149.44
514.21	1184.44
514.426	1192.44
514.642	1294.44
514.858	1231.44
515.074	1138.44
515.29	1057.44
515.506	1125.44
515.721	1146.44
515.937	1175.44
516.153	1269.44
516.369	1218.44
516.585	1170.44
516.801	1089.44
517.016	1144.44
517.232	1181.44
517.448	1223.44
517.664	1198.44
517.879	1176.44
518.095	1244.44
518.311	1203.44
518.527	1179.44
518.742	1117.44
518.958	1095.44
519.173	1111.44
519.389	1150.44
519.605	1165.44
519.82	1169.44
520.036	1146.44
520.251	1109.44
520.467	1144.44
520.682	1233.44
520.898	1254.44
521.113	1128.44
521.329	1107.44
521.544	1188.44
521.76	1129.44
521.975	1066.44
522.19	1071.44
522.406	1103.44
522.621	1385.44
522.836	1272.44
523.052	1105.44
523.267	1067.44
523.482	1084.44
523.698	1047.44
523.913	1024.44
524.128	1079.44
524.343	1122.44
524.559	1113.44
524.774	1073.44
524.989	1073.44
525.204	1073.44
525.419	1055.44
525.634	1045.44
525.849	1040.44
526.064	1054.44
526.28	1079.44
526.495	987.44
526.71	1020.44
526.925	993.44
527.14	977.44
527.355	970.44
527.57	971.44
527.785	1000.44
527.999	984.44
528.214	941.44
528.429	1005.44
528.644	1031.44
528.859	1055.44
529.074	1078.44
529.289	1096.44
529.503	1134.44
529.718	1120.44
529.933	1035.44
530.148	1013.44
530.363	965.44
530.577	949.44
530.792	979.44
531.007	976.44
531.221	974.44
531.436	1016.44
531.651	1009.44
531.865	1042.44
532.08	1032.44
532.295	968.44
532.509	925.44
532.724	960.44
532.938	1003.44
533.153	1015.44
533.367	1009.44
533.582	1011.44
533.796	993.44
534.011	989.44
534.225	992.44
534.44	967.44
534.654	957.44
534.868	991.44
535.083	1000.44
535.297	1021.44
535.511	974.44
535.726	968.44
535.94	978.44
536.154	944.44
536.369	967.44
536.583	905.44
536.797	908.44
537.011	947.44
537.225	917.44
537.44	921.44
537.654	955.44
537.868	907.44
538.082	889.44
538.296	876.44
538.51	919.44
538.724	928.44
538.938	975.44
539.153	952.44
539.367	985.44
539.581	945.44
539.795	951.44
540.009	938.44
540.222	928.44
540.436	962.44
540.65	1046.44
540.864	1061.44
541.078	1027.44
541.292	1031.44
541.506	1056.44
541.72	1078.44
541.934	1143.44
542.147	1197.44
542.361	1151.44
542.575	1063.44
542.789	1029.44
543.002	945.44
543.216	985.44
543.43	982.44
543.644	1022.44
543.857	1084.44
544.071	1102.44
544.285	1076.44
544.498	1060.44
544.712	1090.44
544.925	1094.44
545.139	1086.44
545.352	1076.44
545.566	1051.44
545.779	1063.44
545.993	1063.44
546.206	1089.44
546.42	1065.44
546.633	1056.44
546.847	1066.44
547.06	1027.44
547.274	1079.44
547.487	1058.44
547.7	1080.44
547.914	1091.44
548.127	1051.44
548.34	1073.44
548.554	1059.44
548.767	1034.44
548.98	1018.44
549.193	1054.44
549.407	1085.44
549.62	1029.44
549.833	1041.44
550.046	1010.44
550.259	1025.44
550.473	1025.44
550.686	1019.44
550.899	1007.44
551.112	969.44
551.325	967.44
551.538	1021.44
551.751	1132.44
551.964	917.44
552.177	925.44
552.39	954.44
552.603	1002.44
552.816	995.44
553.029	1054.44
553.242	1066.44
553.455	1051.44
553.667	1037.44
553.88	1019.44
554.093	1007.44
554.306	984.44
554.519	950.44
554.732	940.44
554.944	962.44
555.157	961.44
555.37	933.44
555.583	935.44
555.795	936.44
556.008	898.44
556.221	846.44
556.433	843.44
556.646	864.44
556.859	853.44
557.071	887.44
557.284	853.44
557.496	877.44
557.709	858.44
557.921	845.44
558.134	843.44
558.346	835.44
558.559	859.44
558.771	831.44
558.984	828.44
559.196	803.44
559.409	780.44
559.621	785.44
559.833	794.44
560.046	842.44
560.258	806.44
560.47	799.44
560.683	799.44
560.895	818.44
561.107	807.44
561.32	797.44
561.532	832.44
561.744	825.44
561.956	815.44
562.168	803.44
562.381	766.44
562.593	765.44
562.805	776.44
563.017	776.44
563.229	799.44
563.441	803.44
563.653	777.44
563.865	757.44
564.077	775.44
564.289	770.44
564.501	759.44
564.713	799.44
564.925	843.44
565.137	856.44
565.349	790.44
565.561	801.44
565.773	804.44
565.985	828.44
566.197	853.44
566.408	893.44
566.62	885.44
566.832	900.44
567.044	883.44
567.255	869.44
567.467	872.44
567.679	906.44
567.891	893.44
568.102	853.44
568.314	832.44
568.526	786.44
568.737	769.44
568.949	735.44
569.161	710.44
569.372	690.44
569.584	684.44
569.795	657.44
570.007	668.44
570.218	638.44
570.43	593.44
570.641	649.44
570.853	661.44
571.064	652.44
571.276	677.44
571.487	650.44
571.698	622.44
571.91	634.44
572.121	613.44
572.333	611.44
572.544	598.44
572.755	594.44
572.966	555.44
573.178	586.44
573.389	570.44
573.6	594.44
573.811	631.44
574.023	583.44
574.234	544.44
574.445	566.44
574.656	551.44
574.867	545.44
575.078	566.44
575.289	583.44
575.501	552.44
575.712	533.44
575.923	552.44
576.134	573.44
576.345	542.44
576.556	552.44
576.767	523.44
576.978	542.44
577.188	523.44
577.399	530.44
577.61	531.44
577.821	546.44
578.032	511.44
578.243	520.44
578.454	509.44
578.665	480.44
578.875	496.44
579.086	485.44
579.297	495.44
579.508	537.44
579.718	506.44
579.929	488.44
580.14	474.44
580.35	466.44
580.561	514.44
580.772	534.44
580.982	493.44
581.193	508.44
581.403	483.44
581.614	478.44
581.825	452.44
582.035	494.44
582.246	505.44
582.456	480.44
582.667	472.44
582.877	463.44
583.087	458.44
583.298	451.44
583.508	442.44
583.719	449.44
583.929	493.44
584.139	464.44
584.35	455.44
584.56	455.44
584.77	466.44
584.981	444.44
585.191	470.44
585.401	493.44
585.611	445.44
585.821	463.44
586.032	452.44
586.242	443.44
586.452	449.44
586.662	435.44
586.872	460.44
587.082	451.44
587.292	467.44
587.502	466.44
587.713	447.44
587.923	443.44
588.133	426.44
588.343	453.44
588.553	457.44
588.762	434.44
588.972	434.44
589.182	454.44
589.392	449.44
589.602	447.44
589.812	424.44
590.022	429.44
590.232	447.44
590.441	458.44
590.651	446.44
590.861	428.44
591.071	433.44
591.281	426.44
591.49	425.44
591.7	432.44
591.91	450.44
592.119	433.44
592.329	441.44
592.539	446.44
592.748	436.44
592.958	450.44
593.167	459.44
593.377	458.44
593.587	452.44
593.796	455.44
594.006	447.44
594.215	463.44
594.424	461.44
594.634	448.44
594.843	449.44
595.053	481.44
595.262	458.44
595.472	455.44
595.681	438.44
595.89	429.44
596.1	436.44
596.309	443.44
596.518	432.44
596.727	428.44
596.937	414.44
597.146	406.44
597.355	405.44
597.564	425.44
597.774	399.44
597.983	389.44
598.192	398.44
598.401	405.44
598.61	398.44
598.819	405.44
599.028	385.44
599.237	423.44
599.446	379.44
599.655	386.44
599.864	381.44
600.073	373.44
600.282	372.44
600.491	375.44
600.7	392.44
600.909	369.44
601.118	388.44
601.327	374.44
601.536	402.44
601.745	404.44
601.953	399.44
602.162	403.44
602.371	416.44
602.58	420.44
602.789	415.44
602.997	431.44
603.206	399.44
603.415	411.44
603.623	408.44
603.832	394.44
604.041	381.44
604.249	401.44
604.458	377.44
604.666	371.44
604.875	397.44
605.084	385.44
605.292	394.44
605.501	405.44
605.709	410.44
605.918	407.44
606.126	385.44
606.334	399.44
606.543	394.44
606.751	413.44
606.96	405.44
607.168	399.44
607.376	385.44
607.585	375.44
607.793	393.44
608.001	393.44
608.21	408.44
608.418	405.44
608.626	391.44
608.834	395.44
609.043	378.44
609.251	386.44
609.459	383.44
609.667	405.44
609.875	394.44
610.083	399.44
610.291	407.44
610.499	417.44
610.707	387.44
610.916	383.44
611.124	395.44
611.332	403.44
611.54	397.44
611.748	393.44
611.955	388.44
612.163	375.44
612.371	391.44
612.579	394.44
612.787	406.44
612.995	381.44
613.203	379.44
613.411	388.44
613.618	404.44
613.826	393.44
614.034	367.44
614.242	381.44
614.449	375.44
614.657	383.44
614.865	387.44
615.072	396.44
615.28	395.44
615.488	396.44
615.695	406.44
615.903	402.44
616.111	393.44
616.318	403.44
616.526	375.44
616.733	378.44
616.941	382.44
617.148	366.44
617.356	377.44
617.563	385.44
617.771	357.44
617.978	367.44
618.185	365.44
618.393	384.44
618.6	385.44
618.807	371.44
619.015	378.44
619.222	388.44
619.429	359.44
619.637	354.44
619.844	340.44
620.051	343.44
620.258	334.44
620.466	331.44
620.673	358.44
620.88	353.44
621.087	336.44
621.294	325.44
621.501	338.44
621.708	318.44
621.915	343.44
622.122	347.44
622.329	349.44
622.536	349.44
622.743	349.44
622.95	338.44
623.157	342.44
623.364	352.44
623.571	335.44
623.778	358.44
623.985	353.44
624.192	328.44
624.399	339.44
624.606	343.44
624.812	320.44
625.019	299.44
625.226	308.44
625.433	330.44
625.639	329.44
625.846	324.44
626.053	313.44
626.259	315.44
626.466	289.44
626.673	287.44
626.879	287.44
627.086	293.44
627.293	305.44
627.499	310.44
627.706	319.44
627.912	314.44
628.119	318.44
628.325	317.44
628.532	321.44
628.738	319.44
628.945	315.44
629.151	302.44
629.357	297.44
629.564	303.44
629.77	311.44
629.976	283.44
630.183	299.44
630.389	298.44
630.595	297.44
630.802	307.44
631.008	296.44
631.214	300.44
631.42	298.44
631.627	295.44
631.833	270.44
632.039	293.44
632.245	286.44
632.451	274.44
632.657	296.44
632.863	290.44
633.069	277.44
633.275	297.44
633.481	283.44
633.688	271.44
633.893	273.44
634.099	265.44
634.305	267.44
634.511	271.44
634.717	264.44
634.923	271.44
635.129	281.44
635.335	279.44
635.541	271.44
635.747	288.44
635.952	269.44
636.158	270.44
636.364	277.44
636.57	279.44
636.775	272.44
636.981	255.44
637.187	273.44
637.392	292.44
637.598	293.44
637.804	279.44
638.009	284.44
638.215	258.44
638.421	292.44
638.626	278.44
638.832	262.44
639.037	250.44
639.243	270.44
639.448	267.44
639.654	269.44
639.859	264.44
640.065	251.44
640.27	269.44
640.475	261.44
640.681	277.44
640.886	264.44
641.091	269.44
641.297	255.44
641.502	283.44
641.707	256.44
641.913	262.44
642.118	259.44
642.323	274.44
642.528	257.44
642.733	266.44
642.939	256.44
643.144	249.44
643.349	266.44
643.554	254.44
643.759	260.44
643.964	254.44
644.169	256.44
644.374	245.44
644.579	257.44
644.784	257.44
644.989	266.44
645.194	242.44
645.399	246.44
645.604	268.44
645.809	268.44
646.014	259.44
646.219	254.44
646.423	262.44
646.628	267.44
646.833	244.44
647.038	295.44
647.243	255.44
647.447	238.44
647.652	242.44
647.857	242.44
648.062	266.44
648.266	255.44
648.471	259.44
648.676	260.44
648.88	267.44
649.085	263.44
649.289	258.44
649.494	247.44
649.698	251.44
649.903	253.44
650.107	241.44
650.312	255.44
650.516	244.44
650.721	242.44
650.925	221.44
651.13	242.44
651.334	234.44
651.539	235.44
651.743	231.44
651.947	230.44
652.152	237.44
652.356	231.44
652.56	211.44
652.764	239.44
652.969	209.44
653.173	209.44
653.377	222.44
653.581	222.44
653.785	225.44
653.99	234.44
654.194	218.44
654.398	206.44
654.602	223.44
654.806	209.44
655.01	239.44
655.214	225.44
655.418	216.44
655.622	223.44
655.826	233.44
656.03	250.44
656.234	260.44
656.438	263.44
656.642	269.44
656.846	275.44
657.049	230.44
657.253	218.44
657.457	215.44
657.661	192.44
657.865	202.44
658.068	194.44
658.272	170.44
658.476	162.44
658.68	173.44
658.883	148.44
659.087	155.44
659.291	156.44
659.494	153.44
659.698	137.44
659.901	137.44
660.105	129.44
660.309	140.44
660.512	113.44
660.716	129.44
660.919	137.44
661.123	123.44
661.326	117.44
661.53	121.44
661.733	116.44
661.936	90.44
662.14	99.44
662.343	81.44
662.546	96.44
662.75	101.44
662.953	85.44
663.156	98.44
663.36	87.44
663.563	85.44
663.766	78.44
663.969	97.44
664.173	85.44
664.376	87.44
664.579	92.44
664.782	98.44
664.985	78.44
665.188	76.44
665.391	67.44
665.594	77.44
665.797	75.44
666	90.44
666.203	86.44
666.406	87.44
666.609	79.44
666.812	91.44
667.015	67.44
667.218	75.44
667.421	90.44
667.624	79.44
667.827	90.44
668.03	75.44
668.232	86.44
668.435	91.44
668.638	99.44
668.841	83.44
669.043	78.44
669.246	80.44
669.449	88.44
669.651	92.44
669.854	72.44
670.057	82.44
670.259	88.44
670.462	75.44
670.665	83.44
670.867	84.44
671.07	68.44
671.272	76.44
671.475	93.44
671.677	89.44
671.88	64.44
672.082	93.44
672.284	84.44
672.487	80.44
672.689	86.44
672.892	81.44
