Data from WStandard_LampEnergy5.5LIBS07252019.E.O._I.C._HRD10591_16-08-29-920.txt Node
Date: Thu Jul 25 16:08:29 EDT 2019
User: cochatt
Spectrometer: HR+D1059
Trigger mode: 1
Integration Time (sec): 1.000000E-1
Scans to average: 1
Electric dark correction enabled: true
Nonlinearity correction enabled: false
Boxcar width: 0
XAxis mode: Wavelengths
Number of Pixels in Spectrum: 2048
>>>>>Begin Spectral Data<<<<<
223.165	-6.25
223.4	-6.25
223.635	-6.25
223.869	-23.25
224.104	-22.25
224.338	-6.25
224.573	-1.25
224.808	-15.25
225.042	-0.25
225.277	-16.25
225.511	-4.25
225.746	-0.25
225.98	2.75
226.215	10.75
226.449	11.75
226.683	17.75
226.918	22.75
227.152	29.75
227.387	41.75
227.621	31.75
227.856	45.75
228.09	51.75
228.324	51.75
228.559	54.75
228.793	139.75
229.027	359.75
229.262	367.75
229.496	375.75
229.73	405.75
229.964	423.75
230.199	443.75
230.433	464.75
230.667	492.75
230.901	508.75
231.136	461.75
231.37	460.75
231.604	428.75
231.838	456.75
232.072	444.75
232.306	425.75
232.541	485.75
232.775	541.75
233.009	573.75
233.243	562.75
233.477	503.75
233.711	521.75
233.945	529.75
234.179	531.75
234.413	593.75
234.647	615.75
234.881	574.75
235.115	522.75
235.349	537.75
235.583	554.75
235.817	544.75
236.051	501.75
236.285	535.75
236.519	593.75
236.753	653.75
236.987	659.75
237.221	649.75
237.455	725.75
237.689	684.75
237.922	641.75
238.156	637.75
238.39	635.75
238.624	692.75
238.858	698.75
239.091	749.75
239.325	776.75
239.559	866.75
239.793	903.75
240.027	1002.75
240.26	1002.75
240.494	739.75
240.728	693.75
240.961	706.75
241.195	695.75
241.429	801.75
241.662	771.75
241.896	733.75
242.13	756.75
242.363	826.75
242.597	879.75
242.83	852.75
243.064	852.75
243.298	900.75
243.531	902.75
243.765	898.75
243.998	869.75
244.232	787.75
244.465	751.75
244.699	761.75
244.932	873.75
245.166	1023.75
245.399	951.75
245.633	890.75
245.866	875.75
246.099	901.75
246.333	927.75
246.566	928.75
246.8	1007.75
247.033	1127.75
247.266	1022.75
247.5	1009.75
247.733	1032.75
247.966	1068.75
248.2	1177.75
248.433	1130.75
248.666	1175.75
248.899	1273.75
249.133	1420.75
249.366	1663.75
249.599	1373.75
249.832	1213.75
250.066	1217.75
250.299	1216.75
250.532	1168.75
250.765	1040.75
250.998	1127.75
251.231	1163.75
251.465	1203.75
251.698	1115.75
251.931	1100.75
252.164	1167.75
252.397	1205.75
252.63	1211.75
252.863	1060.75
253.096	1043.75
253.329	1088.75
253.562	1146.75
253.795	1234.75
254.028	1201.75
254.261	1115.75
254.494	1099.75
254.727	1045.75
254.96	1115.75
255.193	1211.75
255.426	1377.75
255.659	1545.75
255.892	1601.75
256.124	1301.75
256.357	1260.75
256.59	1409.75
256.823	1392.75
257.056	1350.75
257.289	1636.75
257.521	1817.75
257.754	1636.75
257.987	1532.75
258.22	1684.75
258.452	1653.75
258.685	1339.75
258.918	1311.75
259.151	1347.75
259.383	1272.75
259.616	1124.75
259.849	1182.75
260.081	1351.75
260.314	1473.75
260.547	1615.75
260.779	1673.75
261.012	1522.75
261.244	1343.75
261.477	1297.75
261.71	1352.75
261.942	1385.75
262.175	1325.75
262.407	1412.75
262.64	1313.75
262.872	1236.75
263.105	1202.75
263.337	1224.75
263.57	1258.75
263.802	1204.75
264.035	1153.75
264.267	1151.75
264.499	1073.75
264.732	1157.75
264.964	1221.75
265.197	1303.75
265.429	1363.75
265.661	1485.75
265.894	1649.75
266.126	1713.75
266.358	1508.75
266.591	1601.75
266.823	1756.75
267.055	1560.75
267.287	1554.75
267.52	1544.75
267.752	1476.75
267.984	1469.75
268.216	1554.75
268.448	1600.75
268.681	1551.75
268.913	1415.75
269.145	1395.75
269.377	1317.75
269.609	1431.75
269.841	1675.75
270.073	1937.75
270.306	2165.75
270.538	2363.75
270.77	1931.75
271.002	1675.75
271.234	1606.75
271.466	1579.75
271.698	1761.75
271.93	2105.75
272.162	2143.75
272.394	1937.75
272.626	1801.75
272.858	1626.75
273.09	1394.75
273.322	1403.75
273.553	1291.75
273.785	1333.75
274.017	1364.75
274.249	1510.75
274.481	1557.75
274.713	1388.75
274.945	1347.75
275.176	1380.75
275.408	1335.75
275.64	1311.75
275.872	1288.75
276.104	1371.75
276.335	1611.75
276.567	1843.75
276.799	1841.75
277.031	1648.75
277.262	1515.75
277.494	1584.75
277.726	1785.75
277.957	1736.75
278.189	1636.75
278.421	1472.75
278.652	1446.75
278.884	1400.75
279.115	1431.75
279.347	1463.75
279.579	1396.75
279.81	1405.75
280.042	1600.75
280.273	1730.75
280.505	1710.75
280.736	1765.75
280.968	1636.75
281.199	1476.75
281.431	1417.75
281.662	1404.75
281.894	1416.75
282.125	1445.75
282.356	1458.75
282.588	1521.75
282.819	1523.75
283.051	1620.75
283.282	1754.75
283.513	1685.75
283.745	1478.75
283.976	1417.75
284.207	1407.75
284.439	1421.75
284.67	1402.75
284.901	1490.75
285.132	1493.75
285.364	1481.75
285.595	1511.75
285.826	1442.75
286.057	1453.75
286.288	1424.75
286.52	1485.75
286.751	1612.75
286.982	1677.75
287.213	1549.75
287.444	1444.75
287.675	1411.75
287.906	1481.75
288.138	1577.75
288.369	1586.75
288.6	1432.75
288.831	1374.75
289.062	1398.75
289.293	1485.75
289.524	1487.75
289.755	1536.75
289.986	1539.75
290.217	1383.75
290.448	1423.75
290.679	1472.75
290.91	1496.75
291.141	1519.75
291.371	1584.75
291.602	1571.75
291.833	1551.75
292.064	1596.75
292.295	1538.75
292.526	1618.75
292.757	1671.75
292.987	1607.75
293.218	1486.75
293.449	1611.75
293.68	1822.75
293.91	1972.75
294.141	1805.75
294.372	1708.75
294.603	1784.75
294.833	1877.75
295.064	1756.75
295.295	1626.75
295.525	1543.75
295.756	1442.75
295.987	1371.75
296.217	1411.75
296.448	1443.75
296.679	1415.75
296.909	1468.75
297.14	1462.75
297.37	1472.75
297.601	1537.75
297.831	1676.75
298.062	1685.75
298.292	1531.75
298.523	1482.75
298.753	1466.75
298.984	1479.75
299.214	1493.75
299.445	1510.75
299.675	1567.75
299.905	1545.75
300.136	1546.75
300.366	1467.75
300.597	1470.75
300.827	1441.75
301.057	1500.75
301.288	1580.75
301.518	1581.75
301.748	1619.75
301.979	1677.75
302.209	1684.75
302.439	1817.75
302.669	1892.75
302.9	1753.75
303.13	1541.75
303.36	1604.75
303.59	1634.75
303.82	1603.75
304.051	1591.75
304.281	1613.75
304.511	1588.75
304.741	1662.75
304.971	1836.75
305.201	2020.75
305.431	1867.75
305.661	1523.75
305.891	1455.75
306.121	1389.75
306.352	1486.75
306.582	1523.75
306.812	1608.75
307.042	1714.75
307.272	1699.75
307.502	1779.75
307.731	1956.75
307.961	2079.75
308.191	1962.75
308.421	1664.75
308.651	1572.75
308.881	1547.75
309.111	1521.75
309.341	1512.75
309.571	1512.75
309.8	1526.75
310.03	1525.75
310.26	1534.75
310.49	1525.75
310.72	1534.75
310.949	1612.75
311.179	1640.75
311.409	1607.75
311.639	1568.75
311.868	1533.75
312.098	1571.75
312.328	1561.75
312.557	1523.75
312.787	1540.75
313.017	1569.75
313.246	1592.75
313.476	1576.75
313.706	1621.75
313.935	1620.75
314.165	1635.75
314.394	1663.75
314.624	1772.75
314.853	1882.75
315.083	1931.75
315.312	1971.75
315.542	1827.75
315.771	1626.75
316.001	1631.75
316.23	1765.75
316.46	1714.75
316.689	1713.75
316.919	1613.75
317.148	1583.75
317.377	1578.75
317.607	1677.75
317.836	1877.75
318.065	1953.75
318.295	1901.75
318.524	1787.75
318.753	1731.75
318.983	1732.75
319.212	1715.75
319.441	1660.75
319.67	1688.75
319.9	1621.75
320.129	1722.75
320.358	1855.75
320.587	1885.75
320.816	1851.75
321.046	1832.75
321.275	1752.75
321.504	1738.75
321.733	1883.75
321.962	1849.75
322.191	1690.75
322.42	1683.75
322.649	1701.75
322.878	1661.75
323.108	1666.75
323.337	1721.75
323.566	1772.75
323.795	1735.75
324.024	1707.75
324.253	1690.75
324.482	1696.75
324.71	1704.75
324.939	1578.75
325.168	1622.75
325.397	1651.75
325.626	1744.75
325.855	1761.75
326.084	1687.75
326.313	1684.75
326.542	1703.75
326.77	1740.75
326.999	1766.75
327.228	1716.75
327.457	1603.75
327.686	1593.75
327.914	1603.75
328.143	1670.75
328.372	1699.75
328.6	1663.75
328.829	1654.75
329.058	1669.75
329.287	1640.75
329.515	1638.75
329.744	1723.75
329.972	1790.75
330.201	1825.75
330.43	1825.75
330.658	1794.75
330.887	1775.75
331.115	1770.75
331.344	1797.75
331.572	1774.75
331.801	1745.75
332.03	1781.75
332.258	1775.75
332.486	1804.75
332.715	1818.75
332.943	1817.75
333.172	1760.75
333.4	1804.75
333.629	1828.75
333.857	1954.75
334.085	2112.75
334.314	2367.75
334.542	2660.75
334.771	2364.75
334.999	2123.75
335.227	2047.75
335.455	1879.75
335.684	1883.75
335.912	1908.75
336.14	1985.75
336.369	1934.75
336.597	1835.75
336.825	1791.75
337.053	1840.75
337.281	1963.75
337.51	2012.75
337.738	2098.75
337.966	2001.75
338.194	1829.75
338.422	1793.75
338.65	1772.75
338.878	1765.75
339.106	1714.75
339.334	1675.75
339.562	1643.75
339.79	1697.75
340.018	1800.75
340.246	1888.75
340.474	1868.75
340.702	1809.75
340.93	1849.75
341.158	1804.75
341.386	1740.75
341.614	1769.75
341.842	1736.75
342.07	1734.75
342.298	1773.75
342.526	1746.75
342.754	1704.75
342.981	1728.75
343.209	1747.75
343.437	1716.75
343.665	1734.75
343.893	1797.75
344.12	1874.75
344.348	1886.75
344.576	1821.75
344.804	1755.75
345.031	1768.75
345.259	1761.75
345.487	1707.75
345.714	1651.75
345.942	1602.75
346.17	1612.75
346.397	1684.75
346.625	1737.75
346.853	1570.75
347.08	1581.75
347.308	1567.75
347.535	1637.75
347.763	1691.75
347.99	1665.75
348.218	1597.75
348.445	1565.75
348.673	1605.75
348.9	1660.75
349.128	1718.75
349.355	1781.75
349.583	1705.75
349.81	1663.75
350.037	1519.75
350.265	1503.75
350.492	1550.75
350.72	1623.75
350.947	1636.75
351.174	1652.75
351.402	1608.75
351.629	1530.75
351.856	1533.75
352.083	1544.75
352.311	1501.75
352.538	1557.75
352.765	1643.75
352.992	1682.75
353.22	1625.75
353.447	1541.75
353.674	1572.75
353.901	1641.75
354.128	1594.75
354.355	1579.75
354.583	1660.75
354.81	1699.75
355.037	1692.75
355.264	1676.75
355.491	1623.75
355.718	1625.75
355.945	1620.75
356.172	1622.75
356.399	1554.75
356.626	1600.75
356.853	1587.75
357.08	1735.75
357.307	1928.75
357.534	1891.75
357.761	1695.75
357.988	1561.75
358.215	1534.75
358.441	1535.75
358.668	1515.75
358.895	1516.75
359.122	1638.75
359.349	1817.75
359.576	1823.75
359.802	1596.75
360.029	1551.75
360.256	1503.75
360.483	1561.75
360.709	1613.75
360.936	1657.75
361.163	1730.75
361.39	1824.75
361.616	1982.75
361.843	1959.75
362.07	1863.75
362.296	1650.75
362.523	1624.75
362.749	1611.75
362.976	1612.75
363.203	1648.75
363.429	1589.75
363.656	1579.75
363.882	1622.75
364.109	1783.75
364.335	1953.75
364.562	1767.75
364.788	1692.75
365.015	1651.75
365.241	1566.75
365.468	1624.75
365.694	1697.75
365.92	1735.75
366.147	1675.75
366.373	1573.75
366.599	1555.75
366.826	1563.75
367.052	1559.75
367.278	1592.75
367.505	1624.75
367.731	1674.75
367.957	1684.75
368.184	1684.75
368.41	1765.75
368.636	1804.75
368.862	1819.75
369.089	1832.75
369.315	1726.75
369.541	1652.75
369.767	1686.75
369.993	1591.75
370.219	1585.75
370.445	1614.75
370.672	1685.75
370.898	1801.75
371.124	1785.75
371.35	1684.75
371.576	1705.75
371.802	1830.75
372.028	1755.75
372.254	1674.75
372.48	1649.75
372.706	1593.75
372.932	1622.75
373.158	1601.75
373.384	1631.75
373.61	1687.75
373.835	1821.75
374.061	1729.75
374.287	1675.75
374.513	1694.75
374.739	1697.75
374.965	1724.75
375.191	1759.75
375.416	1750.75
375.642	1753.75
375.868	1852.75
376.094	1898.75
376.319	1820.75
376.545	1689.75
376.771	1731.75
376.997	1799.75
377.222	1785.75
377.448	1734.75
377.674	1790.75
377.899	1792.75
378.125	1861.75
378.35	1866.75
378.576	1731.75
378.802	1649.75
379.027	1639.75
379.253	1657.75
379.478	1663.75
379.704	1695.75
379.929	1672.75
380.155	1716.75
380.38	1721.75
380.606	1717.75
380.831	1695.75
381.057	1757.75
381.282	1813.75
381.507	1732.75
381.733	1855.75
381.958	1935.75
382.184	1783.75
382.409	1725.75
382.634	1759.75
382.86	1738.75
383.085	1747.75
383.31	1828.75
383.535	1947.75
383.761	2074.75
383.986	1941.75
384.211	1882.75
384.436	1913.75
384.662	1929.75
384.887	2047.75
385.112	1982.75
385.337	1955.75
385.562	1937.75
385.787	1929.75
386.013	1958.75
386.238	1993.75
386.463	1943.75
386.688	2056.75
386.913	2180.75
387.138	2198.75
387.363	2004.75
387.588	2004.75
387.813	2004.75
388.038	1977.75
388.263	2065.75
388.488	1988.75
388.713	1843.75
388.938	1809.75
389.163	1887.75
389.387	1910.75
389.612	1898.75
389.837	1930.75
390.062	1937.75
390.287	1945.75
390.512	1948.75
390.736	1896.75
390.961	1849.75
391.186	1828.75
391.411	1881.75
391.636	1901.75
391.86	1919.75
392.085	1922.75
392.31	1884.75
392.534	1908.75
392.759	1953.75
392.984	1900.75
393.208	1939.75
393.433	1995.75
393.658	2044.75
393.882	2058.75
394.107	2012.75
394.331	1924.75
394.556	1885.75
394.78	1919.75
395.005	1989.75
395.229	2059.75
395.454	2192.75
395.678	2249.75
395.903	2141.75
396.127	2084.75
396.352	2014.75
396.576	2112.75
396.801	2129.75
397.025	2108.75
397.249	2106.75
397.474	2098.75
397.698	2069.75
397.922	2127.75
398.147	2173.75
398.371	2274.75
398.595	2294.75
398.82	2186.75
399.044	2241.75
399.268	2315.75
399.492	2500.75
399.717	2596.75
399.941	2599.75
400.165	2559.75
400.389	2453.75
400.613	2399.75
400.837	2681.75
401.062	3079.75
401.286	2666.75
401.51	2396.75
401.734	2547.75
401.958	2507.75
402.182	2304.75
402.406	2199.75
402.63	2184.75
402.854	2196.75
403.078	2237.75
403.302	2239.75
403.526	2276.75
403.75	2321.75
403.974	2332.75
404.198	2227.75
404.422	2329.75
404.645	2477.75
404.869	2439.75
405.093	2286.75
405.317	2227.75
405.541	2298.75
405.765	2315.75
405.988	2277.75
406.212	2335.75
406.436	2374.75
406.66	2425.75
406.883	2478.75
407.107	2801.75
407.331	2955.75
407.555	3207.75
407.778	3004.75
408.002	2536.75
408.226	2421.75
408.449	2422.75
408.673	2334.75
408.896	2365.75
409.12	2421.75
409.344	2349.75
409.567	2263.75
409.791	2316.75
410.014	2334.75
410.238	2459.75
410.461	2607.75
410.685	2354.75
410.908	2246.75
411.132	2334.75
411.355	2282.75
411.578	2221.75
411.802	2257.75
412.025	2297.75
412.249	2268.75
412.472	2194.75
412.695	2187.75
412.919	2212.75
413.142	2199.75
413.365	2263.75
413.589	2231.75
413.812	2352.75
414.035	2453.75
414.258	2251.75
414.482	2236.75
414.705	2214.75
414.928	2186.75
415.151	2148.75
415.374	2183.75
415.597	2253.75
415.821	2223.75
416.044	2263.75
416.267	2327.75
416.49	2123.75
416.713	2075.75
416.936	2165.75
417.159	2272.75
417.382	2244.75
417.605	2146.75
417.828	2253.75
418.051	2241.75
418.274	2205.75
418.497	2137.75
418.72	2107.75
418.943	2108.75
419.166	2280.75
419.389	2356.75
419.611	2220.75
419.834	2154.75
420.057	2209.75
420.28	2139.75
420.503	2099.75
420.726	2150.75
420.948	2149.75
421.171	2110.75
421.394	2119.75
421.617	2185.75
421.839	2143.75
422.062	2117.75
422.285	2073.75
422.507	2081.75
422.73	2085.75
422.953	2040.75
423.175	2040.75
423.398	2095.75
423.621	2064.75
423.843	2114.75
424.066	2170.75
424.288	2220.75
424.511	2255.75
424.733	2185.75
424.956	2007.75
425.178	2007.75
425.401	2031.75
425.623	2075.75
425.846	2047.75
426.068	2129.75
426.291	2173.75
426.513	2158.75
426.735	2143.75
426.958	2291.75
427.18	2453.75
427.402	2257.75
427.625	2272.75
427.847	2275.75
428.069	2133.75
428.292	2048.75
428.514	2032.75
428.736	2002.75
428.958	2063.75
429.181	2065.75
429.403	2278.75
429.625	2881.75
429.847	2516.75
430.069	2078.75
430.292	2302.75
430.514	2385.75
430.736	2129.75
430.958	2348.75
431.18	2237.75
431.402	2025.75
431.624	2050.75
431.846	2061.75
432.068	2025.75
432.29	2034.75
432.512	2041.75
432.734	2110.75
432.956	2106.75
433.178	2223.75
433.4	2184.75
433.622	2207.75
433.844	2075.75
434.066	2039.75
434.287	2034.75
434.509	2069.75
434.731	2213.75
434.953	2358.75
435.175	2287.75
435.397	2179.75
435.618	2143.75
435.84	2156.75
436.062	2109.75
436.284	2096.75
436.505	2096.75
436.727	2157.75
436.949	2131.75
437.17	2100.75
437.392	2044.75
437.614	2070.75
437.835	2035.75
438.057	2145.75
438.278	2193.75
438.5	2084.75
438.721	2008.75
438.943	2083.75
439.165	2037.75
439.386	1986.75
439.608	1989.75
439.829	2016.75
440.05	2055.75
440.272	2045.75
440.493	1955.75
440.715	2053.75
440.936	2147.75
441.158	2396.75
441.379	2332.75
441.6	2264.75
441.822	2191.75
442.043	2185.75
442.264	2167.75
442.486	2058.75
442.707	2012.75
442.928	2056.75
443.149	2112.75
443.371	2224.75
443.592	2304.75
443.813	2215.75
444.034	2225.75
444.255	2243.75
444.476	2274.75
444.698	2325.75
444.919	2309.75
445.14	2377.75
445.361	2330.75
445.582	2473.75
445.803	2329.75
446.024	2209.75
446.245	2311.75
446.466	2251.75
446.687	2122.75
446.908	2118.75
447.129	2049.75
447.35	2107.75
447.571	2079.75
447.792	2015.75
448.013	2008.75
448.234	2040.75
448.455	2153.75
448.675	2174.75
448.896	1979.75
449.117	1911.75
449.338	1968.75
449.559	2093.75
449.779	2179.75
450	2397.75
450.221	2577.75
450.442	2513.75
450.662	2207.75
450.883	1934.75
451.104	1924.75
451.324	1987.75
451.545	1999.75
451.766	1992.75
451.986	1900.75
452.207	1888.75
452.428	1852.75
452.648	1804.75
452.869	1837.75
453.089	1989.75
453.31	1973.75
453.53	2086.75
453.751	1975.75
453.971	1854.75
454.192	1907.75
454.412	2045.75
454.633	1947.75
454.853	1886.75
455.073	1764.75
455.294	1758.75
455.514	1768.75
455.734	1805.75
455.955	1828.75
456.175	1812.75
456.395	1843.75
456.616	1906.75
456.836	1937.75
457.056	1841.75
457.276	1855.75
457.497	1819.75
457.717	1749.75
457.937	1815.75
458.157	1836.75
458.377	1804.75
458.598	1811.75
458.818	1828.75
459.038	1960.75
459.258	2033.75
459.478	2048.75
459.698	1988.75
459.918	2051.75
460.138	2103.75
460.358	2118.75
460.578	2141.75
460.798	2275.75
461.018	2396.75
461.238	2257.75
461.458	2131.75
461.678	2194.75
461.898	2122.75
462.118	2111.75
462.338	2196.75
462.558	2207.75
462.777	2187.75
462.997	2295.75
463.217	2465.75
463.437	2483.75
463.657	2246.75
463.876	2215.75
464.096	2232.75
464.316	2196.75
464.536	2278.75
464.755	2243.75
464.975	2314.75
465.195	2221.75
465.414	2325.75
465.634	2362.75
465.854	2186.75
466.073	2307.75
466.293	2280.75
466.512	2013.75
466.732	1978.75
466.951	2057.75
467.171	2063.75
467.391	2012.75
467.61	1931.75
467.829	1981.75
468.049	2133.75
468.268	2364.75
468.488	2191.75
468.707	2085.75
468.927	2036.75
469.146	2018.75
469.365	1930.75
469.585	1987.75
469.804	1941.75
470.023	2006.75
470.243	2025.75
470.462	1995.75
470.681	1973.75
470.901	2034.75
471.12	2007.75
471.339	1958.75
471.558	1910.75
471.777	1904.75
471.997	1964.75
472.216	1931.75
472.435	1921.75
472.654	1963.75
472.873	2067.75
473.092	2143.75
473.311	2070.75
473.53	1890.75
473.749	1896.75
473.968	1969.75
474.187	2049.75
474.406	2178.75
474.625	2053.75
474.844	2041.75
475.063	2012.75
475.282	2111.75
475.501	2041.75
475.72	2012.75
475.939	2098.75
476.158	2087.75
476.377	1995.75
476.596	2041.75
476.814	2078.75
477.033	2075.75
477.252	2193.75
477.471	2215.75
477.69	2157.75
477.908	2081.75
478.127	2228.75
478.346	2396.75
478.564	2442.75
478.783	2378.75
479.002	2489.75
479.22	2374.75
479.439	2506.75
479.658	2737.75
479.876	2753.75
480.095	2461.75
480.313	2319.75
480.532	2214.75
480.751	2270.75
480.969	2297.75
481.188	2267.75
481.406	2228.75
481.624	2160.75
481.843	2187.75
482.061	2247.75
482.28	2347.75
482.498	2351.75
482.717	2325.75
482.935	2275.75
483.153	2220.75
483.372	2259.75
483.59	2175.75
483.808	2241.75
484.027	2254.75
484.245	2469.75
484.463	2763.75
484.681	3160.75
484.9	2494.75
485.118	2317.75
485.336	2223.75
485.554	2317.75
485.772	2445.75
485.99	2437.75
486.209	2417.75
486.427	2377.75
486.645	2411.75
486.863	2380.75
487.081	2429.75
487.299	2524.75
487.517	2457.75
487.735	2339.75
487.953	2324.75
488.171	2333.75
488.389	2274.75
488.607	2239.75
488.825	2571.75
489.043	2627.75
489.261	2340.75
489.479	2452.75
489.696	2463.75
489.914	2492.75
490.132	2427.75
490.35	2369.75
490.568	2457.75
490.786	2381.75
491.003	2282.75
491.221	2311.75
491.439	2402.75
491.657	2415.75
491.874	2439.75
492.092	2459.75
492.31	2403.75
492.527	2359.75
492.745	2346.75
492.963	2355.75
493.18	2458.75
493.398	2659.75
493.615	2723.75
493.833	2537.75
494.05	2422.75
494.268	2396.75
494.485	2459.75
494.703	2441.75
494.92	2373.75
495.138	2395.75
495.355	2462.75
495.573	2533.75
495.79	2664.75
496.008	2640.75
496.225	2561.75
496.442	2541.75
496.66	2654.75
496.877	2566.75
497.094	2699.75
497.312	2681.75
497.529	2608.75
497.746	2705.75
497.963	3153.75
498.181	3485.75
498.398	3228.75
498.615	3213.75
498.832	3098.75
499.049	3089.75
499.267	3158.75
499.484	3280.75
499.701	3527.75
499.918	3523.75
500.135	3840.75
500.352	4118.75
500.569	4058.75
500.786	4310.75
501.003	4098.75
501.22	3732.75
501.437	3637.75
501.654	3542.75
501.871	3518.75
502.088	3111.75
502.305	3071.75
502.522	2999.75
502.739	2799.75
502.956	2691.75
503.172	2740.75
503.389	2581.75
503.606	2583.75
503.823	2554.75
504.04	2563.75
504.256	2591.75
504.473	2621.75
504.69	2683.75
504.907	2543.75
505.123	2455.75
505.34	2455.75
505.557	3248.75
505.773	2804.75
505.99	2374.75
506.207	2247.75
506.423	2193.75
506.64	2175.75
506.856	2219.75
507.073	2481.75
507.289	2694.75
507.506	2547.75
507.722	2245.75
507.939	2145.75
508.155	2103.75
508.372	2136.75
508.588	2099.75
508.805	2078.75
509.021	2076.75
509.238	2040.75
509.454	1974.75
509.67	2024.75
509.887	2005.75
510.103	1944.75
510.319	2045.75
510.536	2107.75
510.752	2184.75
510.968	2160.75
511.184	2301.75
511.401	2258.75
511.617	1951.75
511.833	1956.75
512.049	1959.75
512.265	1938.75
512.481	1911.75
512.698	1993.75
512.914	2144.75
513.13	2086.75
513.346	1971.75
513.562	1891.75
513.778	1983.75
513.994	2051.75
514.21	2068.75
514.426	2167.75
514.642	2378.75
514.858	2235.75
515.074	2047.75
515.29	1984.75
515.506	2031.75
515.721	2069.75
515.937	2087.75
516.153	2333.75
516.369	2265.75
516.585	2112.75
516.801	2065.75
517.016	2044.75
517.232	2095.75
517.448	2154.75
517.664	2177.75
517.879	2142.75
518.095	2263.75
518.311	2146.75
518.527	2053.75
518.742	2010.75
518.958	2000.75
519.173	1987.75
519.389	1978.75
519.605	2021.75
519.82	2035.75
520.036	2045.75
520.251	1979.75
520.467	1934.75
520.682	2103.75
520.898	2231.75
521.113	2001.75
521.329	1936.75
521.544	2083.75
521.76	1975.75
521.975	1908.75
522.19	1859.75
522.406	1840.75
522.621	2214.75
522.836	2275.75
523.052	1852.75
523.267	1825.75
523.482	1877.75
523.698	1739.75
523.913	1710.75
524.128	1778.75
524.343	1917.75
524.559	1921.75
524.774	1831.75
524.989	1819.75
525.204	1779.75
525.419	1751.75
525.634	1754.75
525.849	1769.75
526.064	1837.75
526.28	1811.75
526.495	1741.75
526.71	1747.75
526.925	1751.75
527.14	1731.75
527.355	1707.75
527.57	1675.75
527.785	1752.75
527.999	1700.75
528.214	1629.75
528.429	1673.75
528.644	1685.75
528.859	1672.75
529.074	1694.75
529.289	1738.75
529.503	1685.75
529.718	1728.75
529.933	1719.75
530.148	1638.75
530.363	1645.75
530.577	1657.75
530.792	1724.75
531.007	1688.75
531.221	1709.75
531.436	1737.75
531.651	1772.75
531.865	1861.75
532.08	1752.75
532.295	1626.75
532.509	1605.75
532.724	1645.75
532.938	1722.75
533.153	1848.75
533.367	1737.75
533.582	1677.75
533.796	1621.75
534.011	1679.75
534.225	1734.75
534.44	1676.75
534.654	1651.75
534.868	1640.75
535.083	1724.75
535.297	1703.75
535.511	1685.75
535.726	1698.75
535.94	1663.75
536.154	1626.75
536.369	1629.75
536.583	1653.75
536.797	1580.75
537.011	1665.75
537.225	1618.75
537.44	1569.75
537.654	1632.75
537.868	1587.75
538.082	1493.75
538.296	1521.75
538.51	1522.75
538.724	1545.75
538.938	1515.75
539.153	1562.75
539.367	1567.75
539.581	1536.75
539.795	1659.75
540.009	1621.75
540.222	1591.75
540.436	1619.75
540.65	1743.75
540.864	1814.75
541.078	1671.75
541.292	1571.75
541.506	1558.75
541.72	1565.75
541.934	1575.75
542.147	1652.75
542.361	1621.75
542.575	1547.75
542.789	1550.75
543.002	1471.75
543.216	1521.75
543.43	1588.75
543.644	1637.75
543.857	1698.75
544.071	1624.75
544.285	1575.75
544.498	1547.75
544.712	1569.75
544.925	1588.75
545.139	1648.75
545.352	1557.75
545.566	1477.75
545.779	1508.75
545.993	1521.75
546.206	1549.75
546.42	1492.75
546.633	1446.75
546.847	1490.75
547.06	1499.75
547.274	1491.75
547.487	1427.75
547.7	1480.75
547.914	1473.75
548.127	1497.75
548.34	1514.75
548.554	1485.75
548.767	1489.75
548.98	1506.75
549.193	1482.75
549.407	1581.75
549.62	1585.75
549.833	1507.75
550.046	1441.75
550.259	1469.75
550.473	1484.75
550.686	1500.75
550.899	1456.75
551.112	1399.75
551.325	1422.75
551.538	1529.75
551.751	1734.75
551.964	1473.75
552.177	1417.75
552.39	1425.75
552.603	1482.75
552.816	1445.75
553.029	1543.75
553.242	1549.75
553.455	1472.75
553.667	1491.75
553.88	1469.75
554.093	1441.75
554.306	1389.75
554.519	1396.75
554.732	1366.75
554.944	1409.75
555.157	1427.75
555.37	1375.75
555.583	1426.75
555.795	1351.75
556.008	1323.75
556.221	1292.75
556.433	1265.75
556.646	1303.75
556.859	1261.75
557.071	1266.75
557.284	1265.75
557.496	1295.75
557.709	1258.75
557.921	1254.75
558.134	1247.75
558.346	1249.75
558.559	1236.75
558.771	1266.75
558.984	1228.75
559.196	1203.75
559.409	1188.75
559.621	1203.75
559.833	1189.75
560.046	1226.75
560.258	1218.75
560.47	1221.75
560.683	1241.75
560.895	1203.75
561.107	1230.75
561.32	1246.75
561.532	1234.75
561.744	1195.75
561.956	1247.75
562.168	1197.75
562.381	1142.75
562.593	1170.75
562.805	1200.75
563.017	1157.75
563.229	1185.75
563.441	1228.75
563.653	1188.75
563.865	1172.75
564.077	1183.75
564.289	1196.75
564.501	1187.75
564.713	1250.75
564.925	1241.75
565.137	1347.75
565.349	1301.75
565.561	1259.75
565.773	1268.75
565.985	1272.75
566.197	1351.75
566.408	1432.75
566.62	1431.75
566.832	1475.75
567.044	1480.75
567.255	1459.75
567.467	1448.75
567.679	1497.75
567.891	1529.75
568.102	1491.75
568.314	1463.75
568.526	1384.75
568.737	1313.75
568.949	1292.75
569.161	1191.75
569.372	1177.75
569.584	1196.75
569.795	1181.75
570.007	1119.75
570.218	1077.75
570.43	1103.75
570.641	1107.75
570.853	1090.75
571.064	1106.75
571.276	1054.75
571.487	1063.75
571.698	1026.75
571.91	1018.75
572.121	1017.75
572.333	1010.75
572.544	973.75
572.755	974.75
572.966	968.75
573.178	971.75
573.389	978.75
573.6	1004.75
573.811	1086.75
574.023	999.75
574.234	956.75
574.445	933.75
574.656	918.75
574.867	910.75
575.078	911.75
575.289	920.75
575.501	889.75
575.712	893.75
575.923	889.75
576.134	905.75
576.345	902.75
576.556	873.75
576.767	844.75
576.978	861.75
577.188	869.75
577.399	858.75
577.61	835.75
577.821	841.75
578.032	804.75
578.243	839.75
578.454	844.75
578.665	829.75
578.875	804.75
579.086	821.75
579.297	819.75
579.508	866.75
579.718	826.75
579.929	811.75
580.14	780.75
580.35	822.75
580.561	837.75
580.772	905.75
580.982	864.75
581.193	805.75
581.403	784.75
581.614	779.75
581.825	812.75
582.035	801.75
582.246	790.75
582.456	804.75
582.667	796.75
582.877	791.75
583.087	745.75
583.298	744.75
583.508	759.75
583.719	777.75
583.929	768.75
584.139	787.75
584.35	751.75
584.56	746.75
584.77	769.75
584.981	767.75
585.191	765.75
585.401	783.75
585.611	773.75
585.821	748.75
586.032	765.75
586.242	730.75
586.452	714.75
586.662	743.75
586.872	753.75
587.082	727.75
587.292	755.75
587.502	769.75
587.713	779.75
587.923	747.75
588.133	732.75
588.343	750.75
588.553	742.75
588.762	727.75
588.972	731.75
589.182	728.75
589.392	724.75
589.602	749.75
589.812	736.75
590.022	744.75
590.232	696.75
590.441	712.75
590.651	747.75
590.861	737.75
591.071	699.75
591.281	681.75
591.49	706.75
591.7	733.75
591.91	711.75
592.119	728.75
592.329	715.75
592.539	776.75
592.748	745.75
592.958	741.75
593.167	718.75
593.377	758.75
593.587	760.75
593.796	751.75
594.006	760.75
594.215	758.75
594.424	752.75
594.634	760.75
594.843	735.75
595.053	727.75
595.262	723.75
595.472	701.75
595.681	715.75
595.89	697.75
596.1	683.75
596.309	679.75
596.518	679.75
596.727	673.75
596.937	677.75
597.146	646.75
597.355	635.75
597.564	658.75
597.774	629.75
597.983	642.75
598.192	604.75
598.401	627.75
598.61	650.75
598.819	628.75
599.028	627.75
599.237	626.75
599.446	601.75
599.655	619.75
599.864	584.75
600.073	589.75
600.282	602.75
600.491	579.75
600.7	599.75
600.909	581.75
601.118	588.75
601.327	588.75
601.536	633.75
601.745	569.75
601.953	604.75
602.162	582.75
602.371	615.75
602.58	579.75
602.789	583.75
602.997	590.75
603.206	591.75
603.415	576.75
603.623	597.75
603.832	561.75
604.041	580.75
604.249	589.75
604.458	551.75
604.666	568.75
604.875	550.75
605.084	555.75
605.292	591.75
605.501	567.75
605.709	541.75
605.918	548.75
606.126	561.75
606.334	560.75
606.543	544.75
606.751	537.75
606.96	552.75
607.168	549.75
607.376	539.75
607.585	549.75
607.793	548.75
608.001	535.75
608.21	545.75
608.418	537.75
608.626	539.75
608.834	535.75
609.043	554.75
609.251	539.75
609.459	512.75
609.667	546.75
609.875	544.75
610.083	540.75
610.291	564.75
610.499	544.75
610.707	550.75
610.916	524.75
611.124	532.75
611.332	522.75
611.54	532.75
611.748	530.75
611.955	517.75
612.163	524.75
612.371	508.75
612.579	485.75
612.787	501.75
612.995	515.75
613.203	512.75
613.411	506.75
613.618	495.75
613.826	500.75
614.034	522.75
614.242	503.75
614.449	490.75
614.657	499.75
614.865	526.75
615.072	511.75
615.28	515.75
615.488	500.75
615.695	554.75
615.903	525.75
616.111	500.75
616.318	495.75
616.526	508.75
616.733	493.75
616.941	479.75
617.148	494.75
617.356	509.75
617.563	498.75
617.771	472.75
617.978	476.75
618.185	490.75
618.393	480.75
618.6	475.75
618.807	482.75
619.015	481.75
619.222	466.75
619.429	451.75
619.637	467.75
619.844	479.75
620.051	469.75
620.258	477.75
620.466	464.75
620.673	427.75
620.88	449.75
621.087	454.75
621.294	447.75
621.501	436.75
621.708	449.75
621.915	466.75
622.122	469.75
622.329	468.75
622.536	451.75
622.743	445.75
622.95	458.75
623.157	449.75
623.364	451.75
623.571	445.75
623.778	439.75
623.985	444.75
624.192	458.75
624.399	440.75
624.606	437.75
624.812	433.75
625.019	429.75
625.226	418.75
625.433	408.75
625.639	432.75
625.846	427.75
626.053	417.75
626.259	437.75
626.466	393.75
626.673	406.75
626.879	395.75
627.086	410.75
627.293	420.75
627.499	414.75
627.706	413.75
627.912	409.75
628.119	418.75
628.325	404.75
628.532	396.75
628.738	406.75
628.945	408.75
629.151	379.75
629.357	407.75
629.564	408.75
629.77	374.75
629.976	392.75
630.183	397.75
630.389	397.75
630.595	405.75
630.802	394.75
631.008	368.75
631.214	376.75
631.42	375.75
631.627	380.75
631.833	388.75
632.039	369.75
632.245	370.75
632.451	378.75
632.657	371.75
632.863	359.75
633.069	375.75
633.275	363.75
633.481	360.75
633.688	362.75
633.893	364.75
634.099	363.75
634.305	358.75
634.511	352.75
634.717	343.75
634.923	343.75
635.129	349.75
635.335	361.75
635.541	343.75
635.747	372.75
635.952	332.75
636.158	345.75
636.364	330.75
636.57	355.75
636.775	337.75
636.981	334.75
637.187	347.75
637.392	339.75
637.598	357.75
637.804	324.75
638.009	344.75
638.215	336.75
638.421	339.75
638.626	328.75
638.832	328.75
639.037	321.75
639.243	314.75
639.448	330.75
639.654	331.75
639.859	319.75
640.065	314.75
640.27	323.75
640.475	324.75
640.681	316.75
640.886	312.75
641.091	346.75
641.297	316.75
641.502	307.75
641.707	319.75
641.913	321.75
642.118	304.75
642.323	338.75
642.528	317.75
642.733	311.75
642.939	325.75
643.144	307.75
643.349	324.75
643.554	314.75
643.759	327.75
643.964	308.75
644.169	324.75
644.374	316.75
644.579	308.75
644.784	315.75
644.989	320.75
645.194	299.75
645.399	305.75
645.604	292.75
645.809	303.75
646.014	307.75
646.219	318.75
646.423	328.75
646.628	306.75
646.833	308.75
647.038	305.75
647.243	308.75
647.447	313.75
647.652	294.75
647.857	304.75
648.062	330.75
648.266	332.75
648.471	321.75
648.676	296.75
648.88	308.75
649.085	296.75
649.289	280.75
649.494	289.75
649.698	294.75
649.903	289.75
650.107	294.75
650.312	300.75
650.516	303.75
650.721	285.75
650.925	293.75
651.13	268.75
651.334	275.75
651.539	266.75
651.743	264.75
651.947	261.75
652.152	251.75
652.356	263.75
652.56	256.75
652.764	249.75
652.969	239.75
653.173	252.75
653.377	253.75
653.581	251.75
653.785	248.75
653.99	239.75
654.194	263.75
654.398	250.75
654.602	246.75
654.806	248.75
655.01	254.75
655.214	245.75
655.418	232.75
655.622	250.75
655.826	243.75
656.03	245.75
656.234	266.75
656.438	277.75
656.642	275.75
656.846	256.75
657.049	243.75
657.253	208.75
657.457	196.75
657.661	200.75
657.865	186.75
658.068	171.75
658.272	162.75
658.476	152.75
658.68	152.75
658.883	145.75
659.087	140.75
659.291	160.75
659.494	132.75
659.698	130.75
659.901	132.75
660.105	142.75
660.309	104.75
660.512	113.75
660.716	124.75
660.919	119.75
661.123	119.75
661.326	101.75
661.53	96.75
661.733	103.75
661.936	105.75
662.14	94.75
662.343	99.75
662.546	98.75
662.75	85.75
662.953	96.75
663.156	87.75
663.36	96.75
663.563	75.75
663.766	94.75
663.969	92.75
664.173	81.75
664.376	81.75
664.579	78.75
664.782	77.75
664.985	77.75
665.188	70.75
665.391	95.75
665.594	76.75
665.797	77.75
666	87.75
666.203	91.75
666.406	78.75
666.609	71.75
666.812	86.75
667.015	81.75
667.218	68.75
667.421	88.75
667.624	89.75
667.827	82.75
668.03	90.75
668.232	87.75
668.435	80.75
668.638	79.75
668.841	77.75
669.043	77.75
669.246	69.75
669.449	84.75
669.651	89.75
669.854	70.75
670.057	75.75
670.259	85.75
670.462	75.75
670.665	88.75
670.867	70.75
671.07	88.75
671.272	87.75
671.475	83.75
671.677	73.75
671.88	84.75
672.082	84.75
672.284	84.75
672.487	83.75
672.689	89.75
672.892	90.75
