Data from WStandard_LampEnergy8_LIBS07252019.E.O._I.C._HRD10591_16-00-42-930.txt Node
Date: Thu Jul 25 16:00:42 EDT 2019
User: cochatt
Spectrometer: HR+D1059
Trigger mode: 1
Integration Time (sec): 1.000000E-1
Scans to average: 1
Electric dark correction enabled: true
Nonlinearity correction enabled: false
Boxcar width: 0
XAxis mode: Wavelengths
Number of Pixels in Spectrum: 2048
>>>>>Begin Spectral Data<<<<<
223.165	-7.44
223.4	-7.44
223.635	-7.44
223.869	-9.44
224.104	-14.44
224.338	-13.44
224.573	-13.44
224.808	-18.44
225.042	-7.44
225.277	-10.44
225.511	-9.44
225.746	-5.44
225.98	-2.44
226.215	7.56
226.449	22.56
226.683	15.56
226.918	27.56
227.152	38.56
227.387	39.56
227.621	28.56
227.856	42.56
228.09	46.56
228.324	45.56
228.559	39.56
228.793	113.56
229.027	205.56
229.262	208.56
229.496	218.56
229.73	222.56
229.964	258.56
230.199	269.56
230.433	242.56
230.667	274.56
230.901	245.56
231.136	248.56
231.37	250.56
231.604	259.56
231.838	258.56
232.072	258.56
232.306	249.56
232.541	281.56
232.775	291.56
233.009	297.56
233.243	300.56
233.477	283.56
233.711	288.56
233.945	283.56
234.179	287.56
234.413	317.56
234.647	326.56
234.881	297.56
235.115	289.56
235.349	300.56
235.583	286.56
235.817	314.56
236.051	273.56
236.285	298.56
236.519	331.56
236.753	353.56
236.987	345.56
237.221	331.56
237.455	369.56
237.689	354.56
237.922	333.56
238.156	327.56
238.39	329.56
238.624	358.56
238.858	381.56
239.091	382.56
239.325	405.56
239.559	456.56
239.793	466.56
240.027	488.56
240.26	467.56
240.494	384.56
240.728	354.56
240.961	380.56
241.195	374.56
241.429	404.56
241.662	388.56
241.896	381.56
242.13	368.56
242.363	404.56
242.597	452.56
242.83	426.56
243.064	442.56
243.298	469.56
243.531	461.56
243.765	461.56
243.998	438.56
244.232	405.56
244.465	380.56
244.699	401.56
244.932	439.56
245.166	489.56
245.399	472.56
245.633	441.56
245.866	444.56
246.099	452.56
246.333	469.56
246.566	480.56
246.8	532.56
247.033	542.56
247.266	515.56
247.5	519.56
247.733	528.56
247.966	536.56
248.2	582.56
248.433	569.56
248.666	612.56
248.899	672.56
249.133	705.56
249.366	779.56
249.599	677.56
249.832	589.56
250.066	634.56
250.299	576.56
250.532	589.56
250.765	540.56
250.998	541.56
251.231	571.56
251.465	588.56
251.698	570.56
251.931	595.56
252.164	566.56
252.397	588.56
252.63	586.56
252.863	530.56
253.096	524.56
253.329	545.56
253.562	569.56
253.795	616.56
254.028	595.56
254.261	580.56
254.494	557.56
254.727	534.56
254.96	568.56
255.193	632.56
255.426	684.56
255.659	741.56
255.892	754.56
256.124	637.56
256.357	618.56
256.59	683.56
256.823	677.56
257.056	665.56
257.289	776.56
257.521	829.56
257.754	781.56
257.987	747.56
258.22	822.56
258.452	784.56
258.685	666.56
258.918	651.56
259.151	656.56
259.383	602.56
259.616	557.56
259.849	604.56
260.081	679.56
260.314	722.56
260.547	792.56
260.779	783.56
261.012	729.56
261.244	682.56
261.477	651.56
261.71	659.56
261.942	641.56
262.175	656.56
262.407	686.56
262.64	640.56
262.872	619.56
263.105	598.56
263.337	606.56
263.57	614.56
263.802	613.56
264.035	577.56
264.267	590.56
264.499	566.56
264.732	588.56
264.964	630.56
265.197	663.56
265.429	676.56
265.661	749.56
265.894	832.56
266.126	832.56
266.358	789.56
266.591	780.56
266.823	840.56
267.055	753.56
267.287	757.56
267.52	749.56
267.752	737.56
267.984	758.56
268.216	794.56
268.448	779.56
268.681	778.56
268.913	708.56
269.145	652.56
269.377	673.56
269.609	727.56
269.841	857.56
270.073	980.56
270.306	1064.56
270.538	1053.56
270.77	898.56
271.002	824.56
271.234	784.56
271.466	776.56
271.698	881.56
271.93	995.56
272.162	1010.56
272.394	924.56
272.626	865.56
272.858	782.56
273.09	694.56
273.322	690.56
273.553	652.56
273.785	670.56
274.017	682.56
274.249	754.56
274.481	729.56
274.713	708.56
274.945	679.56
275.176	674.56
275.408	692.56
275.64	663.56
275.872	675.56
276.104	681.56
276.335	821.56
276.567	880.56
276.799	895.56
277.031	819.56
277.262	764.56
277.494	833.56
277.726	860.56
277.957	851.56
278.189	777.56
278.421	734.56
278.652	698.56
278.884	706.56
279.115	705.56
279.347	725.56
279.579	712.56
279.81	719.56
280.042	800.56
280.273	860.56
280.505	856.56
280.736	853.56
280.968	826.56
281.199	722.56
281.431	680.56
281.662	713.56
281.894	702.56
282.125	721.56
282.356	740.56
282.588	750.56
282.819	769.56
283.051	792.56
283.282	824.56
283.513	835.56
283.745	746.56
283.976	705.56
284.207	729.56
284.439	717.56
284.67	741.56
284.901	761.56
285.132	761.56
285.364	767.56
285.595	745.56
285.826	736.56
286.057	738.56
286.288	760.56
286.52	793.56
286.751	829.56
286.982	828.56
287.213	780.56
287.444	711.56
287.675	722.56
287.906	758.56
288.138	804.56
288.369	778.56
288.6	744.56
288.831	722.56
289.062	714.56
289.293	722.56
289.524	784.56
289.755	793.56
289.986	791.56
290.217	711.56
290.448	743.56
290.679	778.56
290.91	775.56
291.141	758.56
291.371	799.56
291.602	803.56
291.833	808.56
292.064	789.56
292.295	816.56
292.526	816.56
292.757	859.56
292.987	837.56
293.218	782.56
293.449	864.56
293.68	963.56
293.91	988.56
294.141	913.56
294.372	887.56
294.603	928.56
294.833	923.56
295.064	888.56
295.295	810.56
295.525	784.56
295.756	726.56
295.987	711.56
296.217	749.56
296.448	764.56
296.679	746.56
296.909	759.56
297.14	782.56
297.37	784.56
297.601	809.56
297.831	880.56
298.062	864.56
298.292	776.56
298.523	768.56
298.753	779.56
298.984	776.56
299.214	796.56
299.445	824.56
299.675	813.56
299.905	834.56
300.136	813.56
300.366	758.56
300.597	738.56
300.827	771.56
301.057	811.56
301.288	842.56
301.518	855.56
301.748	865.56
301.979	886.56
302.209	907.56
302.439	965.56
302.669	980.56
302.9	907.56
303.13	840.56
303.36	839.56
303.59	853.56
303.82	856.56
304.051	849.56
304.281	830.56
304.511	843.56
304.741	939.56
304.971	993.56
305.201	1035.56
305.431	969.56
305.661	810.56
305.891	721.56
306.121	774.56
306.352	811.56
306.582	837.56
306.812	863.56
307.042	944.56
307.272	962.56
307.502	983.56
307.731	1058.56
307.961	1058.56
308.191	970.56
308.421	881.56
308.651	836.56
308.881	830.56
309.111	808.56
309.341	799.56
309.571	806.56
309.8	817.56
310.03	788.56
310.26	811.56
310.49	800.56
310.72	843.56
310.949	850.56
311.179	841.56
311.409	846.56
311.639	833.56
311.868	834.56
312.098	829.56
312.328	840.56
312.557	817.56
312.787	837.56
313.017	853.56
313.246	849.56
313.476	853.56
313.706	886.56
313.935	876.56
314.165	870.56
314.394	936.56
314.624	952.56
314.853	1028.56
315.083	1017.56
315.312	1028.56
315.542	945.56
315.771	888.56
316.001	908.56
316.23	922.56
316.46	909.56
316.689	932.56
316.919	869.56
317.148	855.56
317.377	874.56
317.607	953.56
317.836	1015.56
318.065	1046.56
318.295	994.56
318.524	963.56
318.753	931.56
318.983	936.56
319.212	879.56
319.441	888.56
319.67	894.56
319.9	931.56
320.129	973.56
320.358	1017.56
320.587	1008.56
320.816	994.56
321.046	971.56
321.275	950.56
321.504	978.56
321.733	1032.56
321.962	957.56
322.191	928.56
322.42	900.56
322.649	933.56
322.878	902.56
323.108	919.56
323.337	940.56
323.566	928.56
323.795	909.56
324.024	959.56
324.253	910.56
324.482	912.56
324.71	878.56
324.939	865.56
325.168	878.56
325.397	883.56
325.626	938.56
325.855	942.56
326.084	904.56
326.313	921.56
326.542	952.56
326.77	968.56
326.999	937.56
327.228	899.56
327.457	895.56
327.686	845.56
327.914	900.56
328.143	902.56
328.372	916.56
328.6	896.56
328.829	928.56
329.058	892.56
329.287	906.56
329.515	940.56
329.744	920.56
329.972	1004.56
330.201	1056.56
330.43	999.56
330.658	968.56
330.887	960.56
331.115	961.56
331.344	963.56
331.572	944.56
331.801	965.56
332.03	969.56
332.258	974.56
332.486	958.56
332.715	1005.56
332.943	980.56
333.172	948.56
333.4	969.56
333.629	1003.56
333.857	1100.56
334.085	1210.56
334.314	1345.56
334.542	1372.56
334.771	1242.56
334.999	1093.56
335.227	1063.56
335.455	1018.56
335.684	1036.56
335.912	1066.56
336.14	1073.56
336.369	1050.56
336.597	1010.56
336.825	979.56
337.053	1019.56
337.281	1064.56
337.51	1126.56
337.738	1127.56
337.966	1091.56
338.194	995.56
338.422	981.56
338.65	979.56
338.878	950.56
339.106	920.56
339.334	912.56
339.562	908.56
339.79	940.56
340.018	986.56
340.246	1028.56
340.474	997.56
340.702	1006.56
340.93	1025.56
341.158	997.56
341.386	978.56
341.614	985.56
341.842	948.56
342.07	956.56
342.298	974.56
342.526	976.56
342.754	961.56
342.981	978.56
343.209	944.56
343.437	957.56
343.665	973.56
343.893	1004.56
344.12	1011.56
344.348	1030.56
344.576	966.56
344.804	947.56
345.031	954.56
345.259	940.56
345.487	967.56
345.714	898.56
345.942	886.56
346.17	927.56
346.397	941.56
346.625	963.56
346.853	877.56
347.08	865.56
347.308	914.56
347.535	906.56
347.763	926.56
347.99	919.56
348.218	871.56
348.445	902.56
348.673	891.56
348.9	924.56
349.128	994.56
349.355	977.56
349.583	955.56
349.81	932.56
350.037	848.56
350.265	859.56
350.492	871.56
350.72	929.56
350.947	926.56
351.174	929.56
351.402	884.56
351.629	858.56
351.856	839.56
352.083	848.56
352.311	861.56
352.538	877.56
352.765	909.56
352.992	920.56
353.22	892.56
353.447	887.56
353.674	912.56
353.901	916.56
354.128	885.56
354.355	880.56
354.583	952.56
354.81	914.56
355.037	952.56
355.264	917.56
355.491	910.56
355.718	915.56
355.945	920.56
356.172	880.56
356.399	874.56
356.626	896.56
356.853	914.56
357.08	1012.56
357.307	1047.56
357.534	1038.56
357.761	917.56
357.988	874.56
358.215	871.56
358.441	865.56
358.668	885.56
358.895	898.56
359.122	941.56
359.349	1015.56
359.576	1003.56
359.802	923.56
360.029	857.56
360.256	872.56
360.483	894.56
360.709	937.56
360.936	961.56
361.163	1005.56
361.39	1104.56
361.616	1148.56
361.843	1152.56
362.07	1032.56
362.296	919.56
362.523	865.56
362.749	911.56
362.976	925.56
363.203	938.56
363.429	906.56
363.656	856.56
363.882	928.56
364.109	1042.56
364.335	1050.56
364.562	995.56
364.788	957.56
365.015	926.56
365.241	883.56
365.468	945.56
365.694	970.56
365.92	981.56
366.147	909.56
366.373	901.56
366.599	897.56
366.826	879.56
367.052	897.56
367.278	901.56
367.505	950.56
367.731	937.56
367.957	954.56
368.184	964.56
368.41	1012.56
368.636	1014.56
368.862	1043.56
369.089	1044.56
369.315	998.56
369.541	974.56
369.767	936.56
369.993	907.56
370.219	931.56
370.445	922.56
370.672	1013.56
370.898	1016.56
371.124	1042.56
371.35	972.56
371.576	1044.56
371.802	1008.56
372.028	966.56
372.254	952.56
372.48	907.56
372.706	932.56
372.932	944.56
373.158	935.56
373.384	963.56
373.61	1001.56
373.835	1004.56
374.061	969.56
374.287	973.56
374.513	968.56
374.739	981.56
374.965	988.56
375.191	977.56
375.416	1016.56
375.642	1004.56
375.868	1046.56
376.094	1086.56
376.319	1012.56
376.545	974.56
376.771	1012.56
376.997	1078.56
377.222	1070.56
377.448	1021.56
377.674	1016.56
377.899	1018.56
378.125	1113.56
378.35	1065.56
378.576	992.56
378.802	933.56
379.027	965.56
379.253	957.56
379.478	958.56
379.704	981.56
379.929	993.56
380.155	949.56
380.38	973.56
380.606	989.56
380.831	994.56
381.057	1058.56
381.282	1040.56
381.507	1050.56
381.733	1109.56
381.958	1089.56
382.184	1058.56
382.409	1002.56
382.634	1011.56
382.86	1051.56
383.085	1037.56
383.31	1082.56
383.535	1145.56
383.761	1187.56
383.986	1147.56
384.211	1096.56
384.436	1107.56
384.662	1185.56
384.887	1176.56
385.112	1135.56
385.337	1113.56
385.562	1091.56
385.787	1111.56
386.013	1156.56
386.238	1164.56
386.463	1132.56
386.688	1248.56
386.913	1286.56
387.138	1250.56
387.363	1168.56
387.588	1153.56
387.813	1142.56
388.038	1174.56
388.263	1181.56
388.488	1139.56
388.713	1075.56
388.938	1075.56
389.163	1074.56
389.387	1109.56
389.612	1124.56
389.837	1116.56
390.062	1134.56
390.287	1127.56
390.512	1087.56
390.736	1111.56
390.961	1085.56
391.186	1084.56
391.411	1097.56
391.636	1118.56
391.86	1086.56
392.085	1122.56
392.31	1100.56
392.534	1096.56
392.759	1143.56
392.984	1093.56
393.208	1121.56
393.433	1139.56
393.658	1188.56
393.882	1197.56
394.107	1114.56
394.331	1114.56
394.556	1119.56
394.78	1146.56
395.005	1185.56
395.229	1221.56
395.454	1253.56
395.678	1233.56
395.903	1232.56
396.127	1202.56
396.352	1215.56
396.576	1222.56
396.801	1238.56
397.025	1268.56
397.249	1229.56
397.474	1187.56
397.698	1179.56
397.922	1236.56
398.147	1314.56
398.371	1344.56
398.595	1314.56
398.82	1275.56
399.044	1339.56
399.268	1371.56
399.492	1446.56
399.717	1456.56
399.941	1471.56
400.165	1430.56
400.389	1422.56
400.613	1437.56
400.837	1626.56
401.062	1767.56
401.286	1510.56
401.51	1417.56
401.734	1429.56
401.958	1401.56
402.182	1289.56
402.406	1255.56
402.63	1243.56
402.854	1232.56
403.078	1284.56
403.302	1285.56
403.526	1312.56
403.75	1341.56
403.974	1336.56
404.198	1333.56
404.422	1412.56
404.645	1468.56
404.869	1396.56
405.093	1298.56
405.317	1256.56
405.541	1356.56
405.765	1334.56
405.988	1355.56
406.212	1352.56
406.436	1366.56
406.66	1435.56
406.883	1478.56
407.107	1653.56
407.331	1758.56
407.555	1833.56
407.778	1650.56
408.002	1416.56
408.226	1402.56
408.449	1404.56
408.673	1382.56
408.896	1395.56
409.12	1401.56
409.344	1360.56
409.567	1304.56
409.791	1342.56
410.014	1355.56
410.238	1458.56
410.461	1516.56
410.685	1388.56
410.908	1292.56
411.132	1330.56
411.355	1300.56
411.578	1304.56
411.802	1305.56
412.025	1343.56
412.249	1345.56
412.472	1278.56
412.695	1297.56
412.919	1253.56
413.142	1254.56
413.365	1322.56
413.589	1345.56
413.812	1385.56
414.035	1417.56
414.258	1312.56
414.482	1300.56
414.705	1313.56
414.928	1276.56
415.151	1280.56
415.374	1288.56
415.597	1309.56
415.821	1284.56
416.044	1328.56
416.267	1323.56
416.49	1249.56
416.713	1269.56
416.936	1302.56
417.159	1321.56
417.382	1351.56
417.605	1281.56
417.828	1312.56
418.051	1302.56
418.274	1296.56
418.497	1281.56
418.72	1253.56
418.943	1270.56
419.166	1316.56
419.389	1346.56
419.611	1311.56
419.834	1302.56
420.057	1284.56
420.28	1268.56
420.503	1253.56
420.726	1297.56
420.948	1342.56
421.171	1287.56
421.394	1270.56
421.617	1315.56
421.839	1286.56
422.062	1351.56
422.285	1269.56
422.507	1259.56
422.73	1232.56
422.953	1222.56
423.175	1161.56
423.398	1259.56
423.621	1235.56
423.843	1236.56
424.066	1304.56
424.288	1388.56
424.511	1408.56
424.733	1324.56
424.956	1234.56
425.178	1237.56
425.401	1244.56
425.623	1248.56
425.846	1259.56
426.068	1254.56
426.291	1289.56
426.513	1293.56
426.735	1277.56
426.958	1435.56
427.18	1485.56
427.402	1359.56
427.625	1364.56
427.847	1322.56
428.069	1268.56
428.292	1249.56
428.514	1216.56
428.736	1210.56
428.958	1211.56
429.181	1240.56
429.403	1425.56
429.625	1762.56
429.847	1424.56
430.069	1266.56
430.292	1408.56
430.514	1433.56
430.736	1341.56
430.958	1348.56
431.18	1261.56
431.402	1185.56
431.624	1177.56
431.846	1184.56
432.068	1144.56
432.29	1170.56
432.512	1128.56
432.734	1192.56
432.956	1276.56
433.178	1325.56
433.4	1302.56
433.622	1310.56
433.844	1205.56
434.066	1205.56
434.287	1179.56
434.509	1225.56
434.731	1256.56
434.953	1323.56
435.175	1292.56
435.397	1280.56
435.618	1261.56
435.84	1216.56
436.062	1181.56
436.284	1247.56
436.505	1328.56
436.727	1307.56
436.949	1253.56
437.17	1203.56
437.392	1245.56
437.614	1202.56
437.835	1169.56
438.057	1226.56
438.278	1267.56
438.5	1225.56
438.721	1187.56
438.943	1198.56
439.165	1205.56
439.386	1209.56
439.608	1246.56
439.829	1209.56
440.05	1222.56
440.272	1228.56
440.493	1229.56
440.715	1243.56
440.936	1329.56
441.158	1428.56
441.379	1365.56
441.6	1352.56
441.822	1324.56
442.043	1293.56
442.264	1269.56
442.486	1237.56
442.707	1230.56
442.928	1236.56
443.149	1249.56
443.371	1324.56
443.592	1337.56
443.813	1386.56
444.034	1355.56
444.255	1341.56
444.476	1343.56
444.698	1394.56
444.919	1349.56
445.14	1456.56
445.361	1416.56
445.582	1431.56
445.803	1370.56
446.024	1364.56
446.245	1360.56
446.466	1345.56
446.687	1312.56
446.908	1318.56
447.129	1289.56
447.35	1252.56
447.571	1274.56
447.792	1210.56
448.013	1225.56
448.234	1257.56
448.455	1294.56
448.675	1327.56
448.896	1225.56
449.117	1157.56
449.338	1217.56
449.559	1274.56
449.779	1329.56
450	1397.56
450.221	1461.56
450.442	1401.56
450.662	1264.56
450.883	1166.56
451.104	1148.56
451.324	1208.56
451.545	1186.56
451.766	1182.56
451.986	1105.56
452.207	1117.56
452.428	1070.56
452.648	1080.56
452.869	1109.56
453.089	1098.56
453.31	1101.56
453.53	1116.56
453.751	1081.56
453.971	1080.56
454.192	1097.56
454.412	1140.56
454.633	1099.56
454.853	1098.56
455.073	1030.56
455.294	1038.56
455.514	1048.56
455.734	1049.56
455.955	1077.56
456.175	1087.56
456.395	1051.56
456.616	1083.56
456.836	1091.56
457.056	1065.56
457.276	1069.56
457.497	1028.56
457.717	980.56
457.937	1005.56
458.157	1059.56
458.377	1019.56
458.598	995.56
458.818	1052.56
459.038	1110.56
459.258	1139.56
459.478	1114.56
459.698	1089.56
459.918	1143.56
460.138	1165.56
460.358	1218.56
460.578	1212.56
460.798	1290.56
461.018	1291.56
461.238	1242.56
461.458	1250.56
461.678	1231.56
461.898	1214.56
462.118	1176.56
462.338	1236.56
462.558	1221.56
462.777	1280.56
462.997	1277.56
463.217	1323.56
463.437	1300.56
463.657	1242.56
463.876	1229.56
464.096	1227.56
464.316	1238.56
464.536	1306.56
464.755	1267.56
464.975	1280.56
465.195	1277.56
465.414	1297.56
465.634	1276.56
465.854	1272.56
466.073	1381.56
466.293	1328.56
466.512	1164.56
466.732	1172.56
466.951	1217.56
467.171	1219.56
467.391	1189.56
467.61	1159.56
467.829	1212.56
468.049	1350.56
468.268	1422.56
468.488	1300.56
468.707	1229.56
468.927	1227.56
469.146	1195.56
469.365	1221.56
469.585	1213.56
469.804	1215.56
470.023	1221.56
470.243	1227.56
470.462	1211.56
470.681	1176.56
470.901	1210.56
471.12	1194.56
471.339	1229.56
471.558	1156.56
471.777	1170.56
471.997	1202.56
472.216	1162.56
472.435	1129.56
472.654	1112.56
472.873	1133.56
473.092	1197.56
473.311	1208.56
473.53	1124.56
473.749	1130.56
473.968	1165.56
474.187	1182.56
474.406	1217.56
474.625	1159.56
474.844	1227.56
475.063	1226.56
475.282	1206.56
475.501	1185.56
475.72	1163.56
475.939	1270.56
476.158	1191.56
476.377	1204.56
476.596	1182.56
476.814	1176.56
477.033	1192.56
477.252	1265.56
477.471	1321.56
477.69	1282.56
477.908	1246.56
478.127	1316.56
478.346	1399.56
478.564	1425.56
478.783	1407.56
479.002	1439.56
479.22	1407.56
479.439	1440.56
479.658	1553.56
479.876	1547.56
480.095	1357.56
480.313	1330.56
480.532	1294.56
480.751	1311.56
480.969	1260.56
481.188	1252.56
481.406	1237.56
481.624	1192.56
481.843	1211.56
482.061	1269.56
482.28	1285.56
482.498	1299.56
482.717	1290.56
482.935	1284.56
483.153	1345.56
483.372	1354.56
483.59	1307.56
483.808	1324.56
484.027	1321.56
484.245	1411.56
484.463	1718.56
484.681	1812.56
484.9	1424.56
485.118	1355.56
485.336	1293.56
485.554	1338.56
485.772	1392.56
485.99	1339.56
486.209	1383.56
486.427	1357.56
486.645	1376.56
486.863	1378.56
487.081	1418.56
487.299	1433.56
487.517	1429.56
487.735	1401.56
487.953	1482.56
488.171	1464.56
488.389	1469.56
488.607	1435.56
488.825	1559.56
489.043	1554.56
489.261	1398.56
489.479	1451.56
489.696	1470.56
489.914	1454.56
490.132	1399.56
490.35	1436.56
490.568	1511.56
490.786	1482.56
491.003	1460.56
491.221	1523.56
491.439	1555.56
491.657	1593.56
491.874	1577.56
492.092	1642.56
492.31	1684.56
492.527	1632.56
492.745	1604.56
492.963	1543.56
493.18	1597.56
493.398	1690.56
493.615	1675.56
493.833	1552.56
494.05	1551.56
494.268	1534.56
494.485	1548.56
494.703	1527.56
494.92	1529.56
495.138	1497.56
495.355	1522.56
495.573	1613.56
495.79	1688.56
496.008	1645.56
496.225	1560.56
496.442	1565.56
496.66	1598.56
496.877	1564.56
497.094	1609.56
497.312	1599.56
497.529	1581.56
497.746	1609.56
497.963	1844.56
498.181	1944.56
498.398	1874.56
498.615	1813.56
498.832	1690.56
499.049	1720.56
499.267	1730.56
499.484	1865.56
499.701	1980.56
499.918	2008.56
500.135	2148.56
500.352	2281.56
500.569	2293.56
500.786	2480.56
501.003	2282.56
501.22	2064.56
501.437	2064.56
501.654	2040.56
501.871	1969.56
502.088	1740.56
502.305	1734.56
502.522	1659.56
502.739	1576.56
502.956	1512.56
503.172	1497.56
503.389	1508.56
503.606	1486.56
503.823	1465.56
504.04	1451.56
504.256	1464.56
504.473	1489.56
504.69	1494.56
504.907	1423.56
505.123	1381.56
505.34	1504.56
505.557	1933.56
505.773	1588.56
505.99	1378.56
506.207	1303.56
506.423	1272.56
506.64	1278.56
506.856	1289.56
507.073	1456.56
507.289	1610.56
507.506	1459.56
507.722	1272.56
507.939	1217.56
508.155	1248.56
508.372	1231.56
508.588	1189.56
508.805	1145.56
509.021	1146.56
509.238	1170.56
509.454	1109.56
509.67	1138.56
509.887	1116.56
510.103	1080.56
510.319	1129.56
510.536	1181.56
510.752	1221.56
510.968	1202.56
511.184	1270.56
511.401	1223.56
511.617	1113.56
511.833	1066.56
512.049	1112.56
512.265	1078.56
512.481	1059.56
512.698	1150.56
512.914	1184.56
513.13	1141.56
513.346	1101.56
513.562	1062.56
513.778	1109.56
513.994	1177.56
514.21	1169.56
514.426	1216.56
514.642	1261.56
514.858	1203.56
515.074	1141.56
515.29	1132.56
515.506	1164.56
515.721	1145.56
515.937	1197.56
516.153	1268.56
516.369	1217.56
516.585	1172.56
516.801	1140.56
517.016	1134.56
517.232	1153.56
517.448	1176.56
517.664	1251.56
517.879	1192.56
518.095	1282.56
518.311	1220.56
518.527	1146.56
518.742	1128.56
518.958	1132.56
519.173	1119.56
519.389	1123.56
519.605	1141.56
519.82	1184.56
520.036	1146.56
520.251	1125.56
520.467	1171.56
520.682	1203.56
520.898	1212.56
521.113	1117.56
521.329	1081.56
521.544	1186.56
521.76	1106.56
521.975	1083.56
522.19	1060.56
522.406	1091.56
522.621	1366.56
522.836	1319.56
523.052	1087.56
523.267	1079.56
523.482	1060.56
523.698	1046.56
523.913	1052.56
524.128	1068.56
524.343	1125.56
524.559	1126.56
524.774	1059.56
524.989	1049.56
525.204	1057.56
525.419	1037.56
525.634	1057.56
525.849	1069.56
526.064	1057.56
526.28	1045.56
526.495	1000.56
526.71	980.56
526.925	973.56
527.14	973.56
527.355	991.56
527.57	969.56
527.785	989.56
527.999	987.56
528.214	958.56
528.429	997.56
528.644	996.56
528.859	1059.56
529.074	1079.56
529.289	1113.56
529.503	1101.56
529.718	1048.56
529.933	1022.56
530.148	979.56
530.363	960.56
530.577	964.56
530.792	953.56
531.007	974.56
531.221	988.56
531.436	979.56
531.651	1005.56
531.865	1037.56
532.08	1016.56
532.295	925.56
532.509	933.56
532.724	955.56
532.938	992.56
533.153	1039.56
533.367	1041.56
533.582	1042.56
533.796	1035.56
534.011	1006.56
534.225	996.56
534.44	960.56
534.654	966.56
534.868	950.56
535.083	1006.56
535.297	1038.56
535.511	1003.56
535.726	985.56
535.94	969.56
536.154	973.56
536.369	936.56
536.583	913.56
536.797	918.56
537.011	918.56
537.225	925.56
537.44	911.56
537.654	962.56
537.868	934.56
538.082	908.56
538.296	876.56
538.51	885.56
538.724	944.56
538.938	944.56
539.153	986.56
539.367	969.56
539.581	954.56
539.795	954.56
540.009	936.56
540.222	940.56
540.436	942.56
540.65	1038.56
540.864	1080.56
541.078	1040.56
541.292	1010.56
541.506	1081.56
541.72	1091.56
541.934	1146.56
542.147	1162.56
542.361	1137.56
542.575	1057.56
542.789	1008.56
543.002	955.56
543.216	941.56
543.43	1004.56
543.644	1031.56
543.857	1122.56
544.071	1076.56
544.285	1091.56
544.498	1063.56
544.712	1054.56
544.925	1110.56
545.139	1098.56
545.352	1080.56
545.566	1047.56
545.779	1024.56
545.993	1038.56
546.206	1066.56
546.42	1074.56
546.633	1018.56
546.847	1080.56
547.06	1036.56
547.274	1061.56
547.487	1090.56
547.7	1100.56
547.914	1061.56
548.127	1077.56
548.34	1093.56
548.554	1082.56
548.767	1062.56
548.98	1056.56
549.193	1056.56
549.407	1104.56
549.62	1062.56
549.833	1029.56
550.046	1037.56
550.259	1035.56
550.473	1004.56
550.686	997.56
550.899	983.56
551.112	967.56
551.325	971.56
551.538	1009.56
551.751	1147.56
551.964	925.56
552.177	900.56
552.39	940.56
552.603	983.56
552.816	997.56
553.029	1055.56
553.242	1041.56
553.455	1049.56
553.667	1020.56
553.88	1028.56
554.093	1022.56
554.306	958.56
554.519	943.56
554.732	941.56
554.944	946.56
555.157	967.56
555.37	938.56
555.583	920.56
555.795	893.56
556.008	898.56
556.221	878.56
556.433	868.56
556.646	873.56
556.859	878.56
557.071	876.56
557.284	893.56
557.496	859.56
557.709	841.56
557.921	854.56
558.134	841.56
558.346	898.56
558.559	846.56
558.771	855.56
558.984	813.56
559.196	816.56
559.409	809.56
559.621	800.56
559.833	822.56
560.046	809.56
560.258	828.56
560.47	810.56
560.683	813.56
560.895	808.56
561.107	804.56
561.32	836.56
561.532	824.56
561.744	802.56
561.956	780.56
562.168	784.56
562.381	764.56
562.593	776.56
562.805	790.56
563.017	783.56
563.229	795.56
563.441	774.56
563.653	779.56
563.865	772.56
564.077	769.56
564.289	756.56
564.501	763.56
564.713	802.56
564.925	824.56
565.137	898.56
565.349	807.56
565.561	787.56
565.773	795.56
565.985	822.56
566.197	834.56
566.408	880.56
566.62	902.56
566.832	893.56
567.044	870.56
567.255	886.56
567.467	880.56
567.679	874.56
567.891	917.56
568.102	861.56
568.314	827.56
568.526	776.56
568.737	745.56
568.949	720.56
569.161	700.56
569.372	690.56
569.584	669.56
569.795	684.56
570.007	673.56
570.218	652.56
570.43	646.56
570.641	644.56
570.853	648.56
571.064	648.56
571.276	646.56
571.487	645.56
571.698	625.56
571.91	628.56
572.121	642.56
572.333	599.56
572.544	607.56
572.755	586.56
572.966	591.56
573.178	581.56
573.389	572.56
573.6	585.56
573.811	626.56
574.023	590.56
574.234	574.56
574.445	570.56
574.656	549.56
574.867	549.56
575.078	576.56
575.289	553.56
575.501	554.56
575.712	556.56
575.923	553.56
576.134	568.56
576.345	557.56
576.556	539.56
576.767	541.56
576.978	517.56
577.188	533.56
577.399	522.56
577.61	521.56
577.821	512.56
578.032	518.56
578.243	503.56
578.454	509.56
578.665	502.56
578.875	495.56
579.086	481.56
579.297	481.56
579.508	520.56
579.718	520.56
579.929	517.56
580.14	477.56
580.35	478.56
580.561	505.56
580.772	540.56
580.982	499.56
581.193	485.56
581.403	477.56
581.614	479.56
581.825	486.56
582.035	452.56
582.246	481.56
582.456	484.56
582.667	491.56
582.877	466.56
583.087	470.56
583.298	470.56
583.508	482.56
583.719	457.56
583.929	451.56
584.139	457.56
584.35	433.56
584.56	475.56
584.77	454.56
584.981	456.56
585.191	467.56
585.401	458.56
585.611	451.56
585.821	449.56
586.032	445.56
586.242	445.56
586.452	440.56
586.662	444.56
586.872	463.56
587.082	429.56
587.292	471.56
587.502	458.56
587.713	469.56
587.923	438.56
588.133	439.56
588.343	446.56
588.553	455.56
588.762	446.56
588.972	427.56
589.182	449.56
589.392	455.56
589.602	453.56
589.812	458.56
590.022	414.56
590.232	433.56
590.441	454.56
590.651	436.56
590.861	427.56
591.071	416.56
591.281	448.56
591.49	422.56
591.7	438.56
591.91	432.56
592.119	436.56
592.329	439.56
592.539	454.56
592.748	444.56
592.958	439.56
593.167	435.56
593.377	454.56
593.587	453.56
593.796	472.56
594.006	452.56
594.215	475.56
594.424	466.56
594.634	462.56
594.843	445.56
595.053	477.56
595.262	444.56
595.472	450.56
595.681	437.56
595.89	436.56
596.1	417.56
596.309	423.56
596.518	442.56
596.727	419.56
596.937	420.56
597.146	393.56
597.355	407.56
597.564	406.56
597.774	418.56
597.983	388.56
598.192	399.56
598.401	368.56
598.61	379.56
598.819	397.56
599.028	401.56
599.237	403.56
599.446	392.56
599.655	390.56
599.864	384.56
600.073	383.56
600.282	386.56
600.491	376.56
600.7	363.56
600.909	385.56
601.118	389.56
601.327	403.56
601.536	420.56
601.745	397.56
601.953	411.56
602.162	411.56
602.371	403.56
602.58	420.56
602.789	415.56
602.997	406.56
603.206	410.56
603.415	399.56
603.623	403.56
603.832	405.56
604.041	386.56
604.249	382.56
604.458	371.56
604.666	379.56
604.875	377.56
605.084	398.56
605.292	399.56
605.501	389.56
605.709	394.56
605.918	401.56
606.126	388.56
606.334	408.56
606.543	384.56
606.751	404.56
606.96	404.56
607.168	382.56
607.376	406.56
607.585	374.56
607.793	423.56
608.001	390.56
608.21	388.56
608.418	396.56
608.626	374.56
608.834	384.56
609.043	379.56
609.251	408.56
609.459	393.56
609.667	392.56
609.875	410.56
610.083	410.56
610.291	394.56
610.499	412.56
610.707	406.56
610.916	396.56
611.124	399.56
611.332	394.56
611.54	384.56
611.748	412.56
611.955	394.56
612.163	379.56
612.371	384.56
612.579	378.56
612.787	402.56
612.995	377.56
613.203	406.56
613.411	392.56
613.618	384.56
613.826	391.56
614.034	370.56
614.242	391.56
614.449	363.56
614.657	386.56
614.865	382.56
615.072	383.56
615.28	384.56
615.488	410.56
615.695	425.56
615.903	413.56
616.111	389.56
616.318	381.56
616.526	378.56
616.733	368.56
616.941	398.56
617.148	379.56
617.356	370.56
617.563	375.56
617.771	361.56
617.978	373.56
618.185	376.56
618.393	371.56
618.6	385.56
618.807	386.56
619.015	374.56
619.222	368.56
619.429	360.56
619.637	346.56
619.844	337.56
620.051	348.56
620.258	341.56
620.466	334.56
620.673	348.56
620.88	327.56
621.087	351.56
621.294	336.56
621.501	338.56
621.708	349.56
621.915	343.56
622.122	368.56
622.329	354.56
622.536	344.56
622.743	356.56
622.95	353.56
623.157	329.56
623.364	341.56
623.571	331.56
623.778	345.56
623.985	354.56
624.192	347.56
624.399	346.56
624.606	341.56
624.812	338.56
625.019	333.56
625.226	328.56
625.433	346.56
625.639	331.56
625.846	301.56
626.053	304.56
626.259	293.56
626.466	288.56
626.673	288.56
626.879	290.56
627.086	307.56
627.293	284.56
627.499	301.56
627.706	333.56
627.912	334.56
628.119	302.56
628.325	318.56
628.532	318.56
628.738	307.56
628.945	339.56
629.151	311.56
629.357	308.56
629.564	301.56
629.77	298.56
629.976	305.56
630.183	310.56
630.389	300.56
630.595	316.56
630.802	311.56
631.008	313.56
631.214	306.56
631.42	293.56
631.627	277.56
631.833	285.56
632.039	294.56
632.245	289.56
632.451	284.56
632.657	278.56
632.863	286.56
633.069	282.56
633.275	296.56
633.481	268.56
633.688	284.56
633.893	285.56
634.099	282.56
634.305	279.56
634.511	285.56
634.717	272.56
634.923	265.56
635.129	273.56
635.335	261.56
635.541	276.56
635.747	280.56
635.952	276.56
636.158	257.56
636.364	278.56
636.57	277.56
636.775	278.56
636.981	298.56
637.187	276.56
637.392	269.56
637.598	286.56
637.804	263.56
638.009	258.56
638.215	276.56
638.421	279.56
638.626	266.56
638.832	283.56
639.037	283.56
639.243	267.56
639.448	270.56
639.654	266.56
639.859	257.56
640.065	272.56
640.27	273.56
640.475	264.56
640.681	246.56
640.886	274.56
641.091	243.56
641.297	248.56
641.502	256.56
641.707	249.56
641.913	268.56
642.118	267.56
642.323	264.56
642.528	269.56
642.733	267.56
642.939	257.56
643.144	254.56
643.349	277.56
643.554	258.56
643.759	246.56
643.964	266.56
644.169	262.56
644.374	260.56
644.579	270.56
644.784	262.56
644.989	234.56
645.194	247.56
645.399	261.56
645.604	249.56
645.809	254.56
646.014	258.56
646.219	264.56
646.423	253.56
646.628	270.56
646.833	246.56
647.038	247.56
647.243	258.56
647.447	259.56
647.652	242.56
647.857	240.56
648.062	253.56
648.266	248.56
648.471	263.56
648.676	271.56
648.88	235.56
649.085	252.56
649.289	264.56
649.494	258.56
649.698	229.56
649.903	261.56
650.107	251.56
650.312	245.56
650.516	228.56
650.721	238.56
650.925	254.56
651.13	250.56
651.334	252.56
651.539	237.56
651.743	222.56
651.947	228.56
652.152	237.56
652.356	223.56
652.56	212.56
652.764	225.56
652.969	211.56
653.173	205.56
653.377	211.56
653.581	215.56
653.785	205.56
653.99	218.56
654.194	234.56
654.398	214.56
654.602	224.56
654.806	202.56
655.01	208.56
655.214	214.56
655.418	219.56
655.622	233.56
655.826	215.56
656.03	245.56
656.234	238.56
656.438	242.56
656.642	256.56
656.846	239.56
657.049	232.56
657.253	206.56
657.457	193.56
657.661	173.56
657.865	184.56
658.068	166.56
658.272	160.56
658.476	154.56
658.68	163.56
658.883	155.56
659.087	151.56
659.291	141.56
659.494	130.56
659.698	138.56
659.901	141.56
660.105	142.56
660.309	121.56
660.512	123.56
660.716	120.56
660.919	115.56
661.123	123.56
661.326	97.56
661.53	119.56
661.733	122.56
661.936	108.56
662.14	94.56
662.343	90.56
662.546	91.56
662.75	103.56
662.953	89.56
663.156	96.56
663.36	92.56
663.563	95.56
663.766	97.56
663.969	82.56
664.173	77.56
664.376	86.56
664.579	89.56
664.782	90.56
664.985	80.56
665.188	93.56
665.391	97.56
665.594	85.56
665.797	71.56
666	79.56
666.203	92.56
666.406	75.56
666.609	86.56
666.812	74.56
667.015	95.56
667.218	82.56
667.421	68.56
667.624	82.56
667.827	85.56
668.03	81.56
668.232	84.56
668.435	93.56
668.638	92.56
668.841	81.56
669.043	84.56
669.246	92.56
669.449	89.56
669.651	78.56
669.854	71.56
670.057	85.56
670.259	87.56
670.462	78.56
670.665	85.56
670.867	84.56
671.07	79.56
671.272	84.56
671.475	82.56
671.677	78.56
671.88	100.56
672.082	70.56
672.284	84.56
672.487	84.56
672.689	93.56
672.892	94.56
