Data from WStandard_LampEnergy8_LIBS07252019.E.O._I.C._HRD10591_16-00-01-929.txt Node
Date: Thu Jul 25 16:00:01 EDT 2019
User: cochatt
Spectrometer: HR+D1059
Trigger mode: 1
Integration Time (sec): 1.000000E-1
Scans to average: 1
Electric dark correction enabled: true
Nonlinearity correction enabled: false
Boxcar width: 0
XAxis mode: Wavelengths
Number of Pixels in Spectrum: 2048
>>>>>Begin Spectral Data<<<<<
223.165	-22.88
223.4	-22.88
223.635	-22.88
223.869	-17.88
224.104	-14.88
224.338	-16.88
224.573	-9.88
224.808	-25.88
225.042	-6.88
225.277	-5.88
225.511	-11.88
225.746	10.12
225.98	3.12
226.215	17.12
226.449	14.12
226.683	27.12
226.918	30.12
227.152	31.12
227.387	30.12
227.621	24.12
227.856	49.12
228.09	34.12
228.324	26.12
228.559	77.12
228.793	102.12
229.027	198.12
229.262	207.12
229.496	212.12
229.73	222.12
229.964	232.12
230.199	250.12
230.433	257.12
230.667	260.12
230.901	272.12
231.136	241.12
231.37	248.12
231.604	257.12
231.838	262.12
232.072	259.12
232.306	251.12
232.541	272.12
232.775	301.12
233.009	322.12
233.243	304.12
233.477	285.12
233.711	278.12
233.945	315.12
234.179	307.12
234.413	315.12
234.647	330.12
234.881	304.12
235.115	281.12
235.349	289.12
235.583	313.12
235.817	285.12
236.051	302.12
236.285	292.12
236.519	316.12
236.753	358.12
236.987	355.12
237.221	331.12
237.455	393.12
237.689	354.12
237.922	370.12
238.156	330.12
238.39	349.12
238.624	355.12
238.858	369.12
239.091	389.12
239.325	387.12
239.559	490.12
239.793	470.12
240.027	474.12
240.26	489.12
240.494	407.12
240.728	385.12
240.961	374.12
241.195	383.12
241.429	397.12
241.662	426.12
241.896	383.12
242.13	384.12
242.363	419.12
242.597	453.12
242.83	444.12
243.064	448.12
243.298	458.12
243.531	463.12
243.765	454.12
243.998	459.12
244.232	406.12
244.465	395.12
244.699	402.12
244.932	445.12
245.166	495.12
245.399	475.12
245.633	442.12
245.866	442.12
246.099	450.12
246.333	479.12
246.566	483.12
246.8	529.12
247.033	576.12
247.266	523.12
247.5	525.12
247.733	551.12
247.966	538.12
248.2	592.12
248.433	601.12
248.666	609.12
248.899	648.12
249.133	726.12
249.366	806.12
249.599	687.12
249.832	583.12
250.066	629.12
250.299	614.12
250.532	545.12
250.765	529.12
250.998	544.12
251.231	583.12
251.465	599.12
251.698	586.12
251.931	553.12
252.164	583.12
252.397	605.12
252.63	602.12
252.863	539.12
253.096	537.12
253.329	575.12
253.562	578.12
253.795	607.12
254.028	600.12
254.261	583.12
254.494	567.12
254.727	553.12
254.96	580.12
255.193	639.12
255.426	699.12
255.659	781.12
255.892	781.12
256.124	652.12
256.357	653.12
256.59	671.12
256.823	710.12
257.056	725.12
257.289	829.12
257.521	893.12
257.754	799.12
257.987	786.12
258.22	818.12
258.452	801.12
258.685	699.12
258.918	666.12
259.151	658.12
259.383	634.12
259.616	581.12
259.849	604.12
260.081	685.12
260.314	758.12
260.547	815.12
260.779	815.12
261.012	723.12
261.244	677.12
261.477	681.12
261.71	719.12
261.942	688.12
262.175	651.12
262.407	657.12
262.64	669.12
262.872	632.12
263.105	601.12
263.337	608.12
263.57	621.12
263.802	619.12
264.035	599.12
264.267	574.12
264.499	578.12
264.732	617.12
264.964	643.12
265.197	650.12
265.429	713.12
265.661	798.12
265.894	841.12
266.126	847.12
266.358	797.12
266.591	823.12
266.823	849.12
267.055	778.12
267.287	776.12
267.52	750.12
267.752	729.12
267.984	757.12
268.216	787.12
268.448	792.12
268.681	768.12
268.913	705.12
269.145	683.12
269.377	689.12
269.609	750.12
269.841	875.12
270.073	977.12
270.306	1078.12
270.538	1108.12
270.77	952.12
271.002	855.12
271.234	805.12
271.466	834.12
271.698	932.12
271.93	1037.12
272.162	1041.12
272.394	924.12
272.626	905.12
272.858	826.12
273.09	707.12
273.322	711.12
273.553	661.12
273.785	686.12
274.017	702.12
274.249	749.12
274.481	748.12
274.713	714.12
274.945	697.12
275.176	688.12
275.408	678.12
275.64	650.12
275.872	698.12
276.104	728.12
276.335	815.12
276.567	905.12
276.799	895.12
277.031	834.12
277.262	789.12
277.494	802.12
277.726	895.12
277.957	871.12
278.189	827.12
278.421	741.12
278.652	732.12
278.884	736.12
279.115	709.12
279.347	745.12
279.579	766.12
279.81	753.12
280.042	822.12
280.273	893.12
280.505	906.12
280.736	878.12
280.968	811.12
281.199	722.12
281.431	711.12
281.662	720.12
281.894	729.12
282.125	750.12
282.356	773.12
282.588	776.12
282.819	752.12
283.051	834.12
283.282	864.12
283.513	841.12
283.745	766.12
283.976	685.12
284.207	722.12
284.439	742.12
284.67	768.12
284.901	760.12
285.132	754.12
285.364	760.12
285.595	776.12
285.826	755.12
286.057	753.12
286.288	758.12
286.52	809.12
286.751	836.12
286.982	841.12
287.213	811.12
287.444	749.12
287.675	742.12
287.906	777.12
288.138	805.12
288.369	813.12
288.6	746.12
288.831	730.12
289.062	750.12
289.293	766.12
289.524	763.12
289.755	788.12
289.986	792.12
290.217	725.12
290.448	766.12
290.679	754.12
290.91	739.12
291.141	779.12
291.371	827.12
291.602	827.12
291.833	791.12
292.064	819.12
292.295	825.12
292.526	851.12
292.757	854.12
292.987	827.12
293.218	801.12
293.449	862.12
293.68	931.12
293.91	995.12
294.141	941.12
294.372	921.12
294.603	943.12
294.833	955.12
295.064	905.12
295.295	807.12
295.525	810.12
295.756	738.12
295.987	730.12
296.217	755.12
296.448	721.12
296.679	767.12
296.909	776.12
297.14	787.12
297.37	791.12
297.601	862.12
297.831	871.12
298.062	903.12
298.292	808.12
298.523	796.12
298.753	768.12
298.984	783.12
299.214	804.12
299.445	811.12
299.675	840.12
299.905	815.12
300.136	813.12
300.366	784.12
300.597	782.12
300.827	793.12
301.057	810.12
301.288	865.12
301.518	866.12
301.748	869.12
301.979	945.12
302.209	943.12
302.439	997.12
302.669	1022.12
302.9	919.12
303.13	833.12
303.36	850.12
303.59	858.12
303.82	826.12
304.051	856.12
304.281	860.12
304.511	870.12
304.741	965.12
304.971	995.12
305.201	1065.12
305.431	957.12
305.661	829.12
305.891	730.12
306.121	763.12
306.352	792.12
306.582	853.12
306.812	887.12
307.042	933.12
307.272	940.12
307.502	982.12
307.731	1050.12
307.961	1095.12
308.191	1012.12
308.421	885.12
308.651	834.12
308.881	841.12
309.111	841.12
309.341	807.12
309.571	819.12
309.8	833.12
310.03	825.12
310.26	801.12
310.49	831.12
310.72	883.12
310.949	886.12
311.179	871.12
311.409	843.12
311.639	853.12
311.868	827.12
312.098	848.12
312.328	819.12
312.557	797.12
312.787	827.12
313.017	884.12
313.246	877.12
313.476	872.12
313.706	885.12
313.935	883.12
314.165	889.12
314.394	949.12
314.624	996.12
314.853	1002.12
315.083	1056.12
315.312	1079.12
315.542	979.12
315.771	892.12
316.001	895.12
316.23	935.12
316.46	925.12
316.689	922.12
316.919	861.12
317.148	862.12
317.377	879.12
317.607	959.12
317.836	1077.12
318.065	1079.12
318.295	1030.12
318.524	998.12
318.753	961.12
318.983	911.12
319.212	939.12
319.441	930.12
319.67	896.12
319.9	913.12
320.129	960.12
320.358	1013.12
320.587	1019.12
320.816	1029.12
321.046	989.12
321.275	962.12
321.504	964.12
321.733	1049.12
321.962	1013.12
322.191	936.12
322.42	902.12
322.649	915.12
322.878	917.12
323.108	925.12
323.337	960.12
323.566	928.12
323.795	970.12
324.024	953.12
324.253	945.12
324.482	919.12
324.71	891.12
324.939	845.12
325.168	902.12
325.397	948.12
325.626	934.12
325.855	945.12
326.084	925.12
326.313	929.12
326.542	945.12
326.77	966.12
326.999	939.12
327.228	908.12
327.457	895.12
327.686	901.12
327.914	890.12
328.143	938.12
328.372	923.12
328.6	923.12
328.829	907.12
329.058	906.12
329.287	927.12
329.515	939.12
329.744	970.12
329.972	993.12
330.201	1041.12
330.43	995.12
330.658	958.12
330.887	976.12
331.115	994.12
331.344	984.12
331.572	976.12
331.801	944.12
332.03	971.12
332.258	1021.12
332.486	996.12
332.715	1001.12
332.943	996.12
333.172	980.12
333.4	1010.12
333.629	1033.12
333.857	1085.12
334.085	1234.12
334.314	1377.12
334.542	1445.12
334.771	1291.12
334.999	1142.12
335.227	1085.12
335.455	1035.12
335.684	1063.12
335.912	1099.12
336.14	1112.12
336.369	1045.12
336.597	1012.12
336.825	997.12
337.053	1027.12
337.281	1099.12
337.51	1134.12
337.738	1194.12
337.966	1099.12
338.194	1023.12
338.422	977.12
338.65	959.12
338.878	966.12
339.106	964.12
339.334	915.12
339.562	938.12
339.79	967.12
340.018	1019.12
340.246	1072.12
340.474	1058.12
340.702	1015.12
340.93	1003.12
341.158	1030.12
341.386	981.12
341.614	991.12
341.842	963.12
342.07	978.12
342.298	982.12
342.526	959.12
342.754	948.12
342.981	955.12
343.209	977.12
343.437	960.12
343.665	954.12
343.893	995.12
344.12	1065.12
344.348	1041.12
344.576	1010.12
344.804	988.12
345.031	980.12
345.259	979.12
345.487	969.12
345.714	879.12
345.942	918.12
346.17	945.12
346.397	932.12
346.625	934.12
346.853	880.12
347.08	905.12
347.308	905.12
347.535	914.12
347.763	955.12
347.99	905.12
348.218	924.12
348.445	917.12
348.673	918.12
348.9	962.12
349.128	1015.12
349.355	1011.12
349.583	979.12
349.81	925.12
350.037	870.12
350.265	869.12
350.492	865.12
350.72	883.12
350.947	947.12
351.174	967.12
351.402	907.12
351.629	844.12
351.856	840.12
352.083	855.12
352.311	877.12
352.538	882.12
352.765	937.12
352.992	919.12
353.22	912.12
353.447	891.12
353.674	938.12
353.901	924.12
354.128	887.12
354.355	876.12
354.583	935.12
354.81	999.12
355.037	963.12
355.264	917.12
355.491	929.12
355.718	941.12
355.945	890.12
356.172	893.12
356.399	877.12
356.626	912.12
356.853	947.12
357.08	1047.12
357.307	1092.12
357.534	1049.12
357.761	953.12
357.988	880.12
358.215	885.12
358.441	883.12
358.668	838.12
358.895	913.12
359.122	979.12
359.349	1048.12
359.576	989.12
359.802	919.12
360.029	893.12
360.256	888.12
360.483	895.12
360.709	936.12
360.936	986.12
361.163	1002.12
361.39	1128.12
361.616	1160.12
361.843	1126.12
362.07	1028.12
362.296	898.12
362.523	930.12
362.749	942.12
362.976	944.12
363.203	965.12
363.429	920.12
363.656	902.12
363.882	964.12
364.109	1035.12
364.335	1070.12
364.562	1005.12
364.788	976.12
365.015	933.12
365.241	881.12
365.468	940.12
365.694	957.12
365.92	976.12
366.147	928.12
366.373	921.12
366.599	907.12
366.826	903.12
367.052	866.12
367.278	901.12
367.505	883.12
367.731	951.12
367.957	945.12
368.184	979.12
368.41	1048.12
368.636	1042.12
368.862	1065.12
369.089	1063.12
369.315	1040.12
369.541	964.12
369.767	909.12
369.993	922.12
370.219	956.12
370.445	961.12
370.672	1025.12
370.898	1024.12
371.124	1021.12
371.35	977.12
371.576	1020.12
371.802	1093.12
372.028	985.12
372.254	960.12
372.48	966.12
372.706	907.12
372.932	938.12
373.158	978.12
373.384	966.12
373.61	1000.12
373.835	1050.12
374.061	966.12
374.287	988.12
374.513	966.12
374.739	1011.12
374.965	979.12
375.191	1025.12
375.416	1032.12
375.642	973.12
375.868	1098.12
376.094	1141.12
376.319	1027.12
376.545	1017.12
376.771	1023.12
376.997	1079.12
377.222	1099.12
377.448	1039.12
377.674	1055.12
377.899	1051.12
378.125	1105.12
378.35	1103.12
378.576	984.12
378.802	955.12
379.027	945.12
379.253	959.12
379.478	1013.12
379.704	990.12
379.929	1011.12
380.155	970.12
380.38	997.12
380.606	1046.12
380.831	1010.12
381.057	1078.12
381.282	1075.12
381.507	1053.12
381.733	1128.12
381.958	1139.12
382.184	1054.12
382.409	1029.12
382.634	1033.12
382.86	1038.12
383.085	1035.12
383.31	1089.12
383.535	1187.12
383.761	1205.12
383.986	1191.12
384.211	1123.12
384.436	1090.12
384.662	1186.12
384.887	1207.12
385.112	1142.12
385.337	1153.12
385.562	1129.12
385.787	1107.12
386.013	1164.12
386.238	1155.12
386.463	1163.12
386.688	1237.12
386.913	1312.12
387.138	1265.12
387.363	1176.12
387.588	1177.12
387.813	1167.12
388.038	1201.12
388.263	1229.12
388.488	1157.12
388.713	1061.12
388.938	1076.12
389.163	1110.12
389.387	1125.12
389.612	1096.12
389.837	1138.12
390.062	1144.12
390.287	1131.12
390.512	1139.12
390.736	1129.12
390.961	1100.12
391.186	1073.12
391.411	1113.12
391.636	1105.12
391.86	1127.12
392.085	1112.12
392.31	1107.12
392.534	1149.12
392.759	1155.12
392.984	1147.12
393.208	1157.12
393.433	1216.12
393.658	1220.12
393.882	1247.12
394.107	1143.12
394.331	1143.12
394.556	1123.12
394.78	1128.12
395.005	1198.12
395.229	1247.12
395.454	1310.12
395.678	1253.12
395.903	1200.12
396.127	1208.12
396.352	1231.12
396.576	1248.12
396.801	1253.12
397.025	1231.12
397.249	1245.12
397.474	1233.12
397.698	1213.12
397.922	1272.12
398.147	1317.12
398.371	1362.12
398.595	1351.12
398.82	1271.12
399.044	1328.12
399.268	1349.12
399.492	1437.12
399.717	1514.12
399.941	1487.12
400.165	1503.12
400.389	1435.12
400.613	1425.12
400.837	1621.12
401.062	1818.12
401.286	1512.12
401.51	1443.12
401.734	1454.12
401.958	1420.12
402.182	1313.12
402.406	1269.12
402.63	1290.12
402.854	1299.12
403.078	1307.12
403.302	1305.12
403.526	1362.12
403.75	1345.12
403.974	1367.12
404.198	1364.12
404.422	1426.12
404.645	1514.12
404.869	1426.12
405.093	1337.12
405.317	1312.12
405.541	1323.12
405.765	1337.12
405.988	1331.12
406.212	1365.12
406.436	1426.12
406.66	1504.12
406.883	1511.12
407.107	1709.12
407.331	1777.12
407.555	1908.12
407.778	1709.12
408.002	1417.12
408.226	1433.12
408.449	1414.12
408.673	1381.12
408.896	1407.12
409.12	1360.12
409.344	1371.12
409.567	1331.12
409.791	1370.12
410.014	1394.12
410.238	1453.12
410.461	1527.12
410.685	1355.12
410.908	1344.12
411.132	1381.12
411.355	1349.12
411.578	1329.12
411.802	1351.12
412.025	1371.12
412.249	1320.12
412.472	1263.12
412.695	1298.12
412.919	1282.12
413.142	1286.12
413.365	1297.12
413.589	1370.12
413.812	1381.12
414.035	1455.12
414.258	1331.12
414.482	1300.12
414.705	1296.12
414.928	1287.12
415.151	1327.12
415.374	1333.12
415.597	1356.12
415.821	1314.12
416.044	1342.12
416.267	1302.12
416.49	1269.12
416.713	1279.12
416.936	1319.12
417.159	1378.12
417.382	1358.12
417.605	1337.12
417.828	1320.12
418.051	1322.12
418.274	1330.12
418.497	1249.12
418.72	1291.12
418.943	1247.12
419.166	1320.12
419.389	1380.12
419.611	1304.12
419.834	1274.12
420.057	1306.12
420.28	1284.12
420.503	1283.12
420.726	1286.12
420.948	1317.12
421.171	1218.12
421.394	1275.12
421.617	1355.12
421.839	1343.12
422.062	1305.12
422.285	1243.12
422.507	1294.12
422.73	1248.12
422.953	1223.12
423.175	1246.12
423.398	1279.12
423.621	1276.12
423.843	1270.12
424.066	1323.12
424.288	1409.12
424.511	1392.12
424.733	1401.12
424.956	1233.12
425.178	1240.12
425.401	1271.12
425.623	1280.12
425.846	1265.12
426.068	1337.12
426.291	1351.12
426.513	1308.12
426.735	1292.12
426.958	1419.12
427.18	1491.12
427.402	1359.12
427.625	1405.12
427.847	1375.12
428.069	1281.12
428.292	1239.12
428.514	1210.12
428.736	1271.12
428.958	1254.12
429.181	1293.12
429.403	1463.12
429.625	1773.12
429.847	1460.12
430.069	1316.12
430.292	1441.12
430.514	1409.12
430.736	1324.12
430.958	1370.12
431.18	1295.12
431.402	1195.12
431.624	1199.12
431.846	1189.12
432.068	1135.12
432.29	1129.12
432.512	1188.12
432.734	1225.12
432.956	1275.12
433.178	1319.12
433.4	1317.12
433.622	1336.12
433.844	1282.12
434.066	1185.12
434.287	1214.12
434.509	1225.12
434.731	1273.12
434.953	1364.12
435.175	1312.12
435.397	1227.12
435.618	1229.12
435.84	1228.12
436.062	1245.12
436.284	1242.12
436.505	1301.12
436.727	1346.12
436.949	1275.12
437.17	1237.12
437.392	1209.12
437.614	1207.12
437.835	1167.12
438.057	1233.12
438.278	1285.12
438.5	1214.12
438.721	1231.12
438.943	1247.12
439.165	1229.12
439.386	1229.12
439.608	1265.12
439.829	1263.12
440.05	1225.12
440.272	1284.12
440.493	1255.12
440.715	1257.12
440.936	1350.12
441.158	1429.12
441.379	1391.12
441.6	1358.12
441.822	1349.12
442.043	1332.12
442.264	1304.12
442.486	1246.12
442.707	1287.12
442.928	1299.12
443.149	1298.12
443.371	1361.12
443.592	1389.12
443.813	1382.12
444.034	1362.12
444.255	1344.12
444.476	1401.12
444.698	1386.12
444.919	1405.12
445.14	1492.12
445.361	1473.12
445.582	1468.12
445.803	1405.12
446.024	1379.12
446.245	1426.12
446.466	1381.12
446.687	1314.12
446.908	1353.12
447.129	1287.12
447.35	1311.12
447.571	1308.12
447.792	1236.12
448.013	1231.12
448.234	1265.12
448.455	1292.12
448.675	1317.12
448.896	1210.12
449.117	1143.12
449.338	1220.12
449.559	1286.12
449.779	1297.12
450	1381.12
450.221	1481.12
450.442	1416.12
450.662	1292.12
450.883	1163.12
451.104	1166.12
451.324	1178.12
451.545	1191.12
451.766	1165.12
451.986	1107.12
452.207	1128.12
452.428	1113.12
452.648	1071.12
452.869	1080.12
453.089	1153.12
453.31	1161.12
453.53	1175.12
453.751	1117.12
453.971	1074.12
454.192	1085.12
454.412	1159.12
454.633	1128.12
454.853	1133.12
455.073	1061.12
455.294	1075.12
455.514	1081.12
455.734	1074.12
455.955	1058.12
456.175	1052.12
456.395	1072.12
456.616	1098.12
456.836	1086.12
457.056	1077.12
457.276	1078.12
457.497	1083.12
457.717	1029.12
457.937	1041.12
458.157	1066.12
458.377	1045.12
458.598	1034.12
458.818	1071.12
459.038	1096.12
459.258	1168.12
459.478	1150.12
459.698	1101.12
459.918	1162.12
460.138	1205.12
460.358	1243.12
460.578	1263.12
460.798	1298.12
461.018	1358.12
461.238	1315.12
461.458	1283.12
461.678	1270.12
461.898	1259.12
462.118	1193.12
462.338	1254.12
462.558	1244.12
462.777	1268.12
462.997	1359.12
463.217	1386.12
463.437	1348.12
463.657	1313.12
463.876	1245.12
464.096	1220.12
464.316	1235.12
464.536	1291.12
464.755	1315.12
464.975	1306.12
465.195	1247.12
465.414	1320.12
465.634	1295.12
465.854	1280.12
466.073	1372.12
466.293	1372.12
466.512	1184.12
466.732	1194.12
466.951	1250.12
467.171	1250.12
467.391	1193.12
467.61	1170.12
467.829	1210.12
468.049	1326.12
468.268	1438.12
468.488	1337.12
468.707	1223.12
468.927	1214.12
469.146	1190.12
469.365	1193.12
469.585	1240.12
469.804	1222.12
470.023	1223.12
470.243	1252.12
470.462	1234.12
470.681	1216.12
470.901	1257.12
471.12	1258.12
471.339	1204.12
471.558	1218.12
471.777	1185.12
471.997	1225.12
472.216	1154.12
472.435	1124.12
472.654	1103.12
472.873	1166.12
473.092	1239.12
473.311	1167.12
473.53	1123.12
473.749	1135.12
473.968	1179.12
474.187	1213.12
474.406	1239.12
474.625	1201.12
474.844	1189.12
475.063	1218.12
475.282	1236.12
475.501	1189.12
475.72	1201.12
475.939	1269.12
476.158	1250.12
476.377	1189.12
476.596	1203.12
476.814	1250.12
477.033	1213.12
477.252	1287.12
477.471	1266.12
477.69	1285.12
477.908	1277.12
478.127	1355.12
478.346	1450.12
478.564	1445.12
478.783	1361.12
479.002	1449.12
479.22	1425.12
479.439	1476.12
479.658	1581.12
479.876	1541.12
480.095	1398.12
480.313	1331.12
480.532	1277.12
480.751	1322.12
480.969	1288.12
481.188	1265.12
481.406	1229.12
481.624	1205.12
481.843	1248.12
482.061	1299.12
482.28	1300.12
482.498	1320.12
482.717	1317.12
482.935	1317.12
483.153	1351.12
483.372	1359.12
483.59	1337.12
483.808	1336.12
484.027	1332.12
484.245	1453.12
484.463	1739.12
484.681	1863.12
484.9	1453.12
485.118	1376.12
485.336	1325.12
485.554	1371.12
485.772	1411.12
485.99	1373.12
486.209	1400.12
486.427	1359.12
486.645	1382.12
486.863	1387.12
487.081	1423.12
487.299	1449.12
487.517	1476.12
487.735	1440.12
487.953	1503.12
488.171	1480.12
488.389	1471.12
488.607	1462.12
488.825	1601.12
489.043	1566.12
489.261	1391.12
489.479	1463.12
489.696	1493.12
489.914	1473.12
490.132	1442.12
490.35	1453.12
490.568	1514.12
490.786	1501.12
491.003	1465.12
491.221	1561.12
491.439	1609.12
491.657	1573.12
491.874	1650.12
492.092	1653.12
492.31	1697.12
492.527	1664.12
492.745	1563.12
492.963	1601.12
493.18	1603.12
493.398	1759.12
493.615	1680.12
493.833	1584.12
494.05	1556.12
494.268	1570.12
494.485	1590.12
494.703	1569.12
494.92	1519.12
495.138	1560.12
495.355	1572.12
495.573	1554.12
495.79	1662.12
496.008	1655.12
496.225	1595.12
496.442	1598.12
496.66	1617.12
496.877	1572.12
497.094	1649.12
497.312	1595.12
497.529	1658.12
497.746	1638.12
497.963	1851.12
498.181	1999.12
498.398	1916.12
498.615	1842.12
498.832	1768.12
499.049	1771.12
499.267	1800.12
499.484	1904.12
499.701	2037.12
499.918	2076.12
500.135	2214.12
500.352	2369.12
500.569	2362.12
500.786	2507.12
501.003	2296.12
501.22	2129.12
501.437	2019.12
501.654	2093.12
501.871	1976.12
502.088	1764.12
502.305	1745.12
502.522	1693.12
502.739	1589.12
502.956	1588.12
503.172	1542.12
503.389	1475.12
503.606	1501.12
503.823	1474.12
504.04	1481.12
504.256	1478.12
504.473	1510.12
504.69	1531.12
504.907	1459.12
505.123	1419.12
505.34	1578.12
505.557	2013.12
505.773	1655.12
505.99	1377.12
506.207	1329.12
506.423	1298.12
506.64	1306.12
506.856	1312.12
507.073	1505.12
507.289	1587.12
507.506	1494.12
507.722	1307.12
507.939	1254.12
508.155	1261.12
508.372	1245.12
508.588	1171.12
508.805	1177.12
509.021	1173.12
509.238	1179.12
509.454	1164.12
509.67	1151.12
509.887	1121.12
510.103	1141.12
510.319	1171.12
510.536	1190.12
510.752	1221.12
510.968	1249.12
511.184	1279.12
511.401	1250.12
511.617	1131.12
511.833	1109.12
512.049	1101.12
512.265	1122.12
512.481	1076.12
512.698	1158.12
512.914	1210.12
513.13	1181.12
513.346	1116.12
513.562	1077.12
513.778	1102.12
513.994	1151.12
514.21	1191.12
514.426	1203.12
514.642	1299.12
514.858	1240.12
515.074	1184.12
515.29	1095.12
515.506	1165.12
515.721	1185.12
515.937	1177.12
516.153	1315.12
516.369	1254.12
516.585	1205.12
516.801	1166.12
517.016	1154.12
517.232	1187.12
517.448	1213.12
517.664	1224.12
517.879	1239.12
518.095	1256.12
518.311	1221.12
518.527	1143.12
518.742	1163.12
518.958	1118.12
519.173	1159.12
519.389	1177.12
519.605	1159.12
519.82	1201.12
520.036	1189.12
520.251	1149.12
520.467	1156.12
520.682	1248.12
520.898	1243.12
521.113	1109.12
521.329	1134.12
521.544	1179.12
521.76	1128.12
521.975	1098.12
522.19	1079.12
522.406	1142.12
522.621	1357.12
522.836	1298.12
523.052	1088.12
523.267	1108.12
523.482	1089.12
523.698	1089.12
523.913	1061.12
524.128	1102.12
524.343	1147.12
524.559	1125.12
524.774	1098.12
524.989	1115.12
525.204	1063.12
525.419	1021.12
525.634	1080.12
525.849	1066.12
526.064	1063.12
526.28	1047.12
526.495	1033.12
526.71	1009.12
526.925	989.12
527.14	1000.12
527.355	967.12
527.57	998.12
527.785	1011.12
527.999	985.12
528.214	981.12
528.429	983.12
528.644	1021.12
528.859	1072.12
529.074	1089.12
529.289	1131.12
529.503	1156.12
529.718	1090.12
529.933	1006.12
530.148	978.12
530.363	956.12
530.577	971.12
530.792	990.12
531.007	990.12
531.221	989.12
531.436	993.12
531.651	1009.12
531.865	1038.12
532.08	996.12
532.295	950.12
532.509	937.12
532.724	971.12
532.938	984.12
533.153	1081.12
533.367	1005.12
533.582	1043.12
533.796	1022.12
534.011	988.12
534.225	975.12
534.44	956.12
534.654	970.12
534.868	975.12
535.083	1058.12
535.297	1038.12
535.511	1029.12
535.726	1022.12
535.94	993.12
536.154	963.12
536.369	966.12
536.583	930.12
536.797	915.12
537.011	938.12
537.225	932.12
537.44	908.12
537.654	973.12
537.868	962.12
538.082	909.12
538.296	910.12
538.51	898.12
538.724	951.12
538.938	964.12
539.153	1002.12
539.367	1002.12
539.581	963.12
539.795	997.12
540.009	953.12
540.222	938.12
540.436	990.12
540.65	1043.12
540.864	1079.12
541.078	1069.12
541.292	1034.12
541.506	1038.12
541.72	1107.12
541.934	1150.12
542.147	1207.12
542.361	1136.12
542.575	1083.12
542.789	1030.12
543.002	968.12
543.216	949.12
543.43	1014.12
543.644	1045.12
543.857	1112.12
544.071	1111.12
544.285	1101.12
544.498	1076.12
544.712	1087.12
544.925	1102.12
545.139	1136.12
545.352	1081.12
545.566	1031.12
545.779	1074.12
545.993	1100.12
546.206	1103.12
546.42	1060.12
546.633	1081.12
546.847	1073.12
547.06	1063.12
547.274	1074.12
547.487	1087.12
547.7	1104.12
547.914	1093.12
548.127	1057.12
548.34	1076.12
548.554	1049.12
548.767	1032.12
548.98	1073.12
549.193	1052.12
549.407	1077.12
549.62	1104.12
549.833	1042.12
550.046	1041.12
550.259	1036.12
550.473	998.12
550.686	1022.12
550.899	999.12
551.112	965.12
551.325	979.12
551.538	1051.12
551.751	1126.12
551.964	917.12
552.177	931.12
552.39	953.12
552.603	979.12
552.816	1006.12
553.029	1045.12
553.242	1057.12
553.455	1039.12
553.667	1057.12
553.88	1023.12
554.093	1011.12
554.306	996.12
554.519	950.12
554.732	945.12
554.944	950.12
555.157	973.12
555.37	970.12
555.583	929.12
555.795	921.12
556.008	927.12
556.221	849.12
556.433	863.12
556.646	883.12
556.859	845.12
557.071	875.12
557.284	879.12
557.496	893.12
557.709	879.12
557.921	891.12
558.134	839.12
558.346	867.12
558.559	858.12
558.771	830.12
558.984	826.12
559.196	791.12
559.409	810.12
559.621	798.12
559.833	791.12
560.046	831.12
560.258	826.12
560.47	804.12
560.683	848.12
560.895	807.12
561.107	819.12
561.32	833.12
561.532	834.12
561.744	855.12
561.956	808.12
562.168	802.12
562.381	760.12
562.593	756.12
562.805	767.12
563.017	801.12
563.229	803.12
563.441	818.12
563.653	769.12
563.865	776.12
564.077	771.12
564.289	785.12
564.501	759.12
564.713	798.12
564.925	842.12
565.137	868.12
565.349	833.12
565.561	829.12
565.773	803.12
565.985	832.12
566.197	883.12
566.408	919.12
566.62	890.12
566.832	896.12
567.044	901.12
567.255	923.12
567.467	895.12
567.679	906.12
567.891	952.12
568.102	871.12
568.314	863.12
568.526	812.12
568.737	768.12
568.949	714.12
569.161	719.12
569.372	685.12
569.584	678.12
569.795	692.12
570.007	672.12
570.218	664.12
570.43	674.12
570.641	648.12
570.853	675.12
571.064	678.12
571.276	677.12
571.487	674.12
571.698	617.12
571.91	621.12
572.121	615.12
572.333	621.12
572.544	607.12
572.755	577.12
572.966	560.12
573.178	588.12
573.389	607.12
573.6	618.12
573.811	654.12
574.023	598.12
574.234	584.12
574.445	550.12
574.656	567.12
574.867	545.12
575.078	583.12
575.289	573.12
575.501	529.12
575.712	546.12
575.923	530.12
576.134	580.12
576.345	559.12
576.556	558.12
576.767	526.12
576.978	548.12
577.188	556.12
577.399	520.12
577.61	517.12
577.821	514.12
578.032	506.12
578.243	514.12
578.454	519.12
578.665	509.12
578.875	496.12
579.086	490.12
579.297	482.12
579.508	512.12
579.718	507.12
579.929	500.12
580.14	467.12
580.35	479.12
580.561	495.12
580.772	562.12
580.982	523.12
581.193	493.12
581.403	493.12
581.614	487.12
581.825	484.12
582.035	477.12
582.246	474.12
582.456	502.12
582.667	478.12
582.877	473.12
583.087	477.12
583.298	457.12
583.508	479.12
583.719	453.12
583.929	483.12
584.139	459.12
584.35	466.12
584.56	462.12
584.77	488.12
584.981	467.12
585.191	474.12
585.401	477.12
585.611	463.12
585.821	469.12
586.032	458.12
586.242	444.12
586.452	446.12
586.662	464.12
586.872	435.12
587.082	457.12
587.292	468.12
587.502	455.12
587.713	451.12
587.923	439.12
588.133	446.12
588.343	437.12
588.553	442.12
588.762	425.12
588.972	454.12
589.182	452.12
589.392	455.12
589.602	455.12
589.812	454.12
590.022	434.12
590.232	448.12
590.441	435.12
590.651	474.12
590.861	449.12
591.071	421.12
591.281	436.12
591.49	439.12
591.7	447.12
591.91	456.12
592.119	443.12
592.329	463.12
592.539	481.12
592.748	454.12
592.958	463.12
593.167	461.12
593.377	480.12
593.587	464.12
593.796	463.12
594.006	468.12
594.215	446.12
594.424	465.12
594.634	445.12
594.843	467.12
595.053	471.12
595.262	437.12
595.472	437.12
595.681	451.12
595.89	454.12
596.1	430.12
596.309	421.12
596.518	437.12
596.727	435.12
596.937	415.12
597.146	407.12
597.355	413.12
597.564	401.12
597.774	397.12
597.983	389.12
598.192	399.12
598.401	375.12
598.61	399.12
598.819	407.12
599.028	390.12
599.237	405.12
599.446	393.12
599.655	387.12
599.864	383.12
600.073	387.12
600.282	391.12
600.491	383.12
600.7	387.12
600.909	389.12
601.118	381.12
601.327	401.12
601.536	435.12
601.745	395.12
601.953	401.12
602.162	400.12
602.371	416.12
602.58	404.12
602.789	418.12
602.997	413.12
603.206	396.12
603.415	394.12
603.623	392.12
603.832	374.12
604.041	376.12
604.249	380.12
604.458	373.12
604.666	393.12
604.875	386.12
605.084	403.12
605.292	385.12
605.501	396.12
605.709	403.12
605.918	421.12
606.126	395.12
606.334	392.12
606.543	405.12
606.751	391.12
606.96	401.12
607.168	383.12
607.376	379.12
607.585	401.12
607.793	410.12
608.001	396.12
608.21	402.12
608.418	425.12
608.626	405.12
608.834	399.12
609.043	400.12
609.251	390.12
609.459	401.12
609.667	385.12
609.875	407.12
610.083	413.12
610.291	403.12
610.499	406.12
610.707	384.12
610.916	402.12
611.124	402.12
611.332	426.12
611.54	396.12
611.748	369.12
611.955	393.12
612.163	391.12
612.371	381.12
612.579	390.12
612.787	394.12
612.995	373.12
613.203	388.12
613.411	377.12
613.618	386.12
613.826	377.12
614.034	395.12
614.242	378.12
614.449	383.12
614.657	399.12
614.865	371.12
615.072	371.12
615.28	379.12
615.488	376.12
615.695	397.12
615.903	409.12
616.111	401.12
616.318	384.12
616.526	392.12
616.733	386.12
616.941	378.12
617.148	381.12
617.356	387.12
617.563	375.12
617.771	379.12
617.978	349.12
618.185	381.12
618.393	376.12
618.6	392.12
618.807	373.12
619.015	372.12
619.222	363.12
619.429	349.12
619.637	360.12
619.844	334.12
620.051	345.12
620.258	346.12
620.466	350.12
620.673	373.12
620.88	369.12
621.087	330.12
621.294	345.12
621.501	345.12
621.708	335.12
621.915	359.12
622.122	370.12
622.329	362.12
622.536	341.12
622.743	362.12
622.95	337.12
623.157	348.12
623.364	336.12
623.571	349.12
623.778	330.12
623.985	354.12
624.192	336.12
624.399	350.12
624.606	349.12
624.812	329.12
625.019	329.12
625.226	352.12
625.433	326.12
625.639	308.12
625.846	301.12
626.053	296.12
626.259	305.12
626.466	306.12
626.673	303.12
626.879	276.12
627.086	281.12
627.293	314.12
627.499	333.12
627.706	331.12
627.912	323.12
628.119	322.12
628.325	318.12
628.532	327.12
628.738	317.12
628.945	338.12
629.151	318.12
629.357	317.12
629.564	292.12
629.77	306.12
629.976	304.12
630.183	301.12
630.389	303.12
630.595	314.12
630.802	307.12
631.008	295.12
631.214	286.12
631.42	307.12
631.627	283.12
631.833	282.12
632.039	289.12
632.245	298.12
632.451	299.12
632.657	274.12
632.863	305.12
633.069	289.12
633.275	295.12
633.481	279.12
633.688	286.12
633.893	294.12
634.099	289.12
634.305	253.12
634.511	273.12
634.717	262.12
634.923	269.12
635.129	264.12
635.335	272.12
635.541	270.12
635.747	261.12
635.952	265.12
636.158	286.12
636.364	281.12
636.57	277.12
636.775	289.12
636.981	278.12
637.187	277.12
637.392	283.12
637.598	279.12
637.804	288.12
638.009	264.12
638.215	267.12
638.421	249.12
638.626	279.12
638.832	263.12
639.037	270.12
639.243	248.12
639.448	259.12
639.654	257.12
639.859	243.12
640.065	256.12
640.27	286.12
640.475	249.12
640.681	267.12
640.886	275.12
641.091	261.12
641.297	265.12
641.502	265.12
641.707	262.12
641.913	261.12
642.118	259.12
642.323	241.12
642.528	259.12
642.733	250.12
642.939	257.12
643.144	244.12
643.349	269.12
643.554	270.12
643.759	272.12
643.964	257.12
644.169	237.12
644.374	254.12
644.579	277.12
644.784	267.12
644.989	253.12
645.194	249.12
645.399	249.12
645.604	245.12
645.809	262.12
646.014	246.12
646.219	269.12
646.423	257.12
646.628	257.12
646.833	235.12
647.038	227.12
647.243	256.12
647.447	259.12
647.652	245.12
647.857	241.12
648.062	271.12
648.266	250.12
648.471	261.12
648.676	267.12
648.88	268.12
649.085	265.12
649.289	249.12
649.494	251.12
649.698	252.12
649.903	249.12
650.107	242.12
650.312	243.12
650.516	252.12
650.721	246.12
650.925	226.12
651.13	223.12
651.334	225.12
651.539	218.12
651.743	240.12
651.947	246.12
652.152	206.12
652.356	221.12
652.56	212.12
652.764	220.12
652.969	230.12
653.173	223.12
653.377	215.12
653.581	211.12
653.785	215.12
653.99	222.12
654.194	234.12
654.398	207.12
654.602	199.12
654.806	205.12
655.01	223.12
655.214	214.12
655.418	209.12
655.622	226.12
655.826	236.12
656.03	241.12
656.234	256.12
656.438	267.12
656.642	256.12
656.846	225.12
657.049	241.12
657.253	223.12
657.457	202.12
657.661	184.12
657.865	167.12
658.068	193.12
658.272	170.12
658.476	160.12
658.68	151.12
658.883	166.12
659.087	145.12
659.291	140.12
659.494	133.12
659.698	132.12
659.901	134.12
660.105	124.12
660.309	124.12
660.512	131.12
660.716	115.12
660.919	134.12
661.123	111.12
661.326	106.12
661.53	119.12
661.733	111.12
661.936	100.12
662.14	104.12
662.343	91.12
662.546	110.12
662.75	96.12
662.953	93.12
663.156	71.12
663.36	87.12
663.563	86.12
663.766	90.12
663.969	93.12
664.173	87.12
664.376	90.12
664.579	72.12
664.782	84.12
664.985	83.12
665.188	69.12
665.391	94.12
665.594	87.12
665.797	73.12
666	75.12
666.203	77.12
666.406	85.12
666.609	85.12
666.812	92.12
667.015	72.12
667.218	93.12
667.421	84.12
667.624	80.12
667.827	76.12
668.03	75.12
668.232	72.12
668.435	78.12
668.638	80.12
668.841	79.12
669.043	73.12
669.246	87.12
669.449	77.12
669.651	105.12
669.854	89.12
670.057	78.12
670.259	90.12
670.462	83.12
670.665	86.12
670.867	104.12
671.07	69.12
671.272	73.12
671.475	91.12
671.677	81.12
671.88	86.12
672.082	93.12
672.284	73.12
672.487	83.12
672.689	85.12
672.892	81.12
