Data from WStandard_LampEnergy10_LIBS07252019.E.O._I.C._HRD10591_15-54-23-928.txt Node
Date: Thu Jul 25 15:54:23 EDT 2019
User: cochatt
Spectrometer: HR+D1059
Trigger mode: 1
Integration Time (sec): 1.000000E-1
Scans to average: 1
Electric dark correction enabled: true
Nonlinearity correction enabled: false
Boxcar width: 0
XAxis mode: Wavelengths
Number of Pixels in Spectrum: 2048
>>>>>Begin Spectral Data<<<<<
223.165	-11.38
223.4	-11.38
223.635	-11.38
223.869	-15.38
224.104	-10.38
224.338	0.62
224.573	-15.38
224.808	-19.38
225.042	-15.38
225.277	-13.38
225.511	2.62
225.746	-1.38
225.98	-1.38
226.215	11.62
226.449	11.62
226.683	21.62
226.918	18.62
227.152	36.62
227.387	41.62
227.621	38.62
227.856	37.62
228.09	44.62
228.324	60.62
228.559	55.62
228.793	85.62
229.027	128.62
229.262	140.62
229.496	143.62
229.73	164.62
229.964	173.62
230.199	166.62
230.433	173.62
230.667	172.62
230.901	189.62
231.136	163.62
231.37	163.62
231.604	177.62
231.838	186.62
232.072	175.62
232.306	192.62
232.541	182.62
232.775	206.62
233.009	209.62
233.243	212.62
233.477	189.62
233.711	182.62
233.945	203.62
234.179	196.62
234.413	215.62
234.647	227.62
234.881	204.62
235.115	206.62
235.349	200.62
235.583	214.62
235.817	203.62
236.051	202.62
236.285	196.62
236.519	200.62
236.753	216.62
236.987	225.62
237.221	217.62
237.455	247.62
237.689	235.62
237.922	203.62
238.156	220.62
238.39	227.62
238.624	239.62
238.858	258.62
239.091	256.62
239.325	292.62
239.559	290.62
239.793	291.62
240.027	306.62
240.26	300.62
240.494	257.62
240.728	225.62
240.961	260.62
241.195	246.62
241.429	271.62
241.662	252.62
241.896	243.62
242.13	231.62
242.363	275.62
242.597	270.62
242.83	273.62
243.064	276.62
243.298	289.62
243.531	281.62
243.765	278.62
243.998	285.62
244.232	257.62
244.465	241.62
244.699	266.62
244.932	292.62
245.166	292.62
245.399	298.62
245.633	293.62
245.866	283.62
246.099	284.62
246.333	306.62
246.566	313.62
246.8	308.62
247.033	339.62
247.266	314.62
247.5	352.62
247.733	320.62
247.966	338.62
248.2	351.62
248.433	362.62
248.666	378.62
248.899	396.62
249.133	434.62
249.366	500.62
249.599	389.62
249.832	362.62
250.066	358.62
250.299	365.62
250.532	350.62
250.765	326.62
250.998	337.62
251.231	351.62
251.465	361.62
251.698	358.62
251.931	337.62
252.164	342.62
252.397	359.62
252.63	352.62
252.863	342.62
253.096	334.62
253.329	346.62
253.562	356.62
253.795	380.62
254.028	361.62
254.261	347.62
254.494	330.62
254.727	314.62
254.96	349.62
255.193	388.62
255.426	412.62
255.659	446.62
255.892	456.62
256.124	390.62
256.357	381.62
256.59	407.62
256.823	421.62
257.056	436.62
257.289	476.62
257.521	497.62
257.754	474.62
257.987	433.62
258.22	487.62
258.452	469.62
258.685	402.62
258.918	391.62
259.151	400.62
259.383	392.62
259.616	345.62
259.849	377.62
260.081	423.62
260.314	429.62
260.547	461.62
260.779	468.62
261.012	448.62
261.244	413.62
261.477	384.62
261.71	421.62
261.942	414.62
262.175	378.62
262.407	408.62
262.64	381.62
262.872	382.62
263.105	348.62
263.337	378.62
263.57	372.62
263.802	368.62
264.035	365.62
264.267	340.62
264.499	345.62
264.732	374.62
264.964	372.62
265.197	409.62
265.429	413.62
265.661	479.62
265.894	477.62
266.126	505.62
266.358	465.62
266.591	466.62
266.823	486.62
267.055	444.62
267.287	439.62
267.52	441.62
267.752	460.62
267.984	448.62
268.216	466.62
268.448	461.62
268.681	468.62
268.913	428.62
269.145	407.62
269.377	427.62
269.609	434.62
269.841	516.62
270.073	583.62
270.306	613.62
270.538	630.62
270.77	526.62
271.002	492.62
271.234	490.62
271.466	478.62
271.698	530.62
271.93	593.62
272.162	591.62
272.394	537.62
272.626	525.62
272.858	464.62
273.09	425.62
273.322	418.62
273.553	417.62
273.785	405.62
274.017	433.62
274.249	462.62
274.481	460.62
274.713	438.62
274.945	408.62
275.176	406.62
275.408	410.62
275.64	391.62
275.872	413.62
276.104	426.62
276.335	492.62
276.567	541.62
276.799	527.62
277.031	497.62
277.262	478.62
277.494	489.62
277.726	527.62
277.957	514.62
278.189	473.62
278.421	457.62
278.652	407.62
278.884	431.62
279.115	423.62
279.347	438.62
279.579	432.62
279.81	456.62
280.042	477.62
280.273	524.62
280.505	513.62
280.736	499.62
280.968	488.62
281.199	428.62
281.431	430.62
281.662	426.62
281.894	444.62
282.125	432.62
282.356	453.62
282.588	460.62
282.819	465.62
283.051	496.62
283.282	516.62
283.513	510.62
283.745	419.62
283.976	409.62
284.207	425.62
284.439	440.62
284.67	456.62
284.901	476.62
285.132	462.62
285.364	444.62
285.595	457.62
285.826	439.62
286.057	456.62
286.288	438.62
286.52	478.62
286.751	486.62
286.982	495.62
287.213	458.62
287.444	447.62
287.675	448.62
287.906	454.62
288.138	497.62
288.369	465.62
288.6	456.62
288.831	444.62
289.062	455.62
289.293	437.62
289.524	463.62
289.755	459.62
289.986	480.62
290.217	456.62
290.448	462.62
290.679	468.62
290.91	462.62
291.141	481.62
291.371	485.62
291.602	492.62
291.833	481.62
292.064	498.62
292.295	520.62
292.526	502.62
292.757	524.62
292.987	519.62
293.218	501.62
293.449	530.62
293.68	562.62
293.91	607.62
294.141	541.62
294.372	559.62
294.603	553.62
294.833	544.62
295.064	525.62
295.295	506.62
295.525	465.62
295.756	466.62
295.987	444.62
296.217	448.62
296.448	454.62
296.679	457.62
296.909	472.62
297.14	458.62
297.37	497.62
297.601	519.62
297.831	526.62
298.062	521.62
298.292	488.62
298.523	477.62
298.753	472.62
298.984	466.62
299.214	488.62
299.445	478.62
299.675	477.62
299.905	480.62
300.136	475.62
300.366	478.62
300.597	459.62
300.827	464.62
301.057	484.62
301.288	520.62
301.518	538.62
301.748	522.62
301.979	552.62
302.209	571.62
302.439	584.62
302.669	579.62
302.9	566.62
303.13	498.62
303.36	522.62
303.59	511.62
303.82	521.62
304.051	517.62
304.281	525.62
304.511	549.62
304.741	599.62
304.971	594.62
305.201	618.62
305.431	560.62
305.661	478.62
305.891	465.62
306.121	461.62
306.352	477.62
306.582	530.62
306.812	532.62
307.042	565.62
307.272	582.62
307.502	589.62
307.731	628.62
307.961	647.62
308.191	595.62
308.421	532.62
308.651	530.62
308.881	488.62
309.111	503.62
309.341	513.62
309.571	492.62
309.8	472.62
310.03	483.62
310.26	502.62
310.49	502.62
310.72	514.62
310.949	533.62
311.179	520.62
311.409	522.62
311.639	521.62
311.868	523.62
312.098	502.62
312.328	501.62
312.557	521.62
312.787	541.62
313.017	543.62
313.246	533.62
313.476	532.62
313.706	539.62
313.935	546.62
314.165	538.62
314.394	568.62
314.624	602.62
314.853	618.62
315.083	624.62
315.312	622.62
315.542	570.62
315.771	537.62
316.001	548.62
316.23	602.62
316.46	582.62
316.689	573.62
316.919	533.62
317.148	529.62
317.377	558.62
317.607	604.62
317.836	652.62
318.065	648.62
318.295	625.62
318.524	581.62
318.753	578.62
318.983	589.62
319.212	561.62
319.441	573.62
319.67	557.62
319.9	565.62
320.129	609.62
320.358	606.62
320.587	612.62
320.816	606.62
321.046	597.62
321.275	587.62
321.504	611.62
321.733	626.62
321.962	605.62
322.191	552.62
322.42	560.62
322.649	554.62
322.878	542.62
323.108	564.62
323.337	589.62
323.566	578.62
323.795	556.62
324.024	589.62
324.253	562.62
324.482	564.62
324.71	518.62
324.939	546.62
325.168	554.62
325.397	558.62
325.626	588.62
325.855	585.62
326.084	589.62
326.313	596.62
326.542	574.62
326.77	585.62
326.999	575.62
327.228	569.62
327.457	546.62
327.686	546.62
327.914	564.62
328.143	577.62
328.372	550.62
328.6	546.62
328.829	560.62
329.058	544.62
329.287	569.62
329.515	584.62
329.744	590.62
329.972	621.62
330.201	645.62
330.43	606.62
330.658	590.62
330.887	579.62
331.115	579.62
331.344	604.62
331.572	588.62
331.801	588.62
332.03	589.62
332.258	601.62
332.486	605.62
332.715	616.62
332.943	629.62
333.172	597.62
333.4	604.62
333.629	613.62
333.857	666.62
334.085	756.62
334.314	834.62
334.542	849.62
334.771	793.62
334.999	672.62
335.227	645.62
335.455	657.62
335.684	646.62
335.912	648.62
336.14	669.62
336.369	637.62
336.597	619.62
336.825	631.62
337.053	651.62
337.281	675.62
337.51	683.62
337.738	714.62
337.966	662.62
338.194	612.62
338.422	606.62
338.65	598.62
338.878	616.62
339.106	588.62
339.334	561.62
339.562	582.62
339.79	590.62
340.018	627.62
340.246	632.62
340.474	635.62
340.702	640.62
340.93	628.62
341.158	620.62
341.386	592.62
341.614	601.62
341.842	606.62
342.07	598.62
342.298	604.62
342.526	619.62
342.754	603.62
342.981	584.62
343.209	589.62
343.437	579.62
343.665	600.62
343.893	606.62
344.12	650.62
344.348	629.62
344.576	636.62
344.804	588.62
345.031	616.62
345.259	629.62
345.487	578.62
345.714	574.62
345.942	574.62
346.17	568.62
346.397	582.62
346.625	583.62
346.853	531.62
347.08	544.62
347.308	557.62
347.535	547.62
347.763	570.62
347.99	580.62
348.218	556.62
348.445	569.62
348.673	578.62
348.9	582.62
349.128	608.62
349.355	617.62
349.583	601.62
349.81	572.62
350.037	532.62
350.265	538.62
350.492	562.62
350.72	562.62
350.947	603.62
351.174	583.62
351.402	543.62
351.629	529.62
351.856	518.62
352.083	532.62
352.311	550.62
352.538	544.62
352.765	582.62
352.992	589.62
353.22	572.62
353.447	569.62
353.674	558.62
353.901	568.62
354.128	564.62
354.355	572.62
354.583	585.62
354.81	589.62
355.037	568.62
355.264	564.62
355.491	561.62
355.718	582.62
355.945	565.62
356.172	543.62
356.399	577.62
356.626	592.62
356.853	608.62
357.08	632.62
357.307	706.62
357.534	657.62
357.761	564.62
357.988	538.62
358.215	542.62
358.441	563.62
358.668	545.62
358.895	557.62
359.122	618.62
359.349	632.62
359.576	606.62
359.802	604.62
360.029	573.62
360.256	566.62
360.483	555.62
360.709	568.62
360.936	608.62
361.163	634.62
361.39	697.62
361.616	723.62
361.843	692.62
362.07	659.62
362.296	557.62
362.523	557.62
362.749	580.62
362.976	596.62
363.203	590.62
363.429	556.62
363.656	543.62
363.882	601.62
364.109	680.62
364.335	704.62
364.562	619.62
364.788	605.62
365.015	561.62
365.241	572.62
365.468	582.62
365.694	601.62
365.92	639.62
366.147	572.62
366.373	549.62
366.599	595.62
366.826	570.62
367.052	556.62
367.278	584.62
367.505	604.62
367.731	604.62
367.957	594.62
368.184	637.62
368.41	684.62
368.636	649.62
368.862	663.62
369.089	663.62
369.315	637.62
369.541	597.62
369.767	606.62
369.993	567.62
370.219	592.62
370.445	605.62
370.672	666.62
370.898	676.62
371.124	660.62
371.35	633.62
371.576	656.62
371.802	662.62
372.028	642.62
372.254	621.62
372.48	586.62
372.706	605.62
372.932	615.62
373.158	624.62
373.384	649.62
373.61	650.62
373.835	663.62
374.061	648.62
374.287	663.62
374.513	631.62
374.739	657.62
374.965	645.62
375.191	643.62
375.416	668.62
375.642	679.62
375.868	695.62
376.094	733.62
376.319	670.62
376.545	640.62
376.771	685.62
376.997	703.62
377.222	704.62
377.448	656.62
377.674	684.62
377.899	682.62
378.125	713.62
378.35	688.62
378.576	668.62
378.802	626.62
379.027	620.62
379.253	619.62
379.478	652.62
379.704	664.62
379.929	644.62
380.155	651.62
380.38	664.62
380.606	679.62
380.831	670.62
381.057	694.62
381.282	690.62
381.507	697.62
381.733	733.62
381.958	773.62
382.184	676.62
382.409	701.62
382.634	692.62
382.86	683.62
383.085	708.62
383.31	741.62
383.535	785.62
383.761	800.62
383.986	752.62
384.211	726.62
384.436	721.62
384.662	756.62
384.887	770.62
385.112	728.62
385.337	732.62
385.562	725.62
385.787	752.62
386.013	772.62
386.238	765.62
386.463	765.62
386.688	852.62
386.913	837.62
387.138	852.62
387.363	786.62
387.588	776.62
387.813	784.62
388.038	753.62
388.263	820.62
388.488	758.62
388.713	726.62
388.938	728.62
389.163	742.62
389.387	766.62
389.612	737.62
389.837	782.62
390.062	772.62
390.287	792.62
390.512	756.62
390.736	769.62
390.961	731.62
391.186	718.62
391.411	772.62
391.636	742.62
391.86	760.62
392.085	774.62
392.31	751.62
392.534	771.62
392.759	768.62
392.984	768.62
393.208	776.62
393.433	804.62
393.658	847.62
393.882	805.62
394.107	779.62
394.331	772.62
394.556	772.62
394.78	805.62
395.005	794.62
395.229	860.62
395.454	889.62
395.678	869.62
395.903	840.62
396.127	816.62
396.352	803.62
396.576	857.62
396.801	857.62
397.025	852.62
397.249	841.62
397.474	850.62
397.698	824.62
397.922	859.62
398.147	897.62
398.371	918.62
398.595	918.62
398.82	894.62
399.044	867.62
399.268	909.62
399.492	954.62
399.717	969.62
399.941	984.62
400.165	984.62
400.389	950.62
400.613	1006.62
400.837	1147.62
401.062	1201.62
401.286	1035.62
401.51	1016.62
401.734	997.62
401.958	976.62
402.182	927.62
402.406	858.62
402.63	866.62
402.854	910.62
403.078	904.62
403.302	919.62
403.526	923.62
403.75	944.62
403.974	928.62
404.198	968.62
404.422	975.62
404.645	1007.62
404.869	965.62
405.093	933.62
405.317	920.62
405.541	942.62
405.765	944.62
405.988	932.62
406.212	967.62
406.436	956.62
406.66	1013.62
406.883	1038.62
407.107	1157.62
407.331	1280.62
407.555	1282.62
407.778	1116.62
408.002	964.62
408.226	966.62
408.449	959.62
408.673	932.62
408.896	944.62
409.12	946.62
409.344	967.62
409.567	955.62
409.791	963.62
410.014	974.62
410.238	1031.62
410.461	1042.62
410.685	960.62
410.908	919.62
411.132	956.62
411.355	937.62
411.578	938.62
411.802	946.62
412.025	959.62
412.249	962.62
412.472	931.62
412.695	920.62
412.919	908.62
413.142	934.62
413.365	953.62
413.589	967.62
413.812	995.62
414.035	997.62
414.258	939.62
414.482	940.62
414.705	933.62
414.928	910.62
415.151	897.62
415.374	920.62
415.597	970.62
415.821	962.62
416.044	954.62
416.267	955.62
416.49	917.62
416.713	920.62
416.936	964.62
417.159	1010.62
417.382	967.62
417.605	942.62
417.828	932.62
418.051	949.62
418.274	931.62
418.497	938.62
418.72	945.62
418.943	932.62
419.166	965.62
419.389	1017.62
419.611	962.62
419.834	958.62
420.057	953.62
420.28	948.62
420.503	955.62
420.726	964.62
420.948	954.62
421.171	926.62
421.394	947.62
421.617	1016.62
421.839	1029.62
422.062	991.62
422.285	940.62
422.507	924.62
422.73	941.62
422.953	894.62
423.175	908.62
423.398	927.62
423.621	918.62
423.843	950.62
424.066	1006.62
424.288	1024.62
424.511	1018.62
424.733	1023.62
424.956	934.62
425.178	944.62
425.401	943.62
425.623	949.62
425.846	941.62
426.068	986.62
426.291	968.62
426.513	958.62
426.735	994.62
426.958	1062.62
427.18	1064.62
427.402	981.62
427.625	1024.62
427.847	998.62
428.069	928.62
428.292	938.62
428.514	916.62
428.736	914.62
428.958	905.62
429.181	925.62
429.403	1085.62
429.625	1228.62
429.847	1052.62
430.069	949.62
430.292	1064.62
430.514	1058.62
430.736	989.62
430.958	956.62
431.18	929.62
431.402	879.62
431.624	849.62
431.846	801.62
432.068	750.62
432.29	743.62
432.512	808.62
432.734	894.62
432.956	926.62
433.178	965.62
433.4	948.62
433.622	974.62
433.844	950.62
434.066	845.62
434.287	817.62
434.509	796.62
434.731	841.62
434.953	911.62
435.175	934.62
435.397	905.62
435.618	894.62
435.84	840.62
436.062	828.62
436.284	913.62
436.505	941.62
436.727	922.62
436.949	931.62
437.17	882.62
437.392	861.62
437.614	841.62
437.835	820.62
438.057	801.62
438.278	872.62
438.5	885.62
438.721	892.62
438.943	930.62
439.165	930.62
439.386	888.62
439.608	945.62
439.829	970.62
440.05	978.62
440.272	1000.62
440.493	980.62
440.715	958.62
440.936	1012.62
441.158	1042.62
441.379	1044.62
441.6	1036.62
441.822	1027.62
442.043	1008.62
442.264	975.62
442.486	967.62
442.707	975.62
442.928	960.62
443.149	1000.62
443.371	1019.62
443.592	1043.62
443.813	1033.62
444.034	1029.62
444.255	1036.62
444.476	1011.62
444.698	1052.62
444.919	1077.62
445.14	1162.62
445.361	1102.62
445.582	1088.62
445.803	1066.62
446.024	1032.62
446.245	1080.62
446.466	1074.62
446.687	1029.62
446.908	1062.62
447.129	1058.62
447.35	1018.62
447.571	998.62
447.792	993.62
448.013	965.62
448.234	986.62
448.455	990.62
448.675	1000.62
448.896	920.62
449.117	901.62
449.338	933.62
449.559	977.62
449.779	992.62
450	1013.62
450.221	1067.62
450.442	1032.62
450.662	926.62
450.883	903.62
451.104	887.62
451.324	912.62
451.545	904.62
451.766	862.62
451.986	852.62
452.207	837.62
452.428	797.62
452.648	792.62
452.869	778.62
453.089	794.62
453.31	776.62
453.53	787.62
453.751	768.62
453.971	704.62
454.192	708.62
454.412	789.62
454.633	822.62
454.853	812.62
455.073	747.62
455.294	774.62
455.514	770.62
455.734	779.62
455.955	764.62
456.175	731.62
456.395	725.62
456.616	752.62
456.836	738.62
457.056	727.62
457.276	740.62
457.497	737.62
457.717	694.62
457.937	708.62
458.157	715.62
458.377	698.62
458.598	693.62
458.818	667.62
459.038	702.62
459.258	715.62
459.478	710.62
459.698	686.62
459.918	749.62
460.138	823.62
460.358	858.62
460.578	840.62
460.798	878.62
461.018	893.62
461.238	906.62
461.458	881.62
461.678	848.62
461.898	826.62
462.118	834.62
462.338	858.62
462.558	862.62
462.777	857.62
462.997	890.62
463.217	891.62
463.437	876.62
463.657	860.62
463.876	850.62
464.096	851.62
464.316	864.62
464.536	866.62
464.755	901.62
464.975	877.62
465.195	878.62
465.414	904.62
465.634	884.62
465.854	869.62
466.073	997.62
466.293	945.62
466.512	890.62
466.732	888.62
466.951	932.62
467.171	907.62
467.391	900.62
467.61	875.62
467.829	904.62
468.049	1012.62
468.268	1054.62
468.488	971.62
468.707	917.62
468.927	928.62
469.146	930.62
469.365	945.62
469.585	945.62
469.804	926.62
470.023	928.62
470.243	946.62
470.462	967.62
470.681	939.62
470.901	927.62
471.12	964.62
471.339	969.62
471.558	925.62
471.777	923.62
471.997	922.62
472.216	883.62
472.435	795.62
472.654	792.62
472.873	806.62
473.092	846.62
473.311	852.62
473.53	813.62
473.749	820.62
473.968	866.62
474.187	871.62
474.406	848.62
474.625	854.62
474.844	896.62
475.063	869.62
475.282	890.62
475.501	836.62
475.72	839.62
475.939	924.62
476.158	901.62
476.377	869.62
476.596	856.62
476.814	832.62
477.033	813.62
477.252	854.62
477.471	888.62
477.69	918.62
477.908	958.62
478.127	994.62
478.346	998.62
478.564	1005.62
478.783	1009.62
479.002	1047.62
479.22	1035.62
479.439	1032.62
479.658	1078.62
479.876	1024.62
480.095	919.62
480.313	908.62
480.532	897.62
480.751	871.62
480.969	822.62
481.188	816.62
481.406	809.62
481.624	768.62
481.843	824.62
482.061	822.62
482.28	902.62
482.498	898.62
482.717	868.62
482.935	922.62
483.153	971.62
483.372	1034.62
483.59	1000.62
483.808	985.62
484.027	954.62
484.245	1016.62
484.463	1227.62
484.681	1344.62
484.9	1081.62
485.118	1012.62
485.336	955.62
485.554	925.62
485.772	914.62
485.99	910.62
486.209	883.62
486.427	904.62
486.645	958.62
486.863	1003.62
487.081	1050.62
487.299	1036.62
487.517	1022.62
487.735	1097.62
487.953	1197.62
488.171	1197.62
488.389	1124.62
488.607	1092.62
488.825	1160.62
489.043	1116.62
489.261	1001.62
489.479	1057.62
489.696	1062.62
489.914	1090.62
490.132	1061.62
490.35	1073.62
490.568	1177.62
490.786	1183.62
491.003	1181.62
491.221	1269.62
491.439	1282.62
491.657	1295.62
491.874	1405.62
492.092	1439.62
492.31	1541.62
492.527	1447.62
492.745	1351.62
492.963	1314.62
493.18	1306.62
493.398	1358.62
493.615	1358.62
493.833	1278.62
494.05	1249.62
494.268	1258.62
494.485	1231.62
494.703	1257.62
494.92	1239.62
495.138	1201.62
495.355	1260.62
495.573	1289.62
495.79	1323.62
496.008	1284.62
496.225	1243.62
496.442	1248.62
496.66	1249.62
496.877	1187.62
497.094	1257.62
497.312	1242.62
497.529	1207.62
497.746	1197.62
497.963	1299.62
498.181	1306.62
498.398	1271.62
498.615	1207.62
498.832	1149.62
499.049	1182.62
499.267	1166.62
499.484	1242.62
499.701	1375.62
499.918	1395.62
500.135	1547.62
500.352	1605.62
500.569	1658.62
500.786	1728.62
501.003	1599.62
501.22	1406.62
501.437	1415.62
501.654	1419.62
501.871	1330.62
502.088	1241.62
502.305	1205.62
502.522	1160.62
502.739	1116.62
502.956	1108.62
503.172	1050.62
503.389	1035.62
503.606	1011.62
503.823	982.62
504.04	1028.62
504.256	1001.62
504.473	1012.62
504.69	1018.62
504.907	997.62
505.123	968.62
505.34	1074.62
505.557	1369.62
505.773	1102.62
505.99	961.62
506.207	896.62
506.423	885.62
506.64	904.62
506.856	933.62
507.073	1015.62
507.289	1070.62
507.506	1031.62
507.722	915.62
507.939	862.62
508.155	885.62
508.372	862.62
508.588	843.62
508.805	800.62
509.021	784.62
509.238	774.62
509.454	773.62
509.67	769.62
509.887	756.62
510.103	726.62
510.319	749.62
510.536	768.62
510.752	776.62
510.968	731.62
511.184	816.62
511.401	761.62
511.617	690.62
511.833	719.62
512.049	706.62
512.265	714.62
512.481	737.62
512.698	754.62
512.914	804.62
513.13	755.62
513.346	723.62
513.562	692.62
513.778	704.62
513.994	757.62
514.21	757.62
514.426	775.62
514.642	822.62
514.858	804.62
515.074	746.62
515.29	727.62
515.506	734.62
515.721	756.62
515.937	794.62
516.153	812.62
516.369	788.62
516.585	791.62
516.801	733.62
517.016	752.62
517.232	796.62
517.448	796.62
517.664	808.62
517.879	797.62
518.095	826.62
518.311	786.62
518.527	789.62
518.742	772.62
518.958	761.62
519.173	773.62
519.389	778.62
519.605	785.62
519.82	798.62
520.036	804.62
520.251	780.62
520.467	785.62
520.682	818.62
520.898	806.62
521.113	720.62
521.329	715.62
521.544	774.62
521.76	762.62
521.975	753.62
522.19	738.62
522.406	736.62
522.621	941.62
522.836	878.62
523.052	722.62
523.267	773.62
523.482	764.62
523.698	781.62
523.913	750.62
524.128	779.62
524.343	822.62
524.559	823.62
524.774	796.62
524.989	799.62
525.204	785.62
525.419	745.62
525.634	730.62
525.849	753.62
526.064	738.62
526.28	722.62
526.495	681.62
526.71	670.62
526.925	647.62
527.14	638.62
527.355	632.62
527.57	632.62
527.785	669.62
527.999	691.62
528.214	664.62
528.429	705.62
528.644	749.62
528.859	766.62
529.074	841.62
529.289	870.62
529.503	856.62
529.718	794.62
529.933	755.62
530.148	679.62
530.363	649.62
530.577	637.62
530.792	642.62
531.007	631.62
531.221	626.62
531.436	638.62
531.651	659.62
531.865	700.62
532.08	654.62
532.295	630.62
532.509	635.62
532.724	633.62
532.938	643.62
533.153	698.62
533.367	748.62
533.582	745.62
533.796	738.62
534.011	735.62
534.225	680.62
534.44	663.62
534.654	653.62
534.868	653.62
535.083	695.62
535.297	716.62
535.511	691.62
535.726	712.62
535.94	683.62
536.154	674.62
536.369	628.62
536.583	617.62
536.797	621.62
537.011	641.62
537.225	624.62
537.44	620.62
537.654	684.62
537.868	626.62
538.082	624.62
538.296	612.62
538.51	640.62
538.724	684.62
538.938	731.62
539.153	765.62
539.367	716.62
539.581	696.62
539.795	693.62
540.009	658.62
540.222	654.62
540.436	675.62
540.65	760.62
540.864	819.62
541.078	816.62
541.292	877.62
541.506	926.62
541.72	961.62
541.934	1046.62
542.147	1067.62
542.361	1016.62
542.575	895.62
542.789	833.62
543.002	786.62
543.216	753.62
543.43	770.62
543.644	808.62
543.857	864.62
544.071	902.62
544.285	936.62
544.498	928.62
544.712	925.62
544.925	950.62
545.139	985.62
545.352	935.62
545.566	918.62
545.779	942.62
545.993	945.62
546.206	970.62
546.42	954.62
546.633	953.62
546.847	946.62
547.06	961.62
547.274	948.62
547.487	1011.62
547.7	974.62
547.914	982.62
548.127	1003.62
548.34	933.62
548.554	969.62
548.767	940.62
548.98	939.62
549.193	910.62
549.407	959.62
549.62	964.62
549.833	913.62
550.046	950.62
550.259	919.62
550.473	916.62
550.686	917.62
550.899	877.62
551.112	871.62
551.325	808.62
551.538	823.62
551.751	864.62
551.964	731.62
552.177	730.62
552.39	790.62
552.603	851.62
552.816	868.62
553.029	920.62
553.242	941.62
553.455	904.62
553.667	928.62
553.88	910.62
554.093	887.62
554.306	861.62
554.519	820.62
554.732	833.62
554.944	833.62
555.157	854.62
555.37	788.62
555.583	813.62
555.795	765.62
556.008	748.62
556.221	720.62
556.433	722.62
556.646	733.62
556.859	772.62
557.071	759.62
557.284	731.62
557.496	737.62
557.709	742.62
557.921	748.62
558.134	748.62
558.346	736.62
558.559	705.62
558.771	719.62
558.984	699.62
559.196	692.62
559.409	714.62
559.621	690.62
559.833	662.62
560.046	678.62
560.258	676.62
560.47	675.62
560.683	712.62
560.895	688.62
561.107	675.62
561.32	685.62
561.532	676.62
561.744	675.62
561.956	685.62
562.168	682.62
562.381	635.62
562.593	638.62
562.805	622.62
563.017	638.62
563.229	639.62
563.441	652.62
563.653	650.62
563.865	641.62
564.077	615.62
564.289	632.62
564.501	651.62
564.713	648.62
564.925	646.62
565.137	671.62
565.349	630.62
565.561	629.62
565.773	616.62
565.985	632.62
566.197	674.62
566.408	689.62
566.62	688.62
566.832	702.62
567.044	693.62
567.255	657.62
567.467	658.62
567.679	655.62
567.891	648.62
568.102	620.62
568.314	576.62
568.526	544.62
568.737	529.62
568.949	486.62
569.161	477.62
569.372	452.62
569.584	465.62
569.795	473.62
570.007	450.62
570.218	450.62
570.43	444.62
570.641	455.62
570.853	484.62
571.064	475.62
571.276	480.62
571.487	487.62
571.698	475.62
571.91	475.62
572.121	490.62
572.333	480.62
572.544	458.62
572.755	421.62
572.966	411.62
573.178	406.62
573.389	377.62
573.6	420.62
573.811	454.62
574.023	414.62
574.234	399.62
574.445	400.62
574.656	396.62
574.867	390.62
575.078	413.62
575.289	388.62
575.501	407.62
575.712	393.62
575.923	401.62
576.134	413.62
576.345	401.62
576.556	413.62
576.767	387.62
576.978	393.62
577.188	401.62
577.399	369.62
577.61	389.62
577.821	388.62
578.032	382.62
578.243	366.62
578.454	362.62
578.665	380.62
578.875	357.62
579.086	336.62
579.297	365.62
579.508	349.62
579.718	360.62
579.929	352.62
580.14	338.62
580.35	353.62
580.561	368.62
580.772	376.62
580.982	377.62
581.193	366.62
581.403	378.62
581.614	342.62
581.825	343.62
582.035	364.62
582.246	350.62
582.456	326.62
582.667	353.62
582.877	346.62
583.087	327.62
583.298	333.62
583.508	346.62
583.719	333.62
583.929	321.62
584.139	345.62
584.35	334.62
584.56	337.62
584.77	336.62
584.981	333.62
585.191	325.62
585.401	333.62
585.611	348.62
585.821	331.62
586.032	330.62
586.242	329.62
586.452	323.62
586.662	342.62
586.872	328.62
587.082	294.62
587.292	329.62
587.502	332.62
587.713	309.62
587.923	307.62
588.133	322.62
588.343	329.62
588.553	306.62
588.762	309.62
588.972	317.62
589.182	309.62
589.392	317.62
589.602	324.62
589.812	324.62
590.022	312.62
590.232	310.62
590.441	310.62
590.651	321.62
590.861	321.62
591.071	313.62
591.281	324.62
591.49	313.62
591.7	308.62
591.91	310.62
592.119	310.62
592.329	316.62
592.539	340.62
592.748	313.62
592.958	346.62
593.167	344.62
593.377	342.62
593.587	333.62
593.796	326.62
594.006	342.62
594.215	328.62
594.424	339.62
594.634	337.62
594.843	370.62
595.053	376.62
595.262	362.62
595.472	334.62
595.681	325.62
595.89	328.62
596.1	310.62
596.309	344.62
596.518	338.62
596.727	349.62
596.937	327.62
597.146	322.62
597.355	329.62
597.564	323.62
597.774	302.62
597.983	279.62
598.192	298.62
598.401	269.62
598.61	307.62
598.819	296.62
599.028	289.62
599.237	294.62
599.446	279.62
599.655	298.62
599.864	285.62
600.073	315.62
600.282	293.62
600.491	284.62
600.7	308.62
600.909	313.62
601.118	328.62
601.327	334.62
601.536	358.62
601.745	347.62
601.953	339.62
602.162	353.62
602.371	351.62
602.58	370.62
602.789	368.62
602.997	362.62
603.206	357.62
603.415	358.62
603.623	356.62
603.832	355.62
604.041	331.62
604.249	321.62
604.458	315.62
604.666	318.62
604.875	313.62
605.084	304.62
605.292	340.62
605.501	360.62
605.709	342.62
605.918	368.62
606.126	363.62
606.334	376.62
606.543	364.62
606.751	368.62
606.96	352.62
607.168	346.62
607.376	360.62
607.585	356.62
607.793	374.62
608.001	359.62
608.21	363.62
608.418	355.62
608.626	362.62
608.834	363.62
609.043	345.62
609.251	356.62
609.459	382.62
609.667	352.62
609.875	378.62
610.083	394.62
610.291	365.62
610.499	384.62
610.707	363.62
610.916	344.62
611.124	368.62
611.332	388.62
611.54	379.62
611.748	372.62
611.955	353.62
612.163	344.62
612.371	377.62
612.579	364.62
612.787	372.62
612.995	374.62
613.203	380.62
613.411	374.62
613.618	372.62
613.826	353.62
614.034	370.62
614.242	357.62
614.449	358.62
614.657	376.62
614.865	366.62
615.072	351.62
615.28	383.62
615.488	374.62
615.695	359.62
615.903	355.62
616.111	355.62
616.318	361.62
616.526	360.62
616.733	353.62
616.941	348.62
617.148	359.62
617.356	344.62
617.563	324.62
617.771	346.62
617.978	340.62
618.185	349.62
618.393	347.62
618.6	370.62
618.807	340.62
619.015	340.62
619.222	340.62
619.429	324.62
619.637	314.62
619.844	313.62
620.051	303.62
620.258	321.62
620.466	329.62
620.673	337.62
620.88	309.62
621.087	319.62
621.294	328.62
621.501	313.62
621.708	327.62
621.915	317.62
622.122	343.62
622.329	336.62
622.536	317.62
622.743	312.62
622.95	331.62
623.157	320.62
623.364	315.62
623.571	345.62
623.778	329.62
623.985	320.62
624.192	329.62
624.399	327.62
624.606	325.62
624.812	315.62
625.019	309.62
625.226	322.62
625.433	301.62
625.639	285.62
625.846	285.62
626.053	260.62
626.259	233.62
626.466	266.62
626.673	242.62
626.879	245.62
627.086	241.62
627.293	276.62
627.499	280.62
627.706	300.62
627.912	299.62
628.119	300.62
628.325	297.62
628.532	314.62
628.738	288.62
628.945	293.62
629.151	289.62
629.357	285.62
629.564	292.62
629.77	283.62
629.976	270.62
630.183	268.62
630.389	259.62
630.595	275.62
630.802	284.62
631.008	272.62
631.214	266.62
631.42	265.62
631.627	262.62
631.833	249.62
632.039	258.62
632.245	268.62
632.451	260.62
632.657	256.62
632.863	260.62
633.069	267.62
633.275	279.62
633.481	261.62
633.688	244.62
633.893	272.62
634.099	251.62
634.305	256.62
634.511	256.62
634.717	247.62
634.923	238.62
635.129	221.62
635.335	242.62
635.541	227.62
635.747	227.62
635.952	267.62
636.158	274.62
636.364	269.62
636.57	277.62
636.775	256.62
636.981	284.62
637.187	268.62
637.392	276.62
637.598	284.62
637.804	257.62
638.009	256.62
638.215	244.62
638.421	264.62
638.626	248.62
638.832	256.62
639.037	243.62
639.243	242.62
639.448	245.62
639.654	259.62
639.859	241.62
640.065	258.62
640.27	262.62
640.475	255.62
640.681	268.62
640.886	260.62
641.091	243.62
641.297	267.62
641.502	246.62
641.707	241.62
641.913	261.62
642.118	271.62
642.323	256.62
642.528	235.62
642.733	250.62
642.939	236.62
643.144	228.62
643.349	229.62
643.554	235.62
643.759	262.62
643.964	242.62
644.169	250.62
644.374	242.62
644.579	272.62
644.784	237.62
644.989	247.62
645.194	249.62
645.399	247.62
645.604	221.62
645.809	252.62
646.014	255.62
646.219	253.62
646.423	234.62
646.628	266.62
646.833	244.62
647.038	255.62
647.243	241.62
647.447	230.62
647.652	242.62
647.857	267.62
648.062	250.62
648.266	235.62
648.471	243.62
648.676	240.62
648.88	236.62
649.085	232.62
649.289	259.62
649.494	230.62
649.698	242.62
649.903	239.62
650.107	247.62
650.312	243.62
650.516	234.62
650.721	242.62
650.925	241.62
651.13	233.62
651.334	228.62
651.539	236.62
651.743	234.62
651.947	222.62
652.152	228.62
652.356	202.62
652.56	219.62
652.764	212.62
652.969	203.62
653.173	220.62
653.377	214.62
653.581	200.62
653.785	186.62
653.99	201.62
654.194	199.62
654.398	200.62
654.602	214.62
654.806	199.62
655.01	200.62
655.214	211.62
655.418	230.62
655.622	214.62
655.826	233.62
656.03	221.62
656.234	217.62
656.438	235.62
656.642	227.62
656.846	223.62
657.049	221.62
657.253	195.62
657.457	186.62
657.661	183.62
657.865	177.62
658.068	162.62
658.272	150.62
658.476	157.62
658.68	161.62
658.883	150.62
659.087	146.62
659.291	125.62
659.494	138.62
659.698	146.62
659.901	132.62
660.105	140.62
660.309	127.62
660.512	125.62
660.716	118.62
660.919	113.62
661.123	93.62
661.326	104.62
661.53	115.62
661.733	106.62
661.936	93.62
662.14	99.62
662.343	102.62
662.546	85.62
662.75	104.62
662.953	92.62
663.156	106.62
663.36	93.62
663.563	83.62
663.766	98.62
663.969	98.62
664.173	85.62
664.376	86.62
664.579	81.62
664.782	88.62
664.985	90.62
665.188	78.62
665.391	99.62
665.594	92.62
665.797	89.62
666	89.62
666.203	62.62
666.406	80.62
666.609	100.62
666.812	87.62
667.015	78.62
667.218	103.62
667.421	93.62
667.624	91.62
667.827	74.62
668.03	91.62
668.232	86.62
668.435	79.62
668.638	84.62
668.841	87.62
669.043	77.62
669.246	80.62
669.449	81.62
669.651	94.62
669.854	70.62
670.057	84.62
670.259	83.62
670.462	88.62
670.665	89.62
670.867	80.62
671.07	81.62
671.272	85.62
671.475	79.62
671.677	80.62
671.88	77.62
672.082	91.62
672.284	101.62
672.487	84.62
672.689	84.62
672.892	83.62
