Data from WStandard_LampEnergy5.5LIBS07252019.E.O._I.C._HRD10591_16-07-25-920.txt Node
Date: Thu Jul 25 16:07:25 EDT 2019
User: cochatt
Spectrometer: HR+D1059
Trigger mode: 1
Integration Time (sec): 1.000000E-1
Scans to average: 1
Electric dark correction enabled: true
Nonlinearity correction enabled: false
Boxcar width: 0
XAxis mode: Wavelengths
Number of Pixels in Spectrum: 2048
>>>>>Begin Spectral Data<<<<<
223.165	-18.62
223.4	-18.62
223.635	-18.62
223.869	-34.62
224.104	-20.62
224.338	-10.62
224.573	-10.62
224.808	-10.62
225.042	-8.62
225.277	-16.62
225.511	-5.62
225.746	-7.62
225.98	4.38
226.215	11.38
226.449	29.38
226.683	28.38
226.918	39.38
227.152	31.38
227.387	40.38
227.621	34.38
227.856	25.38
228.09	47.38
228.324	52.38
228.559	52.38
228.793	157.38
229.027	376.38
229.262	379.38
229.496	378.38
229.73	417.38
229.964	459.38
230.199	478.38
230.433	498.38
230.667	525.38
230.901	559.38
231.136	490.38
231.37	475.38
231.604	476.38
231.838	472.38
232.072	477.38
232.306	450.38
232.541	492.38
232.775	589.38
233.009	631.38
233.243	581.38
233.477	509.38
233.711	550.38
233.945	579.38
234.179	569.38
234.413	634.38
234.647	673.38
234.881	656.38
235.115	569.38
235.349	569.38
235.583	579.38
235.817	585.38
236.051	556.38
236.285	572.38
236.519	588.38
236.753	677.38
236.987	697.38
237.221	678.38
237.455	748.38
237.689	755.38
237.922	697.38
238.156	684.38
238.39	681.38
238.624	720.38
238.858	768.38
239.091	815.38
239.325	841.38
239.559	951.38
239.793	989.38
240.027	1077.38
240.26	1065.38
240.494	793.38
240.728	757.38
240.961	736.38
241.195	771.38
241.429	832.38
241.662	846.38
241.896	797.38
242.13	775.38
242.363	899.38
242.597	977.38
242.83	932.38
243.064	943.38
243.298	979.38
243.531	958.38
243.765	949.38
243.998	961.38
244.232	864.38
244.465	783.38
244.699	827.38
244.932	927.38
245.166	1094.38
245.399	1045.38
245.633	937.38
245.866	922.38
246.099	970.38
246.333	999.38
246.566	988.38
246.8	1079.38
247.033	1196.38
247.266	1139.38
247.5	1110.38
247.733	1073.38
247.966	1135.38
248.2	1285.38
248.433	1199.38
248.666	1231.38
248.899	1376.38
249.133	1590.38
249.366	1805.38
249.599	1525.38
249.832	1317.38
250.066	1308.38
250.299	1334.38
250.532	1263.38
250.765	1073.38
250.998	1171.38
251.231	1244.38
251.465	1299.38
251.698	1203.38
251.931	1209.38
252.164	1236.38
252.397	1301.38
252.63	1294.38
252.863	1153.38
253.096	1135.38
253.329	1202.38
253.562	1235.38
253.795	1302.38
254.028	1307.38
254.261	1217.38
254.494	1179.38
254.727	1124.38
254.96	1192.38
255.193	1279.38
255.426	1460.38
255.659	1677.38
255.892	1760.38
256.124	1414.38
256.357	1384.38
256.59	1498.38
256.823	1487.38
257.056	1456.38
257.289	1732.38
257.521	1961.38
257.754	1766.38
257.987	1639.38
258.22	1837.38
258.452	1750.38
258.685	1427.38
258.918	1412.38
259.151	1436.38
259.383	1380.38
259.616	1165.38
259.849	1239.38
260.081	1415.38
260.314	1619.38
260.547	1760.38
260.779	1791.38
261.012	1691.38
261.244	1497.38
261.477	1419.38
261.71	1449.38
261.942	1450.38
262.175	1404.38
262.407	1516.38
262.64	1423.38
262.872	1316.38
263.105	1310.38
263.337	1298.38
263.57	1346.38
263.802	1328.38
264.035	1251.38
264.267	1185.38
264.499	1168.38
264.732	1271.38
264.964	1324.38
265.197	1403.38
265.429	1491.38
265.661	1655.38
265.894	1772.38
266.126	1865.38
266.358	1624.38
266.591	1681.38
266.823	1866.38
267.055	1713.38
267.287	1631.38
267.52	1619.38
267.752	1555.38
267.984	1600.38
268.216	1691.38
268.448	1724.38
268.681	1683.38
268.913	1577.38
269.145	1485.38
269.377	1407.38
269.609	1548.38
269.841	1784.38
270.073	2111.38
270.306	2308.38
270.538	2498.38
270.77	2164.38
271.002	1802.38
271.234	1700.38
271.466	1686.38
271.698	1843.38
271.93	2308.38
272.162	2288.38
272.394	2073.38
272.626	1935.38
272.858	1697.38
273.09	1495.38
273.322	1469.38
273.553	1396.38
273.785	1416.38
274.017	1485.38
274.249	1590.38
274.481	1628.38
274.713	1496.38
274.945	1434.38
275.176	1465.38
275.408	1460.38
275.64	1428.38
275.872	1365.38
276.104	1487.38
276.335	1700.38
276.567	1950.38
276.799	1971.38
277.031	1745.38
277.262	1643.38
277.494	1686.38
277.726	1934.38
277.957	1936.38
278.189	1741.38
278.421	1556.38
278.652	1527.38
278.884	1516.38
279.115	1488.38
279.347	1571.38
279.579	1478.38
279.81	1482.38
280.042	1673.38
280.273	1842.38
280.505	1789.38
280.736	1867.38
280.968	1780.38
281.199	1531.38
281.431	1462.38
281.662	1445.38
281.894	1437.38
282.125	1491.38
282.356	1559.38
282.588	1587.38
282.819	1548.38
283.051	1691.38
283.282	1839.38
283.513	1808.38
283.745	1552.38
283.976	1415.38
284.207	1436.38
284.439	1492.38
284.67	1519.38
284.901	1545.38
285.132	1588.38
285.364	1510.38
285.595	1561.38
285.826	1531.38
286.057	1545.38
286.288	1510.38
286.52	1585.38
286.751	1707.38
286.982	1777.38
287.213	1634.38
287.444	1519.38
287.675	1456.38
287.906	1583.38
288.138	1627.38
288.369	1653.38
288.6	1566.38
288.831	1497.38
289.062	1478.38
289.293	1539.38
289.524	1536.38
289.755	1597.38
289.986	1597.38
290.217	1463.38
290.448	1485.38
290.679	1555.38
290.91	1548.38
291.141	1641.38
291.371	1677.38
291.602	1654.38
291.833	1651.38
292.064	1733.38
292.295	1649.38
292.526	1708.38
292.757	1808.38
292.987	1682.38
293.218	1600.38
293.449	1704.38
293.68	1883.38
293.91	2099.38
294.141	1955.38
294.372	1819.38
294.603	1849.38
294.833	1964.38
295.064	1852.38
295.295	1683.38
295.525	1631.38
295.756	1512.38
295.987	1455.38
296.217	1495.38
296.448	1511.38
296.679	1510.38
296.909	1503.38
297.14	1531.38
297.37	1522.38
297.601	1673.38
297.831	1769.38
298.062	1791.38
298.292	1580.38
298.523	1562.38
298.753	1520.38
298.984	1560.38
299.214	1580.38
299.445	1604.38
299.675	1655.38
299.905	1652.38
300.136	1588.38
300.366	1588.38
300.597	1514.38
300.827	1531.38
301.057	1567.38
301.288	1672.38
301.518	1614.38
301.748	1673.38
301.979	1775.38
302.209	1818.38
302.439	1934.38
302.669	2051.38
302.9	1821.38
303.13	1685.38
303.36	1631.38
303.59	1695.38
303.82	1685.38
304.051	1659.38
304.281	1690.38
304.511	1656.38
304.741	1764.38
304.971	1919.38
305.201	2151.38
305.431	1959.38
305.661	1632.38
305.891	1451.38
306.121	1465.38
306.352	1525.38
306.582	1595.38
306.812	1715.38
307.042	1858.38
307.272	1874.38
307.502	1856.38
307.731	2035.38
307.961	2241.38
308.191	2066.38
308.421	1742.38
308.651	1623.38
308.881	1615.38
309.111	1620.38
309.341	1562.38
309.571	1615.38
309.8	1578.38
310.03	1581.38
310.26	1596.38
310.49	1578.38
310.72	1631.38
310.949	1692.38
311.179	1729.38
311.409	1683.38
311.639	1652.38
311.868	1583.38
312.098	1623.38
312.328	1618.38
312.557	1575.38
312.787	1659.38
313.017	1717.38
313.246	1680.38
313.476	1680.38
313.706	1759.38
313.935	1688.38
314.165	1727.38
314.394	1745.38
314.624	1863.38
314.853	1969.38
315.083	2030.38
315.312	2174.38
315.542	2016.38
315.771	1756.38
316.001	1716.38
316.23	1828.38
316.46	1829.38
316.689	1808.38
316.919	1698.38
317.148	1643.38
317.377	1617.38
317.607	1733.38
317.836	2005.38
318.065	2107.38
318.295	2042.38
318.524	1891.38
318.753	1805.38
318.983	1802.38
319.212	1794.38
319.441	1779.38
319.67	1757.38
319.9	1738.38
320.129	1839.38
320.358	1923.38
320.587	1991.38
320.816	1979.38
321.046	1919.38
321.275	1808.38
321.504	1836.38
321.733	1984.38
321.962	1932.38
322.191	1757.38
322.42	1774.38
322.649	1711.38
322.878	1697.38
323.108	1789.38
323.337	1854.38
323.566	1843.38
323.795	1823.38
324.024	1819.38
324.253	1805.38
324.482	1860.38
324.71	1727.38
324.939	1635.38
325.168	1649.38
325.397	1729.38
325.626	1780.38
325.855	1861.38
326.084	1770.38
326.313	1745.38
326.542	1795.38
326.77	1846.38
326.999	1823.38
327.228	1768.38
327.457	1717.38
327.686	1652.38
327.914	1657.38
328.143	1723.38
328.372	1768.38
328.6	1804.38
328.829	1754.38
329.058	1702.38
329.287	1696.38
329.515	1744.38
329.744	1744.38
329.972	1884.38
330.201	1982.38
330.43	1960.38
330.658	1852.38
330.887	1860.38
331.115	1829.38
331.344	1847.38
331.572	1826.38
331.801	1839.38
332.03	1853.38
332.258	1863.38
332.486	1911.38
332.715	1870.38
332.943	1900.38
333.172	1846.38
333.4	1881.38
333.629	1917.38
333.857	1989.38
334.085	2260.38
334.314	2476.38
334.542	2793.38
334.771	2521.38
334.999	2251.38
335.227	2117.38
335.455	2020.38
335.684	1987.38
335.912	2007.38
336.14	2112.38
336.369	2033.38
336.597	1915.38
336.825	1867.38
337.053	1970.38
337.281	2007.38
337.51	2119.38
337.738	2241.38
337.966	2148.38
338.194	1935.38
338.422	1870.38
338.65	1817.38
338.878	1808.38
339.106	1765.38
339.334	1764.38
339.562	1748.38
339.79	1788.38
340.018	1875.38
340.246	1932.38
340.474	1954.38
340.702	1920.38
340.93	1936.38
341.158	1903.38
341.386	1873.38
341.614	1829.38
341.842	1799.38
342.07	1861.38
342.298	1889.38
342.526	1875.38
342.754	1835.38
342.981	1793.38
343.209	1801.38
343.437	1762.38
343.665	1805.38
343.893	1864.38
344.12	1947.38
344.348	1967.38
344.576	1891.38
344.804	1834.38
345.031	1828.38
345.259	1824.38
345.487	1778.38
345.714	1705.38
345.942	1688.38
346.17	1693.38
346.397	1744.38
346.625	1780.38
346.853	1639.38
347.08	1642.38
347.308	1653.38
347.535	1695.38
347.763	1764.38
347.99	1729.38
348.218	1622.38
348.445	1658.38
348.673	1704.38
348.9	1722.38
349.128	1803.38
349.355	1859.38
349.583	1788.38
349.81	1738.38
350.037	1592.38
350.265	1597.38
350.492	1619.38
350.72	1650.38
350.947	1681.38
351.174	1717.38
351.402	1668.38
351.629	1622.38
351.856	1599.38
352.083	1583.38
352.311	1562.38
352.538	1629.38
352.765	1692.38
352.992	1779.38
353.22	1676.38
353.447	1601.38
353.674	1609.38
353.901	1699.38
354.128	1675.38
354.355	1625.38
354.583	1696.38
354.81	1762.38
355.037	1709.38
355.264	1716.38
355.491	1713.38
355.718	1725.38
355.945	1681.38
356.172	1631.38
356.399	1634.38
356.626	1621.38
356.853	1663.38
357.08	1813.38
357.307	1976.38
357.534	2057.38
357.761	1772.38
357.988	1627.38
358.215	1557.38
358.441	1592.38
358.668	1613.38
358.895	1572.38
359.122	1704.38
359.349	1882.38
359.576	1888.38
359.802	1710.38
360.029	1638.38
360.256	1573.38
360.483	1633.38
360.709	1675.38
360.936	1749.38
361.163	1766.38
361.39	1946.38
361.616	2123.38
361.843	2091.38
362.07	1951.38
362.296	1680.38
362.523	1670.38
362.749	1660.38
362.976	1692.38
363.203	1736.38
363.429	1658.38
363.656	1641.38
363.882	1624.38
364.109	1822.38
364.335	2033.38
364.562	1871.38
364.788	1779.38
365.015	1712.38
365.241	1617.38
365.468	1648.38
365.694	1731.38
365.92	1812.38
366.147	1745.38
366.373	1609.38
366.599	1620.38
366.826	1609.38
367.052	1641.38
367.278	1650.38
367.505	1681.38
367.731	1711.38
367.957	1722.38
368.184	1763.38
368.41	1824.38
368.636	1843.38
368.862	1881.38
369.089	1902.38
369.315	1849.38
369.541	1725.38
369.767	1677.38
369.993	1630.38
370.219	1633.38
370.445	1682.38
370.672	1763.38
370.898	1868.38
371.124	1888.38
371.35	1734.38
371.576	1799.38
371.802	1881.38
372.028	1799.38
372.254	1745.38
372.48	1684.38
372.706	1698.38
372.932	1712.38
373.158	1722.38
373.384	1716.38
373.61	1744.38
373.835	1900.38
374.061	1764.38
374.287	1760.38
374.513	1772.38
374.739	1732.38
374.965	1752.38
375.191	1782.38
375.416	1786.38
375.642	1775.38
375.868	1877.38
376.094	1938.38
376.319	1887.38
376.545	1800.38
376.771	1783.38
376.997	1890.38
377.222	1851.38
377.448	1787.38
377.674	1836.38
377.899	1806.38
378.125	1969.38
378.35	1938.38
378.576	1794.38
378.802	1695.38
379.027	1700.38
379.253	1699.38
379.478	1703.38
379.704	1753.38
379.929	1752.38
380.155	1744.38
380.38	1724.38
380.606	1797.38
380.831	1773.38
381.057	1843.38
381.282	1882.38
381.507	1817.38
381.733	1912.38
381.958	2027.38
382.184	1873.38
382.409	1793.38
382.634	1842.38
382.86	1844.38
383.085	1858.38
383.31	1883.38
383.535	2050.38
383.761	2159.38
383.986	2088.38
384.211	2007.38
384.436	1965.38
384.662	2058.38
384.887	2136.38
385.112	2017.38
385.337	2044.38
385.562	2031.38
385.787	1988.38
386.013	2072.38
386.238	2043.38
386.463	2014.38
386.688	2145.38
386.913	2276.38
387.138	2272.38
387.363	2039.38
387.588	2036.38
387.813	2055.38
388.038	2052.38
388.263	2172.38
388.488	2069.38
388.713	1892.38
388.938	1917.38
389.163	1947.38
389.387	1982.38
389.612	1986.38
389.837	2014.38
390.062	2009.38
390.287	2018.38
390.512	1991.38
390.736	1956.38
390.961	1900.38
391.186	1876.38
391.411	1921.38
391.636	1955.38
391.86	1982.38
392.085	1980.38
392.31	1952.38
392.534	2003.38
392.759	2023.38
392.984	1989.38
393.208	2020.38
393.433	2081.38
393.658	2109.38
393.882	2166.38
394.107	2055.38
394.331	1986.38
394.556	1957.38
394.78	2005.38
395.005	2069.38
395.229	2122.38
395.454	2293.38
395.678	2295.38
395.903	2194.38
396.127	2115.38
396.352	2121.38
396.576	2164.38
396.801	2214.38
397.025	2185.38
397.249	2210.38
397.474	2103.38
397.698	2113.38
397.922	2203.38
398.147	2271.38
398.371	2421.38
398.595	2416.38
398.82	2263.38
399.044	2289.38
399.268	2419.38
399.492	2577.38
399.717	2640.38
399.941	2705.38
400.165	2586.38
400.389	2562.38
400.613	2467.38
400.837	2772.38
401.062	3212.38
401.286	2771.38
401.51	2467.38
401.734	2575.38
401.958	2530.38
402.182	2361.38
402.406	2252.38
402.63	2274.38
402.854	2265.38
403.078	2323.38
403.302	2304.38
403.526	2352.38
403.75	2363.38
403.974	2390.38
404.198	2395.38
404.422	2423.38
404.645	2559.38
404.869	2525.38
405.093	2347.38
405.317	2318.38
405.541	2381.38
405.765	2445.38
405.988	2369.38
406.212	2425.38
406.436	2434.38
406.66	2540.38
406.883	2561.38
407.107	2821.38
407.331	3063.38
407.555	3313.38
407.778	3100.38
408.002	2561.38
408.226	2470.38
408.449	2477.38
408.673	2426.38
408.896	2424.38
409.12	2465.38
409.344	2395.38
409.567	2337.38
409.791	2352.38
410.014	2417.38
410.238	2567.38
410.461	2687.38
410.685	2427.38
410.908	2279.38
411.132	2406.38
411.355	2347.38
411.578	2304.38
411.802	2305.38
412.025	2371.38
412.249	2285.38
412.472	2215.38
412.695	2200.38
412.919	2296.38
413.142	2232.38
413.365	2248.38
413.589	2325.38
413.812	2413.38
414.035	2536.38
414.258	2308.38
414.482	2290.38
414.705	2272.38
414.928	2231.38
415.151	2250.38
415.374	2221.38
415.597	2287.38
415.821	2293.38
416.044	2368.38
416.267	2376.38
416.49	2164.38
416.713	2212.38
416.936	2241.38
417.159	2351.38
417.382	2337.38
417.605	2203.38
417.828	2307.38
418.051	2330.38
418.274	2277.38
418.497	2202.38
418.72	2233.38
418.943	2156.38
419.166	2347.38
419.389	2410.38
419.611	2307.38
419.834	2217.38
420.057	2315.38
420.28	2186.38
420.503	2183.38
420.726	2247.38
420.948	2260.38
421.171	2153.38
421.394	2198.38
421.617	2233.38
421.839	2202.38
422.062	2211.38
422.285	2167.38
422.507	2215.38
422.73	2132.38
422.953	2072.38
423.175	2098.38
423.398	2152.38
423.621	2171.38
423.843	2184.38
424.066	2240.38
424.288	2307.38
424.511	2329.38
424.733	2302.38
424.956	2049.38
425.178	2088.38
425.401	2110.38
425.623	2166.38
425.846	2132.38
426.068	2237.38
426.291	2299.38
426.513	2243.38
426.735	2227.38
426.958	2325.38
427.18	2542.38
427.402	2318.38
427.625	2388.38
427.847	2410.38
428.069	2221.38
428.292	2118.38
428.514	2042.38
428.736	2055.38
428.958	2112.38
429.181	2127.38
429.403	2394.38
429.625	2979.38
429.847	2604.38
430.069	2150.38
430.292	2385.38
430.514	2491.38
430.736	2260.38
430.958	2403.38
431.18	2261.38
431.402	2134.38
431.624	2113.38
431.846	2119.38
432.068	2079.38
432.29	2127.38
432.512	2119.38
432.734	2151.38
432.956	2172.38
433.178	2315.38
433.4	2265.38
433.622	2251.38
433.844	2123.38
434.066	2100.38
434.287	2081.38
434.509	2188.38
434.731	2291.38
434.953	2463.38
435.175	2412.38
435.397	2227.38
435.618	2239.38
435.84	2264.38
436.062	2195.38
436.284	2228.38
436.505	2232.38
436.727	2285.38
436.949	2186.38
437.17	2109.38
437.392	2133.38
437.614	2141.38
437.835	2096.38
438.057	2198.38
438.278	2356.38
438.5	2175.38
438.721	2130.38
438.943	2123.38
439.165	2102.38
439.386	2088.38
439.608	2097.38
439.829	2118.38
440.05	2114.38
440.272	2100.38
440.493	2034.38
440.715	2080.38
440.936	2241.38
441.158	2515.38
441.379	2428.38
441.6	2367.38
441.822	2329.38
442.043	2251.38
442.264	2204.38
442.486	2107.38
442.707	2065.38
442.928	2084.38
443.149	2123.38
443.371	2299.38
443.592	2424.38
443.813	2323.38
444.034	2315.38
444.255	2294.38
444.476	2364.38
444.698	2469.38
444.919	2385.38
445.14	2489.38
445.361	2507.38
445.582	2562.38
445.803	2445.38
446.024	2323.38
446.245	2415.38
446.466	2357.38
446.687	2193.38
446.908	2209.38
447.129	2123.38
447.35	2195.38
447.571	2149.38
447.792	2100.38
448.013	2046.38
448.234	2099.38
448.455	2253.38
448.675	2197.38
448.896	2029.38
449.117	1992.38
449.338	2055.38
449.559	2167.38
449.779	2285.38
450	2463.38
450.221	2713.38
450.442	2601.38
450.662	2270.38
450.883	1987.38
451.104	1984.38
451.324	2059.38
451.545	2095.38
451.766	2063.38
451.986	1952.38
452.207	1956.38
452.428	1892.38
452.648	1869.38
452.869	1923.38
453.089	2084.38
453.31	2126.38
453.53	2152.38
453.751	2090.38
453.971	1907.38
454.192	1925.38
454.412	2116.38
454.633	2079.38
454.853	1973.38
455.073	1843.38
455.294	1864.38
455.514	1824.38
455.734	1844.38
455.955	1908.38
456.175	1873.38
456.395	1891.38
456.616	1997.38
456.836	1993.38
457.056	1979.38
457.276	1931.38
457.497	1873.38
457.717	1819.38
457.937	1865.38
458.157	1945.38
458.377	1856.38
458.598	1891.38
458.818	1901.38
459.038	2019.38
459.258	2176.38
459.478	2117.38
459.698	2067.38
459.918	2133.38
460.138	2227.38
460.358	2198.38
460.578	2214.38
460.798	2371.38
461.018	2492.38
461.238	2387.38
461.458	2243.38
461.678	2305.38
461.898	2239.38
462.118	2178.38
462.338	2259.38
462.558	2283.38
462.777	2242.38
462.997	2385.38
463.217	2543.38
463.437	2488.38
463.657	2303.38
463.876	2299.38
464.096	2209.38
464.316	2220.38
464.536	2315.38
464.755	2333.38
464.975	2381.38
465.195	2296.38
465.414	2415.38
465.634	2406.38
465.854	2302.38
466.073	2386.38
466.293	2364.38
466.512	2080.38
466.732	2095.38
466.951	2177.38
467.171	2164.38
467.391	2059.38
467.61	1985.38
467.829	2014.38
468.049	2210.38
468.268	2484.38
468.488	2288.38
468.707	2177.38
468.927	2111.38
469.146	2057.38
469.365	2009.38
469.585	2058.38
469.804	2105.38
470.023	2057.38
470.243	2124.38
470.462	2068.38
470.681	2024.38
470.901	2066.38
471.12	2071.38
471.339	2049.38
471.558	1979.38
471.777	1955.38
471.997	1997.38
472.216	2038.38
472.435	1985.38
472.654	2008.38
472.873	2113.38
473.092	2238.38
473.311	2135.38
473.53	1903.38
473.749	1975.38
473.968	2085.38
474.187	2116.38
474.406	2244.38
474.625	2116.38
474.844	2092.38
475.063	2088.38
475.282	2207.38
475.501	2107.38
475.72	2154.38
475.939	2263.38
476.158	2190.38
476.377	2107.38
476.596	2093.38
476.814	2197.38
477.033	2175.38
477.252	2284.38
477.471	2340.38
477.69	2232.38
477.908	2164.38
478.127	2320.38
478.346	2472.38
478.564	2469.38
478.783	2431.38
479.002	2511.38
479.22	2492.38
479.439	2597.38
479.658	2905.38
479.876	2911.38
480.095	2492.38
480.313	2412.38
480.532	2343.38
480.751	2342.38
480.969	2365.38
481.188	2371.38
481.406	2305.38
481.624	2235.38
481.843	2276.38
482.061	2388.38
482.28	2381.38
482.498	2437.38
482.717	2367.38
482.935	2284.38
483.153	2281.38
483.372	2316.38
483.59	2316.38
483.808	2318.38
484.027	2351.38
484.245	2501.38
484.463	2900.38
484.681	3398.38
484.9	2568.38
485.118	2366.38
485.336	2311.38
485.554	2447.38
485.772	2564.38
485.99	2490.38
486.209	2507.38
486.427	2470.38
486.645	2461.38
486.863	2467.38
487.081	2510.38
487.299	2560.38
487.517	2511.38
487.735	2439.38
487.953	2426.38
488.171	2366.38
488.389	2356.38
488.607	2401.38
488.825	2684.38
489.043	2709.38
489.261	2390.38
489.479	2544.38
489.696	2570.38
489.914	2581.38
490.132	2500.38
490.35	2424.38
490.568	2548.38
490.786	2452.38
491.003	2347.38
491.221	2439.38
491.439	2480.38
491.657	2474.38
491.874	2499.38
492.092	2514.38
492.31	2496.38
492.527	2492.38
492.745	2465.38
492.963	2448.38
493.18	2533.38
493.398	2732.38
493.615	2817.38
493.833	2581.38
494.05	2476.38
494.268	2538.38
494.485	2604.38
494.703	2535.38
494.92	2459.38
495.138	2470.38
495.355	2496.38
495.573	2599.38
495.79	2821.38
496.008	2812.38
496.225	2615.38
496.442	2581.38
496.66	2709.38
496.877	2646.38
497.094	2735.38
497.312	2803.38
497.529	2715.38
497.746	2816.38
497.963	3233.38
498.181	3647.38
498.398	3447.38
498.615	3338.38
498.832	3222.38
499.049	3193.38
499.267	3228.38
499.484	3420.38
499.701	3659.38
499.918	3767.38
500.135	3895.38
500.352	4309.38
500.569	4217.38
500.786	4476.38
501.003	4188.38
501.22	3845.38
501.437	3725.38
501.654	3722.38
501.871	3625.38
502.088	3172.38
502.305	3171.38
502.522	3085.38
502.739	2909.38
502.956	2795.38
503.172	2770.38
503.389	2691.38
503.606	2644.38
503.823	2611.38
504.04	2648.38
504.256	2700.38
504.473	2664.38
504.69	2768.38
504.907	2597.38
505.123	2476.38
505.34	2589.38
505.557	3410.38
505.773	2931.38
505.99	2452.38
506.207	2251.38
506.423	2274.38
506.64	2225.38
506.856	2245.38
507.073	2577.38
507.289	2830.38
507.506	2682.38
507.722	2324.38
507.939	2202.38
508.155	2212.38
508.372	2229.38
508.588	2141.38
508.805	2057.38
509.021	2126.38
509.238	2051.38
509.454	2028.38
509.67	2084.38
509.887	2051.38
510.103	2069.38
510.319	2081.38
510.536	2171.38
510.752	2257.38
510.968	2245.38
511.184	2402.38
511.401	2323.38
511.617	2093.38
511.833	2027.38
512.049	2037.38
512.265	2020.38
512.481	1996.38
512.698	2054.38
512.914	2235.38
513.13	2145.38
513.346	2032.38
513.562	1952.38
513.778	2022.38
513.994	2114.38
514.21	2201.38
514.426	2220.38
514.642	2454.38
514.858	2296.38
515.074	2086.38
515.29	2049.38
515.506	2118.38
515.721	2160.38
515.937	2127.38
516.153	2454.38
516.369	2359.38
516.585	2215.38
516.801	2148.38
517.016	2071.38
517.232	2155.38
517.448	2187.38
517.664	2162.38
517.879	2161.38
518.095	2375.38
518.311	2241.38
518.527	2108.38
518.742	2079.38
518.958	2047.38
519.173	2043.38
519.389	2068.38
519.605	2075.38
519.82	2091.38
520.036	2125.38
520.251	2047.38
520.467	2079.38
520.682	2207.38
520.898	2363.38
521.113	2074.38
521.329	2011.38
521.544	2183.38
521.76	2039.38
521.975	1946.38
522.19	1852.38
522.406	1927.38
522.621	2347.38
522.836	2342.38
523.052	1928.38
523.267	1945.38
523.482	1982.38
523.698	1830.38
523.913	1777.38
524.128	1845.38
524.343	1965.38
524.559	2009.38
524.774	1856.38
524.989	1856.38
525.204	1850.38
525.419	1801.38
525.634	1791.38
525.849	1859.38
526.064	1852.38
526.28	1864.38
526.495	1790.38
526.71	1754.38
526.925	1788.38
527.14	1788.38
527.355	1746.38
527.57	1725.38
527.785	1830.38
527.999	1733.38
528.214	1715.38
528.429	1673.38
528.644	1736.38
528.859	1741.38
529.074	1759.38
529.289	1775.38
529.503	1778.38
529.718	1770.38
529.933	1781.38
530.148	1661.38
530.363	1714.38
530.577	1750.38
530.792	1780.38
531.007	1775.38
531.221	1754.38
531.436	1797.38
531.651	1843.38
531.865	1937.38
532.08	1795.38
532.295	1672.38
532.509	1654.38
532.724	1702.38
532.938	1778.38
533.153	1944.38
533.367	1801.38
533.582	1760.38
533.796	1746.38
534.011	1738.38
534.225	1737.38
534.44	1703.38
534.654	1709.38
534.868	1695.38
535.083	1824.38
535.297	1776.38
535.511	1716.38
535.726	1725.38
535.94	1731.38
536.154	1678.38
536.369	1697.38
536.583	1689.38
536.797	1663.38
537.011	1711.38
537.225	1678.38
537.44	1586.38
537.654	1707.38
537.868	1642.38
538.082	1536.38
538.296	1568.38
538.51	1596.38
538.724	1596.38
538.938	1602.38
539.153	1666.38
539.367	1633.38
539.581	1612.38
539.795	1746.38
540.009	1716.38
540.222	1642.38
540.436	1669.38
540.65	1836.38
540.864	1842.38
541.078	1736.38
541.292	1640.38
541.506	1591.38
541.72	1643.38
541.934	1603.38
542.147	1672.38
542.361	1669.38
542.575	1583.38
542.789	1571.38
543.002	1516.38
543.216	1579.38
543.43	1657.38
543.644	1724.38
543.857	1756.38
544.071	1725.38
544.285	1651.38
544.498	1607.38
544.712	1605.38
544.925	1679.38
545.139	1677.38
545.352	1566.38
545.566	1551.38
545.779	1547.38
545.993	1565.38
546.206	1599.38
546.42	1524.38
546.633	1508.38
546.847	1485.38
547.06	1569.38
547.274	1525.38
547.487	1540.38
547.7	1540.38
547.914	1534.38
548.127	1557.38
548.34	1571.38
548.554	1559.38
548.767	1557.38
548.98	1560.38
549.193	1547.38
549.407	1611.38
549.62	1650.38
549.833	1569.38
550.046	1529.38
550.259	1546.38
550.473	1529.38
550.686	1527.38
550.899	1494.38
551.112	1442.38
551.325	1480.38
551.538	1563.38
551.751	1847.38
551.964	1458.38
552.177	1439.38
552.39	1472.38
552.603	1508.38
552.816	1536.38
553.029	1596.38
553.242	1615.38
553.455	1536.38
553.667	1516.38
553.88	1505.38
554.093	1474.38
554.306	1431.38
554.519	1407.38
554.732	1382.38
554.944	1424.38
555.157	1488.38
555.37	1448.38
555.583	1426.38
555.795	1403.38
556.008	1363.38
556.221	1365.38
556.433	1304.38
556.646	1305.38
556.859	1338.38
557.071	1309.38
557.284	1287.38
557.496	1317.38
557.709	1305.38
557.921	1251.38
558.134	1313.38
558.346	1257.38
558.559	1276.38
558.771	1252.38
558.984	1229.38
559.196	1213.38
559.409	1216.38
559.621	1243.38
559.833	1230.38
560.046	1304.38
560.258	1266.38
560.47	1246.38
560.683	1243.38
560.895	1246.38
561.107	1248.38
561.32	1241.38
561.532	1269.38
561.744	1240.38
561.956	1309.38
562.168	1199.38
562.381	1171.38
562.593	1159.38
562.805	1234.38
563.017	1211.38
563.229	1243.38
563.441	1266.38
563.653	1233.38
563.865	1227.38
564.077	1215.38
564.289	1218.38
564.501	1241.38
564.713	1262.38
564.925	1309.38
565.137	1407.38
565.349	1302.38
565.561	1293.38
565.773	1312.38
565.985	1311.38
566.197	1355.38
566.408	1471.38
566.62	1477.38
566.832	1499.38
567.044	1503.38
567.255	1447.38
567.467	1472.38
567.679	1516.38
567.891	1586.38
568.102	1505.38
568.314	1482.38
568.526	1395.38
568.737	1361.38
568.949	1304.38
569.161	1268.38
569.372	1223.38
569.584	1201.38
569.795	1214.38
570.007	1183.38
570.218	1109.38
570.43	1135.38
570.641	1125.38
570.853	1109.38
571.064	1128.38
571.276	1092.38
571.487	1104.38
571.698	1082.38
571.91	1037.38
572.121	1009.38
572.333	1005.38
572.544	1024.38
572.755	973.38
572.966	969.38
573.178	1012.38
573.389	1002.38
573.6	1013.38
573.811	1103.38
574.023	1000.38
574.234	1015.38
574.445	974.38
574.656	943.38
574.867	929.38
575.078	907.38
575.289	973.38
575.501	914.38
575.712	901.38
575.923	926.38
576.134	934.38
576.345	927.38
576.556	916.38
576.767	898.38
576.978	895.38
577.188	871.38
577.399	860.38
577.61	877.38
577.821	857.38
578.032	851.38
578.243	871.38
578.454	895.38
578.665	857.38
578.875	857.38
579.086	825.38
579.297	826.38
579.508	887.38
579.718	846.38
579.929	847.38
580.14	821.38
580.35	840.38
580.561	859.38
580.772	914.38
580.982	851.38
581.193	824.38
581.403	803.38
581.614	803.38
581.825	805.38
582.035	803.38
582.246	818.38
582.456	812.38
582.667	795.38
582.877	802.38
583.087	795.38
583.298	785.38
583.508	791.38
583.719	792.38
583.929	794.38
584.139	772.38
584.35	773.38
584.56	762.38
584.77	779.38
584.981	801.38
585.191	773.38
585.401	799.38
585.611	760.38
585.821	786.38
586.032	765.38
586.242	748.38
586.452	746.38
586.662	762.38
586.872	742.38
587.082	754.38
587.292	775.38
587.502	789.38
587.713	798.38
587.923	753.38
588.133	753.38
588.343	755.38
588.553	748.38
588.762	759.38
588.972	740.38
589.182	744.38
589.392	771.38
589.602	765.38
589.812	740.38
590.022	747.38
590.232	740.38
590.441	776.38
590.651	760.38
590.861	757.38
591.071	721.38
591.281	721.38
591.49	741.38
591.7	721.38
591.91	736.38
592.119	739.38
592.329	756.38
592.539	796.38
592.748	748.38
592.958	769.38
593.167	767.38
593.377	781.38
593.587	797.38
593.796	775.38
594.006	785.38
594.215	800.38
594.424	766.38
594.634	757.38
594.843	777.38
595.053	769.38
595.262	770.38
595.472	726.38
595.681	748.38
595.89	725.38
596.1	696.38
596.309	722.38
596.518	679.38
596.727	709.38
596.937	669.38
597.146	664.38
597.355	643.38
597.564	666.38
597.774	656.38
597.983	650.38
598.192	659.38
598.401	662.38
598.61	629.38
598.819	621.38
599.028	631.38
599.237	651.38
599.446	633.38
599.655	625.38
599.864	624.38
600.073	618.38
600.282	609.38
600.491	614.38
600.7	606.38
600.909	588.38
601.118	614.38
601.327	606.38
601.536	623.38
601.745	607.38
601.953	601.38
602.162	607.38
602.371	613.38
602.58	584.38
602.789	597.38
602.997	572.38
603.206	598.38
603.415	564.38
603.623	620.38
603.832	605.38
604.041	595.38
604.249	571.38
604.458	557.38
604.666	617.38
604.875	570.38
605.084	582.38
605.292	611.38
605.501	565.38
605.709	560.38
605.918	575.38
606.126	575.38
606.334	565.38
606.543	568.38
606.751	563.38
606.96	569.38
607.168	546.38
607.376	549.38
607.585	551.38
607.793	535.38
608.001	529.38
608.21	568.38
608.418	537.38
608.626	546.38
608.834	556.38
609.043	563.38
609.251	567.38
609.459	545.38
609.667	534.38
609.875	552.38
610.083	551.38
610.291	560.38
610.499	573.38
610.707	547.38
610.916	536.38
611.124	551.38
611.332	531.38
611.54	529.38
611.748	535.38
611.955	533.38
612.163	536.38
612.371	517.38
612.579	540.38
612.787	546.38
612.995	545.38
613.203	532.38
613.411	512.38
613.618	523.38
613.826	521.38
614.034	519.38
614.242	521.38
614.449	516.38
614.657	551.38
614.865	522.38
615.072	525.38
615.28	532.38
615.488	541.38
615.695	547.38
615.903	517.38
616.111	522.38
616.318	543.38
616.526	513.38
616.733	500.38
616.941	491.38
617.148	505.38
617.356	493.38
617.563	515.38
617.771	544.38
617.978	514.38
618.185	498.38
618.393	511.38
618.6	476.38
618.807	490.38
619.015	509.38
619.222	488.38
619.429	475.38
619.637	470.38
619.844	491.38
620.051	486.38
620.258	490.38
620.466	452.38
620.673	467.38
620.88	464.38
621.087	461.38
621.294	456.38
621.501	455.38
621.708	467.38
621.915	453.38
622.122	468.38
622.329	483.38
622.536	489.38
622.743	464.38
622.95	454.38
623.157	461.38
623.364	447.38
623.571	452.38
623.778	447.38
623.985	463.38
624.192	451.38
624.399	457.38
624.606	456.38
624.812	439.38
625.019	439.38
625.226	447.38
625.433	439.38
625.639	474.38
625.846	449.38
626.053	415.38
626.259	422.38
626.466	415.38
626.673	413.38
626.879	422.38
627.086	426.38
627.293	422.38
627.499	408.38
627.706	422.38
627.912	411.38
628.119	410.38
628.325	417.38
628.532	408.38
628.738	426.38
628.945	424.38
629.151	414.38
629.357	407.38
629.564	414.38
629.77	385.38
629.976	390.38
630.183	409.38
630.389	403.38
630.595	397.38
630.802	411.38
631.008	400.38
631.214	405.38
631.42	385.38
631.627	398.38
631.833	383.38
632.039	376.38
632.245	385.38
632.451	373.38
632.657	372.38
632.863	370.38
633.069	371.38
633.275	374.38
633.481	369.38
633.688	376.38
633.893	375.38
634.099	372.38
634.305	349.38
634.511	364.38
634.717	355.38
634.923	356.38
635.129	346.38
635.335	370.38
635.541	374.38
635.747	369.38
635.952	355.38
636.158	365.38
636.364	362.38
636.57	346.38
636.775	347.38
636.981	360.38
637.187	345.38
637.392	367.38
637.598	324.38
637.804	346.38
638.009	360.38
638.215	358.38
638.421	348.38
638.626	341.38
638.832	338.38
639.037	340.38
639.243	322.38
639.448	338.38
639.654	330.38
639.859	345.38
640.065	343.38
640.27	331.38
640.475	340.38
640.681	329.38
640.886	352.38
641.091	344.38
641.297	339.38
641.502	340.38
641.707	325.38
641.913	344.38
642.118	328.38
642.323	303.38
642.528	325.38
642.733	317.38
642.939	321.38
643.144	336.38
643.349	327.38
643.554	312.38
643.759	320.38
643.964	325.38
644.169	320.38
644.374	307.38
644.579	329.38
644.784	321.38
644.989	311.38
645.194	314.38
645.399	310.38
645.604	305.38
645.809	315.38
646.014	315.38
646.219	321.38
646.423	327.38
646.628	310.38
646.833	322.38
647.038	312.38
647.243	311.38
647.447	330.38
647.652	315.38
647.857	321.38
648.062	319.38
648.266	314.38
648.471	323.38
648.676	315.38
648.88	315.38
649.085	311.38
649.289	308.38
649.494	304.38
649.698	325.38
649.903	298.38
650.107	307.38
650.312	327.38
650.516	282.38
650.721	297.38
650.925	276.38
651.13	281.38
651.334	288.38
651.539	294.38
651.743	282.38
651.947	274.38
652.152	254.38
652.356	253.38
652.56	281.38
652.764	268.38
652.969	245.38
653.173	281.38
653.377	252.38
653.581	266.38
653.785	270.38
653.99	268.38
654.194	258.38
654.398	274.38
654.602	215.38
654.806	216.38
655.01	229.38
655.214	247.38
655.418	248.38
655.622	221.38
655.826	262.38
656.03	259.38
656.234	261.38
656.438	268.38
656.642	274.38
656.846	269.38
657.049	235.38
657.253	217.38
657.457	209.38
657.661	194.38
657.865	171.38
658.068	179.38
658.272	168.38
658.476	163.38
658.68	152.38
658.883	135.38
659.087	145.38
659.291	137.38
659.494	140.38
659.698	119.38
659.901	124.38
660.105	125.38
660.309	119.38
660.512	111.38
660.716	114.38
660.919	119.38
661.123	114.38
661.326	106.38
661.53	88.38
661.733	106.38
661.936	104.38
662.14	91.38
662.343	90.38
662.546	92.38
662.75	96.38
662.953	90.38
663.156	92.38
663.36	89.38
663.563	81.38
663.766	88.38
663.969	94.38
664.173	80.38
664.376	85.38
664.579	90.38
664.782	77.38
664.985	69.38
665.188	86.38
665.391	89.38
665.594	93.38
665.797	79.38
666	87.38
666.203	85.38
666.406	95.38
666.609	78.38
666.812	92.38
667.015	73.38
667.218	75.38
667.421	87.38
667.624	98.38
667.827	67.38
668.03	83.38
668.232	90.38
668.435	93.38
668.638	75.38
668.841	82.38
669.043	87.38
669.246	88.38
669.449	86.38
669.651	85.38
669.854	76.38
670.057	80.38
670.259	79.38
670.462	81.38
670.665	76.38
670.867	71.38
671.07	83.38
671.272	64.38
671.475	81.38
671.677	80.38
671.88	96.38
672.082	73.38
672.284	82.38
672.487	78.38
672.689	81.38
672.892	93.38
