Data from WStandard_LampEnergy5.5LIBS07252019.E.O._I.C._HRD10591_16-07-52-920.txt Node
Date: Thu Jul 25 16:07:52 EDT 2019
User: cochatt
Spectrometer: HR+D1059
Trigger mode: 1
Integration Time (sec): 1.000000E-1
Scans to average: 1
Electric dark correction enabled: true
Nonlinearity correction enabled: false
Boxcar width: 0
XAxis mode: Wavelengths
Number of Pixels in Spectrum: 2048
>>>>>Begin Spectral Data<<<<<
223.165	-28.75
223.4	-28.75
223.635	-28.75
223.869	-21.75
224.104	-13.75
224.338	6.25
224.573	-23.75
224.808	-9.75
225.042	-7.75
225.277	-10.75
225.511	-7.75
225.746	1.25
225.98	-0.75
226.215	19.25
226.449	25.25
226.683	22.25
226.918	23.25
227.152	27.25
227.387	34.25
227.621	38.25
227.856	43.25
228.09	48.25
228.324	58.25
228.559	63.25
228.793	145.25
229.027	378.25
229.262	381.25
229.496	401.25
229.73	419.25
229.964	440.25
230.199	470.25
230.433	473.25
230.667	517.25
230.901	552.25
231.136	489.25
231.37	462.25
231.604	473.25
231.838	477.25
232.072	491.25
232.306	447.25
232.541	479.25
232.775	557.25
233.009	630.25
233.243	602.25
233.477	542.25
233.711	568.25
233.945	595.25
234.179	569.25
234.413	604.25
234.647	648.25
234.881	615.25
235.115	548.25
235.349	564.25
235.583	575.25
235.817	573.25
236.051	556.25
236.285	567.25
236.519	615.25
236.753	687.25
236.987	695.25
237.221	707.25
237.455	745.25
237.689	742.25
237.922	688.25
238.156	683.25
238.39	674.25
238.624	718.25
238.858	796.25
239.091	782.25
239.325	814.25
239.559	965.25
239.793	968.25
240.027	1061.25
240.26	1052.25
240.494	776.25
240.728	729.25
240.961	749.25
241.195	778.25
241.429	868.25
241.662	807.25
241.896	784.25
242.13	830.25
242.363	879.25
242.597	923.25
242.83	890.25
243.064	895.25
243.298	980.25
243.531	959.25
243.765	981.25
243.998	942.25
244.232	848.25
244.465	791.25
244.699	822.25
244.932	937.25
245.166	1071.25
245.399	1010.25
245.633	954.25
245.866	918.25
246.099	963.25
246.333	985.25
246.566	990.25
246.8	1079.25
247.033	1232.25
247.266	1110.25
247.5	1098.25
247.733	1069.25
247.966	1138.25
248.2	1284.25
248.433	1182.25
248.666	1252.25
248.899	1367.25
249.133	1559.25
249.366	1817.25
249.599	1464.25
249.832	1266.25
250.066	1310.25
250.299	1342.25
250.532	1227.25
250.765	1107.25
250.998	1184.25
251.231	1205.25
251.465	1256.25
251.698	1215.25
251.931	1234.25
252.164	1211.25
252.397	1290.25
252.63	1326.25
252.863	1106.25
253.096	1153.25
253.329	1190.25
253.562	1218.25
253.795	1331.25
254.028	1327.25
254.261	1223.25
254.494	1190.25
254.727	1132.25
254.96	1182.25
255.193	1302.25
255.426	1456.25
255.659	1657.25
255.892	1756.25
256.124	1407.25
256.357	1358.25
256.59	1464.25
256.823	1451.25
257.056	1455.25
257.289	1755.25
257.521	1959.25
257.754	1770.25
257.987	1627.25
258.22	1850.25
258.452	1783.25
258.685	1430.25
258.918	1404.25
259.151	1429.25
259.383	1385.25
259.616	1192.25
259.849	1309.25
260.081	1402.25
260.314	1606.25
260.547	1751.25
260.779	1728.25
261.012	1660.25
261.244	1509.25
261.477	1407.25
261.71	1450.25
261.942	1452.25
262.175	1422.25
262.407	1492.25
262.64	1430.25
262.872	1331.25
263.105	1291.25
263.337	1351.25
263.57	1334.25
263.802	1336.25
264.035	1254.25
264.267	1189.25
264.499	1138.25
264.732	1234.25
264.964	1326.25
265.197	1387.25
265.429	1429.25
265.661	1624.25
265.894	1794.25
266.126	1832.25
266.358	1631.25
266.591	1673.25
266.823	1871.25
267.055	1668.25
267.287	1631.25
267.52	1584.25
267.752	1611.25
267.984	1613.25
268.216	1684.25
268.448	1730.25
268.681	1702.25
268.913	1558.25
269.145	1470.25
269.377	1421.25
269.609	1568.25
269.841	1784.25
270.073	2086.25
270.306	2318.25
270.538	2510.25
270.77	2103.25
271.002	1787.25
271.234	1694.25
271.466	1660.25
271.698	1864.25
271.93	2223.25
272.162	2270.25
272.394	2026.25
272.626	1955.25
272.858	1740.25
273.09	1473.25
273.322	1472.25
273.553	1430.25
273.785	1416.25
274.017	1483.25
274.249	1608.25
274.481	1636.25
274.713	1472.25
274.945	1435.25
275.176	1460.25
275.408	1447.25
275.64	1437.25
275.872	1385.25
276.104	1503.25
276.335	1663.25
276.567	1937.25
276.799	2006.25
277.031	1750.25
277.262	1656.25
277.494	1703.25
277.726	1878.25
277.957	1908.25
278.189	1736.25
278.421	1583.25
278.652	1548.25
278.884	1516.25
279.115	1533.25
279.347	1560.25
279.579	1492.25
279.81	1497.25
280.042	1645.25
280.273	1809.25
280.505	1832.25
280.736	1888.25
280.968	1761.25
281.199	1538.25
281.431	1469.25
281.662	1461.25
281.894	1464.25
282.125	1512.25
282.356	1585.25
282.588	1613.25
282.819	1552.25
283.051	1704.25
283.282	1857.25
283.513	1782.25
283.745	1530.25
283.976	1451.25
284.207	1440.25
284.439	1533.25
284.67	1519.25
284.901	1584.25
285.132	1644.25
285.364	1563.25
285.595	1614.25
285.826	1550.25
286.057	1542.25
286.288	1491.25
286.52	1622.25
286.751	1727.25
286.982	1794.25
287.213	1641.25
287.444	1505.25
287.675	1473.25
287.906	1544.25
288.138	1654.25
288.369	1635.25
288.6	1522.25
288.831	1477.25
289.062	1529.25
289.293	1556.25
289.524	1538.25
289.755	1592.25
289.986	1607.25
290.217	1472.25
290.448	1519.25
290.679	1547.25
290.91	1566.25
291.141	1600.25
291.371	1659.25
291.602	1618.25
291.833	1620.25
292.064	1697.25
292.295	1632.25
292.526	1684.25
292.757	1771.25
292.987	1690.25
293.218	1586.25
293.449	1664.25
293.68	1918.25
293.91	2107.25
294.141	1942.25
294.372	1822.25
294.603	1871.25
294.833	1984.25
295.064	1869.25
295.295	1679.25
295.525	1611.25
295.756	1552.25
295.987	1467.25
296.217	1491.25
296.448	1494.25
296.679	1529.25
296.909	1532.25
297.14	1519.25
297.37	1514.25
297.601	1596.25
297.831	1765.25
298.062	1784.25
298.292	1602.25
298.523	1541.25
298.753	1515.25
298.984	1595.25
299.214	1575.25
299.445	1622.25
299.675	1675.25
299.905	1630.25
300.136	1632.25
300.366	1605.25
300.597	1487.25
300.827	1532.25
301.057	1568.25
301.288	1663.25
301.518	1661.25
301.748	1672.25
301.979	1735.25
302.209	1792.25
302.439	1914.25
302.669	2017.25
302.9	1885.25
303.13	1685.25
303.36	1668.25
303.59	1692.25
303.82	1684.25
304.051	1691.25
304.281	1696.25
304.511	1693.25
304.741	1771.25
304.971	1946.25
305.201	2147.25
305.431	2037.25
305.661	1647.25
305.891	1477.25
306.121	1468.25
306.352	1522.25
306.582	1611.25
306.812	1736.25
307.042	1853.25
307.272	1851.25
307.502	1907.25
307.731	2059.25
307.961	2190.25
308.191	2057.25
308.421	1724.25
308.651	1644.25
308.881	1625.25
309.111	1646.25
309.341	1598.25
309.571	1613.25
309.8	1600.25
310.03	1607.25
310.26	1581.25
310.49	1560.25
310.72	1650.25
310.949	1726.25
311.179	1718.25
311.409	1686.25
311.639	1642.25
311.868	1606.25
312.098	1644.25
312.328	1635.25
312.557	1616.25
312.787	1646.25
313.017	1694.25
313.246	1713.25
313.476	1639.25
313.706	1690.25
313.935	1723.25
314.165	1726.25
314.394	1765.25
314.624	1873.25
314.853	1940.25
315.083	2029.25
315.312	2119.25
315.542	1975.25
315.771	1750.25
316.001	1678.25
316.23	1846.25
316.46	1800.25
316.689	1815.25
316.919	1687.25
317.148	1659.25
317.377	1635.25
317.607	1745.25
317.836	1986.25
318.065	2081.25
318.295	2008.25
318.524	1885.25
318.753	1844.25
318.983	1818.25
319.212	1774.25
319.441	1754.25
319.67	1737.25
319.9	1758.25
320.129	1851.25
320.358	1935.25
320.587	2004.25
320.816	1957.25
321.046	1963.25
321.275	1815.25
321.504	1824.25
321.733	1996.25
321.962	1956.25
322.191	1792.25
322.42	1804.25
322.649	1748.25
322.878	1738.25
323.108	1779.25
323.337	1836.25
323.566	1848.25
323.795	1846.25
324.024	1830.25
324.253	1765.25
324.482	1800.25
324.71	1730.25
324.939	1637.25
325.168	1687.25
325.397	1724.25
325.626	1818.25
325.855	1808.25
326.084	1787.25
326.313	1731.25
326.542	1778.25
326.77	1860.25
326.999	1876.25
327.228	1798.25
327.457	1635.25
327.686	1660.25
327.914	1685.25
328.143	1761.25
328.372	1776.25
328.6	1763.25
328.829	1750.25
329.058	1727.25
329.287	1700.25
329.515	1774.25
329.744	1771.25
329.972	1856.25
330.201	1958.25
330.43	1912.25
330.658	1868.25
330.887	1837.25
331.115	1879.25
331.344	1879.25
331.572	1828.25
331.801	1827.25
332.03	1845.25
332.258	1883.25
332.486	1881.25
332.715	1927.25
332.943	1882.25
333.172	1864.25
333.4	1876.25
333.629	1938.25
333.857	2034.25
334.085	2219.25
334.314	2517.25
334.542	2812.25
334.771	2562.25
334.999	2202.25
335.227	2148.25
335.455	2008.25
335.684	2012.25
335.912	2017.25
336.14	2073.25
336.369	2023.25
336.597	1899.25
336.825	1878.25
337.053	1990.25
337.281	2056.25
337.51	2088.25
337.738	2238.25
337.966	2127.25
338.194	1911.25
338.422	1887.25
338.65	1860.25
338.878	1858.25
339.106	1806.25
339.334	1798.25
339.562	1763.25
339.79	1772.25
340.018	1895.25
340.246	1980.25
340.474	1965.25
340.702	1893.25
340.93	1960.25
341.158	1884.25
341.386	1869.25
341.614	1829.25
341.842	1853.25
342.07	1848.25
342.298	1882.25
342.526	1853.25
342.754	1812.25
342.981	1816.25
343.209	1827.25
343.437	1796.25
343.665	1828.25
343.893	1915.25
344.12	2032.25
344.348	2013.25
344.576	1916.25
344.804	1837.25
345.031	1836.25
345.259	1842.25
345.487	1829.25
345.714	1733.25
345.942	1665.25
346.17	1690.25
346.397	1705.25
346.625	1807.25
346.853	1662.25
347.08	1663.25
347.308	1635.25
347.535	1730.25
347.763	1740.25
347.99	1690.25
348.218	1654.25
348.445	1678.25
348.673	1688.25
348.9	1758.25
349.128	1786.25
349.355	1835.25
349.583	1785.25
349.81	1775.25
350.037	1620.25
350.265	1588.25
350.492	1605.25
350.72	1644.25
350.947	1705.25
351.174	1767.25
351.402	1666.25
351.629	1599.25
351.856	1560.25
352.083	1570.25
352.311	1570.25
352.538	1679.25
352.765	1742.25
352.992	1773.25
353.22	1708.25
353.447	1635.25
353.674	1660.25
353.901	1710.25
354.128	1658.25
354.355	1628.25
354.583	1715.25
354.81	1738.25
355.037	1725.25
355.264	1694.25
355.491	1690.25
355.718	1731.25
355.945	1704.25
356.172	1679.25
356.399	1622.25
356.626	1624.25
356.853	1710.25
357.08	1824.25
357.307	2028.25
357.534	2015.25
357.761	1756.25
357.988	1669.25
358.215	1629.25
358.441	1622.25
358.668	1629.25
358.895	1617.25
359.122	1706.25
359.349	1887.25
359.576	1868.25
359.802	1676.25
360.029	1622.25
360.256	1590.25
360.483	1630.25
360.709	1684.25
360.936	1728.25
361.163	1786.25
361.39	1906.25
361.616	2135.25
361.843	2102.25
362.07	1950.25
362.296	1711.25
362.523	1686.25
362.749	1657.25
362.976	1697.25
363.203	1739.25
363.429	1670.25
363.656	1588.25
363.882	1684.25
364.109	1871.25
364.335	2008.25
364.562	1868.25
364.788	1796.25
365.015	1709.25
365.241	1641.25
365.468	1690.25
365.694	1782.25
365.92	1822.25
366.147	1801.25
366.373	1676.25
366.599	1646.25
366.826	1615.25
367.052	1635.25
367.278	1668.25
367.505	1668.25
367.731	1701.25
367.957	1714.25
368.184	1730.25
368.41	1872.25
368.636	1879.25
368.862	1867.25
369.089	1930.25
369.315	1831.25
369.541	1746.25
369.767	1709.25
369.993	1696.25
370.219	1680.25
370.445	1706.25
370.672	1781.25
370.898	1882.25
371.124	1870.25
371.35	1773.25
371.576	1781.25
371.802	1921.25
372.028	1794.25
372.254	1752.25
372.48	1666.25
372.706	1699.25
372.932	1698.25
373.158	1690.25
373.384	1718.25
373.61	1780.25
373.835	1859.25
374.061	1772.25
374.287	1806.25
374.513	1747.25
374.739	1770.25
374.965	1775.25
375.191	1791.25
375.416	1828.25
375.642	1849.25
375.868	1910.25
376.094	1968.25
376.319	1927.25
376.545	1773.25
376.771	1798.25
376.997	1906.25
377.222	1874.25
377.448	1831.25
377.674	1861.25
377.899	1820.25
378.125	1970.25
378.35	1954.25
378.576	1822.25
378.802	1725.25
379.027	1728.25
379.253	1745.25
379.478	1751.25
379.704	1728.25
379.929	1750.25
380.155	1704.25
380.38	1768.25
380.606	1774.25
380.831	1755.25
381.057	1858.25
381.282	1884.25
381.507	1862.25
381.733	1882.25
381.958	2058.25
382.184	1923.25
382.409	1812.25
382.634	1833.25
382.86	1850.25
383.085	1814.25
383.31	1892.25
383.535	2029.25
383.761	2182.25
383.986	2105.25
384.211	1966.25
384.436	1951.25
384.662	2084.25
384.887	2123.25
385.112	2027.25
385.337	2044.25
385.562	2024.25
385.787	1994.25
386.013	2037.25
386.238	2101.25
386.463	2041.25
386.688	2178.25
386.913	2286.25
387.138	2262.25
387.363	2083.25
387.588	2053.25
387.813	2028.25
388.038	2129.25
388.263	2163.25
388.488	2095.25
388.713	1932.25
388.938	1934.25
389.163	1929.25
389.387	1988.25
389.612	1970.25
389.837	2041.25
390.062	2046.25
390.287	2021.25
390.512	2030.25
390.736	2024.25
390.961	1934.25
391.186	1889.25
391.411	1947.25
391.636	1966.25
391.86	2039.25
392.085	1994.25
392.31	1995.25
392.534	1967.25
392.759	2016.25
392.984	2016.25
393.208	2025.25
393.433	2058.25
393.658	2166.25
393.882	2171.25
394.107	2058.25
394.331	2003.25
394.556	1984.25
394.78	2044.25
395.005	2102.25
395.229	2124.25
395.454	2341.25
395.678	2334.25
395.903	2234.25
396.127	2122.25
396.352	2109.25
396.576	2193.25
396.801	2237.25
397.025	2196.25
397.249	2244.25
397.474	2202.25
397.698	2193.25
397.922	2203.25
398.147	2297.25
398.371	2440.25
398.595	2399.25
398.82	2292.25
399.044	2328.25
399.268	2408.25
399.492	2616.25
399.717	2678.25
399.941	2726.25
400.165	2664.25
400.389	2596.25
400.613	2518.25
400.837	2774.25
401.062	3227.25
401.286	2788.25
401.51	2481.25
401.734	2621.25
401.958	2560.25
402.182	2348.25
402.406	2271.25
402.63	2273.25
402.854	2300.25
403.078	2318.25
403.302	2330.25
403.526	2411.25
403.75	2416.25
403.974	2419.25
404.198	2382.25
404.422	2447.25
404.645	2584.25
404.869	2570.25
405.093	2373.25
405.317	2300.25
405.541	2384.25
405.765	2479.25
405.988	2408.25
406.212	2459.25
406.436	2499.25
406.66	2516.25
406.883	2575.25
407.107	2852.25
407.331	3143.25
407.555	3362.25
407.778	3133.25
408.002	2585.25
408.226	2526.25
408.449	2514.25
408.673	2424.25
408.896	2464.25
409.12	2514.25
409.344	2393.25
409.567	2353.25
409.791	2405.25
410.014	2468.25
410.238	2548.25
410.461	2690.25
410.685	2439.25
410.908	2328.25
411.132	2370.25
411.355	2375.25
411.578	2329.25
411.802	2354.25
412.025	2398.25
412.249	2310.25
412.472	2266.25
412.695	2252.25
412.919	2284.25
413.142	2267.25
413.365	2320.25
413.589	2376.25
413.812	2485.25
414.035	2560.25
414.258	2343.25
414.482	2272.25
414.705	2304.25
414.928	2277.25
415.151	2265.25
415.374	2277.25
415.597	2317.25
415.821	2340.25
416.044	2428.25
416.267	2397.25
416.49	2202.25
416.713	2207.25
416.936	2236.25
417.159	2368.25
417.382	2384.25
417.605	2239.25
417.828	2276.25
418.051	2347.25
418.274	2275.25
418.497	2166.25
418.72	2215.25
418.943	2182.25
419.166	2344.25
419.389	2428.25
419.611	2320.25
419.834	2219.25
420.057	2281.25
420.28	2199.25
420.503	2212.25
420.726	2226.25
420.948	2250.25
421.171	2173.25
421.394	2208.25
421.617	2274.25
421.839	2267.25
422.062	2212.25
422.285	2197.25
422.507	2178.25
422.73	2142.25
422.953	2092.25
423.175	2086.25
423.398	2172.25
423.621	2210.25
423.843	2244.25
424.066	2220.25
424.288	2329.25
424.511	2411.25
424.733	2275.25
424.956	2091.25
425.178	2068.25
425.401	2116.25
425.623	2191.25
425.846	2049.25
426.068	2284.25
426.291	2302.25
426.513	2262.25
426.735	2239.25
426.958	2358.25
427.18	2546.25
427.402	2310.25
427.625	2431.25
427.847	2428.25
428.069	2231.25
428.292	2191.25
428.514	2090.25
428.736	2074.25
428.958	2153.25
429.181	2131.25
429.403	2463.25
429.625	3028.25
429.847	2606.25
430.069	2191.25
430.292	2392.25
430.514	2522.25
430.736	2306.25
430.958	2388.25
431.18	2316.25
431.402	2147.25
431.624	2103.25
431.846	2104.25
432.068	2070.25
432.29	2106.25
432.512	2112.25
432.734	2183.25
432.956	2250.25
433.178	2345.25
433.4	2305.25
433.622	2290.25
433.844	2178.25
434.066	2100.25
434.287	2083.25
434.509	2127.25
434.731	2292.25
434.953	2458.25
435.175	2391.25
435.397	2220.25
435.618	2259.25
435.84	2262.25
436.062	2198.25
436.284	2283.25
436.505	2220.25
436.727	2342.25
436.949	2226.25
437.17	2134.25
437.392	2156.25
437.614	2190.25
437.835	2105.25
438.057	2213.25
438.278	2326.25
438.5	2163.25
438.721	2084.25
438.943	2134.25
439.165	2108.25
439.386	2047.25
439.608	2079.25
439.829	2131.25
440.05	2108.25
440.272	2082.25
440.493	2063.25
440.715	2110.25
440.936	2243.25
441.158	2492.25
441.379	2414.25
441.6	2335.25
441.822	2296.25
442.043	2314.25
442.264	2226.25
442.486	2121.25
442.707	2092.25
442.928	2117.25
443.149	2197.25
443.371	2307.25
443.592	2396.25
443.813	2335.25
444.034	2335.25
444.255	2338.25
444.476	2371.25
444.698	2403.25
444.919	2387.25
445.14	2468.25
445.361	2483.25
445.582	2473.25
445.803	2414.25
446.024	2304.25
446.245	2475.25
446.466	2341.25
446.687	2247.25
446.908	2220.25
447.129	2160.25
447.35	2182.25
447.571	2194.25
447.792	2102.25
448.013	2069.25
448.234	2117.25
448.455	2223.25
448.675	2214.25
448.896	2037.25
449.117	2015.25
449.338	2077.25
449.559	2175.25
449.779	2304.25
450	2494.25
450.221	2713.25
450.442	2625.25
450.662	2345.25
450.883	2030.25
451.104	1942.25
451.324	2039.25
451.545	2135.25
451.766	2095.25
451.986	1950.25
452.207	1965.25
452.428	1892.25
452.648	1899.25
452.869	1954.25
453.089	2051.25
453.31	2127.25
453.53	2131.25
453.751	2046.25
453.971	1950.25
454.192	1974.25
454.412	2090.25
454.633	2014.25
454.853	2002.25
455.073	1854.25
455.294	1849.25
455.514	1863.25
455.734	1888.25
455.955	1898.25
456.175	1885.25
456.395	1887.25
456.616	1991.25
456.836	2040.25
457.056	1995.25
457.276	1956.25
457.497	1908.25
457.717	1801.25
457.937	1879.25
458.157	1942.25
458.377	1890.25
458.598	1895.25
458.818	1861.25
459.038	2021.25
459.258	2171.25
459.478	2130.25
459.698	2071.25
459.918	2133.25
460.138	2237.25
460.358	2259.25
460.578	2246.25
460.798	2354.25
461.018	2522.25
461.238	2409.25
461.458	2267.25
461.678	2295.25
461.898	2239.25
462.118	2230.25
462.338	2301.25
462.558	2288.25
462.777	2243.25
462.997	2346.25
463.217	2554.25
463.437	2530.25
463.657	2306.25
463.876	2283.25
464.096	2268.25
464.316	2296.25
464.536	2372.25
464.755	2390.25
464.975	2449.25
465.195	2302.25
465.414	2425.25
465.634	2404.25
465.854	2312.25
466.073	2451.25
466.293	2340.25
466.512	2090.25
466.732	2086.25
466.951	2178.25
467.171	2132.25
467.391	2054.25
467.61	2026.25
467.829	2074.25
468.049	2211.25
468.268	2462.25
468.488	2332.25
468.707	2174.25
468.927	2122.25
469.146	2116.25
469.365	2074.25
469.585	2136.25
469.804	2078.25
470.023	2070.25
470.243	2163.25
470.462	2086.25
470.681	1999.25
470.901	2050.25
471.12	2050.25
471.339	2053.25
471.558	2039.25
471.777	1996.25
471.997	2039.25
472.216	2054.25
472.435	1973.25
472.654	1998.25
472.873	2074.25
473.092	2265.25
473.311	2144.25
473.53	1996.25
473.749	1959.25
473.968	2062.25
474.187	2156.25
474.406	2281.25
474.625	2186.25
474.844	2115.25
475.063	2091.25
475.282	2163.25
475.501	2107.25
475.72	2082.25
475.939	2193.25
476.158	2163.25
476.377	2102.25
476.596	2110.25
476.814	2183.25
477.033	2218.25
477.252	2294.25
477.471	2369.25
477.69	2220.25
477.908	2188.25
478.127	2340.25
478.346	2519.25
478.564	2526.25
478.783	2472.25
479.002	2539.25
479.22	2516.25
479.439	2547.25
479.658	2935.25
479.876	2914.25
480.095	2525.25
480.313	2468.25
480.532	2293.25
480.751	2375.25
480.969	2440.25
481.188	2379.25
481.406	2360.25
481.624	2295.25
481.843	2331.25
482.061	2350.25
482.28	2428.25
482.498	2438.25
482.717	2416.25
482.935	2356.25
483.153	2334.25
483.372	2347.25
483.59	2332.25
483.808	2304.25
484.027	2359.25
484.245	2556.25
484.463	2941.25
484.681	3327.25
484.9	2611.25
485.118	2429.25
485.336	2336.25
485.554	2463.25
485.772	2592.25
485.99	2530.25
486.209	2501.25
486.427	2490.25
486.645	2487.25
486.863	2459.25
487.081	2547.25
487.299	2604.25
487.517	2568.25
487.735	2430.25
487.953	2380.25
488.171	2429.25
488.389	2376.25
488.607	2426.25
488.825	2650.25
489.043	2689.25
489.261	2432.25
489.479	2587.25
489.696	2652.25
489.914	2556.25
490.132	2500.25
490.35	2446.25
490.568	2562.25
490.786	2481.25
491.003	2400.25
491.221	2418.25
491.439	2516.25
491.657	2519.25
491.874	2528.25
492.092	2522.25
492.31	2498.25
492.527	2510.25
492.745	2472.25
492.963	2482.25
493.18	2550.25
493.398	2754.25
493.615	2811.25
493.833	2587.25
494.05	2509.25
494.268	2500.25
494.485	2615.25
494.703	2524.25
494.92	2509.25
495.138	2521.25
495.355	2598.25
495.573	2652.25
495.79	2807.25
496.008	2799.25
496.225	2634.25
496.442	2650.25
496.66	2684.25
496.877	2658.25
497.094	2828.25
497.312	2807.25
497.529	2770.25
497.746	2811.25
497.963	3278.25
498.181	3695.25
498.398	3396.25
498.615	3338.25
498.832	3227.25
499.049	3216.25
499.267	3250.25
499.484	3433.25
499.701	3711.25
499.918	3792.25
500.135	4054.25
500.352	4317.25
500.569	4266.25
500.786	4576.25
501.003	4289.25
501.22	3864.25
501.437	3751.25
501.654	3746.25
501.871	3634.25
502.088	3211.25
502.305	3214.25
502.522	3127.25
502.739	2868.25
502.956	2792.25
503.172	2861.25
503.389	2700.25
503.606	2631.25
503.823	2701.25
504.04	2674.25
504.256	2706.25
504.473	2702.25
504.69	2792.25
504.907	2682.25
505.123	2513.25
505.34	2622.25
505.557	3405.25
505.773	2874.25
505.99	2447.25
506.207	2305.25
506.423	2313.25
506.64	2269.25
506.856	2303.25
507.073	2598.25
507.289	2870.25
507.506	2720.25
507.722	2311.25
507.939	2174.25
508.155	2231.25
508.372	2251.25
508.588	2191.25
508.805	2137.25
509.021	2102.25
509.238	2043.25
509.454	2064.25
509.67	2072.25
509.887	2055.25
510.103	2056.25
510.319	2088.25
510.536	2187.25
510.752	2246.25
510.968	2279.25
511.184	2388.25
511.401	2365.25
511.617	2078.25
511.833	2032.25
512.049	2001.25
512.265	2038.25
512.481	2012.25
512.698	2093.25
512.914	2202.25
513.13	2137.25
513.346	2034.25
513.562	1983.25
513.778	1994.25
513.994	2126.25
514.21	2206.25
514.426	2218.25
514.642	2517.25
514.858	2309.25
515.074	2123.25
515.29	2052.25
515.506	2131.25
515.721	2215.25
515.937	2184.25
516.153	2487.25
516.369	2320.25
516.585	2237.25
516.801	2088.25
517.016	2100.25
517.232	2166.25
517.448	2215.25
517.664	2213.25
517.879	2238.25
518.095	2394.25
518.311	2265.25
518.527	2105.25
518.742	2112.25
518.958	2017.25
519.173	2037.25
519.389	2062.25
519.605	2100.25
519.82	2080.25
520.036	2096.25
520.251	2013.25
520.467	2090.25
520.682	2251.25
520.898	2317.25
521.113	2086.25
521.329	1990.25
521.544	2210.25
521.76	2100.25
521.975	2004.25
522.19	1943.25
522.406	1945.25
522.621	2341.25
522.836	2374.25
523.052	1962.25
523.267	1951.25
523.482	1979.25
523.698	1880.25
523.913	1816.25
524.128	1892.25
524.343	1950.25
524.559	2018.25
524.774	1886.25
524.989	1836.25
525.204	1804.25
525.419	1818.25
525.634	1817.25
525.849	1878.25
526.064	1857.25
526.28	1884.25
526.495	1829.25
526.71	1814.25
526.925	1829.25
527.14	1804.25
527.355	1755.25
527.57	1727.25
527.785	1809.25
527.999	1774.25
528.214	1730.25
528.429	1711.25
528.644	1696.25
528.859	1796.25
529.074	1713.25
529.289	1726.25
529.503	1817.25
529.718	1784.25
529.933	1764.25
530.148	1674.25
530.363	1668.25
530.577	1721.25
530.792	1756.25
531.007	1820.25
531.221	1750.25
531.436	1772.25
531.651	1884.25
531.865	1944.25
532.08	1850.25
532.295	1718.25
532.509	1645.25
532.724	1714.25
532.938	1757.25
533.153	1935.25
533.367	1786.25
533.582	1754.25
533.796	1745.25
534.011	1784.25
534.225	1757.25
534.44	1727.25
534.654	1703.25
534.868	1743.25
535.083	1819.25
535.297	1802.25
535.511	1746.25
535.726	1750.25
535.94	1719.25
536.154	1703.25
536.369	1671.25
536.583	1679.25
536.797	1679.25
537.011	1749.25
537.225	1670.25
537.44	1639.25
537.654	1728.25
537.868	1672.25
538.082	1575.25
538.296	1553.25
538.51	1564.25
538.724	1596.25
538.938	1591.25
539.153	1647.25
539.367	1659.25
539.581	1663.25
539.795	1739.25
540.009	1707.25
540.222	1655.25
540.436	1695.25
540.65	1831.25
540.864	1867.25
541.078	1783.25
541.292	1616.25
541.506	1647.25
541.72	1652.25
541.934	1662.25
542.147	1684.25
542.361	1667.25
542.575	1556.25
542.789	1569.25
543.002	1527.25
543.216	1576.25
543.43	1660.25
543.644	1739.25
543.857	1759.25
544.071	1672.25
544.285	1631.25
544.498	1598.25
544.712	1642.25
544.925	1646.25
545.139	1700.25
545.352	1602.25
545.566	1574.25
545.779	1563.25
545.993	1604.25
546.206	1618.25
546.42	1556.25
546.633	1512.25
546.847	1541.25
547.06	1528.25
547.274	1555.25
547.487	1546.25
547.7	1552.25
547.914	1555.25
548.127	1560.25
548.34	1581.25
548.554	1602.25
548.767	1551.25
548.98	1525.25
549.193	1596.25
549.407	1632.25
549.62	1632.25
549.833	1540.25
550.046	1530.25
550.259	1576.25
550.473	1494.25
550.686	1523.25
550.899	1498.25
551.112	1496.25
551.325	1478.25
551.538	1574.25
551.751	1804.25
551.964	1498.25
552.177	1438.25
552.39	1481.25
552.603	1534.25
552.816	1536.25
553.029	1571.25
553.242	1618.25
553.455	1545.25
553.667	1540.25
553.88	1567.25
554.093	1509.25
554.306	1451.25
554.519	1419.25
554.732	1397.25
554.944	1451.25
555.157	1486.25
555.37	1411.25
555.583	1435.25
555.795	1405.25
556.008	1390.25
556.221	1372.25
556.433	1341.25
556.646	1332.25
556.859	1342.25
557.071	1336.25
557.284	1341.25
557.496	1320.25
557.709	1282.25
557.921	1285.25
558.134	1293.25
558.346	1296.25
558.559	1274.25
558.771	1270.25
558.984	1231.25
559.196	1212.25
559.409	1215.25
559.621	1234.25
559.833	1248.25
560.046	1329.25
560.258	1288.25
560.47	1246.25
560.683	1247.25
560.895	1244.25
561.107	1294.25
561.32	1292.25
561.532	1309.25
561.744	1257.25
561.956	1270.25
562.168	1232.25
562.381	1200.25
562.593	1182.25
562.805	1221.25
563.017	1182.25
563.229	1274.25
563.441	1260.25
563.653	1198.25
563.865	1263.25
564.077	1239.25
564.289	1238.25
564.501	1228.25
564.713	1284.25
564.925	1337.25
565.137	1424.25
565.349	1268.25
565.561	1337.25
565.773	1328.25
565.985	1336.25
566.197	1398.25
566.408	1508.25
566.62	1503.25
566.832	1492.25
567.044	1505.25
567.255	1480.25
567.467	1496.25
567.679	1583.25
567.891	1615.25
568.102	1563.25
568.314	1506.25
568.526	1414.25
568.737	1375.25
568.949	1330.25
569.161	1255.25
569.372	1238.25
569.584	1189.25
569.795	1199.25
570.007	1204.25
570.218	1149.25
570.43	1113.25
570.641	1117.25
570.853	1110.25
571.064	1114.25
571.276	1114.25
571.487	1099.25
571.698	1043.25
571.91	1054.25
572.121	1046.25
572.333	1043.25
572.544	1038.25
572.755	1029.25
572.966	1022.25
573.178	1001.25
573.389	1013.25
573.6	1024.25
573.811	1099.25
574.023	1013.25
574.234	996.25
574.445	982.25
574.656	954.25
574.867	941.25
575.078	967.25
575.289	934.25
575.501	928.25
575.712	927.25
575.923	924.25
576.134	950.25
576.345	907.25
576.556	924.25
576.767	895.25
576.978	871.25
577.188	916.25
577.399	907.25
577.61	878.25
577.821	880.25
578.032	893.25
578.243	896.25
578.454	859.25
578.665	861.25
578.875	848.25
579.086	823.25
579.297	834.25
579.508	896.25
579.718	852.25
579.929	852.25
580.14	801.25
580.35	796.25
580.561	866.25
580.772	968.25
580.982	857.25
581.193	812.25
581.403	839.25
581.614	790.25
581.825	799.25
582.035	813.25
582.246	817.25
582.456	830.25
582.667	810.25
582.877	820.25
583.087	775.25
583.298	810.25
583.508	812.25
583.719	814.25
583.929	836.25
584.139	804.25
584.35	784.25
584.56	770.25
584.77	793.25
584.981	802.25
585.191	796.25
585.401	798.25
585.611	812.25
585.821	776.25
586.032	782.25
586.242	767.25
586.452	764.25
586.662	780.25
586.872	776.25
587.082	781.25
587.292	779.25
587.502	813.25
587.713	777.25
587.923	771.25
588.133	756.25
588.343	773.25
588.553	761.25
588.762	782.25
588.972	769.25
589.182	766.25
589.392	770.25
589.602	766.25
589.812	771.25
590.022	728.25
590.232	723.25
590.441	735.25
590.651	780.25
590.861	743.25
591.071	750.25
591.281	732.25
591.49	734.25
591.7	768.25
591.91	746.25
592.119	732.25
592.329	751.25
592.539	782.25
592.748	776.25
592.958	792.25
593.167	798.25
593.377	774.25
593.587	795.25
593.796	798.25
594.006	783.25
594.215	759.25
594.424	780.25
594.634	779.25
594.843	770.25
595.053	804.25
595.262	754.25
595.472	725.25
595.681	775.25
595.89	724.25
596.1	707.25
596.309	703.25
596.518	683.25
596.727	700.25
596.937	696.25
597.146	664.25
597.355	657.25
597.564	670.25
597.774	674.25
597.983	648.25
598.192	645.25
598.401	653.25
598.61	655.25
598.819	631.25
599.028	647.25
599.237	669.25
599.446	630.25
599.655	609.25
599.864	630.25
600.073	646.25
600.282	628.25
600.491	608.25
600.7	619.25
600.909	624.25
601.118	600.25
601.327	611.25
601.536	630.25
601.745	599.25
601.953	609.25
602.162	610.25
602.371	610.25
602.58	611.25
602.789	613.25
602.997	583.25
603.206	592.25
603.415	586.25
603.623	574.25
603.832	601.25
604.041	587.25
604.249	567.25
604.458	586.25
604.666	590.25
604.875	578.25
605.084	576.25
605.292	592.25
605.501	570.25
605.709	585.25
605.918	572.25
606.126	569.25
606.334	545.25
606.543	569.25
606.751	555.25
606.96	570.25
607.168	574.25
607.376	551.25
607.585	538.25
607.793	556.25
608.001	563.25
608.21	554.25
608.418	565.25
608.626	567.25
608.834	567.25
609.043	544.25
609.251	534.25
609.459	542.25
609.667	555.25
609.875	559.25
610.083	560.25
610.291	591.25
610.499	582.25
610.707	570.25
610.916	551.25
611.124	544.25
611.332	541.25
611.54	550.25
611.748	543.25
611.955	528.25
612.163	521.25
612.371	537.25
612.579	528.25
612.787	543.25
612.995	528.25
613.203	551.25
613.411	532.25
613.618	548.25
613.826	513.25
614.034	532.25
614.242	520.25
614.449	536.25
614.657	546.25
614.865	511.25
615.072	530.25
615.28	534.25
615.488	550.25
615.695	552.25
615.903	540.25
616.111	538.25
616.318	536.25
616.526	527.25
616.733	506.25
616.941	528.25
617.148	516.25
617.356	508.25
617.563	504.25
617.771	523.25
617.978	498.25
618.185	518.25
618.393	499.25
618.6	532.25
618.807	517.25
619.015	499.25
619.222	485.25
619.429	475.25
619.637	502.25
619.844	488.25
620.051	475.25
620.258	500.25
620.466	457.25
620.673	483.25
620.88	477.25
621.087	450.25
621.294	445.25
621.501	472.25
621.708	473.25
621.915	476.25
622.122	473.25
622.329	461.25
622.536	463.25
622.743	468.25
622.95	455.25
623.157	463.25
623.364	470.25
623.571	429.25
623.778	438.25
623.985	472.25
624.192	455.25
624.399	447.25
624.606	448.25
624.812	444.25
625.019	443.25
625.226	455.25
625.433	440.25
625.639	447.25
625.846	428.25
626.053	411.25
626.259	418.25
626.466	413.25
626.673	417.25
626.879	416.25
627.086	418.25
627.293	421.25
627.499	427.25
627.706	426.25
627.912	438.25
628.119	418.25
628.325	422.25
628.532	415.25
628.738	415.25
628.945	411.25
629.151	399.25
629.357	412.25
629.564	432.25
629.77	416.25
629.976	416.25
630.183	387.25
630.389	396.25
630.595	420.25
630.802	413.25
631.008	401.25
631.214	386.25
631.42	393.25
631.627	383.25
631.833	383.25
632.039	379.25
632.245	371.25
632.451	381.25
632.657	374.25
632.863	371.25
633.069	378.25
633.275	382.25
633.481	367.25
633.688	367.25
633.893	371.25
634.099	361.25
634.305	362.25
634.511	385.25
634.717	349.25
634.923	340.25
635.129	338.25
635.335	364.25
635.541	348.25
635.747	369.25
635.952	371.25
636.158	350.25
636.364	349.25
636.57	344.25
636.775	351.25
636.981	379.25
637.187	346.25
637.392	348.25
637.598	331.25
637.804	349.25
638.009	365.25
638.215	358.25
638.421	337.25
638.626	353.25
638.832	332.25
639.037	346.25
639.243	350.25
639.448	344.25
639.654	340.25
639.859	319.25
640.065	344.25
640.27	343.25
640.475	354.25
640.681	351.25
640.886	350.25
641.091	351.25
641.297	343.25
641.502	326.25
641.707	338.25
641.913	353.25
642.118	346.25
642.323	338.25
642.528	317.25
642.733	325.25
642.939	324.25
643.144	320.25
643.349	345.25
643.554	327.25
643.759	314.25
643.964	332.25
644.169	322.25
644.374	313.25
644.579	352.25
644.784	311.25
644.989	320.25
645.194	319.25
645.399	332.25
645.604	318.25
645.809	316.25
646.014	320.25
646.219	330.25
646.423	325.25
646.628	315.25
646.833	309.25
647.038	324.25
647.243	308.25
647.447	310.25
647.652	331.25
647.857	327.25
648.062	311.25
648.266	333.25
648.471	331.25
648.676	331.25
648.88	323.25
649.085	318.25
649.289	316.25
649.494	310.25
649.698	293.25
649.903	301.25
650.107	322.25
650.312	304.25
650.516	306.25
650.721	295.25
650.925	283.25
651.13	287.25
651.334	287.25
651.539	287.25
651.743	283.25
651.947	275.25
652.152	287.25
652.356	284.25
652.56	271.25
652.764	271.25
652.969	280.25
653.173	249.25
653.377	270.25
653.581	247.25
653.785	249.25
653.99	264.25
654.194	246.25
654.398	250.25
654.602	250.25
654.806	259.25
655.01	240.25
655.214	250.25
655.418	253.25
655.622	260.25
655.826	260.25
656.03	253.25
656.234	273.25
656.438	281.25
656.642	285.25
656.846	261.25
657.049	249.25
657.253	246.25
657.457	215.25
657.661	197.25
657.865	196.25
658.068	164.25
658.272	172.25
658.476	180.25
658.68	163.25
658.883	137.25
659.087	145.25
659.291	158.25
659.494	134.25
659.698	133.25
659.901	132.25
660.105	116.25
660.309	118.25
660.512	122.25
660.716	136.25
660.919	127.25
661.123	107.25
661.326	103.25
661.53	93.25
661.733	103.25
661.936	114.25
662.14	100.25
662.343	94.25
662.546	98.25
662.75	107.25
662.953	100.25
663.156	88.25
663.36	92.25
663.563	109.25
663.766	87.25
663.969	99.25
664.173	92.25
664.376	84.25
664.579	75.25
664.782	87.25
664.985	77.25
665.188	86.25
665.391	79.25
665.594	80.25
665.797	91.25
666	83.25
666.203	82.25
666.406	79.25
666.609	93.25
666.812	100.25
667.015	76.25
667.218	102.25
667.421	86.25
667.624	84.25
667.827	90.25
668.03	88.25
668.232	77.25
668.435	93.25
668.638	92.25
668.841	90.25
669.043	83.25
669.246	70.25
669.449	82.25
669.651	87.25
669.854	81.25
670.057	84.25
670.259	82.25
670.462	89.25
670.665	80.25
670.867	87.25
671.07	92.25
671.272	80.25
671.475	83.25
671.677	90.25
671.88	85.25
672.082	77.25
672.284	82.25
672.487	83.25
672.689	99.25
672.892	85.25
