Data from WStandard_LampEnergy8_LIBS07252019.E.O._I.C._HRD10591_15-57-50-929.txt Node
Date: Thu Jul 25 15:57:50 EDT 2019
User: cochatt
Spectrometer: HR+D1059
Trigger mode: 1
Integration Time (sec): 1.000000E-1
Scans to average: 1
Electric dark correction enabled: true
Nonlinearity correction enabled: false
Boxcar width: 0
XAxis mode: Wavelengths
Number of Pixels in Spectrum: 2048
>>>>>Begin Spectral Data<<<<<
223.165	-23.31
223.4	-23.31
223.635	-23.31
223.869	-29.31
224.104	-23.31
224.338	-15.31
224.573	-18.31
224.808	-22.31
225.042	-11.31
225.277	3.69
225.511	4.69
225.746	7.69
225.98	4.69
226.215	12.69
226.449	21.69
226.683	21.69
226.918	27.69
227.152	38.69
227.387	30.69
227.621	49.69
227.856	32.69
228.09	54.69
228.324	54.69
228.559	53.69
228.793	110.69
229.027	212.69
229.262	216.69
229.496	232.69
229.73	224.69
229.964	249.69
230.199	263.69
230.433	286.69
230.667	286.69
230.901	286.69
231.136	259.69
231.37	283.69
231.604	291.69
231.838	274.69
232.072	275.69
232.306	265.69
232.541	281.69
232.775	294.69
233.009	322.69
233.243	325.69
233.477	320.69
233.711	307.69
233.945	323.69
234.179	312.69
234.413	338.69
234.647	354.69
234.881	328.69
235.115	310.69
235.349	312.69
235.583	314.69
235.817	312.69
236.051	297.69
236.285	296.69
236.519	328.69
236.753	363.69
236.987	391.69
237.221	368.69
237.455	400.69
237.689	385.69
237.922	364.69
238.156	361.69
238.39	350.69
238.624	381.69
238.858	410.69
239.091	419.69
239.325	428.69
239.559	499.69
239.793	498.69
240.027	557.69
240.26	506.69
240.494	390.69
240.728	394.69
240.961	397.69
241.195	420.69
241.429	443.69
241.662	433.69
241.896	395.69
242.13	425.69
242.363	447.69
242.597	474.69
242.83	471.69
243.064	476.69
243.298	516.69
243.531	507.69
243.765	493.69
243.998	474.69
244.232	437.69
244.465	412.69
244.699	432.69
244.932	473.69
245.166	552.69
245.399	512.69
245.633	486.69
245.866	487.69
246.099	484.69
246.333	491.69
246.566	514.69
246.8	550.69
247.033	579.69
247.266	562.69
247.5	560.69
247.733	542.69
247.966	574.69
248.2	628.69
248.433	628.69
248.666	645.69
248.899	728.69
249.133	813.69
249.366	853.69
249.599	712.69
249.832	634.69
250.066	650.69
250.299	656.69
250.532	597.69
250.765	572.69
250.998	580.69
251.231	627.69
251.465	614.69
251.698	585.69
251.931	626.69
252.164	618.69
252.397	658.69
252.63	632.69
252.863	557.69
253.096	568.69
253.329	606.69
253.562	623.69
253.795	648.69
254.028	635.69
254.261	599.69
254.494	609.69
254.727	564.69
254.96	584.69
255.193	654.69
255.426	740.69
255.659	826.69
255.892	833.69
256.124	701.69
256.357	686.69
256.59	730.69
256.823	717.69
257.056	759.69
257.289	857.69
257.521	938.69
257.754	860.69
257.987	821.69
258.22	878.69
258.452	844.69
258.685	678.69
258.918	697.69
259.151	723.69
259.383	671.69
259.616	632.69
259.849	654.69
260.081	713.69
260.314	798.69
260.547	846.69
260.779	846.69
261.012	803.69
261.244	754.69
261.477	692.69
261.71	710.69
261.942	725.69
262.175	697.69
262.407	735.69
262.64	670.69
262.872	650.69
263.105	652.69
263.337	667.69
263.57	694.69
263.802	638.69
264.035	648.69
264.267	606.69
264.499	584.69
264.732	614.69
264.964	664.69
265.197	698.69
265.429	736.69
265.661	837.69
265.894	886.69
266.126	884.69
266.358	834.69
266.591	828.69
266.823	889.69
267.055	812.69
267.287	818.69
267.52	789.69
267.752	809.69
267.984	797.69
268.216	819.69
268.448	843.69
268.681	808.69
268.913	784.69
269.145	744.69
269.377	722.69
269.609	779.69
269.841	937.69
270.073	1076.69
270.306	1164.69
270.538	1140.69
270.77	991.69
271.002	843.69
271.234	863.69
271.466	860.69
271.698	956.69
271.93	1085.69
272.162	1070.69
272.394	1014.69
272.626	948.69
272.858	844.69
273.09	747.69
273.322	725.69
273.553	696.69
273.785	717.69
274.017	755.69
274.249	806.69
274.481	792.69
274.713	724.69
274.945	717.69
275.176	738.69
275.408	686.69
275.64	706.69
275.872	708.69
276.104	770.69
276.335	868.69
276.567	968.69
276.799	946.69
277.031	870.69
277.262	844.69
277.494	887.69
277.726	953.69
277.957	916.69
278.189	816.69
278.421	774.69
278.652	752.69
278.884	761.69
279.115	736.69
279.347	760.69
279.579	756.69
279.81	771.69
280.042	848.69
280.273	922.69
280.505	930.69
280.736	916.69
280.968	891.69
281.199	766.69
281.431	737.69
281.662	740.69
281.894	735.69
282.125	764.69
282.356	789.69
282.588	804.69
282.819	797.69
283.051	861.69
283.282	930.69
283.513	859.69
283.745	781.69
283.976	725.69
284.207	773.69
284.439	784.69
284.67	768.69
284.901	803.69
285.132	826.69
285.364	782.69
285.595	811.69
285.826	792.69
286.057	793.69
286.288	769.69
286.52	822.69
286.751	890.69
286.982	888.69
287.213	795.69
287.444	750.69
287.675	792.69
287.906	819.69
288.138	865.69
288.369	834.69
288.6	779.69
288.831	763.69
289.062	777.69
289.293	780.69
289.524	779.69
289.755	822.69
289.986	808.69
290.217	750.69
290.448	772.69
290.679	824.69
290.91	791.69
291.141	834.69
291.371	827.69
291.602	849.69
291.833	842.69
292.064	862.69
292.295	846.69
292.526	894.69
292.757	908.69
292.987	874.69
293.218	817.69
293.449	909.69
293.68	1022.69
293.91	1040.69
294.141	983.69
294.372	935.69
294.603	980.69
294.833	1001.69
295.064	944.69
295.295	889.69
295.525	848.69
295.756	780.69
295.987	726.69
296.217	788.69
296.448	803.69
296.679	817.69
296.909	816.69
297.14	797.69
297.37	820.69
297.601	892.69
297.831	892.69
298.062	920.69
298.292	831.69
298.523	801.69
298.753	796.69
298.984	830.69
299.214	816.69
299.445	884.69
299.675	864.69
299.905	859.69
300.136	843.69
300.366	806.69
300.597	774.69
300.827	806.69
301.057	839.69
301.288	870.69
301.518	885.69
301.748	916.69
301.979	942.69
302.209	934.69
302.439	1008.69
302.669	1030.69
302.9	1003.69
303.13	890.69
303.36	877.69
303.59	900.69
303.82	852.69
304.051	891.69
304.281	876.69
304.511	908.69
304.741	992.69
304.971	1034.69
305.201	1113.69
305.431	1004.69
305.661	812.69
305.891	792.69
306.121	772.69
306.352	809.69
306.582	884.69
306.812	950.69
307.042	973.69
307.272	995.69
307.502	1016.69
307.731	1092.69
307.961	1087.69
308.191	1027.69
308.421	908.69
308.651	870.69
308.881	859.69
309.111	859.69
309.341	832.69
309.571	871.69
309.8	839.69
310.03	864.69
310.26	823.69
310.49	842.69
310.72	900.69
310.949	930.69
311.179	900.69
311.409	895.69
311.639	854.69
311.868	852.69
312.098	866.69
312.328	864.69
312.557	872.69
312.787	859.69
313.017	902.69
313.246	884.69
313.476	896.69
313.706	920.69
313.935	911.69
314.165	933.69
314.394	951.69
314.624	1024.69
314.853	1062.69
315.083	1074.69
315.312	1108.69
315.542	995.69
315.771	892.69
316.001	929.69
316.23	981.69
316.46	964.69
316.689	982.69
316.919	891.69
317.148	893.69
317.377	921.69
317.607	1006.69
317.836	1100.69
318.065	1131.69
318.295	1082.69
318.524	1053.69
318.753	980.69
318.983	989.69
319.212	954.69
319.441	915.69
319.67	938.69
319.9	964.69
320.129	1020.69
320.358	1061.69
320.587	1084.69
320.816	1069.69
321.046	1040.69
321.275	991.69
321.504	1030.69
321.733	1066.69
321.962	1040.69
322.191	982.69
322.42	940.69
322.649	930.69
322.878	924.69
323.108	959.69
323.337	976.69
323.566	978.69
323.795	985.69
324.024	986.69
324.253	990.69
324.482	982.69
324.71	927.69
324.939	908.69
325.168	901.69
325.397	978.69
325.626	980.69
325.855	1002.69
326.084	963.69
326.313	958.69
326.542	982.69
326.77	1003.69
326.999	972.69
327.228	952.69
327.457	911.69
327.686	891.69
327.914	913.69
328.143	935.69
328.372	951.69
328.6	945.69
328.829	939.69
329.058	898.69
329.287	928.69
329.515	954.69
329.744	1004.69
329.972	1018.69
330.201	1046.69
330.43	1022.69
330.658	1013.69
330.887	995.69
331.115	1013.69
331.344	1051.69
331.572	977.69
331.801	997.69
332.03	1009.69
332.258	998.69
332.486	997.69
332.715	1027.69
332.943	985.69
333.172	1003.69
333.4	1013.69
333.629	1060.69
333.857	1124.69
334.085	1241.69
334.314	1405.69
334.542	1483.69
334.771	1346.69
334.999	1202.69
335.227	1111.69
335.455	1066.69
335.684	1065.69
335.912	1110.69
336.14	1146.69
336.369	1066.69
336.597	1014.69
336.825	1041.69
337.053	1052.69
337.281	1140.69
337.51	1174.69
337.738	1192.69
337.966	1123.69
338.194	1022.69
338.422	1012.69
338.65	1015.69
338.878	986.69
339.106	966.69
339.334	970.69
339.562	949.69
339.79	966.69
340.018	1045.69
340.246	1049.69
340.474	1061.69
340.702	1059.69
340.93	1038.69
341.158	1029.69
341.386	1036.69
341.614	1001.69
341.842	1022.69
342.07	1012.69
342.298	1037.69
342.526	1042.69
342.754	1013.69
342.981	1000.69
343.209	996.69
343.437	969.69
343.665	1016.69
343.893	1018.69
344.12	1097.69
344.348	1061.69
344.576	1046.69
344.804	1024.69
345.031	997.69
345.259	1005.69
345.487	958.69
345.714	939.69
345.942	931.69
346.17	966.69
346.397	981.69
346.625	939.69
346.853	908.69
347.08	914.69
347.308	907.69
347.535	960.69
347.763	955.69
347.99	967.69
348.218	904.69
348.445	962.69
348.673	952.69
348.9	959.69
349.128	1006.69
349.355	1018.69
349.583	978.69
349.81	946.69
350.037	871.69
350.265	902.69
350.492	906.69
350.72	940.69
350.947	951.69
351.174	954.69
351.402	941.69
351.629	900.69
351.856	839.69
352.083	842.69
352.311	886.69
352.538	896.69
352.765	953.69
352.992	986.69
353.22	950.69
353.447	912.69
353.674	924.69
353.901	907.69
354.128	891.69
354.355	944.69
354.583	966.69
354.81	1010.69
355.037	981.69
355.264	945.69
355.491	951.69
355.718	965.69
355.945	948.69
356.172	914.69
356.399	935.69
356.626	925.69
356.853	952.69
357.08	1056.69
357.307	1128.69
357.534	1099.69
357.761	954.69
357.988	913.69
358.215	886.69
358.441	903.69
358.668	890.69
358.895	915.69
359.122	1002.69
359.349	1084.69
359.576	1036.69
359.802	939.69
360.029	891.69
360.256	909.69
360.483	940.69
360.709	964.69
360.936	1000.69
361.163	1034.69
361.39	1147.69
361.616	1207.69
361.843	1143.69
362.07	1084.69
362.296	943.69
362.523	954.69
362.749	930.69
362.976	953.69
363.203	969.69
363.429	935.69
363.656	916.69
363.882	992.69
364.109	1088.69
364.335	1115.69
364.562	1013.69
364.788	970.69
365.015	932.69
365.241	908.69
365.468	959.69
365.694	1005.69
365.92	1011.69
366.147	954.69
366.373	924.69
366.599	929.69
366.826	952.69
367.052	906.69
367.278	968.69
367.505	931.69
367.731	967.69
367.957	981.69
368.184	1036.69
368.41	1082.69
368.636	1075.69
368.862	1094.69
369.089	1077.69
369.315	1045.69
369.541	1005.69
369.767	956.69
369.993	973.69
370.219	939.69
370.445	965.69
370.672	1039.69
370.898	1078.69
371.124	1062.69
371.35	1003.69
371.576	1051.69
371.802	1078.69
372.028	1036.69
372.254	985.69
372.48	961.69
372.706	955.69
372.932	995.69
373.158	986.69
373.384	1004.69
373.61	1030.69
373.835	1063.69
374.061	976.69
374.287	1026.69
374.513	1004.69
374.739	972.69
374.965	1015.69
375.191	1005.69
375.416	1032.69
375.642	1050.69
375.868	1105.69
376.094	1115.69
376.319	1060.69
376.545	1020.69
376.771	1040.69
376.997	1115.69
377.222	1097.69
377.448	1049.69
377.674	1073.69
377.899	1076.69
378.125	1157.69
378.35	1102.69
378.576	1001.69
378.802	969.69
379.027	983.69
379.253	1002.69
379.478	989.69
379.704	1005.69
379.929	993.69
380.155	1037.69
380.38	1053.69
380.606	1015.69
380.831	1048.69
381.057	1093.69
381.282	1116.69
381.507	1089.69
381.733	1155.69
381.958	1156.69
382.184	1085.69
382.409	1045.69
382.634	1094.69
382.86	1049.69
383.085	1044.69
383.31	1092.69
383.535	1159.69
383.761	1236.69
383.986	1178.69
384.211	1144.69
384.436	1158.69
384.662	1196.69
384.887	1238.69
385.112	1170.69
385.337	1165.69
385.562	1129.69
385.787	1139.69
386.013	1192.69
386.238	1194.69
386.463	1138.69
386.688	1295.69
386.913	1353.69
387.138	1273.69
387.363	1187.69
387.588	1210.69
387.813	1199.69
388.038	1192.69
388.263	1282.69
388.488	1152.69
388.713	1098.69
388.938	1105.69
389.163	1134.69
389.387	1138.69
389.612	1132.69
389.837	1152.69
390.062	1148.69
390.287	1141.69
390.512	1140.69
390.736	1094.69
390.961	1102.69
391.186	1088.69
391.411	1119.69
391.636	1107.69
391.86	1155.69
392.085	1137.69
392.31	1082.69
392.534	1122.69
392.759	1149.69
392.984	1180.69
393.208	1198.69
393.433	1211.69
393.658	1251.69
393.882	1245.69
394.107	1167.69
394.331	1158.69
394.556	1156.69
394.78	1181.69
395.005	1238.69
395.229	1258.69
395.454	1303.69
395.678	1332.69
395.903	1236.69
396.127	1217.69
396.352	1230.69
396.576	1264.69
396.801	1311.69
397.025	1245.69
397.249	1242.69
397.474	1227.69
397.698	1232.69
397.922	1284.69
398.147	1315.69
398.371	1388.69
398.595	1376.69
398.82	1290.69
399.044	1366.69
399.268	1382.69
399.492	1502.69
399.717	1508.69
399.941	1500.69
400.165	1511.69
400.389	1468.69
400.613	1450.69
400.837	1744.69
401.062	1856.69
401.286	1553.69
401.51	1497.69
401.734	1510.69
401.958	1449.69
402.182	1368.69
402.406	1316.69
402.63	1288.69
402.854	1312.69
403.078	1311.69
403.302	1325.69
403.526	1362.69
403.75	1370.69
403.974	1394.69
404.198	1372.69
404.422	1416.69
404.645	1484.69
404.869	1439.69
405.093	1353.69
405.317	1291.69
405.541	1363.69
405.765	1331.69
405.988	1351.69
406.212	1404.69
406.436	1428.69
406.66	1524.69
406.883	1498.69
407.107	1714.69
407.331	1806.69
407.555	1948.69
407.778	1742.69
408.002	1432.69
408.226	1414.69
408.449	1417.69
408.673	1399.69
408.896	1439.69
409.12	1445.69
409.344	1405.69
409.567	1373.69
409.791	1368.69
410.014	1391.69
410.238	1509.69
410.461	1577.69
410.685	1398.69
410.908	1334.69
411.132	1376.69
411.355	1374.69
411.578	1349.69
411.802	1368.69
412.025	1383.69
412.249	1337.69
412.472	1334.69
412.695	1309.69
412.919	1318.69
413.142	1301.69
413.365	1301.69
413.589	1376.69
413.812	1423.69
414.035	1441.69
414.258	1337.69
414.482	1332.69
414.705	1371.69
414.928	1331.69
415.151	1304.69
415.374	1288.69
415.597	1330.69
415.821	1352.69
416.044	1363.69
416.267	1375.69
416.49	1271.69
416.713	1265.69
416.936	1317.69
417.159	1384.69
417.382	1397.69
417.605	1296.69
417.828	1366.69
418.051	1388.69
418.274	1348.69
418.497	1288.69
418.72	1272.69
418.943	1284.69
419.166	1338.69
419.389	1365.69
419.611	1332.69
419.834	1349.69
420.057	1321.69
420.28	1297.69
420.503	1341.69
420.726	1336.69
420.948	1342.69
421.171	1298.69
421.394	1290.69
421.617	1344.69
421.839	1360.69
422.062	1332.69
422.285	1312.69
422.507	1286.69
422.73	1229.69
422.953	1243.69
423.175	1243.69
423.398	1284.69
423.621	1286.69
423.843	1270.69
424.066	1340.69
424.288	1415.69
424.511	1422.69
424.733	1389.69
424.956	1259.69
425.178	1260.69
425.401	1284.69
425.623	1254.69
425.846	1288.69
426.068	1368.69
426.291	1371.69
426.513	1291.69
426.735	1329.69
426.958	1462.69
427.18	1509.69
427.402	1416.69
427.625	1429.69
427.847	1410.69
428.069	1299.69
428.292	1228.69
428.514	1260.69
428.736	1226.69
428.958	1274.69
429.181	1298.69
429.403	1507.69
429.625	1826.69
429.847	1478.69
430.069	1305.69
430.292	1450.69
430.514	1484.69
430.736	1386.69
430.958	1414.69
431.18	1305.69
431.402	1221.69
431.624	1216.69
431.846	1194.69
432.068	1154.69
432.29	1155.69
432.512	1180.69
432.734	1220.69
432.956	1322.69
433.178	1390.69
433.4	1347.69
433.622	1363.69
433.844	1268.69
434.066	1202.69
434.287	1186.69
434.509	1248.69
434.731	1257.69
434.953	1371.69
435.175	1359.69
435.397	1283.69
435.618	1292.69
435.84	1259.69
436.062	1211.69
436.284	1279.69
436.505	1332.69
436.727	1352.69
436.949	1297.69
437.17	1278.69
437.392	1266.69
437.614	1195.69
437.835	1238.69
438.057	1275.69
438.278	1224.69
438.5	1211.69
438.721	1219.69
438.943	1293.69
439.165	1242.69
439.386	1217.69
439.608	1261.69
439.829	1282.69
440.05	1266.69
440.272	1291.69
440.493	1272.69
440.715	1304.69
440.936	1390.69
441.158	1451.69
441.379	1416.69
441.6	1386.69
441.822	1336.69
442.043	1404.69
442.264	1354.69
442.486	1278.69
442.707	1239.69
442.928	1268.69
443.149	1314.69
443.371	1377.69
443.592	1396.69
443.813	1380.69
444.034	1414.69
444.255	1353.69
444.476	1408.69
444.698	1428.69
444.919	1411.69
445.14	1478.69
445.361	1445.69
445.582	1492.69
445.803	1411.69
446.024	1384.69
446.245	1438.69
446.466	1408.69
446.687	1361.69
446.908	1368.69
447.129	1342.69
447.35	1332.69
447.571	1344.69
447.792	1273.69
448.013	1255.69
448.234	1289.69
448.455	1337.69
448.675	1321.69
448.896	1239.69
449.117	1217.69
449.338	1245.69
449.559	1298.69
449.779	1386.69
450	1477.69
450.221	1538.69
450.442	1464.69
450.662	1323.69
450.883	1224.69
451.104	1175.69
451.324	1196.69
451.545	1231.69
451.766	1225.69
451.986	1164.69
452.207	1166.69
452.428	1141.69
452.648	1103.69
452.869	1162.69
453.089	1172.69
453.31	1200.69
453.53	1177.69
453.751	1121.69
453.971	1049.69
454.192	1115.69
454.412	1165.69
454.633	1128.69
454.853	1125.69
455.073	1097.69
455.294	1074.69
455.514	1104.69
455.734	1098.69
455.955	1112.69
456.175	1065.69
456.395	1097.69
456.616	1100.69
456.836	1112.69
457.056	1102.69
457.276	1077.69
457.497	1078.69
457.717	1048.69
457.937	1034.69
458.157	1061.69
458.377	1059.69
458.598	1048.69
458.818	1083.69
459.038	1101.69
459.258	1158.69
459.478	1165.69
459.698	1116.69
459.918	1140.69
460.138	1245.69
460.358	1269.69
460.578	1250.69
460.798	1283.69
461.018	1375.69
461.238	1299.69
461.458	1328.69
461.678	1258.69
461.898	1253.69
462.118	1227.69
462.338	1270.69
462.558	1288.69
462.777	1296.69
462.997	1302.69
463.217	1385.69
463.437	1333.69
463.657	1302.69
463.876	1270.69
464.096	1269.69
464.316	1265.69
464.536	1309.69
464.755	1323.69
464.975	1292.69
465.195	1285.69
465.414	1334.69
465.634	1334.69
465.854	1322.69
466.073	1414.69
466.293	1368.69
466.512	1214.69
466.732	1226.69
466.951	1268.69
467.171	1259.69
467.391	1206.69
467.61	1208.69
467.829	1210.69
468.049	1333.69
468.268	1481.69
468.488	1380.69
468.707	1296.69
468.927	1248.69
469.146	1247.69
469.365	1234.69
469.585	1253.69
469.804	1230.69
470.023	1245.69
470.243	1254.69
470.462	1259.69
470.681	1233.69
470.901	1240.69
471.12	1232.69
471.339	1246.69
471.558	1222.69
471.777	1249.69
471.997	1232.69
472.216	1181.69
472.435	1123.69
472.654	1144.69
472.873	1166.69
473.092	1218.69
473.311	1216.69
473.53	1173.69
473.749	1160.69
473.968	1240.69
474.187	1258.69
474.406	1270.69
474.625	1245.69
474.844	1241.69
475.063	1240.69
475.282	1245.69
475.501	1225.69
475.72	1222.69
475.939	1302.69
476.158	1286.69
476.377	1235.69
476.596	1238.69
476.814	1231.69
477.033	1233.69
477.252	1293.69
477.471	1326.69
477.69	1305.69
477.908	1289.69
478.127	1370.69
478.346	1453.69
478.564	1468.69
478.783	1432.69
479.002	1468.69
479.22	1446.69
479.439	1510.69
479.658	1625.69
479.876	1554.69
480.095	1380.69
480.313	1332.69
480.532	1329.69
480.751	1320.69
480.969	1290.69
481.188	1306.69
481.406	1260.69
481.624	1222.69
481.843	1318.69
482.061	1307.69
482.28	1353.69
482.498	1384.69
482.717	1337.69
482.935	1337.69
483.153	1371.69
483.372	1381.69
483.59	1382.69
483.808	1372.69
484.027	1364.69
484.245	1492.69
484.463	1784.69
484.681	1914.69
484.9	1482.69
485.118	1399.69
485.336	1360.69
485.554	1379.69
485.772	1402.69
485.99	1386.69
486.209	1420.69
486.427	1406.69
486.645	1398.69
486.863	1429.69
487.081	1450.69
487.299	1486.69
487.517	1456.69
487.735	1472.69
487.953	1540.69
488.171	1548.69
488.389	1513.69
488.607	1462.69
488.825	1630.69
489.043	1564.69
489.261	1384.69
489.479	1499.69
489.696	1520.69
489.914	1476.69
490.132	1439.69
490.35	1455.69
490.568	1567.69
490.786	1513.69
491.003	1486.69
491.221	1559.69
491.439	1606.69
491.657	1613.69
491.874	1668.69
492.092	1693.69
492.31	1739.69
492.527	1702.69
492.745	1652.69
492.963	1606.69
493.18	1658.69
493.398	1759.69
493.615	1698.69
493.833	1595.69
494.05	1543.69
494.268	1582.69
494.485	1585.69
494.703	1589.69
494.92	1537.69
495.138	1518.69
495.355	1575.69
495.573	1626.69
495.79	1718.69
496.008	1698.69
496.225	1657.69
496.442	1636.69
496.66	1620.69
496.877	1602.69
497.094	1668.69
497.312	1666.69
497.529	1660.69
497.746	1676.69
497.963	1898.69
498.181	2005.69
498.398	1942.69
498.615	1904.69
498.832	1799.69
499.049	1756.69
499.267	1800.69
499.484	1890.69
499.701	2030.69
499.918	2048.69
500.135	2202.69
500.352	2341.69
500.569	2333.69
500.786	2582.69
501.003	2346.69
501.22	2160.69
501.437	2112.69
501.654	2140.69
501.871	2023.69
502.088	1776.69
502.305	1806.69
502.522	1741.69
502.739	1611.69
502.956	1605.69
503.172	1534.69
503.389	1514.69
503.606	1465.69
503.823	1460.69
504.04	1471.69
504.256	1543.69
504.473	1520.69
504.69	1542.69
504.907	1469.69
505.123	1386.69
505.34	1554.69
505.557	2041.69
505.773	1675.69
505.99	1425.69
506.207	1315.69
506.423	1325.69
506.64	1298.69
506.856	1328.69
507.073	1573.69
507.289	1655.69
507.506	1518.69
507.722	1329.69
507.939	1284.69
508.155	1250.69
508.372	1278.69
508.588	1215.69
508.805	1194.69
509.021	1161.69
509.238	1183.69
509.454	1166.69
509.67	1168.69
509.887	1144.69
510.103	1176.69
510.319	1153.69
510.536	1200.69
510.752	1262.69
510.968	1239.69
511.184	1322.69
511.401	1270.69
511.617	1137.69
511.833	1119.69
512.049	1109.69
512.265	1088.69
512.481	1100.69
512.698	1164.69
512.914	1232.69
513.13	1172.69
513.346	1146.69
513.562	1135.69
513.778	1105.69
513.994	1219.69
514.21	1217.69
514.426	1222.69
514.642	1304.69
514.858	1252.69
515.074	1159.69
515.29	1127.69
515.506	1183.69
515.721	1190.69
515.937	1188.69
516.153	1287.69
516.369	1254.69
516.585	1172.69
516.801	1150.69
517.016	1162.69
517.232	1218.69
517.448	1217.69
517.664	1231.69
517.879	1255.69
518.095	1288.69
518.311	1232.69
518.527	1190.69
518.742	1170.69
518.958	1134.69
519.173	1152.69
519.389	1203.69
519.605	1191.69
519.82	1204.69
520.036	1223.69
520.251	1134.69
520.467	1204.69
520.682	1255.69
520.898	1248.69
521.113	1174.69
521.329	1144.69
521.544	1217.69
521.76	1176.69
521.975	1115.69
522.19	1094.69
522.406	1118.69
522.621	1422.69
522.836	1376.69
523.052	1087.69
523.267	1101.69
523.482	1127.69
523.698	1089.69
523.913	1032.69
524.128	1082.69
524.343	1171.69
524.559	1189.69
524.774	1120.69
524.989	1103.69
525.204	1080.69
525.419	1057.69
525.634	1066.69
525.849	1052.69
526.064	1085.69
526.28	1066.69
526.495	1034.69
526.71	1009.69
526.925	992.69
527.14	1008.69
527.355	999.69
527.57	982.69
527.785	1026.69
527.999	989.69
528.214	1024.69
528.429	1018.69
528.644	1050.69
528.859	1115.69
529.074	1079.69
529.289	1122.69
529.503	1114.69
529.718	1089.69
529.933	1044.69
530.148	986.69
530.363	996.69
530.577	980.69
530.792	1004.69
531.007	992.69
531.221	986.69
531.436	1018.69
531.651	1046.69
531.865	1069.69
532.08	1026.69
532.295	987.69
532.509	977.69
532.724	950.69
532.938	1030.69
533.153	1072.69
533.367	1029.69
533.582	1053.69
533.796	1014.69
534.011	1038.69
534.225	994.69
534.44	988.69
534.654	985.69
534.868	992.69
535.083	1067.69
535.297	1046.69
535.511	1036.69
535.726	1038.69
535.94	1025.69
536.154	980.69
536.369	968.69
536.583	948.69
536.797	964.69
537.011	954.69
537.225	936.69
537.44	952.69
537.654	1014.69
537.868	975.69
538.082	934.69
538.296	909.69
538.51	957.69
538.724	922.69
538.938	988.69
539.153	1020.69
539.367	1001.69
539.581	990.69
539.795	1017.69
540.009	993.69
540.222	978.69
540.436	1002.69
540.65	1067.69
540.864	1100.69
541.078	1061.69
541.292	1045.69
541.506	1061.69
541.72	1101.69
541.934	1182.69
542.147	1208.69
542.361	1148.69
542.575	1080.69
542.789	1046.69
543.002	978.69
543.216	969.69
543.43	1065.69
543.644	1092.69
543.857	1115.69
544.071	1118.69
544.285	1120.69
544.498	1092.69
544.712	1093.69
544.925	1126.69
545.139	1134.69
545.352	1055.69
545.566	1064.69
545.779	1079.69
545.993	1105.69
546.206	1130.69
546.42	1084.69
546.633	1063.69
546.847	1027.69
547.06	1092.69
547.274	1077.69
547.487	1096.69
547.7	1096.69
547.914	1122.69
548.127	1093.69
548.34	1084.69
548.554	1068.69
548.767	1063.69
548.98	1072.69
549.193	1056.69
549.407	1149.69
549.62	1152.69
549.833	1106.69
550.046	1066.69
550.259	1065.69
550.473	1026.69
550.686	1047.69
550.899	997.69
551.112	1012.69
551.325	970.69
551.538	1051.69
551.751	1152.69
551.964	955.69
552.177	918.69
552.39	962.69
552.603	1044.69
552.816	1032.69
553.029	1058.69
553.242	1107.69
553.455	1043.69
553.667	1056.69
553.88	1032.69
554.093	1023.69
554.306	1001.69
554.519	979.69
554.732	962.69
554.944	985.69
555.157	971.69
555.37	955.69
555.583	955.69
555.795	930.69
556.008	912.69
556.221	884.69
556.433	897.69
556.646	888.69
556.859	880.69
557.071	871.69
557.284	899.69
557.496	902.69
557.709	876.69
557.921	884.69
558.134	876.69
558.346	906.69
558.559	870.69
558.771	864.69
558.984	819.69
559.196	788.69
559.409	798.69
559.621	822.69
559.833	819.69
560.046	872.69
560.258	832.69
560.47	812.69
560.683	831.69
560.895	834.69
561.107	824.69
561.32	826.69
561.532	830.69
561.744	830.69
561.956	853.69
562.168	797.69
562.381	782.69
562.593	791.69
562.805	804.69
563.017	773.69
563.229	795.69
563.441	840.69
563.653	793.69
563.865	776.69
564.077	806.69
564.289	786.69
564.501	800.69
564.713	835.69
564.925	825.69
565.137	897.69
565.349	818.69
565.561	802.69
565.773	821.69
565.985	840.69
566.197	859.69
566.408	914.69
566.62	926.69
566.832	910.69
567.044	918.69
567.255	890.69
567.467	885.69
567.679	925.69
567.891	912.69
568.102	907.69
568.314	841.69
568.526	814.69
568.737	764.69
568.949	733.69
569.161	706.69
569.372	664.69
569.584	690.69
569.795	692.69
570.007	693.69
570.218	649.69
570.43	648.69
570.641	647.69
570.853	676.69
571.064	676.69
571.276	669.69
571.487	654.69
571.698	647.69
571.91	643.69
572.121	630.69
572.333	616.69
572.544	609.69
572.755	598.69
572.966	609.69
573.178	584.69
573.389	574.69
573.6	606.69
573.811	662.69
574.023	601.69
574.234	583.69
574.445	566.69
574.656	576.69
574.867	581.69
575.078	585.69
575.289	580.69
575.501	567.69
575.712	549.69
575.923	554.69
576.134	570.69
576.345	550.69
576.556	566.69
576.767	550.69
576.978	538.69
577.188	540.69
577.399	545.69
577.61	525.69
577.821	510.69
578.032	508.69
578.243	521.69
578.454	507.69
578.665	499.69
578.875	505.69
579.086	530.69
579.297	507.69
579.508	510.69
579.718	521.69
579.929	522.69
580.14	485.69
580.35	473.69
580.561	519.69
580.772	587.69
580.982	514.69
581.193	495.69
581.403	500.69
581.614	504.69
581.825	482.69
582.035	485.69
582.246	485.69
582.456	513.69
582.667	484.69
582.877	477.69
583.087	462.69
583.298	464.69
583.508	491.69
583.719	496.69
583.929	456.69
584.139	496.69
584.35	473.69
584.56	447.69
584.77	471.69
584.981	464.69
585.191	468.69
585.401	476.69
585.611	486.69
585.821	472.69
586.032	461.69
586.242	444.69
586.452	436.69
586.662	457.69
586.872	459.69
587.082	453.69
587.292	444.69
587.502	465.69
587.713	466.69
587.923	460.69
588.133	448.69
588.343	465.69
588.553	471.69
588.762	462.69
588.972	452.69
589.182	465.69
589.392	444.69
589.602	462.69
589.812	455.69
590.022	438.69
590.232	444.69
590.441	456.69
590.651	452.69
590.861	439.69
591.071	466.69
591.281	457.69
591.49	463.69
591.7	435.69
591.91	456.69
592.119	460.69
592.329	446.69
592.539	468.69
592.748	468.69
592.958	466.69
593.167	469.69
593.377	493.69
593.587	485.69
593.796	470.69
594.006	468.69
594.215	466.69
594.424	467.69
594.634	477.69
594.843	473.69
595.053	478.69
595.262	471.69
595.472	444.69
595.681	451.69
595.89	452.69
596.1	417.69
596.309	455.69
596.518	422.69
596.727	456.69
596.937	440.69
597.146	428.69
597.355	444.69
597.564	420.69
597.774	412.69
597.983	407.69
598.192	389.69
598.401	390.69
598.61	404.69
598.819	403.69
599.028	404.69
599.237	397.69
599.446	388.69
599.655	397.69
599.864	392.69
600.073	380.69
600.282	379.69
600.491	388.69
600.7	371.69
600.909	391.69
601.118	397.69
601.327	414.69
601.536	414.69
601.745	428.69
601.953	401.69
602.162	426.69
602.371	417.69
602.58	437.69
602.789	428.69
602.997	399.69
603.206	410.69
603.415	436.69
603.623	426.69
603.832	424.69
604.041	422.69
604.249	394.69
604.458	377.69
604.666	400.69
604.875	384.69
605.084	409.69
605.292	406.69
605.501	409.69
605.709	410.69
605.918	397.69
606.126	398.69
606.334	411.69
606.543	384.69
606.751	417.69
606.96	400.69
607.168	405.69
607.376	379.69
607.585	378.69
607.793	394.69
608.001	405.69
608.21	402.69
608.418	395.69
608.626	402.69
608.834	408.69
609.043	394.69
609.251	399.69
609.459	403.69
609.667	422.69
609.875	418.69
610.083	420.69
610.291	408.69
610.499	410.69
610.707	403.69
610.916	382.69
611.124	396.69
611.332	376.69
611.54	390.69
611.748	400.69
611.955	412.69
612.163	392.69
612.371	393.69
612.579	391.69
612.787	390.69
612.995	393.69
613.203	410.69
613.411	395.69
613.618	398.69
613.826	382.69
614.034	410.69
614.242	410.69
614.449	390.69
614.657	389.69
614.865	387.69
615.072	385.69
615.28	379.69
615.488	411.69
615.695	413.69
615.903	393.69
616.111	399.69
616.318	396.69
616.526	383.69
616.733	400.69
616.941	401.69
617.148	387.69
617.356	381.69
617.563	382.69
617.771	388.69
617.978	348.69
618.185	378.69
618.393	391.69
618.6	397.69
618.807	392.69
619.015	374.69
619.222	374.69
619.429	347.69
619.637	345.69
619.844	347.69
620.051	359.69
620.258	344.69
620.466	372.69
620.673	352.69
620.88	342.69
621.087	336.69
621.294	331.69
621.501	350.69
621.708	344.69
621.915	365.69
622.122	354.69
622.329	359.69
622.536	365.69
622.743	357.69
622.95	347.69
623.157	346.69
623.364	377.69
623.571	365.69
623.778	372.69
623.985	358.69
624.192	350.69
624.399	363.69
624.606	347.69
624.812	320.69
625.019	338.69
625.226	330.69
625.433	322.69
625.639	320.69
625.846	317.69
626.053	301.69
626.259	309.69
626.466	308.69
626.673	269.69
626.879	286.69
627.086	292.69
627.293	290.69
627.499	321.69
627.706	339.69
627.912	323.69
628.119	315.69
628.325	316.69
628.532	330.69
628.738	309.69
628.945	348.69
629.151	326.69
629.357	321.69
629.564	326.69
629.77	313.69
629.976	296.69
630.183	306.69
630.389	304.69
630.595	309.69
630.802	280.69
631.008	296.69
631.214	295.69
631.42	300.69
631.627	291.69
631.833	265.69
632.039	306.69
632.245	289.69
632.451	284.69
632.657	292.69
632.863	312.69
633.069	302.69
633.275	278.69
633.481	263.69
633.688	278.69
633.893	273.69
634.099	306.69
634.305	284.69
634.511	260.69
634.717	277.69
634.923	261.69
635.129	249.69
635.335	269.69
635.541	277.69
635.747	289.69
635.952	283.69
636.158	269.69
636.364	286.69
636.57	293.69
636.775	286.69
636.981	298.69
637.187	299.69
637.392	277.69
637.598	259.69
637.804	267.69
638.009	285.69
638.215	277.69
638.421	284.69
638.626	274.69
638.832	280.69
639.037	288.69
639.243	272.69
639.448	245.69
639.654	273.69
639.859	268.69
640.065	269.69
640.27	264.69
640.475	268.69
640.681	279.69
640.886	258.69
641.091	266.69
641.297	284.69
641.502	260.69
641.707	262.69
641.913	276.69
642.118	278.69
642.323	260.69
642.528	283.69
642.733	258.69
642.939	275.69
643.144	271.69
643.349	271.69
643.554	279.69
643.759	261.69
643.964	274.69
644.169	260.69
644.374	264.69
644.579	273.69
644.784	267.69
644.989	246.69
645.194	256.69
645.399	259.69
645.604	249.69
645.809	262.69
646.014	259.69
646.219	252.69
646.423	262.69
646.628	249.69
646.833	268.69
647.038	274.69
647.243	270.69
647.447	269.69
647.652	260.69
647.857	241.69
648.062	235.69
648.266	274.69
648.471	272.69
648.676	263.69
648.88	246.69
649.085	268.69
649.289	265.69
649.494	247.69
649.698	262.69
649.903	259.69
650.107	266.69
650.312	241.69
650.516	246.69
650.721	237.69
650.925	236.69
651.13	240.69
651.334	246.69
651.539	245.69
651.743	220.69
651.947	227.69
652.152	237.69
652.356	243.69
652.56	237.69
652.764	231.69
652.969	233.69
653.173	229.69
653.377	213.69
653.581	214.69
653.785	211.69
653.99	231.69
654.194	226.69
654.398	212.69
654.602	228.69
654.806	229.69
655.01	223.69
655.214	214.69
655.418	217.69
655.622	221.69
655.826	220.69
656.03	234.69
656.234	249.69
656.438	251.69
656.642	252.69
656.846	237.69
657.049	222.69
657.253	206.69
657.457	203.69
657.661	180.69
657.865	180.69
658.068	167.69
658.272	166.69
658.476	177.69
658.68	164.69
658.883	153.69
659.087	153.69
659.291	148.69
659.494	148.69
659.698	119.69
659.901	145.69
660.105	131.69
660.309	115.69
660.512	125.69
660.716	131.69
660.919	122.69
661.123	139.69
661.326	112.69
661.53	123.69
661.733	107.69
661.936	101.69
662.14	100.69
662.343	99.69
662.546	95.69
662.75	99.69
662.953	97.69
663.156	88.69
663.36	101.69
663.563	84.69
663.766	93.69
663.969	99.69
664.173	92.69
664.376	88.69
664.579	89.69
664.782	91.69
664.985	86.69
665.188	89.69
665.391	82.69
665.594	74.69
665.797	90.69
666	82.69
666.203	91.69
666.406	73.69
666.609	73.69
666.812	83.69
667.015	81.69
667.218	84.69
667.421	88.69
667.624	81.69
667.827	75.69
668.03	76.69
668.232	80.69
668.435	104.69
668.638	77.69
668.841	83.69
669.043	76.69
669.246	83.69
669.449	84.69
669.651	83.69
669.854	89.69
670.057	84.69
670.259	79.69
670.462	100.69
670.665	91.69
670.867	74.69
671.07	65.69
671.272	68.69
671.475	80.69
671.677	92.69
671.88	82.69
672.082	78.69
672.284	88.69
672.487	77.69
672.689	83.69
672.892	86.69
