Data from WStandard_LampEnergy8_LIBS07252019.E.O._I.C._HRD10591_16-00-30-929.txt Node
Date: Thu Jul 25 16:00:30 EDT 2019
User: cochatt
Spectrometer: HR+D1059
Trigger mode: 1
Integration Time (sec): 1.000000E-1
Scans to average: 1
Electric dark correction enabled: true
Nonlinearity correction enabled: false
Boxcar width: 0
XAxis mode: Wavelengths
Number of Pixels in Spectrum: 2048
>>>>>Begin Spectral Data<<<<<
223.165	-15.06
223.4	-15.06
223.635	-15.06
223.869	-13.06
224.104	-24.06
224.338	-17.06
224.573	-11.06
224.808	-23.06
225.042	-5.06
225.277	-8.06
225.511	-3.06
225.746	-4.06
225.98	13.94
226.215	17.94
226.449	15.94
226.683	18.94
226.918	35.94
227.152	20.94
227.387	27.94
227.621	31.94
227.856	34.94
228.09	28.94
228.324	43.94
228.559	47.94
228.793	106.94
229.027	213.94
229.262	207.94
229.496	190.94
229.73	219.94
229.964	228.94
230.199	235.94
230.433	225.94
230.667	263.94
230.901	282.94
231.136	245.94
231.37	226.94
231.604	238.94
231.838	247.94
232.072	263.94
232.306	248.94
232.541	269.94
232.775	294.94
233.009	328.94
233.243	298.94
233.477	294.94
233.711	295.94
233.945	295.94
234.179	283.94
234.413	283.94
234.647	333.94
234.881	297.94
235.115	285.94
235.349	287.94
235.583	301.94
235.817	277.94
236.051	279.94
236.285	298.94
236.519	304.94
236.753	325.94
236.987	357.94
237.221	347.94
237.455	360.94
237.689	358.94
237.922	334.94
238.156	328.94
238.39	360.94
238.624	363.94
238.858	390.94
239.091	385.94
239.325	425.94
239.559	460.94
239.793	474.94
240.027	504.94
240.26	476.94
240.494	360.94
240.728	336.94
240.961	365.94
241.195	370.94
241.429	396.94
241.662	389.94
241.896	383.94
242.13	387.94
242.363	422.94
242.597	460.94
242.83	427.94
243.064	458.94
243.298	446.94
243.531	448.94
243.765	461.94
243.998	437.94
244.232	407.94
244.465	379.94
244.699	411.94
244.932	454.94
245.166	490.94
245.399	474.94
245.633	474.94
245.866	449.94
246.099	452.94
246.333	447.94
246.566	466.94
246.8	517.94
247.033	581.94
247.266	498.94
247.5	507.94
247.733	505.94
247.966	537.94
248.2	614.94
248.433	566.94
248.666	590.94
248.899	638.94
249.133	693.94
249.366	779.94
249.599	646.94
249.832	588.94
250.066	628.94
250.299	618.94
250.532	583.94
250.765	524.94
250.998	551.94
251.231	568.94
251.465	587.94
251.698	563.94
251.931	567.94
252.164	581.94
252.397	595.94
252.63	588.94
252.863	542.94
253.096	538.94
253.329	558.94
253.562	564.94
253.795	564.94
254.028	602.94
254.261	547.94
254.494	528.94
254.727	526.94
254.96	567.94
255.193	606.94
255.426	656.94
255.659	757.94
255.892	770.94
256.124	646.94
256.357	640.94
256.59	671.94
256.823	676.94
257.056	683.94
257.289	816.94
257.521	876.94
257.754	799.94
257.987	746.94
258.22	810.94
258.452	780.94
258.685	671.94
258.918	659.94
259.151	647.94
259.383	631.94
259.616	571.94
259.849	597.94
260.081	652.94
260.314	725.94
260.547	786.94
260.779	804.94
261.012	746.94
261.244	678.94
261.477	654.94
261.71	677.94
261.942	668.94
262.175	680.94
262.407	649.94
262.64	636.94
262.872	610.94
263.105	596.94
263.337	609.94
263.57	628.94
263.802	609.94
264.035	586.94
264.267	565.94
264.499	544.94
264.732	582.94
264.964	615.94
265.197	660.94
265.429	702.94
265.661	747.94
265.894	834.94
266.126	842.94
266.358	772.94
266.591	788.94
266.823	861.94
267.055	784.94
267.287	756.94
267.52	752.94
267.752	739.94
267.984	729.94
268.216	772.94
268.448	796.94
268.681	771.94
268.913	719.94
269.145	687.94
269.377	685.94
269.609	753.94
269.841	881.94
270.073	967.94
270.306	1069.94
270.538	1058.94
270.77	943.94
271.002	782.94
271.234	768.94
271.466	790.94
271.698	882.94
271.93	1008.94
272.162	999.94
272.394	923.94
272.626	863.94
272.858	778.94
273.09	679.94
273.322	681.94
273.553	658.94
273.785	680.94
274.017	700.94
274.249	754.94
274.481	720.94
274.713	698.94
274.945	695.94
275.176	685.94
275.408	689.94
275.64	673.94
275.872	693.94
276.104	688.94
276.335	815.94
276.567	887.94
276.799	889.94
277.031	815.94
277.262	787.94
277.494	816.94
277.726	875.94
277.957	852.94
278.189	784.94
278.421	741.94
278.652	715.94
278.884	698.94
279.115	708.94
279.347	736.94
279.579	718.94
279.81	733.94
280.042	813.94
280.273	835.94
280.505	860.94
280.736	833.94
280.968	780.94
281.199	733.94
281.431	681.94
281.662	662.94
281.894	706.94
282.125	705.94
282.356	778.94
282.588	778.94
282.819	741.94
283.051	835.94
283.282	856.94
283.513	852.94
283.745	731.94
283.976	711.94
284.207	708.94
284.439	728.94
284.67	757.94
284.901	766.94
285.132	757.94
285.364	780.94
285.595	748.94
285.826	754.94
286.057	754.94
286.288	729.94
286.52	792.94
286.751	840.94
286.982	848.94
287.213	770.94
287.444	736.94
287.675	707.94
287.906	780.94
288.138	829.94
288.369	806.94
288.6	755.94
288.831	718.94
289.062	726.94
289.293	758.94
289.524	759.94
289.755	787.94
289.986	780.94
290.217	748.94
290.448	749.94
290.679	747.94
290.91	760.94
291.141	819.94
291.371	810.94
291.602	806.94
291.833	780.94
292.064	827.94
292.295	802.94
292.526	828.94
292.757	858.94
292.987	821.94
293.218	788.94
293.449	876.94
293.68	938.94
293.91	1015.94
294.141	924.94
294.372	876.94
294.603	894.94
294.833	960.94
295.064	900.94
295.295	837.94
295.525	778.94
295.756	760.94
295.987	728.94
296.217	725.94
296.448	748.94
296.679	726.94
296.909	752.94
297.14	755.94
297.37	772.94
297.601	818.94
297.831	872.94
298.062	845.94
298.292	826.94
298.523	768.94
298.753	783.94
298.984	784.94
299.214	783.94
299.445	797.94
299.675	823.94
299.905	816.94
300.136	768.94
300.366	754.94
300.597	744.94
300.827	787.94
301.057	788.94
301.288	862.94
301.518	831.94
301.748	826.94
301.979	887.94
302.209	898.94
302.439	954.94
302.669	962.94
302.9	910.94
303.13	836.94
303.36	851.94
303.59	862.94
303.82	851.94
304.051	838.94
304.281	856.94
304.511	900.94
304.741	931.94
304.971	1011.94
305.201	1045.94
305.431	942.94
305.661	785.94
305.891	729.94
306.121	736.94
306.352	786.94
306.582	825.94
306.812	882.94
307.042	926.94
307.272	931.94
307.502	986.94
307.731	1046.94
307.961	1040.94
308.191	967.94
308.421	880.94
308.651	835.94
308.881	821.94
309.111	832.94
309.341	804.94
309.571	824.94
309.8	812.94
310.03	802.94
310.26	796.94
310.49	775.94
310.72	834.94
310.949	871.94
311.179	876.94
311.409	871.94
311.639	821.94
311.868	847.94
312.098	856.94
312.328	851.94
312.557	831.94
312.787	844.94
313.017	851.94
313.246	864.94
313.476	846.94
313.706	847.94
313.935	860.94
314.165	894.94
314.394	895.94
314.624	969.94
314.853	1012.94
315.083	1023.94
315.312	1026.94
315.542	949.94
315.771	866.94
316.001	890.94
316.23	951.94
316.46	938.94
316.689	909.94
316.919	869.94
317.148	846.94
317.377	869.94
317.607	935.94
317.836	1063.94
318.065	1064.94
318.295	991.94
318.524	958.94
318.753	932.94
318.983	947.94
319.212	944.94
319.441	895.94
319.67	907.94
319.9	914.94
320.129	963.94
320.358	992.94
320.587	1007.94
320.816	1018.94
321.046	982.94
321.275	932.94
321.504	963.94
321.733	1043.94
321.962	987.94
322.191	927.94
322.42	928.94
322.649	930.94
322.878	902.94
323.108	903.94
323.337	952.94
323.566	952.94
323.795	953.94
324.024	951.94
324.253	925.94
324.482	922.94
324.71	876.94
324.939	862.94
325.168	905.94
325.397	918.94
325.626	936.94
325.855	927.94
326.084	908.94
326.313	918.94
326.542	921.94
326.77	972.94
326.999	957.94
327.228	908.94
327.457	881.94
327.686	871.94
327.914	906.94
328.143	912.94
328.372	909.94
328.6	889.94
328.829	887.94
329.058	898.94
329.287	896.94
329.515	926.94
329.744	958.94
329.972	992.94
330.201	1051.94
330.43	1016.94
330.658	970.94
330.887	979.94
331.115	979.94
331.344	980.94
331.572	949.94
331.801	959.94
332.03	970.94
332.258	988.94
332.486	983.94
332.715	980.94
332.943	972.94
333.172	979.94
333.4	985.94
333.629	1004.94
333.857	1078.94
334.085	1189.94
334.314	1377.94
334.542	1418.94
334.771	1262.94
334.999	1126.94
335.227	1078.94
335.455	1028.94
335.684	1026.94
335.912	1072.94
336.14	1077.94
336.369	1055.94
336.597	987.94
336.825	995.94
337.053	1037.94
337.281	1091.94
337.51	1128.94
337.738	1162.94
337.966	1082.94
338.194	976.94
338.422	959.94
338.65	968.94
338.878	957.94
339.106	906.94
339.334	918.94
339.562	939.94
339.79	934.94
340.018	993.94
340.246	1026.94
340.474	1020.94
340.702	978.94
340.93	1031.94
341.158	1026.94
341.386	990.94
341.614	978.94
341.842	934.94
342.07	994.94
342.298	980.94
342.526	959.94
342.754	959.94
342.981	951.94
343.209	955.94
343.437	957.94
343.665	956.94
343.893	1018.94
344.12	1025.94
344.348	1022.94
344.576	1001.94
344.804	983.94
345.031	927.94
345.259	1003.94
345.487	920.94
345.714	889.94
345.942	926.94
346.17	922.94
346.397	946.94
346.625	916.94
346.853	891.94
347.08	881.94
347.308	874.94
347.535	908.94
347.763	910.94
347.99	917.94
348.218	897.94
348.445	897.94
348.673	935.94
348.9	932.94
349.128	987.94
349.355	963.94
349.583	962.94
349.81	938.94
350.037	863.94
350.265	853.94
350.492	862.94
350.72	900.94
350.947	908.94
351.174	919.94
351.402	866.94
351.629	870.94
351.856	851.94
352.083	847.94
352.311	849.94
352.538	903.94
352.765	943.94
352.992	935.94
353.22	883.94
353.447	884.94
353.674	894.94
353.901	910.94
354.128	884.94
354.355	897.94
354.583	972.94
354.81	968.94
355.037	939.94
355.264	904.94
355.491	901.94
355.718	925.94
355.945	894.94
356.172	882.94
356.399	874.94
356.626	900.94
356.853	929.94
357.08	1006.94
357.307	1101.94
357.534	1030.94
357.761	946.94
357.988	881.94
358.215	839.94
358.441	882.94
358.668	853.94
358.895	896.94
359.122	958.94
359.349	1016.94
359.576	1019.94
359.802	940.94
360.029	877.94
360.256	850.94
360.483	878.94
360.709	905.94
360.936	961.94
361.163	1002.94
361.39	1066.94
361.616	1148.94
361.843	1107.94
362.07	1041.94
362.296	920.94
362.523	912.94
362.749	887.94
362.976	938.94
363.203	914.94
363.429	914.94
363.656	891.94
363.882	957.94
364.109	1028.94
364.335	1071.94
364.562	994.94
364.788	963.94
365.015	920.94
365.241	897.94
365.468	934.94
365.694	946.94
365.92	999.94
366.147	948.94
366.373	865.94
366.599	883.94
366.826	875.94
367.052	911.94
367.278	886.94
367.505	906.94
367.731	921.94
367.957	919.94
368.184	992.94
368.41	1020.94
368.636	1046.94
368.862	1036.94
369.089	1054.94
369.315	986.94
369.541	949.94
369.767	964.94
369.993	924.94
370.219	905.94
370.445	967.94
370.672	987.94
370.898	1071.94
371.124	1000.94
371.35	986.94
371.576	1023.94
371.802	1056.94
372.028	980.94
372.254	963.94
372.48	928.94
372.706	927.94
372.932	925.94
373.158	941.94
373.384	978.94
373.61	964.94
373.835	1043.94
374.061	987.94
374.287	1008.94
374.513	971.94
374.739	954.94
374.965	977.94
375.191	992.94
375.416	960.94
375.642	1031.94
375.868	1085.94
376.094	1109.94
376.319	1009.94
376.545	996.94
376.771	1027.94
376.997	1050.94
377.222	1043.94
377.448	1020.94
377.674	1020.94
377.899	1047.94
378.125	1102.94
378.35	1060.94
378.576	974.94
378.802	942.94
379.027	960.94
379.253	950.94
379.478	978.94
379.704	975.94
379.929	974.94
380.155	980.94
380.38	998.94
380.606	996.94
380.831	980.94
381.057	1050.94
381.282	1080.94
381.507	1053.94
381.733	1135.94
381.958	1142.94
382.184	1040.94
382.409	1006.94
382.634	1035.94
382.86	1030.94
383.085	1044.94
383.31	1043.94
383.535	1149.94
383.761	1198.94
383.986	1136.94
384.211	1122.94
384.436	1101.94
384.662	1138.94
384.887	1170.94
385.112	1130.94
385.337	1115.94
385.562	1131.94
385.787	1122.94
386.013	1148.94
386.238	1151.94
386.463	1159.94
386.688	1242.94
386.913	1290.94
387.138	1243.94
387.363	1161.94
387.588	1146.94
387.813	1143.94
388.038	1175.94
388.263	1196.94
388.488	1139.94
388.713	1083.94
388.938	1086.94
389.163	1102.94
389.387	1086.94
389.612	1090.94
389.837	1089.94
390.062	1131.94
390.287	1134.94
390.512	1108.94
390.736	1108.94
390.961	1064.94
391.186	1031.94
391.411	1067.94
391.636	1084.94
391.86	1114.94
392.085	1089.94
392.31	1088.94
392.534	1123.94
392.759	1121.94
392.984	1141.94
393.208	1127.94
393.433	1167.94
393.658	1201.94
393.882	1179.94
394.107	1142.94
394.331	1123.94
394.556	1132.94
394.78	1130.94
395.005	1178.94
395.229	1226.94
395.454	1303.94
395.678	1266.94
395.903	1226.94
396.127	1213.94
396.352	1191.94
396.576	1247.94
396.801	1250.94
397.025	1232.94
397.249	1203.94
397.474	1214.94
397.698	1197.94
397.922	1263.94
398.147	1309.94
398.371	1338.94
398.595	1313.94
398.82	1272.94
399.044	1307.94
399.268	1373.94
399.492	1447.94
399.717	1456.94
399.941	1478.94
400.165	1475.94
400.389	1402.94
400.613	1446.94
400.837	1643.94
401.062	1760.94
401.286	1530.94
401.51	1423.94
401.734	1444.94
401.958	1375.94
402.182	1295.94
402.406	1293.94
402.63	1280.94
402.854	1287.94
403.078	1301.94
403.302	1322.94
403.526	1333.94
403.75	1352.94
403.974	1329.94
404.198	1334.94
404.422	1432.94
404.645	1454.94
404.869	1402.94
405.093	1295.94
405.317	1311.94
405.541	1331.94
405.765	1363.94
405.988	1338.94
406.212	1341.94
406.436	1373.94
406.66	1426.94
406.883	1482.94
407.107	1642.94
407.331	1753.94
407.555	1879.94
407.778	1650.94
408.002	1470.94
408.226	1378.94
408.449	1388.94
408.673	1362.94
408.896	1393.94
409.12	1365.94
409.344	1365.94
409.567	1288.94
409.791	1345.94
410.014	1398.94
410.238	1450.94
410.461	1486.94
410.685	1368.94
410.908	1293.94
411.132	1368.94
411.355	1303.94
411.578	1302.94
411.802	1331.94
412.025	1338.94
412.249	1300.94
412.472	1299.94
412.695	1253.94
412.919	1315.94
413.142	1287.94
413.365	1311.94
413.589	1314.94
413.812	1412.94
414.035	1430.94
414.258	1303.94
414.482	1267.94
414.705	1313.94
414.928	1282.94
415.151	1274.94
415.374	1316.94
415.597	1303.94
415.821	1338.94
416.044	1377.94
416.267	1338.94
416.49	1248.94
416.713	1255.94
416.936	1315.94
417.159	1374.94
417.382	1331.94
417.605	1306.94
417.828	1317.94
418.051	1338.94
418.274	1308.94
418.497	1267.94
418.72	1256.94
418.943	1266.94
419.166	1314.94
419.389	1343.94
419.611	1290.94
419.834	1292.94
420.057	1302.94
420.28	1276.94
420.503	1276.94
420.726	1295.94
420.948	1300.94
421.171	1222.94
421.394	1284.94
421.617	1335.94
421.839	1300.94
422.062	1328.94
422.285	1283.94
422.507	1243.94
422.73	1214.94
422.953	1213.94
423.175	1244.94
423.398	1242.94
423.621	1253.94
423.843	1262.94
424.066	1307.94
424.288	1386.94
424.511	1409.94
424.733	1336.94
424.956	1245.94
425.178	1210.94
425.401	1210.94
425.623	1231.94
425.846	1255.94
426.068	1314.94
426.291	1306.94
426.513	1307.94
426.735	1310.94
426.958	1403.94
427.18	1422.94
427.402	1359.94
427.625	1422.94
427.847	1355.94
428.069	1272.94
428.292	1240.94
428.514	1198.94
428.736	1256.94
428.958	1240.94
429.181	1272.94
429.403	1454.94
429.625	1742.94
429.847	1455.94
430.069	1319.94
430.292	1434.94
430.514	1428.94
430.736	1322.94
430.958	1370.94
431.18	1296.94
431.402	1239.94
431.624	1205.94
431.846	1169.94
432.068	1117.94
432.29	1131.94
432.512	1164.94
432.734	1227.94
432.956	1272.94
433.178	1322.94
433.4	1327.94
433.622	1306.94
433.844	1267.94
434.066	1220.94
434.287	1177.94
434.509	1208.94
434.731	1273.94
434.953	1352.94
435.175	1301.94
435.397	1240.94
435.618	1250.94
435.84	1229.94
436.062	1235.94
436.284	1244.94
436.505	1283.94
436.727	1309.94
436.949	1249.94
437.17	1212.94
437.392	1204.94
437.614	1215.94
437.835	1194.94
438.057	1178.94
438.278	1243.94
438.5	1185.94
438.721	1212.94
438.943	1212.94
439.165	1215.94
439.386	1221.94
439.608	1247.94
439.829	1272.94
440.05	1243.94
440.272	1203.94
440.493	1235.94
440.715	1249.94
440.936	1350.94
441.158	1396.94
441.379	1383.94
441.6	1380.94
441.822	1353.94
442.043	1289.94
442.264	1276.94
442.486	1249.94
442.707	1247.94
442.928	1235.94
443.149	1249.94
443.371	1363.94
443.592	1351.94
443.813	1330.94
444.034	1345.94
444.255	1341.94
444.476	1378.94
444.698	1430.94
444.919	1386.94
445.14	1452.94
445.361	1432.94
445.582	1437.94
445.803	1372.94
446.024	1364.94
446.245	1381.94
446.466	1362.94
446.687	1333.94
446.908	1372.94
447.129	1276.94
447.35	1283.94
447.571	1249.94
447.792	1252.94
448.013	1243.94
448.234	1211.94
448.455	1270.94
448.675	1313.94
448.896	1194.94
449.117	1176.94
449.338	1208.94
449.559	1254.94
449.779	1306.94
450	1389.94
450.221	1446.94
450.442	1397.94
450.662	1275.94
450.883	1154.94
451.104	1161.94
451.324	1188.94
451.545	1207.94
451.766	1183.94
451.986	1107.94
452.207	1110.94
452.428	1072.94
452.648	1089.94
452.869	1094.94
453.089	1113.94
453.31	1152.94
453.53	1118.94
453.751	1084.94
453.971	1046.94
454.192	1086.94
454.412	1146.94
454.633	1115.94
454.853	1109.94
455.073	1021.94
455.294	1043.94
455.514	1052.94
455.734	1042.94
455.955	1036.94
456.175	1068.94
456.395	1044.94
456.616	1099.94
456.836	1097.94
457.056	1076.94
457.276	1029.94
457.497	1047.94
457.717	1008.94
457.937	1031.94
458.157	1053.94
458.377	1019.94
458.598	1012.94
458.818	1059.94
459.038	1096.94
459.258	1156.94
459.478	1119.94
459.698	1092.94
459.918	1154.94
460.138	1216.94
460.358	1201.94
460.578	1232.94
460.798	1303.94
461.018	1320.94
461.238	1267.94
461.458	1262.94
461.678	1230.94
461.898	1166.94
462.118	1212.94
462.338	1258.94
462.558	1233.94
462.777	1278.94
462.997	1276.94
463.217	1343.94
463.437	1308.94
463.657	1245.94
463.876	1248.94
464.096	1214.94
464.316	1212.94
464.536	1271.94
464.755	1288.94
464.975	1323.94
465.195	1261.94
465.414	1322.94
465.634	1280.94
465.854	1263.94
466.073	1357.94
466.293	1343.94
466.512	1204.94
466.732	1180.94
466.951	1226.94
467.171	1240.94
467.391	1184.94
467.61	1160.94
467.829	1202.94
468.049	1318.94
468.268	1456.94
468.488	1326.94
468.707	1256.94
468.927	1202.94
469.146	1196.94
469.365	1217.94
469.585	1255.94
469.804	1219.94
470.023	1225.94
470.243	1245.94
470.462	1224.94
470.681	1210.94
470.901	1246.94
471.12	1237.94
471.339	1232.94
471.558	1207.94
471.777	1173.94
471.997	1179.94
472.216	1196.94
472.435	1095.94
472.654	1153.94
472.873	1152.94
473.092	1219.94
473.311	1189.94
473.53	1146.94
473.749	1150.94
473.968	1151.94
474.187	1182.94
474.406	1225.94
474.625	1182.94
474.844	1174.94
475.063	1181.94
475.282	1182.94
475.501	1156.94
475.72	1187.94
475.939	1240.94
476.158	1195.94
476.377	1211.94
476.596	1175.94
476.814	1194.94
477.033	1189.94
477.252	1221.94
477.471	1275.94
477.69	1272.94
477.908	1259.94
478.127	1332.94
478.346	1407.94
478.564	1374.94
478.783	1349.94
479.002	1407.94
479.22	1413.94
479.439	1429.94
479.658	1584.94
479.876	1532.94
480.095	1366.94
480.313	1348.94
480.532	1323.94
480.751	1291.94
480.969	1298.94
481.188	1241.94
481.406	1206.94
481.624	1207.94
481.843	1268.94
482.061	1279.94
482.28	1336.94
482.498	1306.94
482.717	1294.94
482.935	1278.94
483.153	1364.94
483.372	1375.94
483.59	1364.94
483.808	1325.94
484.027	1342.94
484.245	1406.94
484.463	1726.94
484.681	1844.94
484.9	1468.94
485.118	1358.94
485.336	1344.94
485.554	1394.94
485.772	1391.94
485.99	1322.94
486.209	1346.94
486.427	1336.94
486.645	1375.94
486.863	1394.94
487.081	1442.94
487.299	1458.94
487.517	1422.94
487.735	1454.94
487.953	1486.94
488.171	1470.94
488.389	1430.94
488.607	1436.94
488.825	1617.94
489.043	1503.94
489.261	1381.94
489.479	1448.94
489.696	1491.94
489.914	1436.94
490.132	1468.94
490.35	1455.94
490.568	1490.94
490.786	1455.94
491.003	1489.94
491.221	1517.94
491.439	1519.94
491.657	1561.94
491.874	1563.94
492.092	1648.94
492.31	1666.94
492.527	1668.94
492.745	1601.94
492.963	1568.94
493.18	1631.94
493.398	1683.94
493.615	1648.94
493.833	1558.94
494.05	1555.94
494.268	1552.94
494.485	1544.94
494.703	1548.94
494.92	1506.94
495.138	1534.94
495.355	1550.94
495.573	1606.94
495.79	1658.94
496.008	1663.94
496.225	1552.94
496.442	1579.94
496.66	1646.94
496.877	1590.94
497.094	1614.94
497.312	1622.94
497.529	1646.94
497.746	1635.94
497.963	1844.94
498.181	1934.94
498.398	1853.94
498.615	1789.94
498.832	1740.94
499.049	1764.94
499.267	1728.94
499.484	1830.94
499.701	2036.94
499.918	2025.94
500.135	2217.94
500.352	2360.94
500.569	2327.94
500.786	2518.94
501.003	2282.94
501.22	2105.94
501.437	2089.94
501.654	2035.94
501.871	1949.94
502.088	1771.94
502.305	1772.94
502.522	1672.94
502.739	1601.94
502.956	1588.94
503.172	1545.94
503.389	1470.94
503.606	1488.94
503.823	1487.94
504.04	1473.94
504.256	1471.94
504.473	1468.94
504.69	1479.94
504.907	1452.94
505.123	1417.94
505.34	1496.94
505.557	1989.94
505.773	1608.94
505.99	1351.94
506.207	1261.94
506.423	1308.94
506.64	1308.94
506.856	1298.94
507.073	1513.94
507.289	1568.94
507.506	1456.94
507.722	1288.94
507.939	1208.94
508.155	1242.94
508.372	1253.94
508.588	1187.94
508.805	1160.94
509.021	1120.94
509.238	1152.94
509.454	1140.94
509.67	1136.94
509.887	1116.94
510.103	1109.94
510.319	1141.94
510.536	1188.94
510.752	1207.94
510.968	1186.94
511.184	1275.94
511.401	1205.94
511.617	1125.94
511.833	1119.94
512.049	1094.94
512.265	1105.94
512.481	1074.94
512.698	1133.94
512.914	1181.94
513.13	1170.94
513.346	1092.94
513.562	1101.94
513.778	1106.94
513.994	1123.94
514.21	1169.94
514.426	1173.94
514.642	1287.94
514.858	1217.94
515.074	1142.94
515.29	1104.94
515.506	1131.94
515.721	1137.94
515.937	1180.94
516.153	1298.94
516.369	1239.94
516.585	1186.94
516.801	1144.94
517.016	1147.94
517.232	1177.94
517.448	1177.94
517.664	1207.94
517.879	1218.94
518.095	1296.94
518.311	1216.94
518.527	1135.94
518.742	1141.94
518.958	1117.94
519.173	1149.94
519.389	1136.94
519.605	1158.94
519.82	1202.94
520.036	1188.94
520.251	1116.94
520.467	1111.94
520.682	1246.94
520.898	1260.94
521.113	1081.94
521.329	1131.94
521.544	1173.94
521.76	1149.94
521.975	1091.94
522.19	1049.94
522.406	1106.94
522.621	1388.94
522.836	1306.94
523.052	1091.94
523.267	1080.94
523.482	1088.94
523.698	1082.94
523.913	1048.94
524.128	1109.94
524.343	1119.94
524.559	1139.94
524.774	1086.94
524.989	1070.94
525.204	1028.94
525.419	1031.94
525.634	1047.94
525.849	1029.94
526.064	1049.94
526.28	1051.94
526.495	1004.94
526.71	994.94
526.925	988.94
527.14	968.94
527.355	964.94
527.57	947.94
527.785	994.94
527.999	982.94
528.214	989.94
528.429	971.94
528.644	1003.94
528.859	1051.94
529.074	1055.94
529.289	1083.94
529.503	1103.94
529.718	1061.94
529.933	1040.94
530.148	998.94
530.363	979.94
530.577	971.94
530.792	954.94
531.007	972.94
531.221	955.94
531.436	987.94
531.651	993.94
531.865	1059.94
532.08	991.94
532.295	953.94
532.509	908.94
532.724	951.94
532.938	983.94
533.153	1075.94
533.367	1017.94
533.582	999.94
533.796	987.94
534.011	998.94
534.225	986.94
534.44	950.94
534.654	960.94
534.868	986.94
535.083	1010.94
535.297	1034.94
535.511	1018.94
535.726	975.94
535.94	967.94
536.154	945.94
536.369	932.94
536.583	950.94
536.797	918.94
537.011	958.94
537.225	898.94
537.44	896.94
537.654	954.94
537.868	912.94
538.082	880.94
538.296	890.94
538.51	895.94
538.724	928.94
538.938	936.94
539.153	980.94
539.367	976.94
539.581	980.94
539.795	961.94
540.009	943.94
540.222	963.94
540.436	955.94
540.65	1042.94
540.864	1078.94
541.078	1079.94
541.292	1015.94
541.506	1070.94
541.72	1102.94
541.934	1120.94
542.147	1158.94
542.361	1122.94
542.575	1030.94
542.789	1000.94
543.002	948.94
543.216	994.94
543.43	1025.94
543.644	1058.94
543.857	1075.94
544.071	1084.94
544.285	1102.94
544.498	1071.94
544.712	1076.94
544.925	1093.94
545.139	1092.94
545.352	1086.94
545.566	1070.94
545.779	1039.94
545.993	1073.94
546.206	1061.94
546.42	1041.94
546.633	1046.94
546.847	1008.94
547.06	1045.94
547.274	1062.94
547.487	1061.94
547.7	1076.94
547.914	1077.94
548.127	1074.94
548.34	1091.94
548.554	1050.94
548.767	1033.94
548.98	1046.94
549.193	1058.94
549.407	1124.94
549.62	1088.94
549.833	1050.94
550.046	1026.94
550.259	1071.94
550.473	1048.94
550.686	1053.94
550.899	999.94
551.112	1004.94
551.325	949.94
551.538	1018.94
551.751	1134.94
551.964	912.94
552.177	914.94
552.39	927.94
552.603	988.94
552.816	1010.94
553.029	1058.94
553.242	1066.94
553.455	1029.94
553.667	1003.94
553.88	1026.94
554.093	1006.94
554.306	972.94
554.519	942.94
554.732	938.94
554.944	964.94
555.157	979.94
555.37	916.94
555.583	948.94
555.795	918.94
556.008	908.94
556.221	876.94
556.433	854.94
556.646	850.94
556.859	842.94
557.071	863.94
557.284	861.94
557.496	862.94
557.709	851.94
557.921	835.94
558.134	856.94
558.346	862.94
558.559	828.94
558.771	830.94
558.984	795.94
559.196	802.94
559.409	782.94
559.621	830.94
559.833	792.94
560.046	830.94
560.258	816.94
560.47	811.94
560.683	802.94
560.895	802.94
561.107	817.94
561.32	814.94
561.532	818.94
561.744	791.94
561.956	829.94
562.168	784.94
562.381	773.94
562.593	776.94
562.805	797.94
563.017	752.94
563.229	789.94
563.441	806.94
563.653	801.94
563.865	775.94
564.077	786.94
564.289	749.94
564.501	797.94
564.713	802.94
564.925	803.94
565.137	893.94
565.349	802.94
565.561	793.94
565.773	814.94
565.985	813.94
566.197	850.94
566.408	880.94
566.62	870.94
566.832	888.94
567.044	892.94
567.255	898.94
567.467	882.94
567.679	907.94
567.891	925.94
568.102	881.94
568.314	834.94
568.526	789.94
568.737	772.94
568.949	728.94
569.161	707.94
569.372	678.94
569.584	670.94
569.795	683.94
570.007	678.94
570.218	664.94
570.43	627.94
570.641	680.94
570.853	664.94
571.064	672.94
571.276	659.94
571.487	631.94
571.698	645.94
571.91	657.94
572.121	624.94
572.333	607.94
572.544	570.94
572.755	585.94
572.966	561.94
573.178	580.94
573.389	578.94
573.6	581.94
573.811	627.94
574.023	584.94
574.234	576.94
574.445	544.94
574.656	551.94
574.867	556.94
575.078	550.94
575.289	540.94
575.501	534.94
575.712	521.94
575.923	538.94
576.134	533.94
576.345	539.94
576.556	566.94
576.767	531.94
576.978	536.94
577.188	530.94
577.399	511.94
577.61	529.94
577.821	525.94
578.032	518.94
578.243	503.94
578.454	515.94
578.665	500.94
578.875	487.94
579.086	480.94
579.297	505.94
579.508	496.94
579.718	490.94
579.929	481.94
580.14	494.94
580.35	476.94
580.561	507.94
580.772	545.94
580.982	545.94
581.193	482.94
581.403	474.94
581.614	488.94
581.825	471.94
582.035	468.94
582.246	465.94
582.456	473.94
582.667	460.94
582.877	473.94
583.087	452.94
583.298	451.94
583.508	460.94
583.719	454.94
583.929	474.94
584.139	436.94
584.35	451.94
584.56	439.94
584.77	459.94
584.981	476.94
585.191	460.94
585.401	451.94
585.611	453.94
585.821	445.94
586.032	453.94
586.242	435.94
586.452	448.94
586.662	478.94
586.872	445.94
587.082	430.94
587.292	448.94
587.502	435.94
587.713	438.94
587.923	435.94
588.133	456.94
588.343	452.94
588.553	434.94
588.762	416.94
588.972	448.94
589.182	453.94
589.392	426.94
589.602	438.94
589.812	441.94
590.022	434.94
590.232	431.94
590.441	436.94
590.651	448.94
590.861	435.94
591.071	397.94
591.281	432.94
591.49	436.94
591.7	428.94
591.91	424.94
592.119	441.94
592.329	445.94
592.539	455.94
592.748	445.94
592.958	447.94
593.167	456.94
593.377	444.94
593.587	458.94
593.796	466.94
594.006	445.94
594.215	443.94
594.424	467.94
594.634	460.94
594.843	484.94
595.053	480.94
595.262	458.94
595.472	432.94
595.681	440.94
595.89	410.94
596.1	432.94
596.309	427.94
596.518	435.94
596.727	415.94
596.937	433.94
597.146	420.94
597.355	412.94
597.564	375.94
597.774	386.94
597.983	384.94
598.192	389.94
598.401	386.94
598.61	377.94
598.819	389.94
599.028	419.94
599.237	382.94
599.446	386.94
599.655	373.94
599.864	369.94
600.073	383.94
600.282	387.94
600.491	392.94
600.7	379.94
600.909	384.94
601.118	386.94
601.327	389.94
601.536	412.94
601.745	398.94
601.953	416.94
602.162	403.94
602.371	411.94
602.58	407.94
602.789	400.94
602.997	415.94
603.206	395.94
603.415	385.94
603.623	393.94
603.832	413.94
604.041	379.94
604.249	376.94
604.458	379.94
604.666	389.94
604.875	374.94
605.084	366.94
605.292	398.94
605.501	385.94
605.709	396.94
605.918	398.94
606.126	392.94
606.334	406.94
606.543	406.94
606.751	420.94
606.96	392.94
607.168	393.94
607.376	397.94
607.585	386.94
607.793	388.94
608.001	393.94
608.21	398.94
608.418	389.94
608.626	363.94
608.834	376.94
609.043	381.94
609.251	394.94
609.459	402.94
609.667	384.94
609.875	395.94
610.083	410.94
610.291	384.94
610.499	401.94
610.707	399.94
610.916	364.94
611.124	394.94
611.332	403.94
611.54	391.94
611.748	400.94
611.955	386.94
612.163	382.94
612.371	382.94
612.579	382.94
612.787	367.94
612.995	374.94
613.203	368.94
613.411	388.94
613.618	396.94
613.826	374.94
614.034	398.94
614.242	379.94
614.449	382.94
614.657	369.94
614.865	362.94
615.072	382.94
615.28	374.94
615.488	384.94
615.695	415.94
615.903	383.94
616.111	377.94
616.318	390.94
616.526	380.94
616.733	364.94
616.941	379.94
617.148	381.94
617.356	350.94
617.563	370.94
617.771	362.94
617.978	345.94
618.185	372.94
618.393	354.94
618.6	373.94
618.807	355.94
619.015	376.94
619.222	344.94
619.429	359.94
619.637	341.94
619.844	330.94
620.051	343.94
620.258	347.94
620.466	344.94
620.673	363.94
620.88	346.94
621.087	362.94
621.294	327.94
621.501	338.94
621.708	324.94
621.915	346.94
622.122	355.94
622.329	351.94
622.536	344.94
622.743	350.94
622.95	350.94
623.157	315.94
623.364	341.94
623.571	339.94
623.778	330.94
623.985	351.94
624.192	333.94
624.399	353.94
624.606	335.94
624.812	327.94
625.019	326.94
625.226	328.94
625.433	312.94
625.639	302.94
625.846	302.94
626.053	282.94
626.259	289.94
626.466	298.94
626.673	295.94
626.879	280.94
627.086	282.94
627.293	303.94
627.499	313.94
627.706	328.94
627.912	311.94
628.119	310.94
628.325	327.94
628.532	301.94
628.738	311.94
628.945	292.94
629.151	294.94
629.357	291.94
629.564	310.94
629.77	306.94
629.976	292.94
630.183	282.94
630.389	290.94
630.595	292.94
630.802	291.94
631.008	284.94
631.214	292.94
631.42	275.94
631.627	292.94
631.833	269.94
632.039	282.94
632.245	280.94
632.451	287.94
632.657	291.94
632.863	289.94
633.069	295.94
633.275	290.94
633.481	279.94
633.688	274.94
633.893	272.94
634.099	267.94
634.305	279.94
634.511	274.94
634.717	257.94
634.923	262.94
635.129	256.94
635.335	244.94
635.541	255.94
635.747	270.94
635.952	261.94
636.158	299.94
636.364	282.94
636.57	283.94
636.775	276.94
636.981	264.94
637.187	280.94
637.392	274.94
637.598	266.94
637.804	272.94
638.009	263.94
638.215	258.94
638.421	264.94
638.626	275.94
638.832	264.94
639.037	270.94
639.243	260.94
639.448	252.94
639.654	268.94
639.859	259.94
640.065	252.94
640.27	274.94
640.475	263.94
640.681	265.94
640.886	256.94
641.091	267.94
641.297	254.94
641.502	260.94
641.707	262.94
641.913	261.94
642.118	261.94
642.323	259.94
642.528	254.94
642.733	241.94
642.939	248.94
643.144	262.94
643.349	252.94
643.554	236.94
643.759	255.94
643.964	234.94
644.169	245.94
644.374	247.94
644.579	262.94
644.784	244.94
644.989	244.94
645.194	263.94
645.399	242.94
645.604	254.94
645.809	258.94
646.014	264.94
646.219	254.94
646.423	238.94
646.628	258.94
646.833	250.94
647.038	241.94
647.243	237.94
647.447	247.94
647.652	267.94
647.857	243.94
648.062	250.94
648.266	254.94
648.471	235.94
648.676	246.94
648.88	236.94
649.085	251.94
649.289	234.94
649.494	257.94
649.698	250.94
649.903	241.94
650.107	229.94
650.312	251.94
650.516	240.94
650.721	231.94
650.925	225.94
651.13	239.94
651.334	238.94
651.539	225.94
651.743	234.94
651.947	231.94
652.152	234.94
652.356	218.94
652.56	238.94
652.764	243.94
652.969	228.94
653.173	214.94
653.377	212.94
653.581	210.94
653.785	206.94
653.99	216.94
654.194	216.94
654.398	202.94
654.602	191.94
654.806	223.94
655.01	214.94
655.214	200.94
655.418	221.94
655.622	215.94
655.826	221.94
656.03	226.94
656.234	247.94
656.438	236.94
656.642	259.94
656.846	241.94
657.049	224.94
657.253	209.94
657.457	204.94
657.661	197.94
657.865	161.94
658.068	171.94
658.272	158.94
658.476	158.94
658.68	152.94
658.883	148.94
659.087	141.94
659.291	140.94
659.494	125.94
659.698	137.94
659.901	131.94
660.105	130.94
660.309	127.94
660.512	124.94
660.716	123.94
660.919	108.94
661.123	123.94
661.326	113.94
661.53	101.94
661.733	99.94
661.936	111.94
662.14	94.94
662.343	94.94
662.546	88.94
662.75	90.94
662.953	86.94
663.156	84.94
663.36	62.94
663.563	93.94
663.766	77.94
663.969	86.94
664.173	70.94
664.376	82.94
664.579	75.94
664.782	90.94
664.985	81.94
665.188	67.94
665.391	87.94
665.594	74.94
665.797	71.94
666	76.94
666.203	70.94
666.406	79.94
666.609	66.94
666.812	70.94
667.015	67.94
667.218	75.94
667.421	76.94
667.624	83.94
667.827	82.94
668.03	95.94
668.232	83.94
668.435	77.94
668.638	79.94
668.841	81.94
669.043	70.94
669.246	78.94
669.449	86.94
669.651	88.94
669.854	71.94
670.057	69.94
670.259	65.94
670.462	83.94
670.665	83.94
670.867	87.94
671.07	75.94
671.272	73.94
671.475	78.94
671.677	80.94
671.88	72.94
672.082	76.94
672.284	75.94
672.487	86.94
672.689	67.94
672.892	79.94
