Data from WStandard_LampEnergy10_LIBS07252019.E.O._I.C._HRD10591_15-53-40-928.txt Node
Date: Thu Jul 25 15:53:40 EDT 2019
User: cochatt
Spectrometer: HR+D1059
Trigger mode: 1
Integration Time (sec): 1.000000E-1
Scans to average: 1
Electric dark correction enabled: true
Nonlinearity correction enabled: false
Boxcar width: 0
XAxis mode: Wavelengths
Number of Pixels in Spectrum: 2048
>>>>>Begin Spectral Data<<<<<
223.165	-15.62
223.4	-15.62
223.635	-15.62
223.869	-27.62
224.104	-14.62
224.338	-6.62
224.573	-7.62
224.808	-13.62
225.042	-18.62
225.277	-3.62
225.511	-0.62
225.746	-8.62
225.98	10.38
226.215	17.38
226.449	5.38
226.683	14.38
226.918	39.38
227.152	30.38
227.387	31.38
227.621	34.38
227.856	49.38
228.09	53.38
228.324	58.38
228.559	64.38
228.793	77.38
229.027	140.38
229.262	123.38
229.496	136.38
229.73	155.38
229.964	155.38
230.199	170.38
230.433	181.38
230.667	189.38
230.901	191.38
231.136	167.38
231.37	182.38
231.604	172.38
231.838	175.38
232.072	151.38
232.306	169.38
232.541	190.38
232.775	219.38
233.009	214.38
233.243	208.38
233.477	205.38
233.711	201.38
233.945	193.38
234.179	206.38
234.413	188.38
234.647	228.38
234.881	209.38
235.115	190.38
235.349	198.38
235.583	216.38
235.817	195.38
236.051	193.38
236.285	192.38
236.519	205.38
236.753	217.38
236.987	229.38
237.221	223.38
237.455	249.38
237.689	238.38
237.922	212.38
238.156	231.38
238.39	216.38
238.624	219.38
238.858	253.38
239.091	241.38
239.325	269.38
239.559	294.38
239.793	306.38
240.027	317.38
240.26	305.38
240.494	242.38
240.728	238.38
240.961	237.38
241.195	250.38
241.429	263.38
241.662	258.38
241.896	250.38
242.13	245.38
242.363	276.38
242.597	285.38
242.83	270.38
243.064	286.38
243.298	300.38
243.531	278.38
243.765	279.38
243.998	280.38
244.232	243.38
244.465	252.38
244.699	257.38
244.932	297.38
245.166	331.38
245.399	301.38
245.633	284.38
245.866	286.38
246.099	286.38
246.333	283.38
246.566	312.38
246.8	309.38
247.033	360.38
247.266	314.38
247.5	322.38
247.733	311.38
247.966	350.38
248.2	347.38
248.433	356.38
248.666	377.38
248.899	385.38
249.133	439.38
249.366	455.38
249.599	419.38
249.832	366.38
250.066	358.38
250.299	383.38
250.532	364.38
250.765	336.38
250.998	356.38
251.231	353.38
251.465	364.38
251.698	325.38
251.931	345.38
252.164	338.38
252.397	387.38
252.63	361.38
252.863	342.38
253.096	324.38
253.329	342.38
253.562	357.38
253.795	377.38
254.028	349.38
254.261	343.38
254.494	327.38
254.727	332.38
254.96	352.38
255.193	382.38
255.426	403.38
255.659	444.38
255.892	455.38
256.124	390.38
256.357	405.38
256.59	408.38
256.823	407.38
257.056	414.38
257.289	486.38
257.521	518.38
257.754	489.38
257.987	452.38
258.22	482.38
258.452	463.38
258.685	411.38
258.918	405.38
259.151	388.38
259.383	379.38
259.616	357.38
259.849	373.38
260.081	421.38
260.314	452.38
260.547	459.38
260.779	477.38
261.012	426.38
261.244	399.38
261.477	392.38
261.71	405.38
261.942	414.38
262.175	380.38
262.407	420.38
262.64	378.38
262.872	396.38
263.105	369.38
263.337	369.38
263.57	373.38
263.802	374.38
264.035	356.38
264.267	356.38
264.499	334.38
264.732	375.38
264.964	389.38
265.197	408.38
265.429	449.38
265.661	446.38
265.894	493.38
266.126	490.38
266.358	455.38
266.591	462.38
266.823	513.38
267.055	465.38
267.287	465.38
267.52	453.38
267.752	436.38
267.984	464.38
268.216	478.38
268.448	457.38
268.681	468.38
268.913	409.38
269.145	410.38
269.377	417.38
269.609	465.38
269.841	519.38
270.073	575.38
270.306	630.38
270.538	642.38
270.77	553.38
271.002	497.38
271.234	486.38
271.466	481.38
271.698	552.38
271.93	598.38
272.162	593.38
272.394	551.38
272.626	495.38
272.858	481.38
273.09	427.38
273.322	416.38
273.553	409.38
273.785	414.38
274.017	413.38
274.249	446.38
274.481	454.38
274.713	420.38
274.945	403.38
275.176	413.38
275.408	424.38
275.64	409.38
275.872	416.38
276.104	440.38
276.335	473.38
276.567	519.38
276.799	527.38
277.031	487.38
277.262	488.38
277.494	518.38
277.726	531.38
277.957	501.38
278.189	487.38
278.421	423.38
278.652	420.38
278.884	439.38
279.115	412.38
279.347	435.38
279.579	443.38
279.81	443.38
280.042	488.38
280.273	506.38
280.505	526.38
280.736	511.38
280.968	482.38
281.199	436.38
281.431	435.38
281.662	436.38
281.894	438.38
282.125	426.38
282.356	475.38
282.588	454.38
282.819	459.38
283.051	488.38
283.282	522.38
283.513	470.38
283.745	449.38
283.976	422.38
284.207	429.38
284.439	447.38
284.67	438.38
284.901	462.38
285.132	458.38
285.364	463.38
285.595	458.38
285.826	475.38
286.057	462.38
286.288	457.38
286.52	481.38
286.751	489.38
286.982	476.38
287.213	468.38
287.444	443.38
287.675	453.38
287.906	474.38
288.138	491.38
288.369	481.38
288.6	456.38
288.831	434.38
289.062	463.38
289.293	468.38
289.524	459.38
289.755	474.38
289.986	465.38
290.217	441.38
290.448	430.38
290.679	471.38
290.91	458.38
291.141	484.38
291.371	479.38
291.602	490.38
291.833	484.38
292.064	501.38
292.295	501.38
292.526	519.38
292.757	523.38
292.987	498.38
293.218	487.38
293.449	513.38
293.68	563.38
293.91	590.38
294.141	554.38
294.372	562.38
294.603	562.38
294.833	562.38
295.064	543.38
295.295	498.38
295.525	474.38
295.756	462.38
295.987	458.38
296.217	449.38
296.448	453.38
296.679	466.38
296.909	467.38
297.14	459.38
297.37	494.38
297.601	512.38
297.831	544.38
298.062	518.38
298.292	482.38
298.523	465.38
298.753	457.38
298.984	467.38
299.214	505.38
299.445	486.38
299.675	505.38
299.905	499.38
300.136	480.38
300.366	463.38
300.597	457.38
300.827	473.38
301.057	476.38
301.288	508.38
301.518	512.38
301.748	537.38
301.979	548.38
302.209	589.38
302.439	584.38
302.669	585.38
302.9	556.38
303.13	531.38
303.36	489.38
303.59	513.38
303.82	512.38
304.051	497.38
304.281	526.38
304.511	531.38
304.741	584.38
304.971	614.38
305.201	629.38
305.431	545.38
305.661	485.38
305.891	447.38
306.121	452.38
306.352	499.38
306.582	530.38
306.812	541.38
307.042	580.38
307.272	583.38
307.502	590.38
307.731	641.38
307.961	632.38
308.191	589.38
308.421	523.38
308.651	500.38
308.881	499.38
309.111	495.38
309.341	497.38
309.571	493.38
309.8	489.38
310.03	501.38
310.26	502.38
310.49	486.38
310.72	508.38
310.949	549.38
311.179	521.38
311.409	521.38
311.639	517.38
311.868	528.38
312.098	537.38
312.328	494.38
312.557	498.38
312.787	511.38
313.017	528.38
313.246	531.38
313.476	533.38
313.706	524.38
313.935	549.38
314.165	529.38
314.394	550.38
314.624	583.38
314.853	631.38
315.083	636.38
315.312	659.38
315.542	591.38
315.771	531.38
316.001	554.38
316.23	585.38
316.46	563.38
316.689	572.38
316.919	527.38
317.148	517.38
317.377	548.38
317.607	609.38
317.836	656.38
318.065	659.38
318.295	622.38
318.524	587.38
318.753	554.38
318.983	561.38
319.212	557.38
319.441	570.38
319.67	562.38
319.9	548.38
320.129	583.38
320.358	609.38
320.587	626.38
320.816	625.38
321.046	578.38
321.275	579.38
321.504	607.38
321.733	632.38
321.962	587.38
322.191	576.38
322.42	564.38
322.649	568.38
322.878	556.38
323.108	574.38
323.337	580.38
323.566	572.38
323.795	581.38
324.024	575.38
324.253	535.38
324.482	558.38
324.71	542.38
324.939	524.38
325.168	563.38
325.397	573.38
325.626	575.38
325.855	586.38
326.084	581.38
326.313	562.38
326.542	586.38
326.77	594.38
326.999	561.38
327.228	553.38
327.457	539.38
327.686	513.38
327.914	550.38
328.143	595.38
328.372	552.38
328.6	561.38
328.829	565.38
329.058	558.38
329.287	554.38
329.515	563.38
329.744	582.38
329.972	604.38
330.201	630.38
330.43	607.38
330.658	604.38
330.887	587.38
331.115	608.38
331.344	613.38
331.572	598.38
331.801	590.38
332.03	591.38
332.258	595.38
332.486	609.38
332.715	613.38
332.943	617.38
333.172	592.38
333.4	618.38
333.629	642.38
333.857	664.38
334.085	736.38
334.314	793.38
334.542	827.38
334.771	769.38
334.999	693.38
335.227	619.38
335.455	623.38
335.684	645.38
335.912	678.38
336.14	637.38
336.369	625.38
336.597	611.38
336.825	606.38
337.053	619.38
337.281	668.38
337.51	701.38
337.738	700.38
337.966	656.38
338.194	614.38
338.422	603.38
338.65	587.38
338.878	582.38
339.106	581.38
339.334	572.38
339.562	549.38
339.79	588.38
340.018	597.38
340.246	651.38
340.474	615.38
340.702	622.38
340.93	613.38
341.158	619.38
341.386	604.38
341.614	624.38
341.842	597.38
342.07	600.38
342.298	619.38
342.526	617.38
342.754	604.38
342.981	588.38
343.209	588.38
343.437	610.38
343.665	602.38
343.893	634.38
344.12	647.38
344.348	629.38
344.576	631.38
344.804	613.38
345.031	602.38
345.259	601.38
345.487	575.38
345.714	569.38
345.942	567.38
346.17	570.38
346.397	581.38
346.625	573.38
346.853	545.38
347.08	570.38
347.308	563.38
347.535	562.38
347.763	569.38
347.99	573.38
348.218	565.38
348.445	568.38
348.673	584.38
348.9	600.38
349.128	626.38
349.355	597.38
349.583	602.38
349.81	551.38
350.037	543.38
350.265	525.38
350.492	526.38
350.72	563.38
350.947	610.38
351.174	604.38
351.402	564.38
351.629	530.38
351.856	523.38
352.083	532.38
352.311	549.38
352.538	577.38
352.765	565.38
352.992	582.38
353.22	561.38
353.447	565.38
353.674	579.38
353.901	577.38
354.128	551.38
354.355	549.38
354.583	586.38
354.81	614.38
355.037	580.38
355.264	589.38
355.491	585.38
355.718	595.38
355.945	582.38
356.172	555.38
356.399	550.38
356.626	569.38
356.853	589.38
357.08	651.38
357.307	671.38
357.534	638.38
357.761	568.38
357.988	531.38
358.215	551.38
358.441	561.38
358.668	562.38
358.895	559.38
359.122	607.38
359.349	648.38
359.576	628.38
359.802	567.38
360.029	541.38
360.256	552.38
360.483	571.38
360.709	603.38
360.936	601.38
361.163	649.38
361.39	692.38
361.616	716.38
361.843	729.38
362.07	634.38
362.296	585.38
362.523	579.38
362.749	580.38
362.976	586.38
363.203	585.38
363.429	549.38
363.656	554.38
363.882	612.38
364.109	677.38
364.335	677.38
364.562	628.38
364.788	574.38
365.015	582.38
365.241	591.38
365.468	582.38
365.694	601.38
365.92	633.38
366.147	606.38
366.373	561.38
366.599	550.38
366.826	556.38
367.052	558.38
367.278	579.38
367.505	590.38
367.731	613.38
367.957	603.38
368.184	632.38
368.41	671.38
368.636	665.38
368.862	631.38
369.089	682.38
369.315	640.38
369.541	620.38
369.767	620.38
369.993	579.38
370.219	603.38
370.445	599.38
370.672	645.38
370.898	685.38
371.124	647.38
371.35	634.38
371.576	657.38
371.802	666.38
372.028	633.38
372.254	615.38
372.48	600.38
372.706	602.38
372.932	600.38
373.158	619.38
373.384	622.38
373.61	658.38
373.835	659.38
374.061	637.38
374.287	625.38
374.513	628.38
374.739	629.38
374.965	658.38
375.191	623.38
375.416	653.38
375.642	645.38
375.868	717.38
376.094	737.38
376.319	678.38
376.545	667.38
376.771	682.38
376.997	721.38
377.222	687.38
377.448	670.38
377.674	694.38
377.899	689.38
378.125	720.38
378.35	685.38
378.576	651.38
378.802	625.38
379.027	627.38
379.253	629.38
379.478	669.38
379.704	638.38
379.929	643.38
380.155	674.38
380.38	653.38
380.606	681.38
380.831	675.38
381.057	702.38
381.282	703.38
381.507	703.38
381.733	763.38
381.958	748.38
382.184	695.38
382.409	671.38
382.634	677.38
382.86	676.38
383.085	686.38
383.31	722.38
383.535	785.38
383.761	809.38
383.986	756.38
384.211	732.38
384.436	753.38
384.662	769.38
384.887	786.38
385.112	750.38
385.337	747.38
385.562	734.38
385.787	750.38
386.013	778.38
386.238	770.38
386.463	745.38
386.688	815.38
386.913	853.38
387.138	829.38
387.363	806.38
387.588	779.38
387.813	781.38
388.038	802.38
388.263	780.38
388.488	765.38
388.713	713.38
388.938	731.38
389.163	749.38
389.387	729.38
389.612	740.38
389.837	769.38
390.062	761.38
390.287	780.38
390.512	757.38
390.736	759.38
390.961	755.38
391.186	728.38
391.411	758.38
391.636	753.38
391.86	778.38
392.085	754.38
392.31	732.38
392.534	763.38
392.759	770.38
392.984	778.38
393.208	767.38
393.433	807.38
393.658	847.38
393.882	831.38
394.107	789.38
394.331	733.38
394.556	754.38
394.78	796.38
395.005	818.38
395.229	843.38
395.454	892.38
395.678	863.38
395.903	815.38
396.127	809.38
396.352	838.38
396.576	857.38
396.801	853.38
397.025	862.38
397.249	858.38
397.474	834.38
397.698	842.38
397.922	876.38
398.147	898.38
398.371	921.38
398.595	899.38
398.82	865.38
399.044	897.38
399.268	923.38
399.492	978.38
399.717	988.38
399.941	994.38
400.165	983.38
400.389	983.38
400.613	994.38
400.837	1118.38
401.062	1186.38
401.286	1045.38
401.51	985.38
401.734	1016.38
401.958	941.38
402.182	911.38
402.406	884.38
402.63	883.38
402.854	894.38
403.078	910.38
403.302	893.38
403.526	921.38
403.75	934.38
403.974	931.38
404.198	927.38
404.422	983.38
404.645	1025.38
404.869	996.38
405.093	926.38
405.317	914.38
405.541	910.38
405.765	926.38
405.988	924.38
406.212	953.38
406.436	984.38
406.66	1011.38
406.883	1031.38
407.107	1130.38
407.331	1234.38
407.555	1290.38
407.778	1110.38
408.002	987.38
408.226	965.38
408.449	960.38
408.673	946.38
408.896	975.38
409.12	979.38
409.344	958.38
409.567	943.38
409.791	957.38
410.014	1004.38
410.238	1046.38
410.461	1070.38
410.685	963.38
410.908	940.38
411.132	939.38
411.355	939.38
411.578	924.38
411.802	965.38
412.025	943.38
412.249	947.38
412.472	912.38
412.695	929.38
412.919	905.38
413.142	926.38
413.365	951.38
413.589	993.38
413.812	1017.38
414.035	1009.38
414.258	940.38
414.482	923.38
414.705	939.38
414.928	918.38
415.151	890.38
415.374	906.38
415.597	947.38
415.821	921.38
416.044	980.38
416.267	964.38
416.49	897.38
416.713	911.38
416.936	972.38
417.159	993.38
417.382	975.38
417.605	936.38
417.828	920.38
418.051	929.38
418.274	947.38
418.497	938.38
418.72	911.38
418.943	933.38
419.166	982.38
419.389	1012.38
419.611	952.38
419.834	949.38
420.057	954.38
420.28	926.38
420.503	915.38
420.726	967.38
420.948	947.38
421.171	915.38
421.394	959.38
421.617	955.38
421.839	980.38
422.062	992.38
422.285	925.38
422.507	935.38
422.73	906.38
422.953	907.38
423.175	878.38
423.398	952.38
423.621	943.38
423.843	949.38
424.066	975.38
424.288	1016.38
424.511	1096.38
424.733	1010.38
424.956	947.38
425.178	942.38
425.401	943.38
425.623	958.38
425.846	929.38
426.068	1010.38
426.291	974.38
426.513	968.38
426.735	979.38
426.958	1026.38
427.18	1065.38
427.402	982.38
427.625	1037.38
427.847	1013.38
428.069	942.38
428.292	956.38
428.514	898.38
428.736	885.38
428.958	918.38
429.181	930.38
429.403	1082.38
429.625	1222.38
429.847	1049.38
430.069	957.38
430.292	1073.38
430.514	1047.38
430.736	994.38
430.958	961.38
431.18	933.38
431.402	871.38
431.624	858.38
431.846	815.38
432.068	751.38
432.29	727.38
432.512	799.38
432.734	881.38
432.956	932.38
433.178	999.38
433.4	966.38
433.622	951.38
433.844	895.38
434.066	855.38
434.287	802.38
434.509	793.38
434.731	831.38
434.953	893.38
435.175	910.38
435.397	919.38
435.618	877.38
435.84	841.38
436.062	839.38
436.284	885.38
436.505	918.38
436.727	959.38
436.949	926.38
437.17	891.38
437.392	874.38
437.614	839.38
437.835	800.38
438.057	828.38
438.278	853.38
438.5	876.38
438.721	902.38
438.943	919.38
439.165	933.38
439.386	939.38
439.608	937.38
439.829	975.38
440.05	978.38
440.272	962.38
440.493	956.38
440.715	1007.38
440.936	1037.38
441.158	1098.38
441.379	1030.38
441.6	1047.38
441.822	1036.38
442.043	1034.38
442.264	1019.38
442.486	956.38
442.707	978.38
442.928	975.38
443.149	983.38
443.371	986.38
443.592	1028.38
443.813	1035.38
444.034	1016.38
444.255	1022.38
444.476	1060.38
444.698	1049.38
444.919	1048.38
445.14	1172.38
445.361	1093.38
445.582	1085.38
445.803	1049.38
446.024	1044.38
446.245	1100.38
446.466	1046.38
446.687	1070.38
446.908	1095.38
447.129	1032.38
447.35	1046.38
447.571	1016.38
447.792	983.38
448.013	986.38
448.234	983.38
448.455	986.38
448.675	969.38
448.896	926.38
449.117	927.38
449.338	934.38
449.559	972.38
449.779	974.38
450	1026.38
450.221	1048.38
450.442	998.38
450.662	926.38
450.883	871.38
451.104	889.38
451.324	881.38
451.545	906.38
451.766	877.38
451.986	865.38
452.207	846.38
452.428	828.38
452.648	803.38
452.869	803.38
453.089	792.38
453.31	782.38
453.53	762.38
453.751	745.38
453.971	695.38
454.192	719.38
454.412	783.38
454.633	809.38
454.853	791.38
455.073	775.38
455.294	771.38
455.514	763.38
455.734	755.38
455.955	745.38
456.175	725.38
456.395	705.38
456.616	724.38
456.836	725.38
457.056	747.38
457.276	737.38
457.497	726.38
457.717	708.38
457.937	703.38
458.157	725.38
458.377	719.38
458.598	703.38
458.818	666.38
459.038	719.38
459.258	750.38
459.478	729.38
459.698	717.38
459.918	712.38
460.138	837.38
460.358	819.38
460.578	829.38
460.798	846.38
461.018	916.38
461.238	878.38
461.458	855.38
461.678	852.38
461.898	810.38
462.118	836.38
462.338	861.38
462.558	860.38
462.777	866.38
462.997	887.38
463.217	904.38
463.437	868.38
463.657	829.38
463.876	847.38
464.096	838.38
464.316	833.38
464.536	877.38
464.755	911.38
464.975	899.38
465.195	870.38
465.414	875.38
465.634	900.38
465.854	907.38
466.073	982.38
466.293	939.38
466.512	887.38
466.732	895.38
466.951	925.38
467.171	895.38
467.391	885.38
467.61	890.38
467.829	897.38
468.049	981.38
468.268	1025.38
468.488	970.38
468.707	932.38
468.927	924.38
469.146	899.38
469.365	942.38
469.585	921.38
469.804	914.38
470.023	928.38
470.243	965.38
470.462	964.38
470.681	943.38
470.901	940.38
471.12	948.38
471.339	948.38
471.558	958.38
471.777	911.38
471.997	916.38
472.216	841.38
472.435	819.38
472.654	771.38
472.873	779.38
473.092	838.38
473.311	843.38
473.53	814.38
473.749	811.38
473.968	845.38
474.187	863.38
474.406	837.38
474.625	871.38
474.844	902.38
475.063	891.38
475.282	886.38
475.501	825.38
475.72	881.38
475.939	919.38
476.158	897.38
476.377	869.38
476.596	865.38
476.814	796.38
477.033	801.38
477.252	844.38
477.471	905.38
477.69	933.38
477.908	965.38
478.127	1002.38
478.346	1043.38
478.564	1007.38
478.783	1019.38
479.002	1024.38
479.22	1016.38
479.439	1038.38
479.658	1073.38
479.876	988.38
480.095	911.38
480.313	855.38
480.532	901.38
480.751	877.38
480.969	825.38
481.188	799.38
481.406	796.38
481.624	775.38
481.843	792.38
482.061	836.38
482.28	865.38
482.498	906.38
482.717	891.38
482.935	907.38
483.153	994.38
483.372	1037.38
483.59	985.38
483.808	972.38
484.027	966.38
484.245	1025.38
484.463	1229.38
484.681	1293.38
484.9	1011.38
485.118	990.38
485.336	902.38
485.554	899.38
485.772	924.38
485.99	893.38
486.209	898.38
486.427	921.38
486.645	941.38
486.863	1003.38
487.081	1074.38
487.299	1021.38
487.517	990.38
487.735	1125.38
487.953	1202.38
488.171	1171.38
488.389	1144.38
488.607	1107.38
488.825	1138.38
489.043	1069.38
489.261	987.38
489.479	1054.38
489.696	1059.38
489.914	1032.38
490.132	1038.38
490.35	1137.38
490.568	1193.38
490.786	1184.38
491.003	1201.38
491.221	1278.38
491.439	1302.38
491.657	1346.38
491.874	1385.38
492.092	1435.38
492.31	1508.38
492.527	1471.38
492.745	1377.38
492.963	1329.38
493.18	1301.38
493.398	1347.38
493.615	1319.38
493.833	1283.38
494.05	1256.38
494.268	1271.38
494.485	1250.38
494.703	1258.38
494.92	1240.38
495.138	1242.38
495.355	1234.38
495.573	1241.38
495.79	1290.38
496.008	1291.38
496.225	1285.38
496.442	1245.38
496.66	1247.38
496.877	1238.38
497.094	1254.38
497.312	1230.38
497.529	1194.38
497.746	1194.38
497.963	1272.38
498.181	1287.38
498.398	1290.38
498.615	1249.38
498.832	1177.38
499.049	1164.38
499.267	1186.38
499.484	1251.38
499.701	1372.38
499.918	1385.38
500.135	1493.38
500.352	1618.38
500.569	1587.38
500.786	1742.38
501.003	1598.38
501.22	1440.38
501.437	1423.38
501.654	1434.38
501.871	1345.38
502.088	1196.38
502.305	1219.38
502.522	1155.38
502.739	1103.38
502.956	1077.38
503.172	1068.38
503.389	1050.38
503.606	1067.38
503.823	1016.38
504.04	1004.38
504.256	1002.38
504.473	1027.38
504.69	1025.38
504.907	987.38
505.123	973.38
505.34	1055.38
505.557	1363.38
505.773	1100.38
505.99	971.38
506.207	924.38
506.423	915.38
506.64	899.38
506.856	921.38
507.073	1038.38
507.289	1062.38
507.506	1025.38
507.722	926.38
507.939	882.38
508.155	866.38
508.372	868.38
508.588	842.38
508.805	775.38
509.021	781.38
509.238	787.38
509.454	786.38
509.67	756.38
509.887	745.38
510.103	758.38
510.319	761.38
510.536	753.38
510.752	791.38
510.968	780.38
511.184	785.38
511.401	771.38
511.617	711.38
511.833	706.38
512.049	702.38
512.265	719.38
512.481	722.38
512.698	767.38
512.914	761.38
513.13	777.38
513.346	726.38
513.562	695.38
513.778	727.38
513.994	757.38
514.21	741.38
514.426	794.38
514.642	818.38
514.858	795.38
515.074	753.38
515.29	724.38
515.506	751.38
515.721	743.38
515.937	759.38
516.153	817.38
516.369	804.38
516.585	761.38
516.801	741.38
517.016	745.38
517.232	759.38
517.448	765.38
517.664	796.38
517.879	806.38
518.095	794.38
518.311	776.38
518.527	767.38
518.742	763.38
518.958	763.38
519.173	771.38
519.389	760.38
519.605	805.38
519.82	813.38
520.036	812.38
520.251	781.38
520.467	792.38
520.682	805.38
520.898	796.38
521.113	700.38
521.329	707.38
521.544	746.38
521.76	742.38
521.975	725.38
522.19	700.38
522.406	738.38
522.621	928.38
522.836	873.38
523.052	766.38
523.267	750.38
523.482	768.38
523.698	741.38
523.913	758.38
524.128	787.38
524.343	807.38
524.559	838.38
524.774	787.38
524.989	781.38
525.204	787.38
525.419	748.38
525.634	763.38
525.849	761.38
526.064	718.38
526.28	749.38
526.495	676.38
526.71	647.38
526.925	650.38
527.14	645.38
527.355	639.38
527.57	618.38
527.785	651.38
527.999	675.38
528.214	668.38
528.429	710.38
528.644	750.38
528.859	793.38
529.074	806.38
529.289	874.38
529.503	884.38
529.718	837.38
529.933	729.38
530.148	701.38
530.363	641.38
530.577	630.38
530.792	617.38
531.007	645.38
531.221	649.38
531.436	623.38
531.651	659.38
531.865	674.38
532.08	645.38
532.295	641.38
532.509	618.38
532.724	627.38
532.938	674.38
533.153	697.38
533.367	713.38
533.582	755.38
533.796	735.38
534.011	700.38
534.225	670.38
534.44	641.38
534.654	683.38
534.868	674.38
535.083	701.38
535.297	693.38
535.511	678.38
535.726	680.38
535.94	682.38
536.154	679.38
536.369	604.38
536.583	592.38
536.797	614.38
537.011	618.38
537.225	616.38
537.44	627.38
537.654	646.38
537.868	621.38
538.082	592.38
538.296	627.38
538.51	653.38
538.724	664.38
538.938	738.38
539.153	755.38
539.367	773.38
539.581	707.38
539.795	681.38
540.009	643.38
540.222	648.38
540.436	690.38
540.65	769.38
540.864	779.38
541.078	829.38
541.292	836.38
541.506	878.38
541.72	973.38
541.934	1059.38
542.147	1069.38
542.361	1021.38
542.575	894.38
542.789	847.38
543.002	757.38
543.216	756.38
543.43	758.38
543.644	832.38
543.857	895.38
544.071	927.38
544.285	949.38
544.498	947.38
544.712	939.38
544.925	944.38
545.139	953.38
545.352	955.38
545.566	904.38
545.779	951.38
545.993	968.38
546.206	965.38
546.42	949.38
546.633	951.38
546.847	935.38
547.06	953.38
547.274	950.38
547.487	981.38
547.7	997.38
547.914	985.38
548.127	983.38
548.34	962.38
548.554	939.38
548.767	921.38
548.98	935.38
549.193	935.38
549.407	975.38
549.62	955.38
549.833	933.38
550.046	927.38
550.259	928.38
550.473	909.38
550.686	902.38
550.899	887.38
551.112	861.38
551.325	865.38
551.538	866.38
551.751	864.38
551.964	731.38
552.177	723.38
552.39	787.38
552.603	878.38
552.816	894.38
553.029	933.38
553.242	921.38
553.455	894.38
553.667	915.38
553.88	904.38
554.093	908.38
554.306	870.38
554.519	874.38
554.732	839.38
554.944	838.38
555.157	846.38
555.37	815.38
555.583	833.38
555.795	796.38
556.008	759.38
556.221	730.38
556.433	729.38
556.646	765.38
556.859	735.38
557.071	730.38
557.284	780.38
557.496	773.38
557.709	778.38
557.921	742.38
558.134	755.38
558.346	741.38
558.559	733.38
558.771	724.38
558.984	711.38
559.196	699.38
559.409	695.38
559.621	664.38
559.833	661.38
560.046	666.38
560.258	662.38
560.47	679.38
560.683	709.38
560.895	694.38
561.107	704.38
561.32	703.38
561.532	684.38
561.744	685.38
561.956	682.38
562.168	683.38
562.381	666.38
562.593	661.38
562.805	677.38
563.017	649.38
563.229	635.38
563.441	671.38
563.653	634.38
563.865	619.38
564.077	634.38
564.289	615.38
564.501	622.38
564.713	625.38
564.925	645.38
565.137	662.38
565.349	630.38
565.561	630.38
565.773	622.38
565.985	637.38
566.197	667.38
566.408	693.38
566.62	669.38
566.832	699.38
567.044	682.38
567.255	677.38
567.467	662.38
567.679	693.38
567.891	647.38
568.102	628.38
568.314	585.38
568.526	540.38
568.737	546.38
568.949	486.38
569.161	458.38
569.372	453.38
569.584	443.38
569.795	465.38
570.007	459.38
570.218	447.38
570.43	443.38
570.641	455.38
570.853	482.38
571.064	486.38
571.276	506.38
571.487	482.38
571.698	493.38
571.91	492.38
572.121	470.38
572.333	473.38
572.544	467.38
572.755	426.38
572.966	405.38
573.178	397.38
573.389	402.38
573.6	407.38
573.811	451.38
574.023	401.38
574.234	396.38
574.445	407.38
574.656	401.38
574.867	397.38
575.078	408.38
575.289	397.38
575.501	399.38
575.712	400.38
575.923	395.38
576.134	403.38
576.345	406.38
576.556	409.38
576.767	411.38
576.978	394.38
577.188	412.38
577.399	386.38
577.61	385.38
577.821	374.38
578.032	368.38
578.243	377.38
578.454	371.38
578.665	370.38
578.875	349.38
579.086	343.38
579.297	327.38
579.508	331.38
579.718	367.38
579.929	354.38
580.14	340.38
580.35	332.38
580.561	368.38
580.772	391.38
580.982	364.38
581.193	372.38
581.403	354.38
581.614	352.38
581.825	351.38
582.035	350.38
582.246	345.38
582.456	361.38
582.667	364.38
582.877	365.38
583.087	338.38
583.298	345.38
583.508	327.38
583.719	337.38
583.929	339.38
584.139	325.38
584.35	331.38
584.56	339.38
584.77	349.38
584.981	331.38
585.191	349.38
585.401	346.38
585.611	323.38
585.821	331.38
586.032	314.38
586.242	319.38
586.452	315.38
586.662	326.38
586.872	327.38
587.082	323.38
587.292	340.38
587.502	316.38
587.713	317.38
587.923	312.38
588.133	322.38
588.343	339.38
588.553	324.38
588.762	317.38
588.972	318.38
589.182	337.38
589.392	295.38
589.602	346.38
589.812	327.38
590.022	308.38
590.232	317.38
590.441	313.38
590.651	309.38
590.861	319.38
591.071	303.38
591.281	315.38
591.49	292.38
591.7	313.38
591.91	317.38
592.119	329.38
592.329	325.38
592.539	322.38
592.748	331.38
592.958	321.38
593.167	327.38
593.377	343.38
593.587	336.38
593.796	309.38
594.006	324.38
594.215	331.38
594.424	335.38
594.634	359.38
594.843	334.38
595.053	335.38
595.262	330.38
595.472	342.38
595.681	314.38
595.89	315.38
596.1	315.38
596.309	325.38
596.518	323.38
596.727	332.38
596.937	315.38
597.146	330.38
597.355	327.38
597.564	310.38
597.774	317.38
597.983	289.38
598.192	287.38
598.401	290.38
598.61	285.38
598.819	283.38
599.028	307.38
599.237	311.38
599.446	290.38
599.655	283.38
599.864	267.38
600.073	287.38
600.282	294.38
600.491	294.38
600.7	294.38
600.909	305.38
601.118	327.38
601.327	325.38
601.536	335.38
601.745	331.38
601.953	342.38
602.162	347.38
602.371	378.38
602.58	362.38
602.789	357.38
602.997	373.38
603.206	360.38
603.415	349.38
603.623	354.38
603.832	350.38
604.041	341.38
604.249	346.38
604.458	333.38
604.666	311.38
604.875	307.38
605.084	338.38
605.292	336.38
605.501	361.38
605.709	353.38
605.918	349.38
606.126	363.38
606.334	360.38
606.543	365.38
606.751	366.38
606.96	379.38
607.168	354.38
607.376	371.38
607.585	350.38
607.793	342.38
608.001	341.38
608.21	364.38
608.418	369.38
608.626	383.38
608.834	389.38
609.043	352.38
609.251	376.38
609.459	373.38
609.667	372.38
609.875	372.38
610.083	380.38
610.291	371.38
610.499	360.38
610.707	350.38
610.916	373.38
611.124	360.38
611.332	369.38
611.54	361.38
611.748	366.38
611.955	363.38
612.163	364.38
612.371	381.38
612.579	365.38
612.787	365.38
612.995	377.38
613.203	372.38
613.411	366.38
613.618	351.38
613.826	357.38
614.034	355.38
614.242	359.38
614.449	365.38
614.657	371.38
614.865	358.38
615.072	358.38
615.28	362.38
615.488	354.38
615.695	366.38
615.903	350.38
616.111	380.38
616.318	370.38
616.526	354.38
616.733	377.38
616.941	373.38
617.148	347.38
617.356	341.38
617.563	343.38
617.771	353.38
617.978	334.38
618.185	337.38
618.393	364.38
618.6	347.38
618.807	346.38
619.015	355.38
619.222	329.38
619.429	334.38
619.637	329.38
619.844	321.38
620.051	294.38
620.258	311.38
620.466	306.38
620.673	330.38
620.88	309.38
621.087	315.38
621.294	306.38
621.501	292.38
621.708	298.38
621.915	332.38
622.122	336.38
622.329	322.38
622.536	316.38
622.743	335.38
622.95	321.38
623.157	307.38
623.364	323.38
623.571	338.38
623.778	319.38
623.985	343.38
624.192	340.38
624.399	333.38
624.606	323.38
624.812	329.38
625.019	315.38
625.226	317.38
625.433	298.38
625.639	296.38
625.846	284.38
626.053	240.38
626.259	239.38
626.466	229.38
626.673	254.38
626.879	237.38
627.086	259.38
627.293	278.38
627.499	289.38
627.706	296.38
627.912	313.38
628.119	298.38
628.325	292.38
628.532	280.38
628.738	328.38
628.945	302.38
629.151	290.38
629.357	284.38
629.564	301.38
629.77	279.38
629.976	299.38
630.183	274.38
630.389	257.38
630.595	277.38
630.802	286.38
631.008	279.38
631.214	268.38
631.42	259.38
631.627	270.38
631.833	256.38
632.039	263.38
632.245	273.38
632.451	267.38
632.657	270.38
632.863	271.38
633.069	267.38
633.275	262.38
633.481	265.38
633.688	255.38
633.893	259.38
634.099	257.38
634.305	258.38
634.511	241.38
634.717	255.38
634.923	231.38
635.129	245.38
635.335	241.38
635.541	238.38
635.747	261.38
635.952	271.38
636.158	243.38
636.364	270.38
636.57	296.38
636.775	276.38
636.981	273.38
637.187	268.38
637.392	271.38
637.598	274.38
637.804	279.38
638.009	268.38
638.215	245.38
638.421	266.38
638.626	246.38
638.832	262.38
639.037	241.38
639.243	252.38
639.448	244.38
639.654	248.38
639.859	229.38
640.065	241.38
640.27	248.38
640.475	260.38
640.681	235.38
640.886	257.38
641.091	253.38
641.297	263.38
641.502	263.38
641.707	272.38
641.913	261.38
642.118	263.38
642.323	260.38
642.528	255.38
642.733	246.38
642.939	231.38
643.144	243.38
643.349	246.38
643.554	241.38
643.759	248.38
643.964	239.38
644.169	255.38
644.374	248.38
644.579	241.38
644.784	245.38
644.989	254.38
645.194	230.38
645.399	251.38
645.604	232.38
645.809	242.38
646.014	239.38
646.219	253.38
646.423	230.38
646.628	261.38
646.833	251.38
647.038	232.38
647.243	245.38
647.447	248.38
647.652	237.38
647.857	224.38
648.062	249.38
648.266	239.38
648.471	243.38
648.676	230.38
648.88	243.38
649.085	247.38
649.289	233.38
649.494	234.38
649.698	230.38
649.903	222.38
650.107	234.38
650.312	246.38
650.516	221.38
650.721	233.38
650.925	234.38
651.13	220.38
651.334	235.38
651.539	222.38
651.743	214.38
651.947	238.38
652.152	218.38
652.356	206.38
652.56	220.38
652.764	229.38
652.969	213.38
653.173	214.38
653.377	218.38
653.581	215.38
653.785	215.38
653.99	204.38
654.194	213.38
654.398	200.38
654.602	213.38
654.806	210.38
655.01	201.38
655.214	205.38
655.418	215.38
655.622	224.38
655.826	207.38
656.03	212.38
656.234	218.38
656.438	247.38
656.642	249.38
656.846	238.38
657.049	202.38
657.253	189.38
657.457	200.38
657.661	181.38
657.865	174.38
658.068	165.38
658.272	157.38
658.476	170.38
658.68	157.38
658.883	150.38
659.087	145.38
659.291	132.38
659.494	130.38
659.698	139.38
659.901	143.38
660.105	147.38
660.309	137.38
660.512	133.38
660.716	116.38
660.919	108.38
661.123	110.38
661.326	119.38
661.53	113.38
661.733	125.38
661.936	100.38
662.14	106.38
662.343	98.38
662.546	100.38
662.75	95.38
662.953	105.38
663.156	96.38
663.36	99.38
663.563	92.38
663.766	89.38
663.969	93.38
664.173	95.38
664.376	79.38
664.579	83.38
664.782	72.38
664.985	83.38
665.188	77.38
665.391	85.38
665.594	90.38
665.797	90.38
666	86.38
666.203	75.38
666.406	77.38
666.609	76.38
666.812	86.38
667.015	88.38
667.218	88.38
667.421	82.38
667.624	81.38
667.827	79.38
668.03	90.38
668.232	99.38
668.435	96.38
668.638	83.38
668.841	90.38
669.043	94.38
669.246	100.38
669.449	86.38
669.651	79.38
669.854	75.38
670.057	80.38
670.259	74.38
670.462	85.38
670.665	87.38
670.867	75.38
671.07	88.38
671.272	84.38
671.475	90.38
671.677	84.38
671.88	78.38
672.082	65.38
672.284	82.38
672.487	83.38
672.689	81.38
672.892	79.38
