Data from WStandard_LampEnergy5.5LIBS07252019.E.O._I.C._HRD10591_16-09-32-920.txt Node
Date: Thu Jul 25 16:09:32 EDT 2019
User: cochatt
Spectrometer: HR+D1059
Trigger mode: 1
Integration Time (sec): 1.000000E-1
Scans to average: 1
Electric dark correction enabled: true
Nonlinearity correction enabled: false
Boxcar width: 0
XAxis mode: Wavelengths
Number of Pixels in Spectrum: 2048
>>>>>Begin Spectral Data<<<<<
223.165	-14.06
223.4	-14.06
223.635	-14.06
223.869	-21.06
224.104	-13.06
224.338	-7.06
224.573	-20.06
224.808	-19.06
225.042	-1.06
225.277	-10.06
225.511	-5.06
225.746	5.94
225.98	-1.06
226.215	1.94
226.449	16.94
226.683	28.94
226.918	25.94
227.152	31.94
227.387	46.94
227.621	35.94
227.856	54.94
228.09	34.94
228.324	50.94
228.559	54.94
228.793	143.94
229.027	345.94
229.262	356.94
229.496	392.94
229.73	383.94
229.964	420.94
230.199	481.94
230.433	451.94
230.667	483.94
230.901	519.94
231.136	471.94
231.37	447.94
231.604	457.94
231.838	457.94
232.072	469.94
232.306	427.94
232.541	465.94
232.775	543.94
233.009	586.94
233.243	534.94
233.477	504.94
233.711	499.94
233.945	556.94
234.179	527.94
234.413	584.94
234.647	615.94
234.881	588.94
235.115	517.94
235.349	516.94
235.583	554.94
235.817	550.94
236.051	517.94
236.285	532.94
236.519	572.94
236.753	636.94
236.987	663.94
237.221	646.94
237.455	711.94
237.689	687.94
237.922	666.94
238.156	622.94
238.39	649.94
238.624	669.94
238.858	711.94
239.091	750.94
239.325	794.94
239.559	902.94
239.793	912.94
240.027	986.94
240.26	1012.94
240.494	744.94
240.728	710.94
240.961	705.94
241.195	690.94
241.429	805.94
241.662	796.94
241.896	732.94
242.13	745.94
242.363	799.94
242.597	874.94
242.83	863.94
243.064	870.94
243.298	894.94
243.531	890.94
243.765	883.94
243.998	883.94
244.232	779.94
244.465	758.94
244.699	761.94
244.932	879.94
245.166	992.94
245.399	901.94
245.633	869.94
245.866	845.94
246.099	893.94
246.333	934.94
246.566	968.94
246.8	998.94
247.033	1102.94
247.266	1049.94
247.5	1034.94
247.733	1019.94
247.966	1081.94
248.2	1203.94
248.433	1126.94
248.666	1180.94
248.899	1266.94
249.133	1455.94
249.366	1729.94
249.599	1358.94
249.832	1173.94
250.066	1210.94
250.299	1244.94
250.532	1120.94
250.765	1030.94
250.998	1102.94
251.231	1135.94
251.465	1166.94
251.698	1094.94
251.931	1136.94
252.164	1164.94
252.397	1197.94
252.63	1200.94
252.863	1067.94
253.096	1058.94
253.329	1084.94
253.562	1133.94
253.795	1202.94
254.028	1230.94
254.261	1120.94
254.494	1103.94
254.727	1080.94
254.96	1112.94
255.193	1210.94
255.426	1333.94
255.659	1581.94
255.892	1606.94
256.124	1295.94
256.357	1249.94
256.59	1386.94
256.823	1345.94
257.056	1329.94
257.289	1610.94
257.521	1792.94
257.754	1631.94
257.987	1514.94
258.22	1700.94
258.452	1652.94
258.685	1364.94
258.918	1314.94
259.151	1324.94
259.383	1293.94
259.616	1142.94
259.849	1193.94
260.081	1314.94
260.314	1483.94
260.547	1668.94
260.779	1666.94
261.012	1553.94
261.244	1370.94
261.477	1308.94
261.71	1319.94
261.942	1364.94
262.175	1311.94
262.407	1423.94
262.64	1338.94
262.872	1246.94
263.105	1187.94
263.337	1216.94
263.57	1274.94
263.802	1251.94
264.035	1167.94
264.267	1108.94
264.499	1086.94
264.732	1175.94
264.964	1225.94
265.197	1320.94
265.429	1361.94
265.661	1514.94
265.894	1664.94
266.126	1761.94
266.358	1537.94
266.591	1586.94
266.823	1719.94
267.055	1547.94
267.287	1538.94
267.52	1531.94
267.752	1476.94
267.984	1495.94
268.216	1556.94
268.448	1594.94
268.681	1589.94
268.913	1444.94
269.145	1367.94
269.377	1340.94
269.609	1442.94
269.841	1686.94
270.073	1953.94
270.306	2172.94
270.538	2308.94
270.77	1961.94
271.002	1691.94
271.234	1592.94
271.466	1542.94
271.698	1719.94
271.93	2075.94
272.162	2121.94
272.394	1928.94
272.626	1833.94
272.858	1624.94
273.09	1429.94
273.322	1398.94
273.553	1327.94
273.785	1336.94
274.017	1373.94
274.249	1526.94
274.481	1545.94
274.713	1395.94
274.945	1371.94
275.176	1392.94
275.408	1359.94
275.64	1336.94
275.872	1316.94
276.104	1373.94
276.335	1572.94
276.567	1836.94
276.799	1872.94
277.031	1655.94
277.262	1553.94
277.494	1615.94
277.726	1809.94
277.957	1760.94
278.189	1605.94
278.421	1488.94
278.652	1417.94
278.884	1420.94
279.115	1438.94
279.347	1460.94
279.579	1434.94
279.81	1399.94
280.042	1567.94
280.273	1706.94
280.505	1714.94
280.736	1755.94
280.968	1674.94
281.199	1467.94
281.431	1392.94
281.662	1394.94
281.894	1404.94
282.125	1481.94
282.356	1509.94
282.588	1503.94
282.819	1485.94
283.051	1559.94
283.282	1734.94
283.513	1734.94
283.745	1496.94
283.976	1423.94
284.207	1398.94
284.439	1446.94
284.67	1435.94
284.901	1467.94
285.132	1541.94
285.364	1499.94
285.595	1499.94
285.826	1470.94
286.057	1443.94
286.288	1424.94
286.52	1454.94
286.751	1607.94
286.982	1681.94
287.213	1592.94
287.444	1429.94
287.675	1406.94
287.906	1490.94
288.138	1627.94
288.369	1593.94
288.6	1459.94
288.831	1406.94
289.062	1454.94
289.293	1476.94
289.524	1492.94
289.755	1564.94
289.986	1580.94
290.217	1421.94
290.448	1430.94
290.679	1464.94
290.91	1494.94
291.141	1510.94
291.371	1607.94
291.602	1550.94
291.833	1590.94
292.064	1615.94
292.295	1569.94
292.526	1633.94
292.757	1681.94
292.987	1586.94
293.218	1527.94
293.449	1610.94
293.68	1823.94
293.91	1957.94
294.141	1827.94
294.372	1756.94
294.603	1789.94
294.833	1881.94
295.064	1764.94
295.295	1568.94
295.525	1584.94
295.756	1431.94
295.987	1348.94
296.217	1416.94
296.448	1443.94
296.679	1488.94
296.909	1475.94
297.14	1453.94
297.37	1453.94
297.601	1550.94
297.831	1639.94
298.062	1684.94
298.292	1555.94
298.523	1436.94
298.753	1499.94
298.984	1515.94
299.214	1515.94
299.445	1554.94
299.675	1594.94
299.905	1584.94
300.136	1540.94
300.366	1507.94
300.597	1444.94
300.827	1453.94
301.057	1509.94
301.288	1608.94
301.518	1593.94
301.748	1626.94
301.979	1733.94
302.209	1714.94
302.439	1819.94
302.669	1906.94
302.9	1792.94
303.13	1568.94
303.36	1641.94
303.59	1652.94
303.82	1618.94
304.051	1588.94
304.281	1624.94
304.511	1578.94
304.741	1652.94
304.971	1859.94
305.201	2042.94
305.431	1929.94
305.661	1538.94
305.891	1416.94
306.121	1410.94
306.352	1482.94
306.582	1586.94
306.812	1612.94
307.042	1762.94
307.272	1759.94
307.502	1793.94
307.731	1942.94
307.961	2094.94
308.191	1923.94
308.421	1699.94
308.651	1578.94
308.881	1535.94
309.111	1572.94
309.341	1545.94
309.571	1552.94
309.8	1601.94
310.03	1574.94
310.26	1563.94
310.49	1520.94
310.72	1559.94
310.949	1603.94
311.179	1648.94
311.409	1616.94
311.639	1579.94
311.868	1552.94
312.098	1593.94
312.328	1567.94
312.557	1537.94
312.787	1553.94
313.017	1634.94
313.246	1612.94
313.476	1595.94
313.706	1662.94
313.935	1629.94
314.165	1625.94
314.394	1693.94
314.624	1742.94
314.853	1867.94
315.083	1932.94
315.312	2028.94
315.542	1907.94
315.771	1663.94
316.001	1687.94
316.23	1768.94
316.46	1759.94
316.689	1711.94
316.919	1615.94
317.148	1559.94
317.377	1599.94
317.607	1703.94
317.836	1894.94
318.065	1958.94
318.295	1918.94
318.524	1884.94
318.753	1744.94
318.983	1738.94
319.212	1710.94
319.441	1636.94
319.67	1662.94
319.9	1696.94
320.129	1784.94
320.358	1811.94
320.587	1905.94
320.816	1855.94
321.046	1823.94
321.275	1724.94
321.504	1750.94
321.733	1881.94
321.962	1862.94
322.191	1699.94
322.42	1696.94
322.649	1648.94
322.878	1692.94
323.108	1675.94
323.337	1800.94
323.566	1749.94
323.795	1780.94
324.024	1714.94
324.253	1679.94
324.482	1698.94
324.71	1674.94
324.939	1581.94
325.168	1610.94
325.397	1681.94
325.626	1731.94
325.855	1775.94
326.084	1738.94
326.313	1700.94
326.542	1709.94
326.77	1745.94
326.999	1778.94
327.228	1737.94
327.457	1602.94
327.686	1622.94
327.914	1639.94
328.143	1719.94
328.372	1711.94
328.6	1723.94
328.829	1715.94
329.058	1678.94
329.287	1674.94
329.515	1700.94
329.744	1717.94
329.972	1819.94
330.201	1889.94
330.43	1853.94
330.658	1808.94
330.887	1797.94
331.115	1780.94
331.344	1834.94
331.572	1775.94
331.801	1773.94
332.03	1790.94
332.258	1751.94
332.486	1860.94
332.715	1836.94
332.943	1865.94
333.172	1771.94
333.4	1860.94
333.629	1858.94
333.857	1948.94
334.085	2085.94
334.314	2356.94
334.542	2592.94
334.771	2410.94
334.999	2148.94
335.227	2033.94
335.455	1930.94
335.684	1885.94
335.912	1950.94
336.14	2055.94
336.369	1967.94
336.597	1850.94
336.825	1818.94
337.053	1905.94
337.281	1954.94
337.51	2026.94
337.738	2148.94
337.966	2036.94
338.194	1898.94
338.422	1820.94
338.65	1796.94
338.878	1721.94
339.106	1734.94
339.334	1709.94
339.562	1671.94
339.79	1722.94
340.018	1807.94
340.246	1894.94
340.474	1899.94
340.702	1806.94
340.93	1852.94
341.158	1829.94
341.386	1843.94
341.614	1764.94
341.842	1753.94
342.07	1782.94
342.298	1797.94
342.526	1803.94
342.754	1765.94
342.981	1741.94
343.209	1732.94
343.437	1725.94
343.665	1757.94
343.893	1756.94
344.12	1924.94
344.348	1867.94
344.576	1838.94
344.804	1766.94
345.031	1747.94
345.259	1770.94
345.487	1736.94
345.714	1629.94
345.942	1664.94
346.17	1632.94
346.397	1690.94
346.625	1693.94
346.853	1626.94
347.08	1576.94
347.308	1592.94
347.535	1576.94
347.763	1700.94
347.99	1681.94
348.218	1621.94
348.445	1615.94
348.673	1629.94
348.9	1677.94
349.128	1695.94
349.355	1790.94
349.583	1737.94
349.81	1705.94
350.037	1574.94
350.265	1524.94
350.492	1562.94
350.72	1630.94
350.947	1675.94
351.174	1684.94
351.402	1612.94
351.629	1552.94
351.856	1539.94
352.083	1547.94
352.311	1552.94
352.538	1574.94
352.765	1609.94
352.992	1724.94
353.22	1680.94
353.447	1562.94
353.674	1564.94
353.901	1657.94
354.128	1622.94
354.355	1586.94
354.583	1663.94
354.81	1703.94
355.037	1674.94
355.264	1660.94
355.491	1651.94
355.718	1669.94
355.945	1653.94
356.172	1598.94
356.399	1615.94
356.626	1629.94
356.853	1623.94
357.08	1744.94
357.307	1911.94
357.534	1917.94
357.761	1701.94
357.988	1599.94
358.215	1542.94
358.441	1539.94
358.668	1542.94
358.895	1565.94
359.122	1664.94
359.349	1784.94
359.576	1829.94
359.802	1621.94
360.029	1580.94
360.256	1529.94
360.483	1546.94
360.709	1615.94
360.936	1695.94
361.163	1709.94
361.39	1897.94
361.616	2064.94
361.843	1954.94
362.07	1888.94
362.296	1656.94
362.523	1633.94
362.749	1604.94
362.976	1645.94
363.203	1689.94
363.429	1656.94
363.656	1569.94
363.882	1652.94
364.109	1805.94
364.335	1918.94
364.562	1824.94
364.788	1712.94
365.015	1643.94
365.241	1584.94
365.468	1666.94
365.694	1670.94
365.92	1780.94
366.147	1744.94
366.373	1599.94
366.599	1572.94
366.826	1622.94
367.052	1610.94
367.278	1598.94
367.505	1614.94
367.731	1672.94
367.957	1679.94
368.184	1722.94
368.41	1826.94
368.636	1820.94
368.862	1845.94
369.089	1850.94
369.315	1754.94
369.541	1669.94
369.767	1650.94
369.993	1634.94
370.219	1617.94
370.445	1643.94
370.672	1702.94
370.898	1839.94
371.124	1844.94
371.35	1747.94
371.576	1737.94
371.802	1850.94
372.028	1766.94
372.254	1687.94
372.48	1676.94
372.706	1664.94
372.932	1663.94
373.158	1674.94
373.384	1662.94
373.61	1710.94
373.835	1814.94
374.061	1734.94
374.287	1642.94
374.513	1690.94
374.739	1749.94
374.965	1744.94
375.191	1771.94
375.416	1813.94
375.642	1750.94
375.868	1882.94
376.094	1912.94
376.319	1794.94
376.545	1714.94
376.771	1755.94
376.997	1854.94
377.222	1836.94
377.448	1736.94
377.674	1787.94
377.899	1780.94
378.125	1866.94
378.35	1871.94
378.576	1744.94
378.802	1670.94
379.027	1664.94
379.253	1667.94
379.478	1709.94
379.704	1687.94
379.929	1700.94
380.155	1722.94
380.38	1728.94
380.606	1726.94
380.831	1733.94
381.057	1795.94
381.282	1823.94
381.507	1760.94
381.733	1880.94
381.958	1933.94
382.184	1820.94
382.409	1756.94
382.634	1786.94
382.86	1767.94
383.085	1758.94
383.31	1837.94
383.535	1998.94
383.761	2088.94
383.986	2031.94
384.211	1944.94
384.436	1883.94
384.662	1953.94
384.887	2106.94
385.112	1941.94
385.337	1989.94
385.562	1960.94
385.787	1988.94
386.013	2019.94
386.238	2025.94
386.463	1978.94
386.688	2135.94
386.913	2206.94
387.138	2257.94
387.363	2028.94
387.588	2024.94
387.813	1999.94
388.038	2057.94
388.263	2088.94
388.488	2061.94
388.713	1882.94
388.938	1873.94
389.163	1896.94
389.387	1929.94
389.612	1922.94
389.837	1924.94
390.062	1960.94
390.287	1959.94
390.512	1952.94
390.736	1878.94
390.961	1919.94
391.186	1880.94
391.411	1912.94
391.636	1954.94
391.86	1981.94
392.085	1935.94
392.31	1947.94
392.534	1952.94
392.759	1996.94
392.984	1944.94
393.208	1948.94
393.433	1992.94
393.658	2071.94
393.882	2064.94
394.107	2039.94
394.331	1893.94
394.556	1955.94
394.78	1942.94
395.005	2052.94
395.229	2116.94
395.454	2213.94
395.678	2268.94
395.903	2178.94
396.127	2063.94
396.352	2062.94
396.576	2165.94
396.801	2094.94
397.025	2100.94
397.249	2133.94
397.474	2102.94
397.698	2079.94
397.922	2131.94
398.147	2259.94
398.371	2339.94
398.595	2373.94
398.82	2273.94
399.044	2265.94
399.268	2364.94
399.492	2498.94
399.717	2658.94
399.941	2677.94
400.165	2597.94
400.389	2508.94
400.613	2466.94
400.837	2706.94
401.062	3170.94
401.286	2732.94
401.51	2418.94
401.734	2571.94
401.958	2506.94
402.182	2331.94
402.406	2252.94
402.63	2294.94
402.854	2210.94
403.078	2244.94
403.302	2310.94
403.526	2342.94
403.75	2335.94
403.974	2332.94
404.198	2370.94
404.422	2410.94
404.645	2534.94
404.869	2454.94
405.093	2270.94
405.317	2269.94
405.541	2359.94
405.765	2356.94
405.988	2315.94
406.212	2376.94
406.436	2422.94
406.66	2462.94
406.883	2527.94
407.107	2779.94
407.331	3017.94
407.555	3278.94
407.778	3033.94
408.002	2557.94
408.226	2416.94
408.449	2450.94
408.673	2348.94
408.896	2403.94
409.12	2429.94
409.344	2376.94
409.567	2322.94
409.791	2316.94
410.014	2379.94
410.238	2459.94
410.461	2610.94
410.685	2413.94
410.908	2244.94
411.132	2327.94
411.355	2350.94
411.578	2265.94
411.802	2276.94
412.025	2355.94
412.249	2272.94
412.472	2227.94
412.695	2187.94
412.919	2230.94
413.142	2183.94
413.365	2252.94
413.589	2257.94
413.812	2338.94
414.035	2479.94
414.258	2292.94
414.482	2206.94
414.705	2240.94
414.928	2212.94
415.151	2224.94
415.374	2235.94
415.597	2253.94
415.821	2275.94
416.044	2386.94
416.267	2387.94
416.49	2132.94
416.713	2133.94
416.936	2172.94
417.159	2271.94
417.382	2297.94
417.605	2146.94
417.828	2263.94
418.051	2337.94
418.274	2226.94
418.497	2154.94
418.72	2142.94
418.943	2164.94
419.166	2266.94
419.389	2373.94
419.611	2250.94
419.834	2175.94
420.057	2215.94
420.28	2148.94
420.503	2130.94
420.726	2209.94
420.948	2202.94
421.171	2096.94
421.394	2121.94
421.617	2220.94
421.839	2182.94
422.062	2163.94
422.285	2124.94
422.507	2109.94
422.73	2070.94
422.953	2035.94
423.175	2045.94
423.398	2176.94
423.621	2135.94
423.843	2151.94
424.066	2192.94
424.288	2240.94
424.511	2283.94
424.733	2229.94
424.956	2010.94
425.178	2012.94
425.401	2005.94
425.623	2075.94
425.846	2072.94
426.068	2155.94
426.291	2220.94
426.513	2155.94
426.735	2174.94
426.958	2302.94
427.18	2457.94
427.402	2244.94
427.625	2285.94
427.847	2292.94
428.069	2193.94
428.292	2097.94
428.514	2027.94
428.736	2078.94
428.958	2071.94
429.181	2072.94
429.403	2297.94
429.625	2970.94
429.847	2550.94
430.069	2134.94
430.292	2319.94
430.514	2448.94
430.736	2205.94
430.958	2338.94
431.18	2229.94
431.402	2072.94
431.624	2078.94
431.846	2037.94
432.068	2083.94
432.29	2025.94
432.512	2041.94
432.734	2102.94
432.956	2184.94
433.178	2302.94
433.4	2243.94
433.622	2191.94
433.844	2176.94
434.066	2063.94
434.287	2052.94
434.509	2157.94
434.731	2237.94
434.953	2337.94
435.175	2372.94
435.397	2166.94
435.618	2236.94
435.84	2173.94
436.062	2140.94
436.284	2139.94
436.505	2197.94
436.727	2198.94
436.949	2124.94
437.17	2057.94
437.392	2055.94
437.614	2112.94
437.835	2046.94
438.057	2135.94
438.278	2262.94
438.5	2130.94
438.721	2086.94
438.943	2061.94
439.165	2057.94
439.386	2036.94
439.608	2039.94
439.829	2024.94
440.05	2058.94
440.272	2009.94
440.493	2015.94
440.715	2087.94
440.936	2190.94
441.158	2447.94
441.379	2364.94
441.6	2252.94
441.822	2217.94
442.043	2149.94
442.264	2160.94
442.486	2056.94
442.707	2036.94
442.928	2009.94
443.149	2138.94
443.371	2264.94
443.592	2333.94
443.813	2288.94
444.034	2232.94
444.255	2247.94
444.476	2309.94
444.698	2332.94
444.919	2324.94
445.14	2435.94
445.361	2379.94
445.582	2462.94
445.803	2372.94
446.024	2244.94
446.245	2320.94
446.466	2214.94
446.687	2120.94
446.908	2109.94
447.129	2046.94
447.35	2143.94
447.571	2102.94
447.792	2040.94
448.013	1985.94
448.234	2051.94
448.455	2182.94
448.675	2132.94
448.896	1977.94
449.117	1958.94
449.338	2025.94
449.559	2107.94
449.779	2225.94
450	2437.94
450.221	2667.94
450.442	2505.94
450.662	2262.94
450.883	1974.94
451.104	1906.94
451.324	1954.94
451.545	2038.94
451.766	2000.94
451.986	1902.94
452.207	1900.94
452.428	1823.94
452.648	1812.94
452.869	1919.94
453.089	2058.94
453.31	2015.94
453.53	2107.94
453.751	1987.94
453.971	1890.94
454.192	1910.94
454.412	2078.94
454.633	1994.94
454.853	1949.94
455.073	1794.94
455.294	1786.94
455.514	1812.94
455.734	1846.94
455.955	1878.94
456.175	1862.94
456.395	1838.94
456.616	1861.94
456.836	1924.94
457.056	1906.94
457.276	1888.94
457.497	1874.94
457.717	1790.94
457.937	1805.94
458.157	1852.94
458.377	1865.94
458.598	1869.94
458.818	1878.94
459.038	1985.94
459.258	2084.94
459.478	2089.94
459.698	2003.94
459.918	2087.94
460.138	2210.94
460.358	2246.94
460.578	2195.94
460.798	2285.94
461.018	2432.94
461.238	2289.94
461.458	2236.94
461.678	2234.94
461.898	2141.94
462.118	2086.94
462.338	2204.94
462.558	2250.94
462.777	2215.94
462.997	2304.94
463.217	2478.94
463.437	2403.94
463.657	2246.94
463.876	2207.94
464.096	2204.94
464.316	2245.94
464.536	2312.94
464.755	2308.94
464.975	2361.94
465.195	2315.94
465.414	2344.94
465.634	2318.94
465.854	2206.94
466.073	2303.94
466.293	2308.94
466.512	2027.94
466.732	2055.94
466.951	2108.94
467.171	2038.94
467.391	1982.94
467.61	1944.94
467.829	2007.94
468.049	2115.94
468.268	2422.94
468.488	2268.94
468.707	2134.94
468.927	2102.94
469.146	2024.94
469.365	1975.94
469.585	1993.94
469.804	2014.94
470.023	1997.94
470.243	2038.94
470.462	2025.94
470.681	1978.94
470.901	1988.94
471.12	2028.94
471.339	2012.94
471.558	1935.94
471.777	1877.94
471.997	1974.94
472.216	1974.94
472.435	1924.94
472.654	1914.94
472.873	2028.94
473.092	2146.94
473.311	2067.94
473.53	1938.94
473.749	1898.94
473.968	2013.94
474.187	2057.94
474.406	2233.94
474.625	2072.94
474.844	2045.94
475.063	2027.94
475.282	2096.94
475.501	2061.94
475.72	2055.94
475.939	2158.94
476.158	2069.94
476.377	2084.94
476.596	2079.94
476.814	2105.94
477.033	2103.94
477.252	2214.94
477.471	2242.94
477.69	2167.94
477.908	2144.94
478.127	2253.94
478.346	2444.94
478.564	2440.94
478.783	2383.94
479.002	2503.94
479.22	2349.94
479.439	2528.94
479.658	2835.94
479.876	2764.94
480.095	2434.94
480.313	2362.94
480.532	2295.94
480.751	2288.94
480.969	2324.94
481.188	2292.94
481.406	2275.94
481.624	2226.94
481.843	2212.94
482.061	2267.94
482.28	2293.94
482.498	2362.94
482.717	2344.94
482.935	2238.94
483.153	2295.94
483.372	2267.94
483.59	2234.94
483.808	2258.94
484.027	2332.94
484.245	2428.94
484.463	2774.94
484.681	3195.94
484.9	2500.94
485.118	2338.94
485.336	2341.94
485.554	2392.94
485.772	2543.94
485.99	2443.94
486.209	2476.94
486.427	2429.94
486.645	2416.94
486.863	2412.94
487.081	2441.94
487.299	2537.94
487.517	2429.94
487.735	2338.94
487.953	2320.94
488.171	2338.94
488.389	2328.94
488.607	2352.94
488.825	2597.94
489.043	2685.94
489.261	2399.94
489.479	2468.94
489.696	2524.94
489.914	2502.94
490.132	2446.94
490.35	2383.94
490.568	2485.94
490.786	2406.94
491.003	2306.94
491.221	2378.94
491.439	2461.94
491.657	2429.94
491.874	2431.94
492.092	2491.94
492.31	2436.94
492.527	2404.94
492.745	2430.94
492.963	2379.94
493.18	2482.94
493.398	2664.94
493.615	2748.94
493.833	2492.94
494.05	2451.94
494.268	2504.94
494.485	2514.94
494.703	2474.94
494.92	2413.94
495.138	2419.94
495.355	2473.94
495.573	2550.94
495.79	2674.94
496.008	2767.94
496.225	2554.94
496.442	2592.94
496.66	2647.94
496.877	2551.94
497.094	2647.94
497.312	2689.94
497.529	2632.94
497.746	2745.94
497.963	3140.94
498.181	3600.94
498.398	3306.94
498.615	3253.94
498.832	3166.94
499.049	3155.94
499.267	3130.94
499.484	3341.94
499.701	3627.94
499.918	3632.94
500.135	3968.94
500.352	4219.94
500.569	4183.94
500.786	4392.94
501.003	4144.94
501.22	3707.94
501.437	3660.94
501.654	3675.94
501.871	3518.94
502.088	3076.94
502.305	3126.94
502.522	3010.94
502.739	2788.94
502.956	2752.94
503.172	2710.94
503.389	2696.94
503.606	2616.94
503.823	2613.94
504.04	2623.94
504.256	2667.94
504.473	2614.94
504.69	2731.94
504.907	2611.94
505.123	2468.94
505.34	2563.94
505.557	3271.94
505.773	2812.94
505.99	2404.94
506.207	2283.94
506.423	2238.94
506.64	2201.94
506.856	2250.94
507.073	2502.94
507.289	2709.94
507.506	2568.94
507.722	2234.94
507.939	2095.94
508.155	2142.94
508.372	2181.94
508.588	2115.94
508.805	2079.94
509.021	2018.94
509.238	2086.94
509.454	2025.94
509.67	2050.94
509.887	2000.94
510.103	2004.94
510.319	2012.94
510.536	2143.94
510.752	2195.94
510.968	2165.94
511.184	2327.94
511.401	2316.94
511.617	2026.94
511.833	1976.94
512.049	1951.94
512.265	1993.94
512.481	1967.94
512.698	2019.94
512.914	2130.94
513.13	2068.94
513.346	1957.94
513.562	1978.94
513.778	1967.94
513.994	2038.94
514.21	2115.94
514.426	2125.94
514.642	2411.94
514.858	2246.94
515.074	2045.94
515.29	2005.94
515.506	2090.94
515.721	2108.94
515.937	2103.94
516.153	2342.94
516.369	2282.94
516.585	2166.94
516.801	2065.94
517.016	2059.94
517.232	2108.94
517.448	2166.94
517.664	2160.94
517.879	2196.94
518.095	2295.94
518.311	2208.94
518.527	2126.94
518.742	2031.94
518.958	1967.94
519.173	1951.94
519.389	2004.94
519.605	1993.94
519.82	2027.94
520.036	2062.94
520.251	1996.94
520.467	1997.94
520.682	2196.94
520.898	2268.94
521.113	2044.94
521.329	1921.94
521.544	2068.94
521.76	1996.94
521.975	1951.94
522.19	1887.94
522.406	1930.94
522.621	2238.94
522.836	2277.94
523.052	1898.94
523.267	1879.94
523.482	1918.94
523.698	1800.94
523.913	1765.94
524.128	1848.94
524.343	1898.94
524.559	1936.94
524.774	1801.94
524.989	1830.94
525.204	1790.94
525.419	1757.94
525.634	1748.94
525.849	1822.94
526.064	1821.94
526.28	1805.94
526.495	1775.94
526.71	1745.94
526.925	1761.94
527.14	1743.94
527.355	1719.94
527.57	1698.94
527.785	1801.94
527.999	1715.94
528.214	1698.94
528.429	1661.94
528.644	1699.94
528.859	1718.94
529.074	1703.94
529.289	1692.94
529.503	1760.94
529.718	1741.94
529.933	1729.94
530.148	1679.94
530.363	1645.94
530.577	1688.94
530.792	1708.94
531.007	1738.94
531.221	1695.94
531.436	1770.94
531.651	1802.94
531.865	1884.94
532.08	1783.94
532.295	1678.94
532.509	1630.94
532.724	1690.94
532.938	1733.94
533.153	1851.94
533.367	1795.94
533.582	1752.94
533.796	1701.94
534.011	1693.94
534.225	1698.94
534.44	1694.94
534.654	1698.94
534.868	1693.94
535.083	1718.94
535.297	1756.94
535.511	1701.94
535.726	1712.94
535.94	1670.94
536.154	1698.94
536.369	1669.94
536.583	1657.94
536.797	1598.94
537.011	1699.94
537.225	1639.94
537.44	1595.94
537.654	1688.94
537.868	1584.94
538.082	1558.94
538.296	1517.94
538.51	1530.94
538.724	1571.94
538.938	1564.94
539.153	1630.94
539.367	1624.94
539.581	1586.94
539.795	1680.94
540.009	1622.94
540.222	1633.94
540.436	1627.94
540.65	1747.94
540.864	1769.94
541.078	1720.94
541.292	1618.94
541.506	1593.94
541.72	1616.94
541.934	1639.94
542.147	1632.94
542.361	1581.94
542.575	1544.94
542.789	1556.94
543.002	1515.94
543.216	1524.94
543.43	1583.94
543.644	1687.94
543.857	1734.94
544.071	1645.94
544.285	1636.94
544.498	1578.94
544.712	1584.94
544.925	1615.94
545.139	1648.94
545.352	1557.94
545.566	1539.94
545.779	1523.94
545.993	1511.94
546.206	1558.94
546.42	1480.94
546.633	1468.94
546.847	1492.94
547.06	1507.94
547.274	1478.94
547.487	1479.94
547.7	1547.94
547.914	1534.94
548.127	1512.94
548.34	1566.94
548.554	1545.94
548.767	1519.94
548.98	1519.94
549.193	1517.94
549.407	1600.94
549.62	1607.94
549.833	1499.94
550.046	1502.94
550.259	1501.94
550.473	1498.94
550.686	1489.94
550.899	1466.94
551.112	1443.94
551.325	1448.94
551.538	1527.94
551.751	1770.94
551.964	1420.94
552.177	1409.94
552.39	1436.94
552.603	1479.94
552.816	1490.94
553.029	1547.94
553.242	1590.94
553.455	1498.94
553.667	1482.94
553.88	1505.94
554.093	1493.94
554.306	1439.94
554.519	1405.94
554.732	1411.94
554.944	1414.94
555.157	1439.94
555.37	1411.94
555.583	1428.94
555.795	1366.94
556.008	1364.94
556.221	1356.94
556.433	1326.94
556.646	1296.94
556.859	1303.94
557.071	1288.94
557.284	1274.94
557.496	1293.94
557.709	1266.94
557.921	1261.94
558.134	1266.94
558.346	1254.94
558.559	1234.94
558.771	1250.94
558.984	1228.94
559.196	1197.94
559.409	1174.94
559.621	1218.94
559.833	1200.94
560.046	1282.94
560.258	1261.94
560.47	1247.94
560.683	1238.94
560.895	1186.94
561.107	1236.94
561.32	1239.94
561.532	1262.94
561.744	1233.94
561.956	1243.94
562.168	1183.94
562.381	1179.94
562.593	1207.94
562.805	1214.94
563.017	1150.94
563.229	1185.94
563.441	1215.94
563.653	1226.94
563.865	1204.94
564.077	1172.94
564.289	1192.94
564.501	1225.94
564.713	1260.94
564.925	1267.94
565.137	1419.94
565.349	1298.94
565.561	1296.94
565.773	1266.94
565.985	1315.94
566.197	1397.94
566.408	1471.94
566.62	1496.94
566.832	1499.94
567.044	1476.94
567.255	1460.94
567.467	1488.94
567.679	1485.94
567.891	1536.94
568.102	1526.94
568.314	1495.94
568.526	1402.94
568.737	1362.94
568.949	1269.94
569.161	1211.94
569.372	1169.94
569.584	1188.94
569.795	1193.94
570.007	1122.94
570.218	1120.94
570.43	1140.94
570.641	1115.94
570.853	1104.94
571.064	1120.94
571.276	1084.94
571.487	1069.94
571.698	1080.94
571.91	1030.94
572.121	1042.94
572.333	1011.94
572.544	976.94
572.755	969.94
572.966	985.94
573.178	982.94
573.389	1011.94
573.6	1013.94
573.811	1085.94
574.023	1000.94
574.234	968.94
574.445	931.94
574.656	919.94
574.867	928.94
575.078	946.94
575.289	923.94
575.501	912.94
575.712	922.94
575.923	907.94
576.134	923.94
576.345	884.94
576.556	922.94
576.767	898.94
576.978	869.94
577.188	857.94
577.399	873.94
577.61	879.94
577.821	869.94
578.032	848.94
578.243	842.94
578.454	837.94
578.665	866.94
578.875	841.94
579.086	822.94
579.297	818.94
579.508	888.94
579.718	834.94
579.929	830.94
580.14	846.94
580.35	806.94
580.561	845.94
580.772	927.94
580.982	831.94
581.193	838.94
581.403	802.94
581.614	816.94
581.825	797.94
582.035	798.94
582.246	786.94
582.456	816.94
582.667	789.94
582.877	789.94
583.087	787.94
583.298	782.94
583.508	791.94
583.719	778.94
583.929	782.94
584.139	783.94
584.35	733.94
584.56	760.94
584.77	793.94
584.981	774.94
585.191	791.94
585.401	822.94
585.611	767.94
585.821	763.94
586.032	755.94
586.242	758.94
586.452	740.94
586.662	758.94
586.872	746.94
587.082	757.94
587.292	780.94
587.502	801.94
587.713	758.94
587.923	751.94
588.133	754.94
588.343	770.94
588.553	738.94
588.762	739.94
588.972	738.94
589.182	772.94
589.392	745.94
589.602	766.94
589.812	754.94
590.022	709.94
590.232	717.94
590.441	764.94
590.651	747.94
590.861	716.94
591.071	717.94
591.281	721.94
591.49	732.94
591.7	709.94
591.91	738.94
592.119	727.94
592.329	779.94
592.539	758.94
592.748	742.94
592.958	771.94
593.167	794.94
593.377	794.94
593.587	794.94
593.796	785.94
594.006	772.94
594.215	770.94
594.424	793.94
594.634	752.94
594.843	762.94
595.053	759.94
595.262	747.94
595.472	747.94
595.681	738.94
595.89	709.94
596.1	687.94
596.309	677.94
596.518	676.94
596.727	676.94
596.937	690.94
597.146	659.94
597.355	651.94
597.564	685.94
597.774	652.94
597.983	655.94
598.192	655.94
598.401	627.94
598.61	657.94
598.819	632.94
599.028	652.94
599.237	638.94
599.446	641.94
599.655	603.94
599.864	639.94
600.073	602.94
600.282	601.94
600.491	599.94
600.7	569.94
600.909	594.94
601.118	615.94
601.327	609.94
601.536	601.94
601.745	585.94
601.953	594.94
602.162	626.94
602.371	616.94
602.58	609.94
602.789	575.94
602.997	584.94
603.206	598.94
603.415	582.94
603.623	595.94
603.832	598.94
604.041	555.94
604.249	573.94
604.458	587.94
604.666	572.94
604.875	576.94
605.084	579.94
605.292	585.94
605.501	586.94
605.709	562.94
605.918	573.94
606.126	533.94
606.334	551.94
606.543	555.94
606.751	564.94
606.96	562.94
607.168	565.94
607.376	546.94
607.585	555.94
607.793	536.94
608.001	568.94
608.21	547.94
608.418	548.94
608.626	551.94
608.834	553.94
609.043	529.94
609.251	544.94
609.459	539.94
609.667	551.94
609.875	567.94
610.083	573.94
610.291	548.94
610.499	566.94
610.707	526.94
610.916	539.94
611.124	505.94
611.332	531.94
611.54	493.94
611.748	522.94
611.955	520.94
612.163	510.94
612.371	517.94
612.579	506.94
612.787	524.94
612.995	541.94
613.203	534.94
613.411	529.94
613.618	540.94
613.826	540.94
614.034	524.94
614.242	511.94
614.449	522.94
614.657	530.94
614.865	530.94
615.072	542.94
615.28	522.94
615.488	525.94
615.695	526.94
615.903	526.94
616.111	522.94
616.318	527.94
616.526	517.94
616.733	472.94
616.941	487.94
617.148	499.94
617.356	502.94
617.563	539.94
617.771	527.94
617.978	489.94
618.185	508.94
618.393	488.94
618.6	476.94
618.807	472.94
619.015	479.94
619.222	498.94
619.429	472.94
619.637	493.94
619.844	498.94
620.051	477.94
620.258	480.94
620.466	447.94
620.673	452.94
620.88	437.94
621.087	448.94
621.294	450.94
621.501	454.94
621.708	460.94
621.915	480.94
622.122	447.94
622.329	462.94
622.536	483.94
622.743	448.94
622.95	450.94
623.157	451.94
623.364	455.94
623.571	477.94
623.778	462.94
623.985	458.94
624.192	444.94
624.399	468.94
624.606	435.94
624.812	456.94
625.019	430.94
625.226	430.94
625.433	435.94
625.639	438.94
625.846	428.94
626.053	406.94
626.259	420.94
626.466	411.94
626.673	412.94
626.879	389.94
627.086	404.94
627.293	420.94
627.499	400.94
627.706	412.94
627.912	415.94
628.119	427.94
628.325	408.94
628.532	427.94
628.738	406.94
628.945	416.94
629.151	410.94
629.357	414.94
629.564	406.94
629.77	367.94
629.976	390.94
630.183	398.94
630.389	401.94
630.595	416.94
630.802	402.94
631.008	405.94
631.214	392.94
631.42	379.94
631.627	386.94
631.833	370.94
632.039	382.94
632.245	391.94
632.451	359.94
632.657	393.94
632.863	390.94
633.069	368.94
633.275	378.94
633.481	374.94
633.688	370.94
633.893	359.94
634.099	373.94
634.305	338.94
634.511	359.94
634.717	359.94
634.923	341.94
635.129	350.94
635.335	356.94
635.541	348.94
635.747	370.94
635.952	350.94
636.158	340.94
636.364	357.94
636.57	355.94
636.775	340.94
636.981	349.94
637.187	358.94
637.392	341.94
637.598	347.94
637.804	358.94
638.009	340.94
638.215	343.94
638.421	348.94
638.626	346.94
638.832	332.94
639.037	323.94
639.243	326.94
639.448	342.94
639.654	343.94
639.859	333.94
640.065	311.94
640.27	323.94
640.475	333.94
640.681	358.94
640.886	324.94
641.091	331.94
641.297	343.94
641.502	322.94
641.707	338.94
641.913	326.94
642.118	315.94
642.323	322.94
642.528	326.94
642.733	320.94
642.939	316.94
643.144	315.94
643.349	340.94
643.554	336.94
643.759	320.94
643.964	336.94
644.169	323.94
644.374	308.94
644.579	310.94
644.784	324.94
644.989	321.94
645.194	326.94
645.399	317.94
645.604	313.94
645.809	316.94
646.014	308.94
646.219	332.94
646.423	332.94
646.628	330.94
646.833	311.94
647.038	314.94
647.243	312.94
647.447	323.94
647.652	326.94
647.857	320.94
648.062	309.94
648.266	329.94
648.471	330.94
648.676	323.94
648.88	310.94
649.085	304.94
649.289	306.94
649.494	315.94
649.698	317.94
649.903	328.94
650.107	307.94
650.312	317.94
650.516	306.94
650.721	306.94
650.925	279.94
651.13	276.94
651.334	284.94
651.539	279.94
651.743	264.94
651.947	282.94
652.152	270.94
652.356	269.94
652.56	290.94
652.764	255.94
652.969	275.94
653.173	269.94
653.377	267.94
653.581	278.94
653.785	243.94
653.99	257.94
654.194	271.94
654.398	260.94
654.602	245.94
654.806	246.94
655.01	247.94
655.214	248.94
655.418	262.94
655.622	270.94
655.826	256.94
656.03	246.94
656.234	266.94
656.438	287.94
656.642	284.94
656.846	266.94
657.049	240.94
657.253	239.94
657.457	212.94
657.661	204.94
657.865	190.94
658.068	175.94
658.272	175.94
658.476	167.94
658.68	156.94
658.883	158.94
659.087	134.94
659.291	166.94
659.494	159.94
659.698	127.94
659.901	130.94
660.105	128.94
660.309	130.94
660.512	118.94
660.716	106.94
660.919	120.94
661.123	124.94
661.326	125.94
661.53	120.94
661.733	122.94
661.936	96.94
662.14	100.94
662.343	118.94
662.546	115.94
662.75	108.94
662.953	97.94
663.156	88.94
663.36	96.94
663.563	96.94
663.766	91.94
663.969	90.94
664.173	91.94
664.376	83.94
664.579	100.94
664.782	96.94
664.985	81.94
665.188	82.94
665.391	79.94
665.594	83.94
665.797	92.94
666	92.94
666.203	98.94
666.406	89.94
666.609	80.94
666.812	101.94
667.015	79.94
667.218	86.94
667.421	81.94
667.624	87.94
667.827	85.94
668.03	80.94
668.232	82.94
668.435	82.94
668.638	88.94
668.841	94.94
669.043	95.94
669.246	71.94
669.449	80.94
669.651	82.94
669.854	82.94
670.057	86.94
670.259	78.94
670.462	80.94
670.665	83.94
670.867	83.94
671.07	88.94
671.272	86.94
671.475	78.94
671.677	72.94
671.88	88.94
672.082	78.94
672.284	78.94
672.487	105.94
672.689	80.94
672.892	95.94
