Data from WStandard_LampEnergy5.5LIBS07252019.E.O._I.C._HRD10591_16-07-26-920.txt Node
Date: Thu Jul 25 16:07:26 EDT 2019
User: cochatt
Spectrometer: HR+D1059
Trigger mode: 1
Integration Time (sec): 1.000000E-1
Scans to average: 1
Electric dark correction enabled: true
Nonlinearity correction enabled: false
Boxcar width: 0
XAxis mode: Wavelengths
Number of Pixels in Spectrum: 2048
>>>>>Begin Spectral Data<<<<<
223.165	-29.88
223.4	-29.88
223.635	-29.88
223.869	-25.88
224.104	-13.88
224.338	-14.88
224.573	-14.88
224.808	-10.88
225.042	-4.88
225.277	2.12
225.511	18.12
225.746	-1.88
225.98	9.12
226.215	-0.88
226.449	8.12
226.683	14.12
226.918	25.12
227.152	41.12
227.387	37.12
227.621	38.12
227.856	37.12
228.09	58.12
228.324	55.12
228.559	62.12
228.793	155.12
229.027	360.12
229.262	361.12
229.496	381.12
229.73	387.12
229.964	437.12
230.199	475.12
230.433	487.12
230.667	527.12
230.901	557.12
231.136	484.12
231.37	479.12
231.604	473.12
231.838	466.12
232.072	467.12
232.306	446.12
232.541	469.12
232.775	567.12
233.009	606.12
233.243	609.12
233.477	557.12
233.711	548.12
233.945	576.12
234.179	571.12
234.413	590.12
234.647	657.12
234.881	610.12
235.115	557.12
235.349	565.12
235.583	586.12
235.817	572.12
236.051	546.12
236.285	578.12
236.519	599.12
236.753	690.12
236.987	678.12
237.221	689.12
237.455	773.12
237.689	731.12
237.922	703.12
238.156	701.12
238.39	695.12
238.624	742.12
238.858	763.12
239.091	800.12
239.325	801.12
239.559	956.12
239.793	991.12
240.027	1080.12
240.26	1086.12
240.494	791.12
240.728	731.12
240.961	739.12
241.195	754.12
241.429	837.12
241.662	839.12
241.896	795.12
242.13	795.12
242.363	858.12
242.597	954.12
242.83	902.12
243.064	917.12
243.298	963.12
243.531	951.12
243.765	945.12
243.998	961.12
244.232	849.12
244.465	798.12
244.699	795.12
244.932	913.12
245.166	1068.12
245.399	1008.12
245.633	921.12
245.866	931.12
246.099	980.12
246.333	970.12
246.566	994.12
246.8	1087.12
247.033	1220.12
247.266	1073.12
247.5	1073.12
247.733	1072.12
247.966	1161.12
248.2	1281.12
248.433	1223.12
248.666	1241.12
248.899	1365.12
249.133	1589.12
249.366	1819.12
249.599	1467.12
249.832	1288.12
250.066	1323.12
250.299	1341.12
250.532	1255.12
250.765	1102.12
250.998	1171.12
251.231	1220.12
251.465	1285.12
251.698	1211.12
251.931	1212.12
252.164	1252.12
252.397	1311.12
252.63	1303.12
252.863	1134.12
253.096	1105.12
253.329	1166.12
253.562	1214.12
253.795	1327.12
254.028	1314.12
254.261	1209.12
254.494	1184.12
254.727	1119.12
254.96	1168.12
255.193	1267.12
255.426	1448.12
255.659	1651.12
255.892	1724.12
256.124	1405.12
256.357	1352.12
256.59	1459.12
256.823	1497.12
257.056	1461.12
257.289	1769.12
257.521	1960.12
257.754	1774.12
257.987	1665.12
258.22	1825.12
258.452	1803.12
258.685	1445.12
258.918	1424.12
259.151	1407.12
259.383	1370.12
259.616	1167.12
259.849	1263.12
260.081	1388.12
260.314	1602.12
260.547	1710.12
260.779	1761.12
261.012	1682.12
261.244	1460.12
261.477	1372.12
261.71	1462.12
261.942	1439.12
262.175	1388.12
262.407	1527.12
262.64	1435.12
262.872	1300.12
263.105	1268.12
263.337	1341.12
263.57	1335.12
263.802	1318.12
264.035	1270.12
264.267	1190.12
264.499	1154.12
264.732	1258.12
264.964	1324.12
265.197	1367.12
265.429	1471.12
265.661	1601.12
265.894	1747.12
266.126	1863.12
266.358	1651.12
266.591	1707.12
266.823	1829.12
267.055	1649.12
267.287	1661.12
267.52	1619.12
267.752	1582.12
267.984	1616.12
268.216	1671.12
268.448	1727.12
268.681	1701.12
268.913	1559.12
269.145	1464.12
269.377	1425.12
269.609	1543.12
269.841	1801.12
270.073	2110.12
270.306	2317.12
270.538	2497.12
270.77	2123.12
271.002	1756.12
271.234	1700.12
271.466	1615.12
271.698	1877.12
271.93	2313.12
272.162	2281.12
272.394	2072.12
272.626	1974.12
272.858	1729.12
273.09	1476.12
273.322	1503.12
273.553	1406.12
273.785	1411.12
274.017	1486.12
274.249	1589.12
274.481	1606.12
274.713	1452.12
274.945	1452.12
275.176	1467.12
275.408	1428.12
275.64	1441.12
275.872	1396.12
276.104	1518.12
276.335	1662.12
276.567	1901.12
276.799	1945.12
277.031	1736.12
277.262	1637.12
277.494	1673.12
277.726	1895.12
277.957	1936.12
278.189	1733.12
278.421	1605.12
278.652	1527.12
278.884	1549.12
279.115	1507.12
279.347	1594.12
279.579	1497.12
279.81	1453.12
280.042	1674.12
280.273	1852.12
280.505	1830.12
280.736	1845.12
280.968	1781.12
281.199	1556.12
281.431	1483.12
281.662	1470.12
281.894	1449.12
282.125	1529.12
282.356	1591.12
282.588	1606.12
282.819	1530.12
283.051	1689.12
283.282	1835.12
283.513	1804.12
283.745	1569.12
283.976	1433.12
284.207	1432.12
284.439	1517.12
284.67	1514.12
284.901	1587.12
285.132	1609.12
285.364	1582.12
285.595	1599.12
285.826	1575.12
286.057	1527.12
286.288	1543.12
286.52	1589.12
286.751	1701.12
286.982	1790.12
287.213	1649.12
287.444	1501.12
287.675	1473.12
287.906	1569.12
288.138	1697.12
288.369	1642.12
288.6	1528.12
288.831	1493.12
289.062	1536.12
289.293	1565.12
289.524	1521.12
289.755	1612.12
289.986	1597.12
290.217	1448.12
290.448	1490.12
290.679	1549.12
290.91	1573.12
291.141	1622.12
291.371	1685.12
291.602	1663.12
291.833	1644.12
292.064	1643.12
292.295	1658.12
292.526	1695.12
292.757	1781.12
292.987	1705.12
293.218	1584.12
293.449	1695.12
293.68	1887.12
293.91	2059.12
294.141	1938.12
294.372	1818.12
294.603	1886.12
294.833	1958.12
295.064	1883.12
295.295	1677.12
295.525	1665.12
295.756	1493.12
295.987	1452.12
296.217	1467.12
296.448	1509.12
296.679	1543.12
296.909	1505.12
297.14	1513.12
297.37	1534.12
297.601	1604.12
297.831	1762.12
298.062	1762.12
298.292	1645.12
298.523	1531.12
298.753	1520.12
298.984	1578.12
299.214	1561.12
299.445	1612.12
299.675	1658.12
299.905	1607.12
300.136	1603.12
300.366	1574.12
300.597	1515.12
300.827	1514.12
301.057	1563.12
301.288	1619.12
301.518	1631.12
301.748	1661.12
301.979	1817.12
302.209	1790.12
302.439	1900.12
302.669	2022.12
302.9	1889.12
303.13	1702.12
303.36	1667.12
303.59	1716.12
303.82	1693.12
304.051	1686.12
304.281	1701.12
304.511	1658.12
304.741	1716.12
304.971	1928.12
305.201	2126.12
305.431	2002.12
305.661	1643.12
305.891	1467.12
306.121	1462.12
306.352	1529.12
306.582	1603.12
306.812	1699.12
307.042	1828.12
307.272	1801.12
307.502	1942.12
307.731	2051.12
307.961	2205.12
308.191	2023.12
308.421	1757.12
308.651	1653.12
308.881	1613.12
309.111	1613.12
309.341	1570.12
309.571	1588.12
309.8	1585.12
310.03	1613.12
310.26	1579.12
310.49	1561.12
310.72	1608.12
310.949	1655.12
311.179	1719.12
311.409	1673.12
311.639	1672.12
311.868	1590.12
312.098	1644.12
312.328	1623.12
312.557	1614.12
312.787	1655.12
313.017	1719.12
313.246	1677.12
313.476	1719.12
313.706	1731.12
313.935	1719.12
314.165	1711.12
314.394	1742.12
314.624	1867.12
314.853	1980.12
315.083	2036.12
315.312	2121.12
315.542	1961.12
315.771	1726.12
316.001	1743.12
316.23	1815.12
316.46	1847.12
316.689	1810.12
316.919	1693.12
317.148	1646.12
317.377	1651.12
317.607	1762.12
317.836	1981.12
318.065	2097.12
318.295	2027.12
318.524	1932.12
318.753	1835.12
318.983	1792.12
319.212	1782.12
319.441	1756.12
319.67	1724.12
319.9	1750.12
320.129	1861.12
320.358	1916.12
320.587	1976.12
320.816	1966.12
321.046	1943.12
321.275	1780.12
321.504	1802.12
321.733	2002.12
321.962	1941.12
322.191	1737.12
322.42	1726.12
322.649	1748.12
322.878	1770.12
323.108	1766.12
323.337	1799.12
323.566	1853.12
323.795	1821.12
324.024	1821.12
324.253	1761.12
324.482	1797.12
324.71	1753.12
324.939	1659.12
325.168	1715.12
325.397	1748.12
325.626	1838.12
325.855	1859.12
326.084	1764.12
326.313	1737.12
326.542	1765.12
326.77	1830.12
326.999	1845.12
327.228	1767.12
327.457	1649.12
327.686	1661.12
327.914	1694.12
328.143	1744.12
328.372	1763.12
328.6	1763.12
328.829	1757.12
329.058	1669.12
329.287	1703.12
329.515	1753.12
329.744	1809.12
329.972	1883.12
330.201	1963.12
330.43	1910.12
330.658	1873.12
330.887	1883.12
331.115	1839.12
331.344	1869.12
331.572	1815.12
331.801	1813.12
332.03	1832.12
332.258	1867.12
332.486	1888.12
332.715	1913.12
332.943	1891.12
333.172	1852.12
333.4	1864.12
333.629	1941.12
333.857	2007.12
334.085	2204.12
334.314	2456.12
334.542	2769.12
334.771	2569.12
334.999	2229.12
335.227	2078.12
335.455	2008.12
335.684	1945.12
335.912	2016.12
336.14	2138.12
336.369	2022.12
336.597	1907.12
336.825	1844.12
337.053	1941.12
337.281	2008.12
337.51	2117.12
337.738	2221.12
337.966	2131.12
338.194	1937.12
338.422	1845.12
338.65	1827.12
338.878	1820.12
339.106	1772.12
339.334	1766.12
339.562	1733.12
339.79	1817.12
340.018	1917.12
340.246	1958.12
340.474	1990.12
340.702	1883.12
340.93	1910.12
341.158	1891.12
341.386	1865.12
341.614	1858.12
341.842	1789.12
342.07	1825.12
342.298	1861.12
342.526	1879.12
342.754	1832.12
342.981	1801.12
343.209	1817.12
343.437	1806.12
343.665	1837.12
343.893	1849.12
344.12	1978.12
344.348	1947.12
344.576	1902.12
344.804	1838.12
345.031	1814.12
345.259	1839.12
345.487	1754.12
345.714	1707.12
345.942	1670.12
346.17	1632.12
346.397	1736.12
346.625	1793.12
346.853	1657.12
347.08	1631.12
347.308	1654.12
347.535	1735.12
347.763	1743.12
347.99	1718.12
348.218	1641.12
348.445	1642.12
348.673	1641.12
348.9	1743.12
349.128	1777.12
349.355	1839.12
349.583	1842.12
349.81	1740.12
350.037	1581.12
350.265	1580.12
350.492	1630.12
350.72	1660.12
350.947	1697.12
351.174	1733.12
351.402	1652.12
351.629	1603.12
351.856	1574.12
352.083	1516.12
352.311	1602.12
352.538	1627.12
352.765	1724.12
352.992	1749.12
353.22	1711.12
353.447	1629.12
353.674	1673.12
353.901	1678.12
354.128	1607.12
354.355	1641.12
354.583	1706.12
354.81	1727.12
355.037	1754.12
355.264	1762.12
355.491	1692.12
355.718	1717.12
355.945	1683.12
356.172	1659.12
356.399	1645.12
356.626	1638.12
356.853	1706.12
357.08	1797.12
357.307	2006.12
357.534	2019.12
357.761	1814.12
357.988	1627.12
358.215	1572.12
358.441	1595.12
358.668	1565.12
358.895	1641.12
359.122	1735.12
359.349	1876.12
359.576	1878.12
359.802	1713.12
360.029	1641.12
360.256	1601.12
360.483	1591.12
360.709	1648.12
360.936	1727.12
361.163	1790.12
361.39	1990.12
361.616	2101.12
361.843	2072.12
362.07	1960.12
362.296	1748.12
362.523	1659.12
362.749	1658.12
362.976	1700.12
363.203	1741.12
363.429	1692.12
363.656	1613.12
363.882	1656.12
364.109	1841.12
364.335	2018.12
364.562	1848.12
364.788	1785.12
365.015	1714.12
365.241	1642.12
365.468	1661.12
365.694	1729.12
365.92	1806.12
366.147	1730.12
366.373	1653.12
366.599	1618.12
366.826	1615.12
367.052	1628.12
367.278	1642.12
367.505	1683.12
367.731	1705.12
367.957	1675.12
368.184	1775.12
368.41	1829.12
368.636	1888.12
368.862	1879.12
369.089	1919.12
369.315	1835.12
369.541	1772.12
369.767	1697.12
369.993	1651.12
370.219	1657.12
370.445	1673.12
370.672	1795.12
370.898	1874.12
371.124	1871.12
371.35	1759.12
371.576	1839.12
371.802	1876.12
372.028	1748.12
372.254	1747.12
372.48	1669.12
372.706	1651.12
372.932	1685.12
373.158	1661.12
373.384	1686.12
373.61	1772.12
373.835	1831.12
374.061	1793.12
374.287	1751.12
374.513	1803.12
374.739	1718.12
374.965	1753.12
375.191	1783.12
375.416	1787.12
375.642	1849.12
375.868	1914.12
376.094	1962.12
376.319	1877.12
376.545	1759.12
376.771	1759.12
376.997	1882.12
377.222	1857.12
377.448	1807.12
377.674	1822.12
377.899	1813.12
378.125	1936.12
378.35	1938.12
378.576	1795.12
378.802	1681.12
379.027	1714.12
379.253	1715.12
379.478	1727.12
379.704	1720.12
379.929	1739.12
380.155	1706.12
380.38	1785.12
380.606	1784.12
380.831	1770.12
381.057	1846.12
381.282	1886.12
381.507	1805.12
381.733	1861.12
381.958	1984.12
382.184	1871.12
382.409	1802.12
382.634	1845.12
382.86	1829.12
383.085	1804.12
383.31	1863.12
383.535	1977.12
383.761	2155.12
383.986	2044.12
384.211	1977.12
384.436	1975.12
384.662	2043.12
384.887	2162.12
385.112	2011.12
385.337	2027.12
385.562	2019.12
385.787	1997.12
386.013	2064.12
386.238	2080.12
386.463	2012.12
386.688	2136.12
386.913	2246.12
387.138	2241.12
387.363	2071.12
387.588	2079.12
387.813	2033.12
388.038	2108.12
388.263	2103.12
388.488	2081.12
388.713	1910.12
388.938	1919.12
389.163	1921.12
389.387	1957.12
389.612	1911.12
389.837	2041.12
390.062	2035.12
390.287	1999.12
390.512	1985.12
390.736	1985.12
390.961	1938.12
391.186	1892.12
391.411	1920.12
391.636	1972.12
391.86	1989.12
392.085	1973.12
392.31	1971.12
392.534	2011.12
392.759	2013.12
392.984	1976.12
393.208	2040.12
393.433	2070.12
393.658	2138.12
393.882	2157.12
394.107	2058.12
394.331	2003.12
394.556	1969.12
394.78	1989.12
395.005	2071.12
395.229	2147.12
395.454	2323.12
395.678	2309.12
395.903	2235.12
396.127	2085.12
396.352	2105.12
396.576	2130.12
396.801	2214.12
397.025	2180.12
397.249	2157.12
397.474	2145.12
397.698	2144.12
397.922	2186.12
398.147	2326.12
398.371	2401.12
398.595	2394.12
398.82	2313.12
399.044	2329.12
399.268	2431.12
399.492	2569.12
399.717	2723.12
399.941	2733.12
400.165	2649.12
400.389	2563.12
400.613	2517.12
400.837	2813.12
401.062	3177.12
401.286	2761.12
401.51	2476.12
401.734	2553.12
401.958	2495.12
402.182	2386.12
402.406	2280.12
402.63	2225.12
402.854	2247.12
403.078	2299.12
403.302	2345.12
403.526	2352.12
403.75	2371.12
403.974	2403.12
404.198	2376.12
404.422	2477.12
404.645	2555.12
404.869	2547.12
405.093	2315.12
405.317	2293.12
405.541	2383.12
405.765	2420.12
405.988	2358.12
406.212	2430.12
406.436	2503.12
406.66	2529.12
406.883	2565.12
407.107	2814.12
407.331	3062.12
407.555	3347.12
407.778	3118.12
408.002	2603.12
408.226	2436.12
408.449	2510.12
408.673	2394.12
408.896	2447.12
409.12	2518.12
409.344	2419.12
409.567	2328.12
409.791	2363.12
410.014	2404.12
410.238	2540.12
410.461	2699.12
410.685	2418.12
410.908	2337.12
411.132	2384.12
411.355	2360.12
411.578	2313.12
411.802	2282.12
412.025	2402.12
412.249	2277.12
412.472	2243.12
412.695	2239.12
412.919	2212.12
413.142	2241.12
413.365	2284.12
413.589	2364.12
413.812	2416.12
414.035	2437.12
414.258	2320.12
414.482	2231.12
414.705	2325.12
414.928	2252.12
415.151	2225.12
415.374	2257.12
415.597	2276.12
415.821	2302.12
416.044	2386.12
416.267	2404.12
416.49	2157.12
416.713	2145.12
416.936	2268.12
417.159	2349.12
417.382	2392.12
417.605	2217.12
417.828	2286.12
418.051	2362.12
418.274	2249.12
418.497	2165.12
418.72	2175.12
418.943	2172.12
419.166	2356.12
419.389	2422.12
419.611	2295.12
419.834	2236.12
420.057	2267.12
420.28	2191.12
420.503	2184.12
420.726	2254.12
420.948	2197.12
421.171	2142.12
421.394	2204.12
421.617	2278.12
421.839	2245.12
422.062	2156.12
422.285	2137.12
422.507	2161.12
422.73	2115.12
422.953	2065.12
423.175	2089.12
423.398	2186.12
423.621	2162.12
423.843	2182.12
424.066	2266.12
424.288	2332.12
424.511	2339.12
424.733	2323.12
424.956	2103.12
425.178	2055.12
425.401	2103.12
425.623	2143.12
425.846	2099.12
426.068	2189.12
426.291	2307.12
426.513	2203.12
426.735	2232.12
426.958	2376.12
427.18	2536.12
427.402	2290.12
427.625	2355.12
427.847	2401.12
428.069	2231.12
428.292	2141.12
428.514	2111.12
428.736	2084.12
428.958	2120.12
429.181	2121.12
429.403	2383.12
429.625	2964.12
429.847	2606.12
430.069	2154.12
430.292	2389.12
430.514	2478.12
430.736	2297.12
430.958	2399.12
431.18	2325.12
431.402	2093.12
431.624	2081.12
431.846	2073.12
432.068	2064.12
432.29	2121.12
432.512	2134.12
432.734	2166.12
432.956	2235.12
433.178	2271.12
433.4	2258.12
433.622	2277.12
433.844	2147.12
434.066	2081.12
434.287	2067.12
434.509	2220.12
434.731	2231.12
434.953	2431.12
435.175	2380.12
435.397	2274.12
435.618	2214.12
435.84	2221.12
436.062	2231.12
436.284	2210.12
436.505	2192.12
436.727	2271.12
436.949	2215.12
437.17	2119.12
437.392	2173.12
437.614	2139.12
437.835	2065.12
438.057	2185.12
438.278	2310.12
438.5	2121.12
438.721	2101.12
438.943	2109.12
439.165	2126.12
439.386	2113.12
439.608	2069.12
439.829	2112.12
440.05	2108.12
440.272	2082.12
440.493	2065.12
440.715	2100.12
440.936	2217.12
441.158	2463.12
441.379	2375.12
441.6	2330.12
441.822	2291.12
442.043	2248.12
442.264	2195.12
442.486	2090.12
442.707	2118.12
442.928	2070.12
443.149	2182.12
443.371	2343.12
443.592	2419.12
443.813	2334.12
444.034	2287.12
444.255	2315.12
444.476	2356.12
444.698	2427.12
444.919	2354.12
445.14	2473.12
445.361	2445.12
445.582	2541.12
445.803	2404.12
446.024	2289.12
446.245	2398.12
446.466	2327.12
446.687	2180.12
446.908	2223.12
447.129	2189.12
447.35	2174.12
447.571	2136.12
447.792	2075.12
448.013	2012.12
448.234	2108.12
448.455	2198.12
448.675	2204.12
448.896	2056.12
449.117	2000.12
449.338	2059.12
449.559	2154.12
449.779	2270.12
450	2498.12
450.221	2719.12
450.442	2604.12
450.662	2275.12
450.883	1996.12
451.104	1977.12
451.324	2017.12
451.545	2102.12
451.766	2061.12
451.986	1958.12
452.207	1943.12
452.428	1894.12
452.648	1864.12
452.869	1948.12
453.089	2058.12
453.31	2094.12
453.53	2127.12
453.751	2059.12
453.971	1910.12
454.192	1993.12
454.412	2099.12
454.633	2035.12
454.853	1965.12
455.073	1889.12
455.294	1829.12
455.514	1838.12
455.734	1882.12
455.955	1890.12
456.175	1878.12
456.395	1914.12
456.616	1974.12
456.836	2009.12
457.056	1925.12
457.276	1933.12
457.497	1887.12
457.717	1822.12
457.937	1883.12
458.157	1936.12
458.377	1908.12
458.598	1887.12
458.818	1875.12
459.038	2013.12
459.258	2193.12
459.478	2154.12
459.698	2061.12
459.918	2108.12
460.138	2211.12
460.358	2242.12
460.578	2260.12
460.798	2350.12
461.018	2508.12
461.238	2391.12
461.458	2254.12
461.678	2267.12
461.898	2243.12
462.118	2148.12
462.338	2262.12
462.558	2291.12
462.777	2271.12
462.997	2357.12
463.217	2534.12
463.437	2491.12
463.657	2313.12
463.876	2309.12
464.096	2282.12
464.316	2258.12
464.536	2349.12
464.755	2325.12
464.975	2393.12
465.195	2264.12
465.414	2405.12
465.634	2379.12
465.854	2258.12
466.073	2412.12
466.293	2350.12
466.512	2082.12
466.732	2100.12
466.951	2137.12
467.171	2117.12
467.391	2059.12
467.61	2031.12
467.829	1999.12
468.049	2165.12
468.268	2484.12
468.488	2332.12
468.707	2215.12
468.927	2134.12
469.146	2078.12
469.365	2014.12
469.585	2061.12
469.804	2014.12
470.023	2069.12
470.243	2100.12
470.462	2052.12
470.681	1979.12
470.901	2092.12
471.12	2102.12
471.339	2044.12
471.558	2001.12
471.777	1998.12
471.997	2041.12
472.216	2042.12
472.435	1957.12
472.654	1965.12
472.873	2127.12
473.092	2231.12
473.311	2051.12
473.53	1939.12
473.749	1958.12
473.968	2041.12
474.187	2142.12
474.406	2282.12
474.625	2146.12
474.844	2084.12
475.063	2043.12
475.282	2158.12
475.501	2084.12
475.72	2088.12
475.939	2242.12
476.158	2143.12
476.377	2075.12
476.596	2122.12
476.814	2179.12
477.033	2185.12
477.252	2283.12
477.471	2315.12
477.69	2198.12
477.908	2214.12
478.127	2323.12
478.346	2496.12
478.564	2551.12
478.783	2471.12
479.002	2596.12
479.22	2464.12
479.439	2557.12
479.658	2921.12
479.876	2914.12
480.095	2514.12
480.313	2389.12
480.532	2316.12
480.751	2349.12
480.969	2386.12
481.188	2329.12
481.406	2297.12
481.624	2281.12
481.843	2277.12
482.061	2359.12
482.28	2365.12
482.498	2429.12
482.717	2399.12
482.935	2316.12
483.153	2313.12
483.372	2268.12
483.59	2310.12
483.808	2308.12
484.027	2361.12
484.245	2534.12
484.463	2883.12
484.681	3328.12
484.9	2561.12
485.118	2384.12
485.336	2327.12
485.554	2423.12
485.772	2531.12
485.99	2522.12
486.209	2505.12
486.427	2429.12
486.645	2509.12
486.863	2433.12
487.081	2487.12
487.299	2590.12
487.517	2522.12
487.735	2430.12
487.953	2398.12
488.171	2353.12
488.389	2367.12
488.607	2395.12
488.825	2624.12
489.043	2668.12
489.261	2435.12
489.479	2508.12
489.696	2576.12
489.914	2569.12
490.132	2452.12
490.35	2404.12
490.568	2587.12
490.786	2475.12
491.003	2357.12
491.221	2414.12
491.439	2526.12
491.657	2500.12
491.874	2505.12
492.092	2514.12
492.31	2486.12
492.527	2482.12
492.745	2456.12
492.963	2457.12
493.18	2595.12
493.398	2747.12
493.615	2837.12
493.833	2575.12
494.05	2521.12
494.268	2531.12
494.485	2574.12
494.703	2521.12
494.92	2441.12
495.138	2483.12
495.355	2542.12
495.573	2612.12
495.79	2775.12
496.008	2831.12
496.225	2622.12
496.442	2605.12
496.66	2646.12
496.877	2602.12
497.094	2763.12
497.312	2802.12
497.529	2747.12
497.746	2855.12
497.963	3247.12
498.181	3683.12
498.398	3404.12
498.615	3362.12
498.832	3253.12
499.049	3175.12
499.267	3183.12
499.484	3437.12
499.701	3665.12
499.918	3710.12
500.135	3965.12
500.352	4313.12
500.569	4260.12
500.786	4503.12
501.003	4159.12
501.22	3837.12
501.437	3737.12
501.654	3711.12
501.871	3701.12
502.088	3207.12
502.305	3207.12
502.522	3116.12
502.739	2849.12
502.956	2826.12
503.172	2739.12
503.389	2672.12
503.606	2654.12
503.823	2615.12
504.04	2663.12
504.256	2612.12
504.473	2702.12
504.69	2758.12
504.907	2637.12
505.123	2515.12
505.34	2582.12
505.557	3373.12
505.773	2912.12
505.99	2451.12
506.207	2310.12
506.423	2276.12
506.64	2236.12
506.856	2233.12
507.073	2571.12
507.289	2801.12
507.506	2700.12
507.722	2283.12
507.939	2191.12
508.155	2195.12
508.372	2263.12
508.588	2162.12
508.805	2117.12
509.021	2065.12
509.238	2061.12
509.454	2057.12
509.67	2078.12
509.887	2056.12
510.103	2075.12
510.319	2069.12
510.536	2154.12
510.752	2259.12
510.968	2259.12
511.184	2376.12
511.401	2383.12
511.617	2082.12
511.833	1994.12
512.049	2003.12
512.265	2011.12
512.481	2064.12
512.698	2043.12
512.914	2276.12
513.13	2164.12
513.346	2017.12
513.562	1963.12
513.778	1958.12
513.994	2100.12
514.21	2187.12
514.426	2227.12
514.642	2435.12
514.858	2337.12
515.074	2127.12
515.29	2034.12
515.506	2123.12
515.721	2113.12
515.937	2133.12
516.153	2437.12
516.369	2313.12
516.585	2242.12
516.801	2126.12
517.016	2081.12
517.232	2185.12
517.448	2227.12
517.664	2240.12
517.879	2207.12
518.095	2364.12
518.311	2243.12
518.527	2127.12
518.742	2123.12
518.958	2015.12
519.173	2007.12
519.389	2054.12
519.605	2053.12
519.82	2098.12
520.036	2118.12
520.251	2055.12
520.467	2058.12
520.682	2204.12
520.898	2303.12
521.113	2069.12
521.329	2005.12
521.544	2137.12
521.76	2062.12
521.975	1988.12
522.19	1953.12
522.406	1919.12
522.621	2299.12
522.836	2361.12
523.052	1930.12
523.267	1907.12
523.482	1935.12
523.698	1848.12
523.913	1793.12
524.128	1878.12
524.343	1961.12
524.559	1989.12
524.774	1897.12
524.989	1834.12
525.204	1826.12
525.419	1826.12
525.634	1869.12
525.849	1866.12
526.064	1837.12
526.28	1850.12
526.495	1782.12
526.71	1749.12
526.925	1805.12
527.14	1795.12
527.355	1779.12
527.57	1738.12
527.785	1807.12
527.999	1696.12
528.214	1681.12
528.429	1668.12
528.644	1721.12
528.859	1759.12
529.074	1750.12
529.289	1740.12
529.503	1766.12
529.718	1763.12
529.933	1713.12
530.148	1705.12
530.363	1738.12
530.577	1738.12
530.792	1757.12
531.007	1762.12
531.221	1721.12
531.436	1783.12
531.651	1843.12
531.865	1909.12
532.08	1791.12
532.295	1717.12
532.509	1668.12
532.724	1669.12
532.938	1750.12
533.153	1896.12
533.367	1782.12
533.582	1770.12
533.796	1687.12
534.011	1713.12
534.225	1778.12
534.44	1713.12
534.654	1687.12
534.868	1688.12
535.083	1782.12
535.297	1787.12
535.511	1735.12
535.726	1707.12
535.94	1677.12
536.154	1710.12
536.369	1687.12
536.583	1654.12
536.797	1638.12
537.011	1701.12
537.225	1688.12
537.44	1615.12
537.654	1715.12
537.868	1646.12
538.082	1574.12
538.296	1578.12
538.51	1574.12
538.724	1612.12
538.938	1576.12
539.153	1629.12
539.367	1661.12
539.581	1644.12
539.795	1744.12
540.009	1711.12
540.222	1657.12
540.436	1673.12
540.65	1852.12
540.864	1826.12
541.078	1728.12
541.292	1614.12
541.506	1631.12
541.72	1652.12
541.934	1641.12
542.147	1676.12
542.361	1688.12
542.575	1579.12
542.789	1555.12
543.002	1517.12
543.216	1568.12
543.43	1686.12
543.644	1693.12
543.857	1777.12
544.071	1707.12
544.285	1657.12
544.498	1636.12
544.712	1608.12
544.925	1602.12
545.139	1687.12
545.352	1627.12
545.566	1557.12
545.779	1545.12
545.993	1556.12
546.206	1543.12
546.42	1511.12
546.633	1523.12
546.847	1506.12
547.06	1501.12
547.274	1525.12
547.487	1517.12
547.7	1545.12
547.914	1549.12
548.127	1585.12
548.34	1555.12
548.554	1555.12
548.767	1557.12
548.98	1572.12
549.193	1540.12
549.407	1623.12
549.62	1658.12
549.833	1532.12
550.046	1537.12
550.259	1562.12
550.473	1511.12
550.686	1543.12
550.899	1505.12
551.112	1471.12
551.325	1442.12
551.538	1541.12
551.751	1803.12
551.964	1482.12
552.177	1441.12
552.39	1464.12
552.603	1508.12
552.816	1511.12
553.029	1563.12
553.242	1628.12
553.455	1542.12
553.667	1516.12
553.88	1517.12
554.093	1527.12
554.306	1430.12
554.519	1411.12
554.732	1393.12
554.944	1449.12
555.157	1481.12
555.37	1433.12
555.583	1428.12
555.795	1396.12
556.008	1358.12
556.221	1333.12
556.433	1327.12
556.646	1315.12
556.859	1296.12
557.071	1307.12
557.284	1279.12
557.496	1304.12
557.709	1285.12
557.921	1289.12
558.134	1286.12
558.346	1291.12
558.559	1247.12
558.771	1279.12
558.984	1233.12
559.196	1177.12
559.409	1240.12
559.621	1243.12
559.833	1231.12
560.046	1297.12
560.258	1281.12
560.47	1269.12
560.683	1273.12
560.895	1285.12
561.107	1290.12
561.32	1258.12
561.532	1312.12
561.744	1279.12
561.956	1255.12
562.168	1241.12
562.381	1210.12
562.593	1209.12
562.805	1220.12
563.017	1212.12
563.229	1285.12
563.441	1298.12
563.653	1213.12
563.865	1226.12
564.077	1207.12
564.289	1230.12
564.501	1229.12
564.713	1279.12
564.925	1295.12
565.137	1407.12
565.349	1317.12
565.561	1313.12
565.773	1297.12
565.985	1334.12
566.197	1437.12
566.408	1463.12
566.62	1477.12
566.832	1480.12
567.044	1490.12
567.255	1467.12
567.467	1489.12
567.679	1539.12
567.891	1542.12
568.102	1553.12
568.314	1512.12
568.526	1441.12
568.737	1385.12
568.949	1310.12
569.161	1255.12
569.372	1190.12
569.584	1192.12
569.795	1172.12
570.007	1174.12
570.218	1132.12
570.43	1121.12
570.641	1113.12
570.853	1096.12
571.064	1098.12
571.276	1082.12
571.487	1083.12
571.698	1040.12
571.91	1049.12
572.121	1010.12
572.333	1015.12
572.544	1035.12
572.755	990.12
572.966	1003.12
573.178	998.12
573.389	972.12
573.6	1040.12
573.811	1089.12
574.023	1017.12
574.234	1007.12
574.445	983.12
574.656	916.12
574.867	936.12
575.078	954.12
575.289	918.12
575.501	925.12
575.712	901.12
575.923	931.12
576.134	950.12
576.345	893.12
576.556	918.12
576.767	878.12
576.978	882.12
577.188	895.12
577.399	887.12
577.61	855.12
577.821	874.12
578.032	862.12
578.243	872.12
578.454	866.12
578.665	846.12
578.875	860.12
579.086	851.12
579.297	850.12
579.508	867.12
579.718	842.12
579.929	841.12
580.14	818.12
580.35	821.12
580.561	868.12
580.772	933.12
580.982	885.12
581.193	822.12
581.403	825.12
581.614	820.12
581.825	788.12
582.035	811.12
582.246	789.12
582.456	835.12
582.667	816.12
582.877	805.12
583.087	781.12
583.298	772.12
583.508	800.12
583.719	788.12
583.929	782.12
584.139	787.12
584.35	798.12
584.56	770.12
584.77	780.12
584.981	806.12
585.191	812.12
585.401	814.12
585.611	780.12
585.821	774.12
586.032	764.12
586.242	779.12
586.452	746.12
586.662	773.12
586.872	767.12
587.082	764.12
587.292	797.12
587.502	773.12
587.713	789.12
587.923	744.12
588.133	774.12
588.343	747.12
588.553	776.12
588.762	751.12
588.972	767.12
589.182	763.12
589.392	786.12
589.602	753.12
589.812	743.12
590.022	741.12
590.232	741.12
590.441	768.12
590.651	756.12
590.861	772.12
591.071	731.12
591.281	728.12
591.49	769.12
591.7	729.12
591.91	754.12
592.119	733.12
592.329	754.12
592.539	779.12
592.748	771.12
592.958	742.12
593.167	780.12
593.377	774.12
593.587	810.12
593.796	789.12
594.006	772.12
594.215	777.12
594.424	793.12
594.634	770.12
594.843	742.12
595.053	783.12
595.262	747.12
595.472	741.12
595.681	746.12
595.89	721.12
596.1	712.12
596.309	708.12
596.518	691.12
596.727	691.12
596.937	715.12
597.146	691.12
597.355	626.12
597.564	677.12
597.774	655.12
597.983	663.12
598.192	674.12
598.401	635.12
598.61	649.12
598.819	635.12
599.028	622.12
599.237	638.12
599.446	636.12
599.655	619.12
599.864	630.12
600.073	609.12
600.282	619.12
600.491	599.12
600.7	610.12
600.909	612.12
601.118	598.12
601.327	613.12
601.536	637.12
601.745	605.12
601.953	587.12
602.162	605.12
602.371	612.12
602.58	622.12
602.789	597.12
602.997	600.12
603.206	605.12
603.415	599.12
603.623	563.12
603.832	583.12
604.041	573.12
604.249	561.12
604.458	585.12
604.666	577.12
604.875	570.12
605.084	569.12
605.292	611.12
605.501	603.12
605.709	581.12
605.918	561.12
606.126	548.12
606.334	555.12
606.543	547.12
606.751	567.12
606.96	554.12
607.168	558.12
607.376	557.12
607.585	546.12
607.793	552.12
608.001	539.12
608.21	557.12
608.418	553.12
608.626	532.12
608.834	555.12
609.043	566.12
609.251	571.12
609.459	533.12
609.667	559.12
609.875	537.12
610.083	556.12
610.291	578.12
610.499	585.12
610.707	554.12
610.916	551.12
611.124	523.12
611.332	545.12
611.54	545.12
611.748	528.12
611.955	554.12
612.163	524.12
612.371	511.12
612.579	535.12
612.787	523.12
612.995	538.12
613.203	545.12
613.411	513.12
613.618	533.12
613.826	519.12
614.034	533.12
614.242	511.12
614.449	530.12
614.657	546.12
614.865	509.12
615.072	524.12
615.28	519.12
615.488	520.12
615.695	552.12
615.903	528.12
616.111	530.12
616.318	522.12
616.526	528.12
616.733	533.12
616.941	507.12
617.148	531.12
617.356	512.12
617.563	523.12
617.771	514.12
617.978	498.12
618.185	532.12
618.393	519.12
618.6	522.12
618.807	485.12
619.015	513.12
619.222	509.12
619.429	487.12
619.637	471.12
619.844	495.12
620.051	504.12
620.258	473.12
620.466	478.12
620.673	460.12
620.88	467.12
621.087	454.12
621.294	461.12
621.501	471.12
621.708	483.12
621.915	469.12
622.122	505.12
622.329	487.12
622.536	475.12
622.743	461.12
622.95	469.12
623.157	457.12
623.364	463.12
623.571	443.12
623.778	457.12
623.985	466.12
624.192	455.12
624.399	425.12
624.606	431.12
624.812	449.12
625.019	439.12
625.226	412.12
625.433	421.12
625.639	439.12
625.846	416.12
626.053	410.12
626.259	433.12
626.466	423.12
626.673	414.12
626.879	421.12
627.086	403.12
627.293	430.12
627.499	414.12
627.706	424.12
627.912	431.12
628.119	413.12
628.325	428.12
628.532	437.12
628.738	407.12
628.945	417.12
629.151	415.12
629.357	423.12
629.564	416.12
629.77	420.12
629.976	412.12
630.183	393.12
630.389	402.12
630.595	409.12
630.802	404.12
631.008	404.12
631.214	388.12
631.42	390.12
631.627	385.12
631.833	374.12
632.039	361.12
632.245	369.12
632.451	367.12
632.657	397.12
632.863	371.12
633.069	374.12
633.275	381.12
633.481	380.12
633.688	388.12
633.893	374.12
634.099	363.12
634.305	362.12
634.511	366.12
634.717	358.12
634.923	348.12
635.129	335.12
635.335	353.12
635.541	365.12
635.747	349.12
635.952	351.12
636.158	350.12
636.364	369.12
636.57	348.12
636.775	356.12
636.981	355.12
637.187	354.12
637.392	340.12
637.598	345.12
637.804	343.12
638.009	366.12
638.215	349.12
638.421	358.12
638.626	340.12
638.832	335.12
639.037	338.12
639.243	357.12
639.448	326.12
639.654	334.12
639.859	341.12
640.065	337.12
640.27	347.12
640.475	344.12
640.681	315.12
640.886	331.12
641.091	353.12
641.297	343.12
641.502	320.12
641.707	321.12
641.913	342.12
642.118	331.12
642.323	326.12
642.528	325.12
642.733	325.12
642.939	318.12
643.144	317.12
643.349	340.12
643.554	333.12
643.759	313.12
643.964	311.12
644.169	334.12
644.374	303.12
644.579	309.12
644.784	313.12
644.989	296.12
645.194	309.12
645.399	313.12
645.604	317.12
645.809	312.12
646.014	315.12
646.219	316.12
646.423	321.12
646.628	323.12
646.833	325.12
647.038	330.12
647.243	322.12
647.447	311.12
647.652	309.12
647.857	330.12
648.062	309.12
648.266	327.12
648.471	323.12
648.676	328.12
648.88	313.12
649.085	324.12
649.289	334.12
649.494	312.12
649.698	308.12
649.903	290.12
650.107	289.12
650.312	315.12
650.516	304.12
650.721	306.12
650.925	292.12
651.13	291.12
651.334	279.12
651.539	278.12
651.743	258.12
651.947	277.12
652.152	279.12
652.356	263.12
652.56	265.12
652.764	250.12
652.969	267.12
653.173	250.12
653.377	266.12
653.581	253.12
653.785	267.12
653.99	233.12
654.194	252.12
654.398	245.12
654.602	236.12
654.806	236.12
655.01	233.12
655.214	235.12
655.418	243.12
655.622	257.12
655.826	245.12
656.03	254.12
656.234	269.12
656.438	285.12
656.642	274.12
656.846	256.12
657.049	241.12
657.253	223.12
657.457	225.12
657.661	209.12
657.865	187.12
658.068	171.12
658.272	166.12
658.476	164.12
658.68	167.12
658.883	145.12
659.087	157.12
659.291	131.12
659.494	144.12
659.698	141.12
659.901	130.12
660.105	123.12
660.309	116.12
660.512	120.12
660.716	129.12
660.919	110.12
661.123	123.12
661.326	110.12
661.53	103.12
661.733	102.12
661.936	110.12
662.14	96.12
662.343	96.12
662.546	86.12
662.75	90.12
662.953	103.12
663.156	104.12
663.36	105.12
663.563	97.12
663.766	89.12
663.969	80.12
664.173	91.12
664.376	92.12
664.579	79.12
664.782	94.12
664.985	85.12
665.188	90.12
665.391	83.12
665.594	95.12
665.797	102.12
666	76.12
666.203	84.12
666.406	83.12
666.609	92.12
666.812	82.12
667.015	73.12
667.218	84.12
667.421	89.12
667.624	83.12
667.827	90.12
668.03	79.12
668.232	84.12
668.435	93.12
668.638	93.12
668.841	79.12
669.043	82.12
669.246	74.12
669.449	68.12
669.651	79.12
669.854	79.12
670.057	77.12
670.259	87.12
670.462	75.12
670.665	90.12
670.867	94.12
671.07	77.12
671.272	78.12
671.475	79.12
671.677	85.12
671.88	91.12
672.082	82.12
672.284	80.12
672.487	76.12
672.689	78.12
672.892	77.12
