Data from WStandard_LampEnergy5.5LIBS07252019.E.O._I.C._HRD10591_16-08-04-920.txt Node
Date: Thu Jul 25 16:08:04 EDT 2019
User: cochatt
Spectrometer: HR+D1059
Trigger mode: 1
Integration Time (sec): 1.000000E-1
Scans to average: 1
Electric dark correction enabled: true
Nonlinearity correction enabled: false
Boxcar width: 0
XAxis mode: Wavelengths
Number of Pixels in Spectrum: 2048
>>>>>Begin Spectral Data<<<<<
223.165	-14.12
223.4	-14.12
223.635	-14.12
223.869	-24.12
224.104	-14.12
224.338	-18.12
224.573	-24.12
224.808	-18.12
225.042	0.88
225.277	-14.12
225.511	-16.12
225.746	0.88
225.98	9.88
226.215	20.88
226.449	11.88
226.683	32.88
226.918	28.88
227.152	36.88
227.387	44.88
227.621	38.88
227.856	53.88
228.09	39.88
228.324	49.88
228.559	58.88
228.793	143.88
229.027	356.88
229.262	377.88
229.496	376.88
229.73	416.88
229.964	452.88
230.199	466.88
230.433	465.88
230.667	520.88
230.901	546.88
231.136	475.88
231.37	475.88
231.604	468.88
231.838	475.88
232.072	501.88
232.306	446.88
232.541	492.88
232.775	574.88
233.009	614.88
233.243	626.88
233.477	547.88
233.711	542.88
233.945	593.88
234.179	551.88
234.413	613.88
234.647	661.88
234.881	613.88
235.115	569.88
235.349	562.88
235.583	607.88
235.817	580.88
236.051	564.88
236.285	581.88
236.519	591.88
236.753	689.88
236.987	692.88
237.221	697.88
237.455	790.88
237.689	734.88
237.922	691.88
238.156	672.88
238.39	663.88
238.624	702.88
238.858	776.88
239.091	798.88
239.325	824.88
239.559	944.88
239.793	953.88
240.027	1050.88
240.26	1072.88
240.494	766.88
240.728	723.88
240.961	727.88
241.195	758.88
241.429	827.88
241.662	833.88
241.896	778.88
242.13	776.88
242.363	866.88
242.597	942.88
242.83	900.88
243.064	916.88
243.298	1003.88
243.531	971.88
243.765	944.88
243.998	940.88
244.232	849.88
244.465	798.88
244.699	804.88
244.932	898.88
245.166	1086.88
245.399	1010.88
245.633	939.88
245.866	904.88
246.099	960.88
246.333	977.88
246.566	961.88
246.8	1070.88
247.033	1191.88
247.266	1109.88
247.5	1078.88
247.733	1095.88
247.966	1152.88
248.2	1282.88
248.433	1202.88
248.666	1246.88
248.899	1387.88
249.133	1592.88
249.366	1794.88
249.599	1489.88
249.832	1305.88
250.066	1336.88
250.299	1338.88
250.532	1242.88
250.765	1121.88
250.998	1190.88
251.231	1204.88
251.465	1266.88
251.698	1205.88
251.931	1227.88
252.164	1239.88
252.397	1301.88
252.63	1303.88
252.863	1104.88
253.096	1120.88
253.329	1186.88
253.562	1219.88
253.795	1362.88
254.028	1339.88
254.261	1186.88
254.494	1206.88
254.727	1138.88
254.96	1184.88
255.193	1318.88
255.426	1450.88
255.659	1687.88
255.892	1744.88
256.124	1405.88
256.357	1326.88
256.59	1476.88
256.823	1485.88
257.056	1470.88
257.289	1779.88
257.521	1951.88
257.754	1751.88
257.987	1638.88
258.22	1840.88
258.452	1756.88
258.685	1404.88
258.918	1399.88
259.151	1418.88
259.383	1355.88
259.616	1207.88
259.849	1269.88
260.081	1432.88
260.314	1600.88
260.547	1802.88
260.779	1784.88
261.012	1678.88
261.244	1483.88
261.477	1377.88
261.71	1484.88
261.942	1428.88
262.175	1388.88
262.407	1496.88
262.64	1416.88
262.872	1322.88
263.105	1250.88
263.337	1301.88
263.57	1324.88
263.802	1354.88
264.035	1272.88
264.267	1191.88
264.499	1139.88
264.732	1240.88
264.964	1304.88
265.197	1401.88
265.429	1431.88
265.661	1618.88
265.894	1794.88
266.126	1860.88
266.358	1639.88
266.591	1703.88
266.823	1853.88
267.055	1642.88
267.287	1643.88
267.52	1614.88
267.752	1588.88
267.984	1566.88
268.216	1694.88
268.448	1698.88
268.681	1670.88
268.913	1591.88
269.145	1464.88
269.377	1459.88
269.609	1579.88
269.841	1833.88
270.073	2044.88
270.306	2333.88
270.538	2518.88
270.77	2092.88
271.002	1764.88
271.234	1699.88
271.466	1661.88
271.698	1871.88
271.93	2300.88
272.162	2270.88
272.394	2058.88
272.626	1950.88
272.858	1730.88
273.09	1481.88
273.322	1485.88
273.553	1396.88
273.785	1442.88
274.017	1475.88
274.249	1586.88
274.481	1628.88
274.713	1488.88
274.945	1445.88
275.176	1447.88
275.408	1400.88
275.64	1407.88
275.872	1400.88
276.104	1505.88
276.335	1702.88
276.567	1924.88
276.799	1952.88
277.031	1757.88
277.262	1606.88
277.494	1705.88
277.726	1889.88
277.957	1926.88
278.189	1721.88
278.421	1574.88
278.652	1512.88
278.884	1490.88
279.115	1523.88
279.347	1552.88
279.579	1499.88
279.81	1485.88
280.042	1657.88
280.273	1827.88
280.505	1808.88
280.736	1872.88
280.968	1742.88
281.199	1555.88
281.431	1458.88
281.662	1451.88
281.894	1456.88
282.125	1547.88
282.356	1550.88
282.588	1603.88
282.819	1540.88
283.051	1734.88
283.282	1826.88
283.513	1794.88
283.745	1555.88
283.976	1422.88
284.207	1445.88
284.439	1482.88
284.67	1548.88
284.901	1540.88
285.132	1578.88
285.364	1574.88
285.595	1612.88
285.826	1568.88
286.057	1544.88
286.288	1530.88
286.52	1545.88
286.751	1755.88
286.982	1789.88
287.213	1610.88
287.444	1499.88
287.675	1506.88
287.906	1571.88
288.138	1690.88
288.369	1639.88
288.6	1555.88
288.831	1489.88
289.062	1485.88
289.293	1515.88
289.524	1538.88
289.755	1623.88
289.986	1602.88
290.217	1491.88
290.448	1509.88
290.679	1601.88
290.91	1552.88
291.141	1615.88
291.371	1658.88
291.602	1687.88
291.833	1619.88
292.064	1715.88
292.295	1652.88
292.526	1685.88
292.757	1800.88
292.987	1697.88
293.218	1576.88
293.449	1686.88
293.68	1915.88
293.91	2127.88
294.141	1948.88
294.372	1774.88
294.603	1814.88
294.833	1957.88
295.064	1865.88
295.295	1677.88
295.525	1659.88
295.756	1520.88
295.987	1449.88
296.217	1492.88
296.448	1567.88
296.679	1542.88
296.909	1543.88
297.14	1501.88
297.37	1538.88
297.601	1621.88
297.831	1753.88
298.062	1758.88
298.292	1639.88
298.523	1554.88
298.753	1552.88
298.984	1593.88
299.214	1556.88
299.445	1607.88
299.675	1654.88
299.905	1652.88
300.136	1608.88
300.366	1562.88
300.597	1500.88
300.827	1518.88
301.057	1583.88
301.288	1654.88
301.518	1633.88
301.748	1682.88
301.979	1740.88
302.209	1766.88
302.439	1933.88
302.669	2048.88
302.9	1873.88
303.13	1705.88
303.36	1706.88
303.59	1707.88
303.82	1707.88
304.051	1689.88
304.281	1678.88
304.511	1628.88
304.741	1770.88
304.971	1970.88
305.201	2132.88
305.431	1967.88
305.661	1620.88
305.891	1478.88
306.121	1462.88
306.352	1519.88
306.582	1621.88
306.812	1741.88
307.042	1836.88
307.272	1850.88
307.502	1883.88
307.731	2023.88
307.961	2184.88
308.191	2053.88
308.421	1728.88
308.651	1635.88
308.881	1634.88
309.111	1627.88
309.341	1566.88
309.571	1593.88
309.8	1621.88
310.03	1568.88
310.26	1595.88
310.49	1584.88
310.72	1618.88
310.949	1679.88
311.179	1714.88
311.409	1693.88
311.639	1664.88
311.868	1586.88
312.098	1613.88
312.328	1608.88
312.557	1607.88
312.787	1646.88
313.017	1711.88
313.246	1697.88
313.476	1697.88
313.706	1732.88
313.935	1710.88
314.165	1724.88
314.394	1778.88
314.624	1876.88
314.853	1946.88
315.083	2060.88
315.312	2090.88
315.542	1955.88
315.771	1741.88
316.001	1708.88
316.23	1867.88
316.46	1814.88
316.689	1776.88
316.919	1718.88
317.148	1656.88
317.377	1687.88
317.607	1750.88
317.836	1988.88
318.065	2056.88
318.295	1987.88
318.524	1911.88
318.753	1846.88
318.983	1850.88
319.212	1802.88
319.441	1775.88
319.67	1718.88
319.9	1773.88
320.129	1873.88
320.358	1898.88
320.587	1972.88
320.816	2000.88
321.046	1914.88
321.275	1800.88
321.504	1812.88
321.733	1954.88
321.962	1972.88
322.191	1779.88
322.42	1765.88
322.649	1705.88
322.878	1754.88
323.108	1761.88
323.337	1832.88
323.566	1876.88
323.795	1800.88
324.024	1798.88
324.253	1748.88
324.482	1845.88
324.71	1765.88
324.939	1651.88
325.168	1658.88
325.397	1715.88
325.626	1818.88
325.855	1823.88
326.084	1733.88
326.313	1736.88
326.542	1779.88
326.77	1861.88
326.999	1854.88
327.228	1752.88
327.457	1687.88
327.686	1671.88
327.914	1725.88
328.143	1809.88
328.372	1764.88
328.6	1766.88
328.829	1718.88
329.058	1708.88
329.287	1705.88
329.515	1756.88
329.744	1764.88
329.972	1871.88
330.201	1978.88
330.43	1913.88
330.658	1848.88
330.887	1842.88
331.115	1813.88
331.344	1929.88
331.572	1824.88
331.801	1840.88
332.03	1863.88
332.258	1862.88
332.486	1888.88
332.715	1903.88
332.943	1908.88
333.172	1832.88
333.4	1889.88
333.629	1916.88
333.857	2010.88
334.085	2193.88
334.314	2496.88
334.542	2803.88
334.771	2558.88
334.999	2247.88
335.227	2130.88
335.455	2017.88
335.684	1976.88
335.912	1988.88
336.14	2133.88
336.369	2046.88
336.597	1926.88
336.825	1854.88
337.053	1932.88
337.281	2029.88
337.51	2095.88
337.738	2227.88
337.966	2159.88
338.194	1939.88
338.422	1865.88
338.65	1851.88
338.878	1831.88
339.106	1800.88
339.334	1778.88
339.562	1721.88
339.79	1756.88
340.018	1898.88
340.246	1974.88
340.474	1958.88
340.702	1952.88
340.93	1916.88
341.158	1909.88
341.386	1855.88
341.614	1862.88
341.842	1855.88
342.07	1842.88
342.298	1846.88
342.526	1830.88
342.754	1839.88
342.981	1835.88
343.209	1799.88
343.437	1818.88
343.665	1784.88
343.893	1845.88
344.12	1948.88
344.348	2010.88
344.576	1899.88
344.804	1828.88
345.031	1866.88
345.259	1862.88
345.487	1804.88
345.714	1746.88
345.942	1704.88
346.17	1710.88
346.397	1732.88
346.625	1774.88
346.853	1650.88
347.08	1609.88
347.308	1664.88
347.535	1682.88
347.763	1783.88
347.99	1735.88
348.218	1664.88
348.445	1638.88
348.673	1670.88
348.9	1741.88
349.128	1752.88
349.355	1832.88
349.583	1824.88
349.81	1701.88
350.037	1575.88
350.265	1572.88
350.492	1619.88
350.72	1655.88
350.947	1730.88
351.174	1756.88
351.402	1679.88
351.629	1589.88
351.856	1578.88
352.083	1520.88
352.311	1591.88
352.538	1645.88
352.765	1719.88
352.992	1752.88
353.22	1697.88
353.447	1652.88
353.674	1664.88
353.901	1700.88
354.128	1651.88
354.355	1655.88
354.583	1679.88
354.81	1767.88
355.037	1768.88
355.264	1771.88
355.491	1660.88
355.718	1730.88
355.945	1699.88
356.172	1620.88
356.399	1622.88
356.626	1636.88
356.853	1693.88
357.08	1815.88
357.307	1968.88
357.534	2034.88
357.761	1742.88
357.988	1632.88
358.215	1578.88
358.441	1631.88
358.668	1564.88
358.895	1595.88
359.122	1716.88
359.349	1883.88
359.576	1880.88
359.802	1697.88
360.029	1625.88
360.256	1568.88
360.483	1608.88
360.709	1670.88
360.936	1769.88
361.163	1799.88
361.39	1960.88
361.616	2098.88
361.843	2070.88
362.07	1944.88
362.296	1690.88
362.523	1644.88
362.749	1643.88
362.976	1682.88
363.203	1703.88
363.429	1674.88
363.656	1656.88
363.882	1681.88
364.109	1854.88
364.335	2030.88
364.562	1859.88
364.788	1789.88
365.015	1711.88
365.241	1630.88
365.468	1656.88
365.694	1731.88
365.92	1815.88
366.147	1724.88
366.373	1651.88
366.599	1572.88
366.826	1573.88
367.052	1598.88
367.278	1636.88
367.505	1714.88
367.731	1692.88
367.957	1681.88
368.184	1737.88
368.41	1826.88
368.636	1872.88
368.862	1874.88
369.089	1876.88
369.315	1819.88
369.541	1769.88
369.767	1695.88
369.993	1650.88
370.219	1659.88
370.445	1712.88
370.672	1792.88
370.898	1853.88
371.124	1867.88
371.35	1776.88
371.576	1795.88
371.802	1877.88
372.028	1805.88
372.254	1710.88
372.48	1701.88
372.706	1692.88
372.932	1706.88
373.158	1691.88
373.384	1751.88
373.61	1732.88
373.835	1865.88
374.061	1840.88
374.287	1765.88
374.513	1768.88
374.739	1739.88
374.965	1800.88
375.191	1803.88
375.416	1839.88
375.642	1844.88
375.868	1904.88
376.094	1975.88
376.319	1904.88
376.545	1782.88
376.771	1780.88
376.997	1871.88
377.222	1883.88
377.448	1813.88
377.674	1840.88
377.899	1828.88
378.125	1936.88
378.35	1938.88
378.576	1785.88
378.802	1732.88
379.027	1680.88
379.253	1714.88
379.478	1745.88
379.704	1707.88
379.929	1751.88
380.155	1740.88
380.38	1769.88
380.606	1792.88
380.831	1750.88
381.057	1888.88
381.282	1875.88
381.507	1838.88
381.733	1914.88
381.958	2044.88
382.184	1876.88
382.409	1795.88
382.634	1803.88
382.86	1852.88
383.085	1846.88
383.31	1856.88
383.535	2030.88
383.761	2124.88
383.986	2036.88
384.211	2042.88
384.436	1947.88
384.662	2006.88
384.887	2125.88
385.112	2040.88
385.337	2007.88
385.562	1966.88
385.787	1995.88
386.013	2037.88
386.238	2066.88
386.463	2008.88
386.688	2146.88
386.913	2246.88
387.138	2254.88
387.363	2090.88
387.588	2069.88
387.813	2035.88
388.038	2086.88
388.263	2140.88
388.488	2116.88
388.713	1907.88
388.938	1897.88
389.163	1920.88
389.387	2020.88
389.612	1981.88
389.837	2002.88
390.062	2034.88
390.287	1984.88
390.512	2060.88
390.736	1970.88
390.961	1917.88
391.186	1864.88
391.411	1892.88
391.636	1970.88
391.86	2038.88
392.085	1967.88
392.31	1993.88
392.534	2017.88
392.759	1998.88
392.984	1987.88
393.208	2051.88
393.433	2115.88
393.658	2124.88
393.882	2182.88
394.107	2115.88
394.331	1982.88
394.556	1929.88
394.78	2009.88
395.005	2072.88
395.229	2118.88
395.454	2263.88
395.678	2340.88
395.903	2228.88
396.127	2134.88
396.352	2131.88
396.576	2167.88
396.801	2247.88
397.025	2131.88
397.249	2179.88
397.474	2158.88
397.698	2168.88
397.922	2207.88
398.147	2354.88
398.371	2397.88
398.595	2389.88
398.82	2307.88
399.044	2320.88
399.268	2416.88
399.492	2558.88
399.717	2646.88
399.941	2736.88
400.165	2638.88
400.389	2594.88
400.613	2496.88
400.837	2778.88
401.062	3210.88
401.286	2774.88
401.51	2505.88
401.734	2616.88
401.958	2583.88
402.182	2367.88
402.406	2264.88
402.63	2229.88
402.854	2292.88
403.078	2281.88
403.302	2376.88
403.526	2326.88
403.75	2419.88
403.974	2379.88
404.198	2426.88
404.422	2484.88
404.645	2512.88
404.869	2488.88
405.093	2309.88
405.317	2300.88
405.541	2418.88
405.765	2388.88
405.988	2382.88
406.212	2435.88
406.436	2509.88
406.66	2524.88
406.883	2583.88
407.107	2854.88
407.331	3111.88
407.555	3390.88
407.778	3114.88
408.002	2607.88
408.226	2505.88
408.449	2514.88
408.673	2420.88
408.896	2467.88
409.12	2531.88
409.344	2448.88
409.567	2339.88
409.791	2375.88
410.014	2508.88
410.238	2551.88
410.461	2674.88
410.685	2411.88
410.908	2310.88
411.132	2351.88
411.355	2402.88
411.578	2320.88
411.802	2321.88
412.025	2399.88
412.249	2381.88
412.472	2280.88
412.695	2216.88
412.919	2249.88
413.142	2251.88
413.365	2273.88
413.589	2376.88
413.812	2468.88
414.035	2579.88
414.258	2342.88
414.482	2311.88
414.705	2292.88
414.928	2274.88
415.151	2229.88
415.374	2280.88
415.597	2331.88
415.821	2289.88
416.044	2462.88
416.267	2430.88
416.49	2207.88
416.713	2104.88
416.936	2243.88
417.159	2345.88
417.382	2340.88
417.605	2217.88
417.828	2281.88
418.051	2350.88
418.274	2254.88
418.497	2233.88
418.72	2202.88
418.943	2199.88
419.166	2303.88
419.389	2457.88
419.611	2332.88
419.834	2243.88
420.057	2260.88
420.28	2211.88
420.503	2173.88
420.726	2256.88
420.948	2268.88
421.171	2165.88
421.394	2202.88
421.617	2276.88
421.839	2248.88
422.062	2172.88
422.285	2202.88
422.507	2195.88
422.73	2116.88
422.953	2072.88
423.175	2104.88
423.398	2211.88
423.621	2202.88
423.843	2204.88
424.066	2273.88
424.288	2323.88
424.511	2346.88
424.733	2316.88
424.956	2072.88
425.178	2067.88
425.401	2105.88
425.623	2159.88
425.846	2091.88
426.068	2238.88
426.291	2274.88
426.513	2254.88
426.735	2268.88
426.958	2406.88
427.18	2531.88
427.402	2291.88
427.625	2381.88
427.847	2423.88
428.069	2232.88
428.292	2144.88
428.514	2097.88
428.736	2083.88
428.958	2110.88
429.181	2121.88
429.403	2396.88
429.625	2950.88
429.847	2589.88
430.069	2203.88
430.292	2375.88
430.514	2539.88
430.736	2337.88
430.958	2374.88
431.18	2310.88
431.402	2143.88
431.624	2120.88
431.846	2099.88
432.068	2087.88
432.29	2080.88
432.512	2119.88
432.734	2172.88
432.956	2235.88
433.178	2312.88
433.4	2303.88
433.622	2256.88
433.844	2145.88
434.066	2123.88
434.287	2098.88
434.509	2223.88
434.731	2302.88
434.953	2439.88
435.175	2363.88
435.397	2234.88
435.618	2232.88
435.84	2292.88
436.062	2210.88
436.284	2228.88
436.505	2266.88
436.727	2222.88
436.949	2198.88
437.17	2161.88
437.392	2156.88
437.614	2177.88
437.835	2046.88
438.057	2190.88
438.278	2329.88
438.5	2207.88
438.721	2110.88
438.943	2170.88
439.165	2114.88
439.386	2065.88
439.608	2105.88
439.829	2116.88
440.05	2139.88
440.272	2144.88
440.493	2067.88
440.715	2153.88
440.936	2267.88
441.158	2520.88
441.379	2457.88
441.6	2293.88
441.822	2326.88
442.043	2239.88
442.264	2252.88
442.486	2144.88
442.707	2098.88
442.928	2100.88
443.149	2191.88
443.371	2328.88
443.592	2380.88
443.813	2320.88
444.034	2256.88
444.255	2333.88
444.476	2390.88
444.698	2397.88
444.919	2364.88
445.14	2455.88
445.361	2472.88
445.582	2592.88
445.803	2409.88
446.024	2273.88
446.245	2422.88
446.466	2360.88
446.687	2188.88
446.908	2215.88
447.129	2150.88
447.35	2162.88
447.571	2169.88
447.792	2111.88
448.013	2110.88
448.234	2116.88
448.455	2223.88
448.675	2242.88
448.896	2027.88
449.117	2006.88
449.338	2043.88
449.559	2162.88
449.779	2316.88
450	2503.88
450.221	2766.88
450.442	2626.88
450.662	2279.88
450.883	2028.88
451.104	1955.88
451.324	2024.88
451.545	2093.88
451.766	2080.88
451.986	2003.88
452.207	1940.88
452.428	1923.88
452.648	1874.88
452.869	1956.88
453.089	2106.88
453.31	2072.88
453.53	2135.88
453.751	2054.88
453.971	1967.88
454.192	1950.88
454.412	2115.88
454.633	2054.88
454.853	1978.88
455.073	1842.88
455.294	1853.88
455.514	1848.88
455.734	1824.88
455.955	1893.88
456.175	1897.88
456.395	1874.88
456.616	1968.88
456.836	2024.88
457.056	1949.88
457.276	1930.88
457.497	1878.88
457.717	1822.88
457.937	1828.88
458.157	1916.88
458.377	1938.88
458.598	1917.88
458.818	1970.88
459.038	2004.88
459.258	2170.88
459.478	2145.88
459.698	2039.88
459.918	2151.88
460.138	2268.88
460.358	2238.88
460.578	2259.88
460.798	2364.88
461.018	2530.88
461.238	2372.88
461.458	2262.88
461.678	2252.88
461.898	2249.88
462.118	2136.88
462.338	2262.88
462.558	2252.88
462.777	2268.88
462.997	2359.88
463.217	2552.88
463.437	2508.88
463.657	2323.88
463.876	2277.88
464.096	2270.88
464.316	2217.88
464.536	2336.88
464.755	2366.88
464.975	2411.88
465.195	2290.88
465.414	2424.88
465.634	2456.88
465.854	2255.88
466.073	2369.88
466.293	2376.88
466.512	2081.88
466.732	2059.88
466.951	2178.88
467.171	2175.88
467.391	2057.88
467.61	2018.88
467.829	2039.88
468.049	2203.88
468.268	2503.88
468.488	2326.88
468.707	2194.88
468.927	2075.88
469.146	2074.88
469.365	2039.88
469.585	2078.88
469.804	2064.88
470.023	2027.88
470.243	2147.88
470.462	2066.88
470.681	2040.88
470.901	2052.88
471.12	2104.88
471.339	2036.88
471.558	1961.88
471.777	1964.88
471.997	2008.88
472.216	2049.88
472.435	1911.88
472.654	2022.88
472.873	2118.88
473.092	2214.88
473.311	2109.88
473.53	1980.88
473.749	1992.88
473.968	2056.88
474.187	2141.88
474.406	2302.88
474.625	2122.88
474.844	2076.88
475.063	2054.88
475.282	2160.88
475.501	2074.88
475.72	2090.88
475.939	2208.88
476.158	2152.88
476.377	2096.88
476.596	2091.88
476.814	2148.88
477.033	2249.88
477.252	2318.88
477.471	2353.88
477.69	2186.88
477.908	2211.88
478.127	2302.88
478.346	2498.88
478.564	2576.88
478.783	2458.88
479.002	2571.88
479.22	2450.88
479.439	2638.88
479.658	2978.88
479.876	2914.88
480.095	2494.88
480.313	2423.88
480.532	2279.88
480.751	2352.88
480.969	2386.88
481.188	2358.88
481.406	2331.88
481.624	2257.88
481.843	2292.88
482.061	2350.88
482.28	2388.88
482.498	2437.88
482.717	2367.88
482.935	2354.88
483.153	2314.88
483.372	2362.88
483.59	2262.88
483.808	2315.88
484.027	2368.88
484.245	2532.88
484.463	2873.88
484.681	3360.88
484.9	2590.88
485.118	2417.88
485.336	2357.88
485.554	2473.88
485.772	2592.88
485.99	2496.88
486.209	2550.88
486.427	2508.88
486.645	2473.88
486.863	2423.88
487.081	2518.88
487.299	2571.88
487.517	2516.88
487.735	2430.88
487.953	2369.88
488.171	2398.88
488.389	2387.88
488.607	2394.88
488.825	2635.88
489.043	2686.88
489.261	2420.88
489.479	2574.88
489.696	2617.88
489.914	2564.88
490.132	2458.88
490.35	2453.88
490.568	2551.88
490.786	2473.88
491.003	2347.88
491.221	2403.88
491.439	2521.88
491.657	2546.88
491.874	2500.88
492.092	2543.88
492.31	2570.88
492.527	2494.88
492.745	2434.88
492.963	2478.88
493.18	2581.88
493.398	2763.88
493.615	2790.88
493.833	2588.88
494.05	2520.88
494.268	2502.88
494.485	2592.88
494.703	2481.88
494.92	2456.88
495.138	2474.88
495.355	2515.88
495.573	2600.88
495.79	2744.88
496.008	2836.88
496.225	2610.88
496.442	2619.88
496.66	2702.88
496.877	2673.88
497.094	2734.88
497.312	2790.88
497.529	2771.88
497.746	2778.88
497.963	3226.88
498.181	3687.88
498.398	3446.88
498.615	3328.88
498.832	3264.88
499.049	3225.88
499.267	3251.88
499.484	3410.88
499.701	3747.88
499.918	3787.88
500.135	4031.88
500.352	4375.88
500.569	4220.88
500.786	4531.88
501.003	4190.88
501.22	3835.88
501.437	3747.88
501.654	3664.88
501.871	3610.88
502.088	3176.88
502.305	3204.88
502.522	3127.88
502.739	2876.88
502.956	2767.88
503.172	2771.88
503.389	2687.88
503.606	2710.88
503.823	2666.88
504.04	2650.88
504.256	2681.88
504.473	2695.88
504.69	2783.88
504.907	2650.88
505.123	2455.88
505.34	2588.88
505.557	3350.88
505.773	2943.88
505.99	2420.88
506.207	2282.88
506.423	2294.88
506.64	2262.88
506.856	2265.88
507.073	2529.88
507.289	2774.88
507.506	2667.88
507.722	2348.88
507.939	2159.88
508.155	2217.88
508.372	2268.88
508.588	2166.88
508.805	2085.88
509.021	2080.88
509.238	2129.88
509.454	2075.88
509.67	2079.88
509.887	2026.88
510.103	2042.88
510.319	2095.88
510.536	2172.88
510.752	2235.88
510.968	2222.88
511.184	2379.88
511.401	2389.88
511.617	2050.88
511.833	1978.88
512.049	1994.88
512.265	2028.88
512.481	2008.88
512.698	2055.88
512.914	2274.88
513.13	2141.88
513.346	2043.88
513.562	1990.88
513.778	2014.88
513.994	2116.88
514.21	2227.88
514.426	2174.88
514.642	2506.88
514.858	2330.88
515.074	2112.88
515.29	2034.88
515.506	2119.88
515.721	2139.88
515.937	2179.88
516.153	2447.88
516.369	2366.88
516.585	2229.88
516.801	2109.88
517.016	2120.88
517.232	2204.88
517.448	2225.88
517.664	2218.88
517.879	2225.88
518.095	2379.88
518.311	2261.88
518.527	2128.88
518.742	2100.88
518.958	2015.88
519.173	2058.88
519.389	2126.88
519.605	2071.88
519.82	2076.88
520.036	2094.88
520.251	2046.88
520.467	2009.88
520.682	2225.88
520.898	2363.88
521.113	2068.88
521.329	2028.88
521.544	2158.88
521.76	2142.88
521.975	1974.88
522.19	1950.88
522.406	1904.88
522.621	2324.88
522.836	2381.88
523.052	1942.88
523.267	1936.88
523.482	1926.88
523.698	1835.88
523.913	1832.88
524.128	1857.88
524.343	1964.88
524.559	2032.88
524.774	1878.88
524.989	1860.88
525.204	1865.88
525.419	1787.88
525.634	1808.88
525.849	1838.88
526.064	1858.88
526.28	1865.88
526.495	1787.88
526.71	1772.88
526.925	1791.88
527.14	1774.88
527.355	1746.88
527.57	1736.88
527.785	1816.88
527.999	1735.88
528.214	1693.88
528.429	1694.88
528.644	1722.88
528.859	1786.88
529.074	1783.88
529.289	1770.88
529.503	1809.88
529.718	1826.88
529.933	1774.88
530.148	1662.88
530.363	1735.88
530.577	1732.88
530.792	1785.88
531.007	1768.88
531.221	1731.88
531.436	1718.88
531.651	1843.88
531.865	1917.88
532.08	1830.88
532.295	1730.88
532.509	1654.88
532.724	1691.88
532.938	1798.88
533.153	1920.88
533.367	1830.88
533.582	1741.88
533.796	1726.88
534.011	1759.88
534.225	1798.88
534.44	1714.88
534.654	1710.88
534.868	1705.88
535.083	1792.88
535.297	1808.88
535.511	1735.88
535.726	1744.88
535.94	1738.88
536.154	1711.88
536.369	1716.88
536.583	1615.88
536.797	1642.88
537.011	1704.88
537.225	1649.88
537.44	1632.88
537.654	1691.88
537.868	1636.88
538.082	1562.88
538.296	1575.88
538.51	1590.88
538.724	1549.88
538.938	1568.88
539.153	1649.88
539.367	1614.88
539.581	1646.88
539.795	1734.88
540.009	1676.88
540.222	1646.88
540.436	1683.88
540.65	1824.88
540.864	1864.88
541.078	1735.88
541.292	1616.88
541.506	1607.88
541.72	1670.88
541.934	1654.88
542.147	1671.88
542.361	1635.88
542.575	1584.88
542.789	1571.88
543.002	1521.88
543.216	1558.88
543.43	1653.88
543.644	1752.88
543.857	1797.88
544.071	1732.88
544.285	1654.88
544.498	1602.88
544.712	1644.88
544.925	1650.88
545.139	1680.88
545.352	1601.88
545.566	1513.88
545.779	1542.88
545.993	1550.88
546.206	1562.88
546.42	1514.88
546.633	1524.88
546.847	1499.88
547.06	1557.88
547.274	1550.88
547.487	1523.88
547.7	1528.88
547.914	1483.88
548.127	1569.88
548.34	1560.88
548.554	1611.88
548.767	1542.88
548.98	1542.88
549.193	1545.88
549.407	1608.88
549.62	1615.88
549.833	1538.88
550.046	1519.88
550.259	1527.88
550.473	1526.88
550.686	1551.88
550.899	1477.88
551.112	1472.88
551.325	1442.88
551.538	1556.88
551.751	1778.88
551.964	1464.88
552.177	1433.88
552.39	1509.88
552.603	1549.88
552.816	1504.88
553.029	1573.88
553.242	1612.88
553.455	1542.88
553.667	1484.88
553.88	1534.88
554.093	1520.88
554.306	1450.88
554.519	1434.88
554.732	1403.88
554.944	1415.88
555.157	1486.88
555.37	1426.88
555.583	1439.88
555.795	1393.88
556.008	1377.88
556.221	1314.88
556.433	1334.88
556.646	1335.88
556.859	1297.88
557.071	1334.88
557.284	1323.88
557.496	1318.88
557.709	1293.88
557.921	1291.88
558.134	1287.88
558.346	1312.88
558.559	1275.88
558.771	1263.88
558.984	1262.88
559.196	1239.88
559.409	1221.88
559.621	1247.88
559.833	1215.88
560.046	1280.88
560.258	1298.88
560.47	1252.88
560.683	1255.88
560.895	1257.88
561.107	1313.88
561.32	1253.88
561.532	1314.88
561.744	1244.88
561.956	1250.88
562.168	1232.88
562.381	1206.88
562.593	1220.88
562.805	1196.88
563.017	1220.88
563.229	1196.88
563.441	1219.88
563.653	1242.88
563.865	1240.88
564.077	1211.88
564.289	1230.88
564.501	1238.88
564.713	1287.88
564.925	1311.88
565.137	1420.88
565.349	1319.88
565.561	1316.88
565.773	1303.88
565.985	1341.88
566.197	1370.88
566.408	1502.88
566.62	1490.88
566.832	1497.88
567.044	1513.88
567.255	1471.88
567.467	1472.88
567.679	1611.88
567.891	1600.88
568.102	1552.88
568.314	1496.88
568.526	1444.88
568.737	1396.88
568.949	1307.88
569.161	1244.88
569.372	1212.88
569.584	1180.88
569.795	1212.88
570.007	1214.88
570.218	1116.88
570.43	1100.88
570.641	1090.88
570.853	1120.88
571.064	1138.88
571.276	1104.88
571.487	1110.88
571.698	1077.88
571.91	1059.88
572.121	1053.88
572.333	1042.88
572.544	1023.88
572.755	1011.88
572.966	995.88
573.178	1010.88
573.389	977.88
573.6	1020.88
573.811	1122.88
574.023	1009.88
574.234	980.88
574.445	959.88
574.656	939.88
574.867	940.88
575.078	938.88
575.289	944.88
575.501	950.88
575.712	925.88
575.923	926.88
576.134	924.88
576.345	915.88
576.556	892.88
576.767	868.88
576.978	886.88
577.188	882.88
577.399	890.88
577.61	855.88
577.821	866.88
578.032	845.88
578.243	879.88
578.454	898.88
578.665	850.88
578.875	858.88
579.086	825.88
579.297	826.88
579.508	885.88
579.718	888.88
579.929	868.88
580.14	825.88
580.35	836.88
580.561	868.88
580.772	919.88
580.982	864.88
581.193	805.88
581.403	830.88
581.614	804.88
581.825	792.88
582.035	825.88
582.246	808.88
582.456	807.88
582.667	791.88
582.877	793.88
583.087	794.88
583.298	785.88
583.508	807.88
583.719	790.88
583.929	781.88
584.139	807.88
584.35	770.88
584.56	758.88
584.77	798.88
584.981	775.88
585.191	764.88
585.401	811.88
585.611	768.88
585.821	765.88
586.032	788.88
586.242	758.88
586.452	743.88
586.662	785.88
586.872	760.88
587.082	742.88
587.292	786.88
587.502	777.88
587.713	784.88
587.923	763.88
588.133	753.88
588.343	761.88
588.553	734.88
588.762	756.88
588.972	743.88
589.182	770.88
589.392	754.88
589.602	785.88
589.812	760.88
590.022	722.88
590.232	718.88
590.441	767.88
590.651	772.88
590.861	744.88
591.071	691.88
591.281	754.88
591.49	744.88
591.7	740.88
591.91	735.88
592.119	730.88
592.329	724.88
592.539	779.88
592.748	788.88
592.958	775.88
593.167	786.88
593.377	803.88
593.587	808.88
593.796	819.88
594.006	778.88
594.215	777.88
594.424	788.88
594.634	755.88
594.843	746.88
595.053	757.88
595.262	768.88
595.472	729.88
595.681	714.88
595.89	713.88
596.1	702.88
596.309	709.88
596.518	686.88
596.727	715.88
596.937	674.88
597.146	670.88
597.355	648.88
597.564	664.88
597.774	647.88
597.983	670.88
598.192	649.88
598.401	651.88
598.61	637.88
598.819	663.88
599.028	647.88
599.237	641.88
599.446	612.88
599.655	638.88
599.864	616.88
600.073	622.88
600.282	624.88
600.491	608.88
600.7	586.88
600.909	609.88
601.118	604.88
601.327	594.88
601.536	649.88
601.745	636.88
601.953	600.88
602.162	603.88
602.371	616.88
602.58	611.88
602.789	595.88
602.997	598.88
603.206	603.88
603.415	575.88
603.623	571.88
603.832	576.88
604.041	590.88
604.249	578.88
604.458	575.88
604.666	592.88
604.875	595.88
605.084	568.88
605.292	610.88
605.501	566.88
605.709	572.88
605.918	558.88
606.126	578.88
606.334	560.88
606.543	563.88
606.751	591.88
606.96	551.88
607.168	522.88
607.376	531.88
607.585	532.88
607.793	555.88
608.001	558.88
608.21	562.88
608.418	536.88
608.626	550.88
608.834	553.88
609.043	561.88
609.251	563.88
609.459	552.88
609.667	564.88
609.875	550.88
610.083	566.88
610.291	562.88
610.499	564.88
610.707	549.88
610.916	531.88
611.124	545.88
611.332	539.88
611.54	539.88
611.748	534.88
611.955	516.88
612.163	498.88
612.371	512.88
612.579	520.88
612.787	538.88
612.995	519.88
613.203	510.88
613.411	529.88
613.618	524.88
613.826	541.88
614.034	538.88
614.242	512.88
614.449	508.88
614.657	521.88
614.865	524.88
615.072	516.88
615.28	540.88
615.488	536.88
615.695	558.88
615.903	536.88
616.111	510.88
616.318	499.88
616.526	517.88
616.733	519.88
616.941	509.88
617.148	495.88
617.356	505.88
617.563	503.88
617.771	517.88
617.978	487.88
618.185	518.88
618.393	510.88
618.6	490.88
618.807	491.88
619.015	515.88
619.222	491.88
619.429	496.88
619.637	486.88
619.844	477.88
620.051	482.88
620.258	459.88
620.466	456.88
620.673	474.88
620.88	459.88
621.087	455.88
621.294	462.88
621.501	462.88
621.708	465.88
621.915	482.88
622.122	474.88
622.329	472.88
622.536	487.88
622.743	470.88
622.95	486.88
623.157	442.88
623.364	434.88
623.571	443.88
623.778	459.88
623.985	450.88
624.192	454.88
624.399	441.88
624.606	440.88
624.812	447.88
625.019	440.88
625.226	425.88
625.433	426.88
625.639	470.88
625.846	438.88
626.053	418.88
626.259	448.88
626.466	411.88
626.673	402.88
626.879	430.88
627.086	415.88
627.293	433.88
627.499	422.88
627.706	422.88
627.912	412.88
628.119	427.88
628.325	428.88
628.532	400.88
628.738	428.88
628.945	409.88
629.151	439.88
629.357	435.88
629.564	417.88
629.77	388.88
629.976	394.88
630.183	413.88
630.389	396.88
630.595	408.88
630.802	387.88
631.008	402.88
631.214	393.88
631.42	373.88
631.627	396.88
631.833	395.88
632.039	384.88
632.245	382.88
632.451	387.88
632.657	386.88
632.863	367.88
633.069	395.88
633.275	382.88
633.481	361.88
633.688	370.88
633.893	361.88
634.099	374.88
634.305	374.88
634.511	364.88
634.717	346.88
634.923	349.88
635.129	348.88
635.335	351.88
635.541	359.88
635.747	371.88
635.952	366.88
636.158	371.88
636.364	362.88
636.57	355.88
636.775	350.88
636.981	363.88
637.187	340.88
637.392	340.88
637.598	372.88
637.804	352.88
638.009	356.88
638.215	349.88
638.421	353.88
638.626	339.88
638.832	354.88
639.037	346.88
639.243	345.88
639.448	319.88
639.654	340.88
639.859	325.88
640.065	332.88
640.27	329.88
640.475	339.88
640.681	327.88
640.886	352.88
641.091	327.88
641.297	338.88
641.502	320.88
641.707	325.88
641.913	330.88
642.118	317.88
642.323	309.88
642.528	324.88
642.733	324.88
642.939	323.88
643.144	332.88
643.349	343.88
643.554	319.88
643.759	300.88
643.964	292.88
644.169	315.88
644.374	297.88
644.579	305.88
644.784	331.88
644.989	299.88
645.194	302.88
645.399	306.88
645.604	337.88
645.809	318.88
646.014	315.88
646.219	309.88
646.423	309.88
646.628	319.88
646.833	303.88
647.038	321.88
647.243	311.88
647.447	306.88
647.652	329.88
647.857	322.88
648.062	309.88
648.266	308.88
648.471	306.88
648.676	320.88
648.88	324.88
649.085	320.88
649.289	312.88
649.494	306.88
649.698	312.88
649.903	306.88
650.107	308.88
650.312	299.88
650.516	280.88
650.721	283.88
650.925	303.88
651.13	297.88
651.334	264.88
651.539	277.88
651.743	278.88
651.947	262.88
652.152	272.88
652.356	257.88
652.56	265.88
652.764	273.88
652.969	255.88
653.173	256.88
653.377	249.88
653.581	237.88
653.785	266.88
653.99	234.88
654.194	234.88
654.398	232.88
654.602	243.88
654.806	241.88
655.01	255.88
655.214	253.88
655.418	257.88
655.622	241.88
655.826	261.88
656.03	247.88
656.234	248.88
656.438	279.88
656.642	265.88
656.846	264.88
657.049	231.88
657.253	226.88
657.457	197.88
657.661	192.88
657.865	191.88
658.068	185.88
658.272	168.88
658.476	158.88
658.68	141.88
658.883	154.88
659.087	148.88
659.291	146.88
659.494	149.88
659.698	147.88
659.901	128.88
660.105	139.88
660.309	127.88
660.512	120.88
660.716	144.88
660.919	107.88
661.123	122.88
661.326	112.88
661.53	113.88
661.733	102.88
661.936	95.88
662.14	112.88
662.343	103.88
662.546	100.88
662.75	102.88
662.953	96.88
663.156	94.88
663.36	87.88
663.563	80.88
663.766	86.88
663.969	81.88
664.173	94.88
664.376	90.88
664.579	83.88
664.782	92.88
664.985	85.88
665.188	87.88
665.391	79.88
665.594	85.88
665.797	85.88
666	82.88
666.203	80.88
666.406	89.88
666.609	86.88
666.812	82.88
667.015	81.88
667.218	78.88
667.421	88.88
667.624	83.88
667.827	69.88
668.03	88.88
668.232	89.88
668.435	70.88
668.638	86.88
668.841	91.88
669.043	82.88
669.246	85.88
669.449	84.88
669.651	75.88
669.854	72.88
670.057	75.88
670.259	85.88
670.462	89.88
670.665	85.88
670.867	82.88
671.07	76.88
671.272	75.88
671.475	80.88
671.677	97.88
671.88	81.88
672.082	80.88
672.284	90.88
672.487	79.88
672.689	88.88
672.892	88.88
