Data from WStandard_LampEnergy8_LIBS07252019.E.O._I.C._HRD10591_15-59-47-930.txt Node
Date: Thu Jul 25 15:59:47 EDT 2019
User: cochatt
Spectrometer: HR+D1059
Trigger mode: 1
Integration Time (sec): 1.000000E-1
Scans to average: 1
Electric dark correction enabled: true
Nonlinearity correction enabled: false
Boxcar width: 0
XAxis mode: Wavelengths
Number of Pixels in Spectrum: 2048
>>>>>Begin Spectral Data<<<<<
223.165	-23.56
223.4	-23.56
223.635	-23.56
223.869	-9.56
224.104	-12.56
224.338	-20.56
224.573	-27.56
224.808	-14.56
225.042	-14.56
225.277	-10.56
225.511	10.44
225.746	13.44
225.98	15.44
226.215	14.44
226.449	13.44
226.683	11.44
226.918	23.44
227.152	31.44
227.387	47.44
227.621	33.44
227.856	47.44
228.09	50.44
228.324	49.44
228.559	71.44
228.793	93.44
229.027	193.44
229.262	218.44
229.496	224.44
229.73	215.44
229.964	245.44
230.199	256.44
230.433	278.44
230.667	267.44
230.901	291.44
231.136	274.44
231.37	272.44
231.604	259.44
231.838	262.44
232.072	258.44
232.306	259.44
232.541	266.44
232.775	296.44
233.009	319.44
233.243	326.44
233.477	309.44
233.711	307.44
233.945	315.44
234.179	301.44
234.413	323.44
234.647	327.44
234.881	318.44
235.115	291.44
235.349	283.44
235.583	313.44
235.817	318.44
236.051	303.44
236.285	309.44
236.519	322.44
236.753	367.44
236.987	361.44
237.221	358.44
237.455	397.44
237.689	382.44
237.922	346.44
238.156	349.44
238.39	353.44
238.624	380.44
238.858	408.44
239.091	405.44
239.325	424.44
239.559	458.44
239.793	494.44
240.027	540.44
240.26	495.44
240.494	391.44
240.728	366.44
240.961	369.44
241.195	379.44
241.429	425.44
241.662	413.44
241.896	401.44
242.13	391.44
242.363	433.44
242.597	453.44
242.83	441.44
243.064	475.44
243.298	487.44
243.531	486.44
243.765	464.44
243.998	461.44
244.232	396.44
244.465	413.44
244.699	405.44
244.932	445.44
245.166	531.44
245.399	503.44
245.633	465.44
245.866	477.44
246.099	471.44
246.333	475.44
246.566	487.44
246.8	520.44
247.033	570.44
247.266	530.44
247.5	515.44
247.733	532.44
247.966	544.44
248.2	605.44
248.433	603.44
248.666	635.44
248.899	697.44
249.133	746.44
249.366	823.44
249.599	667.44
249.832	601.44
250.066	648.44
250.299	633.44
250.532	589.44
250.765	548.44
250.998	564.44
251.231	572.44
251.465	619.44
251.698	574.44
251.931	591.44
252.164	584.44
252.397	620.44
252.63	601.44
252.863	550.44
253.096	563.44
253.329	565.44
253.562	586.44
253.795	622.44
254.028	635.44
254.261	579.44
254.494	562.44
254.727	557.44
254.96	567.44
255.193	606.44
255.426	686.44
255.659	803.44
255.892	779.44
256.124	675.44
256.357	646.44
256.59	709.44
256.823	702.44
257.056	720.44
257.289	814.44
257.521	856.44
257.754	827.44
257.987	778.44
258.22	836.44
258.452	807.44
258.685	685.44
258.918	666.44
259.151	710.44
259.383	627.44
259.616	594.44
259.849	652.44
260.081	695.44
260.314	758.44
260.547	809.44
260.779	834.44
261.012	761.44
261.244	738.44
261.477	676.44
261.71	707.44
261.942	686.44
262.175	684.44
262.407	707.44
262.64	661.44
262.872	638.44
263.105	618.44
263.337	637.44
263.57	641.44
263.802	636.44
264.035	613.44
264.267	577.44
264.499	587.44
264.732	612.44
264.964	659.44
265.197	686.44
265.429	743.44
265.661	780.44
265.894	836.44
266.126	861.44
266.358	806.44
266.591	835.44
266.823	863.44
267.055	781.44
267.287	770.44
267.52	791.44
267.752	721.44
267.984	760.44
268.216	807.44
268.448	795.44
268.681	762.44
268.913	711.44
269.145	702.44
269.377	665.44
269.609	774.44
269.841	897.44
270.073	981.44
270.306	1080.44
270.538	1109.44
270.77	953.44
271.002	817.44
271.234	837.44
271.466	812.44
271.698	932.44
271.93	1070.44
272.162	1014.44
272.394	940.44
272.626	921.44
272.858	798.44
273.09	718.44
273.322	725.44
273.553	682.44
273.785	710.44
274.017	742.44
274.249	771.44
274.481	773.44
274.713	698.44
274.945	668.44
275.176	711.44
275.408	691.44
275.64	678.44
275.872	708.44
276.104	745.44
276.335	827.44
276.567	945.44
276.799	916.44
277.031	830.44
277.262	787.44
277.494	841.44
277.726	931.44
277.957	901.44
278.189	794.44
278.421	744.44
278.652	728.44
278.884	755.44
279.115	736.44
279.347	769.44
279.579	741.44
279.81	749.44
280.042	807.44
280.273	873.44
280.505	878.44
280.736	870.44
280.968	827.44
281.199	743.44
281.431	728.44
281.662	713.44
281.894	747.44
282.125	730.44
282.356	757.44
282.588	765.44
282.819	786.44
283.051	865.44
283.282	897.44
283.513	851.44
283.745	763.44
283.976	713.44
284.207	714.44
284.439	747.44
284.67	762.44
284.901	793.44
285.132	795.44
285.364	750.44
285.595	762.44
285.826	775.44
286.057	744.44
286.288	769.44
286.52	767.44
286.751	842.44
286.982	881.44
287.213	782.44
287.444	743.44
287.675	719.44
287.906	774.44
288.138	862.44
288.369	790.44
288.6	761.44
288.831	729.44
289.062	739.44
289.293	769.44
289.524	765.44
289.755	788.44
289.986	791.44
290.217	767.44
290.448	772.44
290.679	763.44
290.91	786.44
291.141	809.44
291.371	845.44
291.602	823.44
291.833	825.44
292.064	842.44
292.295	831.44
292.526	851.44
292.757	890.44
292.987	831.44
293.218	803.44
293.449	881.44
293.68	981.44
293.91	1022.44
294.141	950.44
294.372	926.44
294.603	951.44
294.833	991.44
295.064	921.44
295.295	861.44
295.525	820.44
295.756	779.44
295.987	751.44
296.217	781.44
296.448	790.44
296.679	773.44
296.909	787.44
297.14	791.44
297.37	808.44
297.601	859.44
297.831	902.44
298.062	894.44
298.292	823.44
298.523	797.44
298.753	792.44
298.984	822.44
299.214	813.44
299.445	821.44
299.675	871.44
299.905	850.44
300.136	835.44
300.366	806.44
300.597	772.44
300.827	786.44
301.057	838.44
301.288	834.44
301.518	866.44
301.748	890.44
301.979	911.44
302.209	936.44
302.439	1021.44
302.669	1000.44
302.9	957.44
303.13	869.44
303.36	838.44
303.59	852.44
303.82	875.44
304.051	859.44
304.281	854.44
304.511	891.44
304.741	941.44
304.971	1052.44
305.201	1074.44
305.431	974.44
305.661	788.44
305.891	734.44
306.121	769.44
306.352	819.44
306.582	857.44
306.812	883.44
307.042	951.44
307.272	955.44
307.502	1018.44
307.731	1050.44
307.961	1113.44
308.191	1021.44
308.421	887.44
308.651	845.44
308.881	828.44
309.111	804.44
309.341	821.44
309.571	849.44
309.8	839.44
310.03	829.44
310.26	809.44
310.49	829.44
310.72	860.44
310.949	896.44
311.179	924.44
311.409	871.44
311.639	827.44
311.868	877.44
312.098	849.44
312.328	859.44
312.557	874.44
312.787	878.44
313.017	884.44
313.246	884.44
313.476	861.44
313.706	901.44
313.935	882.44
314.165	920.44
314.394	933.44
314.624	989.44
314.853	1048.44
315.083	1054.44
315.312	1067.44
315.542	985.44
315.771	927.44
316.001	904.44
316.23	957.44
316.46	934.44
316.689	951.44
316.919	887.44
317.148	886.44
317.377	907.44
317.607	941.44
317.836	1071.44
318.065	1089.44
318.295	1020.44
318.524	994.44
318.753	1003.44
318.983	941.44
319.212	927.44
319.441	920.44
319.67	931.44
319.9	957.44
320.129	1006.44
320.358	1049.44
320.587	1047.44
320.816	1065.44
321.046	1027.44
321.275	961.44
321.504	986.44
321.733	1027.44
321.962	1018.44
322.191	952.44
322.42	947.44
322.649	933.44
322.878	903.44
323.108	920.44
323.337	971.44
323.566	959.44
323.795	986.44
324.024	937.44
324.253	936.44
324.482	959.44
324.71	907.44
324.939	863.44
325.168	891.44
325.397	945.44
325.626	938.44
325.855	959.44
326.084	947.44
326.313	942.44
326.542	969.44
326.77	979.44
326.999	974.44
327.228	924.44
327.457	883.44
327.686	874.44
327.914	942.44
328.143	931.44
328.372	935.44
328.6	918.44
328.829	941.44
329.058	919.44
329.287	919.44
329.515	965.44
329.744	981.44
329.972	1041.44
330.201	1070.44
330.43	993.44
330.658	1002.44
330.887	1017.44
331.115	998.44
331.344	994.44
331.572	1000.44
331.801	986.44
332.03	997.44
332.258	1000.44
332.486	1010.44
332.715	1037.44
332.943	984.44
333.172	988.44
333.4	1005.44
333.629	1028.44
333.857	1090.44
334.085	1212.44
334.314	1381.44
334.542	1415.44
334.771	1307.44
334.999	1161.44
335.227	1121.44
335.455	1055.44
335.684	1043.44
335.912	1116.44
336.14	1133.44
336.369	1075.44
336.597	1001.44
336.825	998.44
337.053	1047.44
337.281	1113.44
337.51	1123.44
337.738	1168.44
337.966	1139.44
338.194	1033.44
338.422	986.44
338.65	973.44
338.878	965.44
339.106	946.44
339.334	940.44
339.562	962.44
339.79	996.44
340.018	1015.44
340.246	1067.44
340.474	1048.44
340.702	997.44
340.93	1014.44
341.158	1007.44
341.386	987.44
341.614	950.44
341.842	959.44
342.07	980.44
342.298	1018.44
342.526	995.44
342.754	1001.44
342.981	977.44
343.209	954.44
343.437	975.44
343.665	991.44
343.893	1047.44
344.12	1075.44
344.348	1060.44
344.576	1047.44
344.804	1006.44
345.031	962.44
345.259	987.44
345.487	978.44
345.714	926.44
345.942	920.44
346.17	954.44
346.397	920.44
346.625	932.44
346.853	895.44
347.08	880.44
347.308	903.44
347.535	934.44
347.763	940.44
347.99	925.44
348.218	900.44
348.445	922.44
348.673	930.44
348.9	959.44
349.128	993.44
349.355	1030.44
349.583	967.44
349.81	923.44
350.037	881.44
350.265	861.44
350.492	886.44
350.72	915.44
350.947	951.44
351.174	952.44
351.402	906.44
351.629	873.44
351.856	888.44
352.083	889.44
352.311	885.44
352.538	909.44
352.765	952.44
352.992	969.44
353.22	918.44
353.447	907.44
353.674	951.44
353.901	922.44
354.128	910.44
354.355	923.44
354.583	969.44
354.81	971.44
355.037	939.44
355.264	937.44
355.491	914.44
355.718	949.44
355.945	952.44
356.172	910.44
356.399	890.44
356.626	926.44
356.853	973.44
357.08	1047.44
357.307	1103.44
357.534	1046.44
357.761	959.44
357.988	894.44
358.215	889.44
358.441	878.44
358.668	897.44
358.895	945.44
359.122	980.44
359.349	1066.44
359.576	1011.44
359.802	947.44
360.029	915.44
360.256	906.44
360.483	914.44
360.709	972.44
360.936	995.44
361.163	1009.44
361.39	1117.44
361.616	1139.44
361.843	1122.44
362.07	1061.44
362.296	955.44
362.523	911.44
362.749	931.44
362.976	960.44
363.203	985.44
363.429	934.44
363.656	923.44
363.882	970.44
364.109	1063.44
364.335	1099.44
364.562	1035.44
364.788	945.44
365.015	935.44
365.241	965.44
365.468	954.44
365.694	993.44
365.92	1025.44
366.147	971.44
366.373	903.44
366.599	910.44
366.826	889.44
367.052	917.44
367.278	935.44
367.505	941.44
367.731	979.44
367.957	969.44
368.184	966.44
368.41	1067.44
368.636	1073.44
368.862	1065.44
369.089	1065.44
369.315	1021.44
369.541	967.44
369.767	943.44
369.993	935.44
370.219	946.44
370.445	973.44
370.672	1031.44
370.898	1059.44
371.124	1054.44
371.35	1027.44
371.576	1033.44
371.802	1055.44
372.028	991.44
372.254	935.44
372.48	917.44
372.706	954.44
372.932	955.44
373.158	954.44
373.384	974.44
373.61	1015.44
373.835	1053.44
374.061	994.44
374.287	971.44
374.513	1004.44
374.739	975.44
374.965	1006.44
375.191	1019.44
375.416	1017.44
375.642	1029.44
375.868	1125.44
376.094	1116.44
376.319	1060.44
376.545	997.44
376.771	1060.44
376.997	1113.44
377.222	1066.44
377.448	1053.44
377.674	1070.44
377.899	1061.44
378.125	1120.44
378.35	1113.44
378.576	971.44
378.802	953.44
379.027	965.44
379.253	983.44
379.478	952.44
379.704	1005.44
379.929	990.44
380.155	1007.44
380.38	1024.44
380.606	1023.44
380.831	1026.44
381.057	1055.44
381.282	1047.44
381.507	1054.44
381.733	1130.44
381.958	1151.44
382.184	1037.44
382.409	1041.44
382.634	1040.44
382.86	1035.44
383.085	1051.44
383.31	1083.44
383.535	1177.44
383.761	1221.44
383.986	1131.44
384.211	1100.44
384.436	1143.44
384.662	1204.44
384.887	1220.44
385.112	1128.44
385.337	1141.44
385.562	1136.44
385.787	1129.44
386.013	1163.44
386.238	1152.44
386.463	1193.44
386.688	1275.44
386.913	1335.44
387.138	1278.44
387.363	1182.44
387.588	1141.44
387.813	1175.44
388.038	1167.44
388.263	1226.44
388.488	1149.44
388.713	1101.44
388.938	1109.44
389.163	1104.44
389.387	1122.44
389.612	1115.44
389.837	1159.44
390.062	1143.44
390.287	1154.44
390.512	1145.44
390.736	1133.44
390.961	1102.44
391.186	1118.44
391.411	1115.44
391.636	1117.44
391.86	1136.44
392.085	1136.44
392.31	1126.44
392.534	1142.44
392.759	1173.44
392.984	1155.44
393.208	1154.44
393.433	1161.44
393.658	1214.44
393.882	1249.44
394.107	1146.44
394.331	1181.44
394.556	1146.44
394.78	1139.44
395.005	1174.44
395.229	1258.44
395.454	1318.44
395.678	1322.44
395.903	1234.44
396.127	1195.44
396.352	1219.44
396.576	1265.44
396.801	1275.44
397.025	1266.44
397.249	1264.44
397.474	1204.44
397.698	1201.44
397.922	1258.44
398.147	1321.44
398.371	1387.44
398.595	1354.44
398.82	1315.44
399.044	1345.44
399.268	1408.44
399.492	1475.44
399.717	1516.44
399.941	1470.44
400.165	1533.44
400.389	1495.44
400.613	1477.44
400.837	1680.44
401.062	1814.44
401.286	1584.44
401.51	1487.44
401.734	1454.44
401.958	1381.44
402.182	1325.44
402.406	1276.44
402.63	1287.44
402.854	1316.44
403.078	1311.44
403.302	1307.44
403.526	1346.44
403.75	1378.44
403.974	1359.44
404.198	1396.44
404.422	1443.44
404.645	1494.44
404.869	1435.44
405.093	1365.44
405.317	1283.44
405.541	1367.44
405.765	1391.44
405.988	1362.44
406.212	1366.44
406.436	1419.44
406.66	1463.44
406.883	1529.44
407.107	1701.44
407.331	1792.44
407.555	1890.44
407.778	1689.44
408.002	1473.44
408.226	1461.44
408.449	1425.44
408.673	1382.44
408.896	1372.44
409.12	1440.44
409.344	1399.44
409.567	1361.44
409.791	1354.44
410.014	1406.44
410.238	1495.44
410.461	1556.44
410.685	1388.44
410.908	1336.44
411.132	1394.44
411.355	1314.44
411.578	1349.44
411.802	1363.44
412.025	1393.44
412.249	1361.44
412.472	1301.44
412.695	1273.44
412.919	1333.44
413.142	1271.44
413.365	1309.44
413.589	1370.44
413.812	1416.44
414.035	1423.44
414.258	1338.44
414.482	1308.44
414.705	1353.44
414.928	1307.44
415.151	1285.44
415.374	1293.44
415.597	1349.44
415.821	1324.44
416.044	1365.44
416.267	1368.44
416.49	1291.44
416.713	1271.44
416.936	1332.44
417.159	1393.44
417.382	1349.44
417.605	1339.44
417.828	1353.44
418.051	1358.44
418.274	1322.44
418.497	1297.44
418.72	1317.44
418.943	1247.44
419.166	1325.44
419.389	1353.44
419.611	1308.44
419.834	1319.44
420.057	1335.44
420.28	1315.44
420.503	1325.44
420.726	1323.44
420.948	1329.44
421.171	1275.44
421.394	1293.44
421.617	1318.44
421.839	1335.44
422.062	1314.44
422.285	1313.44
422.507	1290.44
422.73	1259.44
422.953	1235.44
423.175	1257.44
423.398	1253.44
423.621	1299.44
423.843	1306.44
424.066	1318.44
424.288	1387.44
424.511	1436.44
424.733	1339.44
424.956	1285.44
425.178	1251.44
425.401	1270.44
425.623	1335.44
425.846	1251.44
426.068	1374.44
426.291	1373.44
426.513	1325.44
426.735	1321.44
426.958	1451.44
427.18	1497.44
427.402	1379.44
427.625	1445.44
427.847	1367.44
428.069	1301.44
428.292	1285.44
428.514	1243.44
428.736	1273.44
428.958	1232.44
429.181	1292.44
429.403	1472.44
429.625	1783.44
429.847	1479.44
430.069	1330.44
430.292	1453.44
430.514	1440.44
430.736	1341.44
430.958	1359.44
431.18	1299.44
431.402	1213.44
431.624	1189.44
431.846	1196.44
432.068	1139.44
432.29	1179.44
432.512	1214.44
432.734	1245.44
432.956	1303.44
433.178	1330.44
433.4	1344.44
433.622	1312.44
433.844	1236.44
434.066	1205.44
434.287	1175.44
434.509	1196.44
434.731	1279.44
434.953	1373.44
435.175	1348.44
435.397	1306.44
435.618	1287.44
435.84	1253.44
436.062	1261.44
436.284	1267.44
436.505	1307.44
436.727	1297.44
436.949	1278.44
437.17	1246.44
437.392	1233.44
437.614	1240.44
437.835	1194.44
438.057	1239.44
438.278	1274.44
438.5	1186.44
438.721	1230.44
438.943	1241.44
439.165	1255.44
439.386	1227.44
439.608	1216.44
439.829	1230.44
440.05	1242.44
440.272	1260.44
440.493	1236.44
440.715	1307.44
440.936	1334.44
441.158	1429.44
441.379	1417.44
441.6	1411.44
441.822	1402.44
442.043	1343.44
442.264	1349.44
442.486	1274.44
442.707	1273.44
442.928	1300.44
443.149	1296.44
443.371	1364.44
443.592	1412.44
443.813	1380.44
444.034	1348.44
444.255	1370.44
444.476	1379.44
444.698	1408.44
444.919	1442.44
445.14	1531.44
445.361	1473.44
445.582	1454.44
445.803	1426.44
446.024	1381.44
446.245	1416.44
446.466	1388.44
446.687	1355.44
446.908	1353.44
447.129	1327.44
447.35	1301.44
447.571	1293.44
447.792	1249.44
448.013	1264.44
448.234	1261.44
448.455	1330.44
448.675	1313.44
448.896	1234.44
449.117	1192.44
449.338	1228.44
449.559	1287.44
449.779	1313.44
450	1431.44
450.221	1487.44
450.442	1421.44
450.662	1287.44
450.883	1198.44
451.104	1188.44
451.324	1210.44
451.545	1222.44
451.766	1178.44
451.986	1164.44
452.207	1095.44
452.428	1102.44
452.648	1083.44
452.869	1107.44
453.089	1125.44
453.31	1137.44
453.53	1143.44
453.751	1105.44
453.971	1036.44
454.192	1064.44
454.412	1164.44
454.633	1141.44
454.853	1123.44
455.073	1044.44
455.294	1089.44
455.514	1084.44
455.734	1065.44
455.955	1099.44
456.175	1074.44
456.395	1090.44
456.616	1108.44
456.836	1119.44
457.056	1091.44
457.276	1078.44
457.497	1063.44
457.717	1003.44
457.937	1054.44
458.157	1123.44
458.377	1068.44
458.598	1038.44
458.818	1059.44
459.038	1108.44
459.258	1163.44
459.478	1145.44
459.698	1110.44
459.918	1149.44
460.138	1193.44
460.358	1274.44
460.578	1244.44
460.798	1310.44
461.018	1358.44
461.238	1293.44
461.458	1301.44
461.678	1250.44
461.898	1239.44
462.118	1212.44
462.338	1270.44
462.558	1294.44
462.777	1249.44
462.997	1329.44
463.217	1375.44
463.437	1351.44
463.657	1268.44
463.876	1274.44
464.096	1247.44
464.316	1284.44
464.536	1320.44
464.755	1309.44
464.975	1279.44
465.195	1244.44
465.414	1324.44
465.634	1326.44
465.854	1303.44
466.073	1381.44
466.293	1319.44
466.512	1207.44
466.732	1169.44
466.951	1260.44
467.171	1230.44
467.391	1225.44
467.61	1229.44
467.829	1212.44
468.049	1332.44
468.268	1486.44
468.488	1341.44
468.707	1289.44
468.927	1301.44
469.146	1219.44
469.365	1219.44
469.585	1226.44
469.804	1211.44
470.023	1246.44
470.243	1265.44
470.462	1219.44
470.681	1229.44
470.901	1251.44
471.12	1221.44
471.339	1222.44
471.558	1205.44
471.777	1209.44
471.997	1220.44
472.216	1197.44
472.435	1109.44
472.654	1124.44
472.873	1171.44
473.092	1233.44
473.311	1184.44
473.53	1158.44
473.749	1160.44
473.968	1196.44
474.187	1227.44
474.406	1231.44
474.625	1220.44
474.844	1230.44
475.063	1215.44
475.282	1194.44
475.501	1199.44
475.72	1219.44
475.939	1311.44
476.158	1265.44
476.377	1226.44
476.596	1214.44
476.814	1216.44
477.033	1228.44
477.252	1269.44
477.471	1289.44
477.69	1298.44
477.908	1283.44
478.127	1355.44
478.346	1429.44
478.564	1431.44
478.783	1445.44
479.002	1499.44
479.22	1448.44
479.439	1497.44
479.658	1571.44
479.876	1539.44
480.095	1396.44
480.313	1358.44
480.532	1296.44
480.751	1306.44
480.969	1298.44
481.188	1288.44
481.406	1292.44
481.624	1242.44
481.843	1261.44
482.061	1304.44
482.28	1303.44
482.498	1347.44
482.717	1295.44
482.935	1309.44
483.153	1355.44
483.372	1401.44
483.59	1372.44
483.808	1390.44
484.027	1342.44
484.245	1464.44
484.463	1749.44
484.681	1903.44
484.9	1466.44
485.118	1386.44
485.336	1391.44
485.554	1373.44
485.772	1406.44
485.99	1359.44
486.209	1377.44
486.427	1403.44
486.645	1386.44
486.863	1427.44
487.081	1459.44
487.299	1476.44
487.517	1441.44
487.735	1448.44
487.953	1526.44
488.171	1543.44
488.389	1485.44
488.607	1490.44
488.825	1625.44
489.043	1558.44
489.261	1443.44
489.479	1485.44
489.696	1461.44
489.914	1454.44
490.132	1447.44
490.35	1482.44
490.568	1550.44
490.786	1502.44
491.003	1483.44
491.221	1533.44
491.439	1596.44
491.657	1603.44
491.874	1645.44
492.092	1653.44
492.31	1741.44
492.527	1655.44
492.745	1615.44
492.963	1595.44
493.18	1612.44
493.398	1722.44
493.615	1746.44
493.833	1633.44
494.05	1572.44
494.268	1591.44
494.485	1593.44
494.703	1562.44
494.92	1527.44
495.138	1540.44
495.355	1575.44
495.573	1607.44
495.79	1697.44
496.008	1688.44
496.225	1578.44
496.442	1624.44
496.66	1618.44
496.877	1609.44
497.094	1639.44
497.312	1633.44
497.529	1651.44
497.746	1668.44
497.963	1894.44
498.181	1965.44
498.398	1926.44
498.615	1837.44
498.832	1790.44
499.049	1772.44
499.267	1817.44
499.484	1959.44
499.701	2061.44
499.918	2078.44
500.135	2234.44
500.352	2361.44
500.569	2377.44
500.786	2545.44
501.003	2340.44
501.22	2125.44
501.437	2074.44
501.654	2141.44
501.871	2028.44
502.088	1763.44
502.305	1773.44
502.522	1703.44
502.739	1610.44
502.956	1567.44
503.172	1548.44
503.389	1517.44
503.606	1507.44
503.823	1522.44
504.04	1498.44
504.256	1513.44
504.473	1514.44
504.69	1567.44
504.907	1473.44
505.123	1413.44
505.34	1561.44
505.557	2014.44
505.773	1685.44
505.99	1412.44
506.207	1308.44
506.423	1291.44
506.64	1283.44
506.856	1330.44
507.073	1537.44
507.289	1607.44
507.506	1522.44
507.722	1315.44
507.939	1241.44
508.155	1279.44
508.372	1297.44
508.588	1238.44
508.805	1198.44
509.021	1178.44
509.238	1173.44
509.454	1146.44
509.67	1163.44
509.887	1139.44
510.103	1128.44
510.319	1182.44
510.536	1221.44
510.752	1222.44
510.968	1197.44
511.184	1327.44
511.401	1284.44
511.617	1133.44
511.833	1132.44
512.049	1146.44
512.265	1114.44
512.481	1135.44
512.698	1167.44
512.914	1219.44
513.13	1174.44
513.346	1146.44
513.562	1109.44
513.778	1140.44
513.994	1216.44
514.21	1211.44
514.426	1242.44
514.642	1326.44
514.858	1242.44
515.074	1150.44
515.29	1122.44
515.506	1190.44
515.721	1205.44
515.937	1186.44
516.153	1315.44
516.369	1242.44
516.585	1189.44
516.801	1173.44
517.016	1183.44
517.232	1197.44
517.448	1218.44
517.664	1226.44
517.879	1220.44
518.095	1291.44
518.311	1226.44
518.527	1181.44
518.742	1177.44
518.958	1139.44
519.173	1138.44
519.389	1172.44
519.605	1171.44
519.82	1182.44
520.036	1185.44
520.251	1126.44
520.467	1183.44
520.682	1242.44
520.898	1252.44
521.113	1133.44
521.329	1124.44
521.544	1186.44
521.76	1148.44
521.975	1092.44
522.19	1103.44
522.406	1111.44
522.621	1365.44
522.836	1312.44
523.052	1095.44
523.267	1121.44
523.482	1130.44
523.698	1057.44
523.913	1081.44
524.128	1117.44
524.343	1169.44
524.559	1182.44
524.774	1093.44
524.989	1088.44
525.204	1093.44
525.419	1050.44
525.634	1029.44
525.849	1057.44
526.064	1074.44
526.28	1074.44
526.495	1012.44
526.71	1012.44
526.925	990.44
527.14	980.44
527.355	984.44
527.57	997.44
527.785	1025.44
527.999	980.44
528.214	990.44
528.429	984.44
528.644	1046.44
528.859	1067.44
529.074	1081.44
529.289	1107.44
529.503	1106.44
529.718	1110.44
529.933	1032.44
530.148	969.44
530.363	980.44
530.577	978.44
530.792	998.44
531.007	977.44
531.221	957.44
531.436	993.44
531.651	1041.44
531.865	1039.44
532.08	1009.44
532.295	974.44
532.509	955.44
532.724	943.44
532.938	970.44
533.153	1077.44
533.367	1039.44
533.582	1024.44
533.796	1015.44
534.011	1007.44
534.225	1011.44
534.44	983.44
534.654	976.44
534.868	987.44
535.083	1043.44
535.297	1031.44
535.511	1007.44
535.726	1005.44
535.94	1011.44
536.154	979.44
536.369	954.44
536.583	940.44
536.797	947.44
537.011	986.44
537.225	937.44
537.44	940.44
537.654	979.44
537.868	935.44
538.082	906.44
538.296	872.44
538.51	894.44
538.724	900.44
538.938	958.44
539.153	995.44
539.367	990.44
539.581	987.44
539.795	997.44
540.009	968.44
540.222	954.44
540.436	970.44
540.65	1044.44
540.864	1127.44
541.078	1057.44
541.292	1019.44
541.506	1066.44
541.72	1098.44
541.934	1135.44
542.147	1195.44
542.361	1107.44
542.575	1091.44
542.789	1029.44
543.002	970.44
543.216	988.44
543.43	1049.44
543.644	1071.44
543.857	1104.44
544.071	1119.44
544.285	1084.44
544.498	1095.44
544.712	1078.44
544.925	1092.44
545.139	1137.44
545.352	1066.44
545.566	1044.44
545.779	1085.44
545.993	1093.44
546.206	1093.44
546.42	1092.44
546.633	1058.44
546.847	1054.44
547.06	1069.44
547.274	1070.44
547.487	1097.44
547.7	1106.44
547.914	1089.44
548.127	1074.44
548.34	1074.44
548.554	1084.44
548.767	1044.44
548.98	1059.44
549.193	1057.44
549.407	1125.44
549.62	1110.44
549.833	1062.44
550.046	1039.44
550.259	1070.44
550.473	1022.44
550.686	1021.44
550.899	1017.44
551.112	1021.44
551.325	995.44
551.538	1022.44
551.751	1129.44
551.964	925.44
552.177	953.44
552.39	984.44
552.603	1029.44
552.816	1002.44
553.029	1069.44
553.242	1076.44
553.455	1059.44
553.667	1051.44
553.88	1062.44
554.093	1020.44
554.306	995.44
554.519	971.44
554.732	955.44
554.944	970.44
555.157	988.44
555.37	965.44
555.583	943.44
555.795	930.44
556.008	910.44
556.221	875.44
556.433	879.44
556.646	905.44
556.859	865.44
557.071	881.44
557.284	859.44
557.496	877.44
557.709	865.44
557.921	874.44
558.134	849.44
558.346	865.44
558.559	853.44
558.771	859.44
558.984	847.44
559.196	823.44
559.409	809.44
559.621	821.44
559.833	811.44
560.046	844.44
560.258	846.44
560.47	827.44
560.683	842.44
560.895	847.44
561.107	819.44
561.32	809.44
561.532	823.44
561.744	825.44
561.956	807.44
562.168	828.44
562.381	811.44
562.593	776.44
562.805	769.44
563.017	756.44
563.229	790.44
563.441	809.44
563.653	792.44
563.865	796.44
564.077	761.44
564.289	797.44
564.501	809.44
564.713	818.44
564.925	819.44
565.137	884.44
565.349	817.44
565.561	830.44
565.773	829.44
565.985	844.44
566.197	884.44
566.408	925.44
566.62	905.44
566.832	903.44
567.044	914.44
567.255	885.44
567.467	908.44
567.679	921.44
567.891	943.44
568.102	890.44
568.314	831.44
568.526	819.44
568.737	774.44
568.949	753.44
569.161	711.44
569.372	693.44
569.584	687.44
569.795	692.44
570.007	704.44
570.218	677.44
570.43	660.44
570.641	645.44
570.853	655.44
571.064	668.44
571.276	666.44
571.487	661.44
571.698	656.44
571.91	635.44
572.121	620.44
572.333	619.44
572.544	625.44
572.755	577.44
572.966	580.44
573.178	603.44
573.389	595.44
573.6	606.44
573.811	651.44
574.023	587.44
574.234	580.44
574.445	561.44
574.656	544.44
574.867	550.44
575.078	581.44
575.289	558.44
575.501	568.44
575.712	541.44
575.923	566.44
576.134	551.44
576.345	546.44
576.556	558.44
576.767	553.44
576.978	555.44
577.188	533.44
577.399	549.44
577.61	515.44
577.821	525.44
578.032	513.44
578.243	504.44
578.454	519.44
578.665	517.44
578.875	517.44
579.086	493.44
579.297	501.44
579.508	520.44
579.718	499.44
579.929	499.44
580.14	490.44
580.35	492.44
580.561	515.44
580.772	565.44
580.982	539.44
581.193	503.44
581.403	490.44
581.614	503.44
581.825	504.44
582.035	480.44
582.246	497.44
582.456	493.44
582.667	485.44
582.877	487.44
583.087	468.44
583.298	461.44
583.508	482.44
583.719	453.44
583.929	473.44
584.139	499.44
584.35	476.44
584.56	442.44
584.77	473.44
584.981	473.44
585.191	462.44
585.401	481.44
585.611	468.44
585.821	450.44
586.032	469.44
586.242	441.44
586.452	450.44
586.662	469.44
586.872	446.44
587.082	447.44
587.292	446.44
587.502	457.44
587.713	454.44
587.923	434.44
588.133	463.44
588.343	467.44
588.553	463.44
588.762	445.44
588.972	441.44
589.182	462.44
589.392	462.44
589.602	450.44
589.812	454.44
590.022	450.44
590.232	435.44
590.441	475.44
590.651	464.44
590.861	446.44
591.071	453.44
591.281	429.44
591.49	439.44
591.7	439.44
591.91	443.44
592.119	434.44
592.329	445.44
592.539	485.44
592.748	456.44
592.958	478.44
593.167	462.44
593.377	473.44
593.587	467.44
593.796	460.44
594.006	454.44
594.215	460.44
594.424	469.44
594.634	484.44
594.843	475.44
595.053	471.44
595.262	465.44
595.472	428.44
595.681	479.44
595.89	431.44
596.1	441.44
596.309	453.44
596.518	438.44
596.727	452.44
596.937	437.44
597.146	416.44
597.355	428.44
597.564	417.44
597.774	423.44
597.983	402.44
598.192	389.44
598.401	389.44
598.61	391.44
598.819	390.44
599.028	406.44
599.237	388.44
599.446	384.44
599.655	382.44
599.864	408.44
600.073	379.44
600.282	381.44
600.491	404.44
600.7	380.44
600.909	377.44
601.118	391.44
601.327	405.44
601.536	414.44
601.745	426.44
601.953	420.44
602.162	446.44
602.371	419.44
602.58	407.44
602.789	421.44
602.997	414.44
603.206	402.44
603.415	413.44
603.623	394.44
603.832	403.44
604.041	396.44
604.249	384.44
604.458	371.44
604.666	388.44
604.875	370.44
605.084	408.44
605.292	389.44
605.501	411.44
605.709	418.44
605.918	400.44
606.126	409.44
606.334	395.44
606.543	392.44
606.751	417.44
606.96	425.44
607.168	413.44
607.376	396.44
607.585	402.44
607.793	407.44
608.001	394.44
608.21	406.44
608.418	407.44
608.626	387.44
608.834	398.44
609.043	408.44
609.251	408.44
609.459	426.44
609.667	391.44
609.875	380.44
610.083	419.44
610.291	409.44
610.499	395.44
610.707	403.44
610.916	400.44
611.124	394.44
611.332	385.44
611.54	399.44
611.748	397.44
611.955	371.44
612.163	402.44
612.371	412.44
612.579	406.44
612.787	394.44
612.995	397.44
613.203	381.44
613.411	400.44
613.618	394.44
613.826	393.44
614.034	385.44
614.242	384.44
614.449	383.44
614.657	409.44
614.865	386.44
615.072	393.44
615.28	391.44
615.488	387.44
615.695	426.44
615.903	401.44
616.111	394.44
616.318	389.44
616.526	396.44
616.733	404.44
616.941	393.44
617.148	376.44
617.356	369.44
617.563	378.44
617.771	388.44
617.978	355.44
618.185	379.44
618.393	371.44
618.6	370.44
618.807	392.44
619.015	384.44
619.222	357.44
619.429	366.44
619.637	368.44
619.844	357.44
620.051	354.44
620.258	357.44
620.466	346.44
620.673	339.44
620.88	352.44
621.087	353.44
621.294	354.44
621.501	339.44
621.708	343.44
621.915	345.44
622.122	346.44
622.329	361.44
622.536	355.44
622.743	357.44
622.95	357.44
623.157	351.44
623.364	368.44
623.571	356.44
623.778	349.44
623.985	351.44
624.192	353.44
624.399	357.44
624.606	347.44
624.812	333.44
625.019	346.44
625.226	342.44
625.433	315.44
625.639	319.44
625.846	323.44
626.053	302.44
626.259	305.44
626.466	294.44
626.673	275.44
626.879	300.44
627.086	310.44
627.293	301.44
627.499	296.44
627.706	308.44
627.912	330.44
628.119	324.44
628.325	333.44
628.532	313.44
628.738	306.44
628.945	327.44
629.151	308.44
629.357	327.44
629.564	308.44
629.77	317.44
629.976	308.44
630.183	288.44
630.389	321.44
630.595	317.44
630.802	327.44
631.008	308.44
631.214	320.44
631.42	288.44
631.627	273.44
631.833	271.44
632.039	296.44
632.245	309.44
632.451	286.44
632.657	298.44
632.863	309.44
633.069	286.44
633.275	305.44
633.481	275.44
633.688	280.44
633.893	273.44
634.099	291.44
634.305	280.44
634.511	289.44
634.717	265.44
634.923	259.44
635.129	274.44
635.335	269.44
635.541	267.44
635.747	270.44
635.952	267.44
636.158	269.44
636.364	311.44
636.57	295.44
636.775	292.44
636.981	299.44
637.187	278.44
637.392	263.44
637.598	286.44
637.804	299.44
638.009	271.44
638.215	278.44
638.421	256.44
638.626	263.44
638.832	274.44
639.037	268.44
639.243	266.44
639.448	277.44
639.654	263.44
639.859	270.44
640.065	282.44
640.27	286.44
640.475	280.44
640.681	277.44
640.886	267.44
641.091	267.44
641.297	281.44
641.502	274.44
641.707	264.44
641.913	287.44
642.118	265.44
642.323	278.44
642.528	257.44
642.733	262.44
642.939	281.44
643.144	264.44
643.349	262.44
643.554	291.44
643.759	254.44
643.964	257.44
644.169	263.44
644.374	273.44
644.579	268.44
644.784	255.44
644.989	255.44
645.194	258.44
645.399	259.44
645.604	250.44
645.809	258.44
646.014	268.44
646.219	241.44
646.423	238.44
646.628	239.44
646.833	269.44
647.038	261.44
647.243	272.44
647.447	271.44
647.652	267.44
647.857	262.44
648.062	261.44
648.266	259.44
648.471	265.44
648.676	275.44
648.88	278.44
649.085	257.44
649.289	265.44
649.494	285.44
649.698	271.44
649.903	250.44
650.107	263.44
650.312	257.44
650.516	252.44
650.721	238.44
650.925	237.44
651.13	245.44
651.334	249.44
651.539	229.44
651.743	231.44
651.947	238.44
652.152	230.44
652.356	243.44
652.56	246.44
652.764	221.44
652.969	242.44
653.173	226.44
653.377	241.44
653.581	224.44
653.785	235.44
653.99	225.44
654.194	217.44
654.398	221.44
654.602	226.44
654.806	213.44
655.01	222.44
655.214	230.44
655.418	226.44
655.622	229.44
655.826	266.44
656.03	222.44
656.234	249.44
656.438	250.44
656.642	258.44
656.846	251.44
657.049	228.44
657.253	212.44
657.457	194.44
657.661	195.44
657.865	181.44
658.068	182.44
658.272	151.44
658.476	159.44
658.68	167.44
658.883	181.44
659.087	158.44
659.291	159.44
659.494	144.44
659.698	121.44
659.901	128.44
660.105	137.44
660.309	123.44
660.512	118.44
660.716	124.44
660.919	110.44
661.123	105.44
661.326	123.44
661.53	114.44
661.733	120.44
661.936	103.44
662.14	107.44
662.343	109.44
662.546	120.44
662.75	112.44
662.953	102.44
663.156	85.44
663.36	94.44
663.563	83.44
663.766	76.44
663.969	99.44
664.173	86.44
664.376	89.44
664.579	86.44
664.782	86.44
664.985	85.44
665.188	84.44
665.391	91.44
665.594	80.44
665.797	89.44
666	83.44
666.203	93.44
666.406	79.44
666.609	84.44
666.812	90.44
667.015	94.44
667.218	93.44
667.421	70.44
667.624	87.44
667.827	83.44
668.03	86.44
668.232	92.44
668.435	73.44
668.638	83.44
668.841	77.44
669.043	69.44
669.246	83.44
669.449	99.44
669.651	84.44
669.854	78.44
670.057	83.44
670.259	80.44
670.462	84.44
670.665	92.44
670.867	90.44
671.07	85.44
671.272	87.44
671.475	90.44
671.677	79.44
671.88	79.44
672.082	93.44
672.284	77.44
672.487	76.44
672.689	87.44
672.892	76.44
