Data from WStandard_LampEnergy8_LIBS07252019.E.O._I.C._HRD10591_15-58-57-930.txt Node
Date: Thu Jul 25 15:58:57 EDT 2019
User: cochatt
Spectrometer: HR+D1059
Trigger mode: 1
Integration Time (sec): 1.000000E-1
Scans to average: 1
Electric dark correction enabled: true
Nonlinearity correction enabled: false
Boxcar width: 0
XAxis mode: Wavelengths
Number of Pixels in Spectrum: 2048
>>>>>Begin Spectral Data<<<<<
223.165	-8.25
223.4	-8.25
223.635	-8.25
223.869	-14.25
224.104	-14.25
224.338	-11.25
224.573	-13.25
224.808	-17.25
225.042	-12.25
225.277	-14.25
225.511	-3.25
225.746	-4.25
225.98	5.75
226.215	14.75
226.449	17.75
226.683	18.75
226.918	28.75
227.152	26.75
227.387	33.75
227.621	38.75
227.856	34.75
228.09	40.75
228.324	39.75
228.559	54.75
228.793	96.75
229.027	202.75
229.262	206.75
229.496	210.75
229.73	234.75
229.964	256.75
230.199	248.75
230.433	254.75
230.667	274.75
230.901	293.75
231.136	266.75
231.37	256.75
231.604	257.75
231.838	265.75
232.072	267.75
232.306	241.75
232.541	256.75
232.775	304.75
233.009	333.75
233.243	294.75
233.477	287.75
233.711	306.75
233.945	311.75
234.179	311.75
234.413	304.75
234.647	345.75
234.881	305.75
235.115	302.75
235.349	312.75
235.583	309.75
235.817	306.75
236.051	289.75
236.285	308.75
236.519	318.75
236.753	365.75
236.987	378.75
237.221	371.75
237.455	380.75
237.689	354.75
237.922	344.75
238.156	349.75
238.39	351.75
238.624	369.75
238.858	394.75
239.091	395.75
239.325	421.75
239.559	489.75
239.793	471.75
240.027	527.75
240.26	513.75
240.494	398.75
240.728	370.75
240.961	373.75
241.195	390.75
241.429	406.75
241.662	400.75
241.896	390.75
242.13	406.75
242.363	434.75
242.597	456.75
242.83	432.75
243.064	450.75
243.298	467.75
243.531	471.75
243.765	472.75
243.998	462.75
244.232	433.75
244.465	394.75
244.699	400.75
244.932	466.75
245.166	521.75
245.399	493.75
245.633	449.75
245.866	452.75
246.099	488.75
246.333	477.75
246.566	499.75
246.8	516.75
247.033	574.75
247.266	552.75
247.5	528.75
247.733	557.75
247.966	554.75
248.2	606.75
248.433	598.75
248.666	623.75
248.899	686.75
249.133	764.75
249.366	808.75
249.599	657.75
249.832	611.75
250.066	644.75
250.299	634.75
250.532	599.75
250.765	545.75
250.998	569.75
251.231	582.75
251.465	623.75
251.698	576.75
251.931	585.75
252.164	582.75
252.397	622.75
252.63	586.75
252.863	562.75
253.096	531.75
253.329	570.75
253.562	592.75
253.795	624.75
254.028	616.75
254.261	586.75
254.494	565.75
254.727	557.75
254.96	581.75
255.193	646.75
255.426	721.75
255.659	779.75
255.892	790.75
256.124	654.75
256.357	661.75
256.59	693.75
256.823	678.75
257.056	706.75
257.289	842.75
257.521	906.75
257.754	816.75
257.987	822.75
258.22	848.75
258.452	823.75
258.685	682.75
258.918	644.75
259.151	673.75
259.383	651.75
259.616	575.75
259.849	622.75
260.081	692.75
260.314	776.75
260.547	789.75
260.779	818.75
261.012	780.75
261.244	711.75
261.477	677.75
261.71	684.75
261.942	670.75
262.175	656.75
262.407	709.75
262.64	662.75
262.872	638.75
263.105	622.75
263.337	623.75
263.57	632.75
263.802	631.75
264.035	624.75
264.267	584.75
264.499	571.75
264.732	610.75
264.964	665.75
265.197	678.75
265.429	692.75
265.661	776.75
265.894	853.75
266.126	892.75
266.358	794.75
266.591	826.75
266.823	834.75
267.055	814.75
267.287	789.75
267.52	764.75
267.752	770.75
267.984	769.75
268.216	809.75
268.448	842.75
268.681	804.75
268.913	737.75
269.145	706.75
269.377	701.75
269.609	782.75
269.841	882.75
270.073	1011.75
270.306	1083.75
270.538	1096.75
270.77	985.75
271.002	857.75
271.234	819.75
271.466	846.75
271.698	942.75
271.93	1088.75
272.162	1070.75
272.394	978.75
272.626	921.75
272.858	802.75
273.09	713.75
273.322	716.75
273.553	668.75
273.785	673.75
274.017	694.75
274.249	774.75
274.481	778.75
274.713	721.75
274.945	718.75
275.176	704.75
275.408	702.75
275.64	695.75
275.872	686.75
276.104	757.75
276.335	843.75
276.567	962.75
276.799	918.75
277.031	835.75
277.262	832.75
277.494	846.75
277.726	910.75
277.957	870.75
278.189	834.75
278.421	753.75
278.652	722.75
278.884	738.75
279.115	775.75
279.347	745.75
279.579	731.75
279.81	734.75
280.042	847.75
280.273	890.75
280.505	878.75
280.736	905.75
280.968	849.75
281.199	754.75
281.431	710.75
281.662	723.75
281.894	720.75
282.125	737.75
282.356	768.75
282.588	776.75
282.819	781.75
283.051	842.75
283.282	906.75
283.513	871.75
283.745	756.75
283.976	710.75
284.207	712.75
284.439	756.75
284.67	754.75
284.901	784.75
285.132	809.75
285.364	765.75
285.595	766.75
285.826	769.75
286.057	773.75
286.288	770.75
286.52	786.75
286.751	865.75
286.982	852.75
287.213	768.75
287.444	741.75
287.675	754.75
287.906	812.75
288.138	824.75
288.369	798.75
288.6	772.75
288.831	778.75
289.062	734.75
289.293	750.75
289.524	768.75
289.755	776.75
289.986	781.75
290.217	733.75
290.448	735.75
290.679	796.75
290.91	780.75
291.141	833.75
291.371	848.75
291.602	830.75
291.833	845.75
292.064	844.75
292.295	801.75
292.526	852.75
292.757	864.75
292.987	833.75
293.218	802.75
293.449	874.75
293.68	960.75
293.91	1026.75
294.141	947.75
294.372	904.75
294.603	944.75
294.833	949.75
295.064	934.75
295.295	830.75
295.525	794.75
295.756	751.75
295.987	725.75
296.217	736.75
296.448	751.75
296.679	768.75
296.909	782.75
297.14	788.75
297.37	812.75
297.601	853.75
297.831	882.75
298.062	873.75
298.292	830.75
298.523	784.75
298.753	782.75
298.984	808.75
299.214	795.75
299.445	827.75
299.675	840.75
299.905	830.75
300.136	809.75
300.366	792.75
300.597	774.75
300.827	789.75
301.057	836.75
301.288	832.75
301.518	832.75
301.748	876.75
301.979	918.75
302.209	905.75
302.439	1013.75
302.669	1028.75
302.9	912.75
303.13	864.75
303.36	854.75
303.59	886.75
303.82	871.75
304.051	830.75
304.281	858.75
304.511	876.75
304.741	982.75
304.971	1060.75
305.201	1097.75
305.431	970.75
305.661	785.75
305.891	760.75
306.121	770.75
306.352	793.75
306.582	839.75
306.812	922.75
307.042	946.75
307.272	957.75
307.502	997.75
307.731	1073.75
307.961	1098.75
308.191	1021.75
308.421	894.75
308.651	848.75
308.881	824.75
309.111	839.75
309.341	834.75
309.571	841.75
309.8	860.75
310.03	820.75
310.26	813.75
310.49	828.75
310.72	839.75
310.949	915.75
311.179	888.75
311.409	867.75
311.639	827.75
311.868	840.75
312.098	854.75
312.328	859.75
312.557	833.75
312.787	863.75
313.017	868.75
313.246	854.75
313.476	888.75
313.706	892.75
313.935	874.75
314.165	925.75
314.394	954.75
314.624	967.75
314.853	1012.75
315.083	1052.75
315.312	1074.75
315.542	993.75
315.771	939.75
316.001	918.75
316.23	965.75
316.46	959.75
316.689	942.75
316.919	854.75
317.148	852.75
317.377	889.75
317.607	964.75
317.836	1070.75
318.065	1088.75
318.295	1041.75
318.524	981.75
318.753	970.75
318.983	968.75
319.212	930.75
319.441	933.75
319.67	927.75
319.9	957.75
320.129	1008.75
320.358	1014.75
320.587	1023.75
320.816	1033.75
321.046	1002.75
321.275	970.75
321.504	994.75
321.733	1050.75
321.962	999.75
322.191	923.75
322.42	934.75
322.649	934.75
322.878	932.75
323.108	935.75
323.337	963.75
323.566	957.75
323.795	936.75
324.024	965.75
324.253	942.75
324.482	921.75
324.71	905.75
324.939	894.75
325.168	912.75
325.397	919.75
325.626	985.75
325.855	973.75
326.084	932.75
326.313	914.75
326.542	956.75
326.77	1001.75
326.999	991.75
327.228	932.75
327.457	880.75
327.686	877.75
327.914	897.75
328.143	927.75
328.372	938.75
328.6	923.75
328.829	919.75
329.058	908.75
329.287	920.75
329.515	970.75
329.744	952.75
329.972	1025.75
330.201	1028.75
330.43	1028.75
330.658	1010.75
330.887	969.75
331.115	970.75
331.344	974.75
331.572	979.75
331.801	982.75
332.03	979.75
332.258	1022.75
332.486	997.75
332.715	1027.75
332.943	1001.75
333.172	1014.75
333.4	1032.75
333.629	1044.75
333.857	1132.75
334.085	1212.75
334.314	1369.75
334.542	1465.75
334.771	1286.75
334.999	1177.75
335.227	1123.75
335.455	1035.75
335.684	1055.75
335.912	1093.75
336.14	1123.75
336.369	1070.75
336.597	1013.75
336.825	1019.75
337.053	1033.75
337.281	1117.75
337.51	1166.75
337.738	1177.75
337.966	1102.75
338.194	1020.75
338.422	988.75
338.65	997.75
338.878	978.75
339.106	913.75
339.334	931.75
339.562	935.75
339.79	966.75
340.018	993.75
340.246	1061.75
340.474	1047.75
340.702	1011.75
340.93	1030.75
341.158	986.75
341.386	973.75
341.614	999.75
341.842	989.75
342.07	986.75
342.298	1000.75
342.526	984.75
342.754	985.75
342.981	964.75
343.209	974.75
343.437	966.75
343.665	988.75
343.893	1030.75
344.12	1032.75
344.348	1038.75
344.576	1012.75
344.804	978.75
345.031	980.75
345.259	963.75
345.487	944.75
345.714	915.75
345.942	918.75
346.17	951.75
346.397	934.75
346.625	931.75
346.853	882.75
347.08	879.75
347.308	894.75
347.535	916.75
347.763	934.75
347.99	914.75
348.218	885.75
348.445	930.75
348.673	935.75
348.9	937.75
349.128	975.75
349.355	991.75
349.583	997.75
349.81	944.75
350.037	874.75
350.265	861.75
350.492	894.75
350.72	921.75
350.947	954.75
351.174	956.75
351.402	895.75
351.629	844.75
351.856	871.75
352.083	851.75
352.311	873.75
352.538	910.75
352.765	961.75
352.992	950.75
353.22	917.75
353.447	905.75
353.674	915.75
353.901	922.75
354.128	910.75
354.355	931.75
354.583	947.75
354.81	1005.75
355.037	968.75
355.264	955.75
355.491	926.75
355.718	952.75
355.945	903.75
356.172	886.75
356.399	891.75
356.626	904.75
356.853	962.75
357.08	1030.75
357.307	1129.75
357.534	1081.75
357.761	940.75
357.988	874.75
358.215	879.75
358.441	882.75
358.668	886.75
358.895	908.75
359.122	964.75
359.349	1074.75
359.576	1000.75
359.802	923.75
360.029	909.75
360.256	908.75
360.483	896.75
360.709	938.75
360.936	983.75
361.163	1043.75
361.39	1086.75
361.616	1184.75
361.843	1126.75
362.07	1060.75
362.296	914.75
362.523	909.75
362.749	918.75
362.976	917.75
363.203	959.75
363.429	924.75
363.656	917.75
363.882	948.75
364.109	1061.75
364.335	1118.75
364.562	1001.75
364.788	982.75
365.015	932.75
365.241	897.75
365.468	934.75
365.694	985.75
365.92	999.75
366.147	951.75
366.373	889.75
366.599	904.75
366.826	910.75
367.052	886.75
367.278	918.75
367.505	953.75
367.731	965.75
367.957	974.75
368.184	1008.75
368.41	1049.75
368.636	1089.75
368.862	1097.75
369.089	1089.75
369.315	1010.75
369.541	993.75
369.767	949.75
369.993	921.75
370.219	916.75
370.445	970.75
370.672	1021.75
370.898	1085.75
371.124	1022.75
371.35	994.75
371.576	1030.75
371.802	1070.75
372.028	1031.75
372.254	967.75
372.48	968.75
372.706	942.75
372.932	960.75
373.158	951.75
373.384	969.75
373.61	989.75
373.835	1027.75
374.061	1006.75
374.287	1004.75
374.513	977.75
374.739	983.75
374.965	1027.75
375.191	1040.75
375.416	1033.75
375.642	1039.75
375.868	1096.75
376.094	1097.75
376.319	1065.75
376.545	979.75
376.771	1025.75
376.997	1094.75
377.222	1068.75
377.448	1044.75
377.674	1058.75
377.899	1075.75
378.125	1104.75
378.35	1074.75
378.576	1018.75
378.802	959.75
379.027	988.75
379.253	947.75
379.478	974.75
379.704	1002.75
379.929	987.75
380.155	983.75
380.38	1002.75
380.606	1023.75
380.831	1008.75
381.057	1085.75
381.282	1084.75
381.507	1056.75
381.733	1145.75
381.958	1177.75
382.184	1078.75
382.409	1024.75
382.634	1049.75
382.86	1040.75
383.085	1025.75
383.31	1073.75
383.535	1173.75
383.761	1253.75
383.986	1154.75
384.211	1141.75
384.436	1129.75
384.662	1182.75
384.887	1222.75
385.112	1156.75
385.337	1166.75
385.562	1113.75
385.787	1146.75
386.013	1150.75
386.238	1157.75
386.463	1165.75
386.688	1241.75
386.913	1317.75
387.138	1254.75
387.363	1182.75
387.588	1160.75
387.813	1159.75
388.038	1171.75
388.263	1225.75
388.488	1177.75
388.713	1082.75
388.938	1086.75
389.163	1108.75
389.387	1102.75
389.612	1133.75
389.837	1152.75
390.062	1147.75
390.287	1123.75
390.512	1107.75
390.736	1133.75
390.961	1116.75
391.186	1051.75
391.411	1078.75
391.636	1125.75
391.86	1144.75
392.085	1138.75
392.31	1106.75
392.534	1127.75
392.759	1163.75
392.984	1133.75
393.208	1180.75
393.433	1172.75
393.658	1233.75
393.882	1232.75
394.107	1145.75
394.331	1129.75
394.556	1104.75
394.78	1134.75
395.005	1181.75
395.229	1273.75
395.454	1307.75
395.678	1288.75
395.903	1256.75
396.127	1236.75
396.352	1211.75
396.576	1242.75
396.801	1260.75
397.025	1246.75
397.249	1231.75
397.474	1230.75
397.698	1241.75
397.922	1233.75
398.147	1312.75
398.371	1407.75
398.595	1363.75
398.82	1299.75
399.044	1319.75
399.268	1376.75
399.492	1429.75
399.717	1506.75
399.941	1520.75
400.165	1518.75
400.389	1417.75
400.613	1457.75
400.837	1665.75
401.062	1823.75
401.286	1584.75
401.51	1437.75
401.734	1472.75
401.958	1424.75
402.182	1285.75
402.406	1292.75
402.63	1260.75
402.854	1280.75
403.078	1312.75
403.302	1346.75
403.526	1345.75
403.75	1367.75
403.974	1366.75
404.198	1369.75
404.422	1382.75
404.645	1491.75
404.869	1432.75
405.093	1314.75
405.317	1305.75
405.541	1328.75
405.765	1396.75
405.988	1402.75
406.212	1375.75
406.436	1392.75
406.66	1458.75
406.883	1504.75
407.107	1700.75
407.331	1838.75
407.555	1908.75
407.778	1715.75
408.002	1443.75
408.226	1436.75
408.449	1412.75
408.673	1392.75
408.896	1389.75
409.12	1405.75
409.344	1408.75
409.567	1338.75
409.791	1391.75
410.014	1408.75
410.238	1455.75
410.461	1536.75
410.685	1368.75
410.908	1354.75
411.132	1338.75
411.355	1342.75
411.578	1337.75
411.802	1364.75
412.025	1381.75
412.249	1310.75
412.472	1296.75
412.695	1289.75
412.919	1309.75
413.142	1294.75
413.365	1312.75
413.589	1324.75
413.812	1424.75
414.035	1493.75
414.258	1340.75
414.482	1304.75
414.705	1320.75
414.928	1302.75
415.151	1270.75
415.374	1324.75
415.597	1344.75
415.821	1330.75
416.044	1351.75
416.267	1351.75
416.49	1274.75
416.713	1276.75
416.936	1356.75
417.159	1379.75
417.382	1359.75
417.605	1318.75
417.828	1331.75
418.051	1358.75
418.274	1328.75
418.497	1263.75
418.72	1281.75
418.943	1272.75
419.166	1328.75
419.389	1400.75
419.611	1342.75
419.834	1316.75
420.057	1345.75
420.28	1274.75
420.503	1308.75
420.726	1308.75
420.948	1312.75
421.171	1292.75
421.394	1316.75
421.617	1337.75
421.839	1342.75
422.062	1307.75
422.285	1286.75
422.507	1290.75
422.73	1262.75
422.953	1213.75
423.175	1218.75
423.398	1294.75
423.621	1270.75
423.843	1303.75
424.066	1348.75
424.288	1400.75
424.511	1409.75
424.733	1349.75
424.956	1245.75
425.178	1259.75
425.401	1251.75
425.623	1285.75
425.846	1260.75
426.068	1368.75
426.291	1343.75
426.513	1341.75
426.735	1342.75
426.958	1442.75
427.18	1490.75
427.402	1378.75
427.625	1437.75
427.847	1377.75
428.069	1282.75
428.292	1282.75
428.514	1219.75
428.736	1209.75
428.958	1255.75
429.181	1264.75
429.403	1470.75
429.625	1751.75
429.847	1490.75
430.069	1304.75
430.292	1473.75
430.514	1477.75
430.736	1389.75
430.958	1409.75
431.18	1320.75
431.402	1226.75
431.624	1201.75
431.846	1186.75
432.068	1144.75
432.29	1161.75
432.512	1189.75
432.734	1245.75
432.956	1305.75
433.178	1348.75
433.4	1326.75
433.622	1289.75
433.844	1244.75
434.066	1179.75
434.287	1182.75
434.509	1224.75
434.731	1308.75
434.953	1363.75
435.175	1320.75
435.397	1276.75
435.618	1301.75
435.84	1243.75
436.062	1264.75
436.284	1291.75
436.505	1326.75
436.727	1336.75
436.949	1266.75
437.17	1221.75
437.392	1228.75
437.614	1221.75
437.835	1196.75
438.057	1222.75
438.278	1271.75
438.5	1251.75
438.721	1246.75
438.943	1246.75
439.165	1217.75
439.386	1199.75
439.608	1240.75
439.829	1276.75
440.05	1235.75
440.272	1252.75
440.493	1252.75
440.715	1299.75
440.936	1360.75
441.158	1458.75
441.379	1395.75
441.6	1381.75
441.822	1334.75
442.043	1314.75
442.264	1290.75
442.486	1272.75
442.707	1261.75
442.928	1243.75
443.149	1319.75
443.371	1353.75
443.592	1378.75
443.813	1395.75
444.034	1340.75
444.255	1354.75
444.476	1382.75
444.698	1407.75
444.919	1361.75
445.14	1489.75
445.361	1452.75
445.582	1441.75
445.803	1398.75
446.024	1380.75
446.245	1428.75
446.466	1402.75
446.687	1331.75
446.908	1356.75
447.129	1299.75
447.35	1300.75
447.571	1321.75
447.792	1266.75
448.013	1215.75
448.234	1272.75
448.455	1344.75
448.675	1307.75
448.896	1229.75
449.117	1198.75
449.338	1231.75
449.559	1253.75
449.779	1328.75
450	1400.75
450.221	1464.75
450.442	1431.75
450.662	1312.75
450.883	1220.75
451.104	1174.75
451.324	1191.75
451.545	1242.75
451.766	1196.75
451.986	1165.75
452.207	1146.75
452.428	1080.75
452.648	1100.75
452.869	1107.75
453.089	1159.75
453.31	1184.75
453.53	1173.75
453.751	1114.75
453.971	1079.75
454.192	1118.75
454.412	1144.75
454.633	1172.75
454.853	1109.75
455.073	1076.75
455.294	1074.75
455.514	1054.75
455.734	1048.75
455.955	1091.75
456.175	1052.75
456.395	1088.75
456.616	1109.75
456.836	1110.75
457.056	1097.75
457.276	1114.75
457.497	1062.75
457.717	1033.75
457.937	1028.75
458.157	1049.75
458.377	1056.75
458.598	1038.75
458.818	1040.75
459.038	1119.75
459.258	1146.75
459.478	1158.75
459.698	1129.75
459.918	1159.75
460.138	1220.75
460.358	1252.75
460.578	1268.75
460.798	1278.75
461.018	1349.75
461.238	1310.75
461.458	1287.75
461.678	1262.75
461.898	1232.75
462.118	1199.75
462.338	1294.75
462.558	1276.75
462.777	1249.75
462.997	1314.75
463.217	1363.75
463.437	1362.75
463.657	1280.75
463.876	1264.75
464.096	1230.75
464.316	1265.75
464.536	1330.75
464.755	1308.75
464.975	1311.75
465.195	1274.75
465.414	1314.75
465.634	1312.75
465.854	1294.75
466.073	1408.75
466.293	1332.75
466.512	1174.75
466.732	1200.75
466.951	1274.75
467.171	1276.75
467.391	1162.75
467.61	1191.75
467.829	1251.75
468.049	1329.75
468.268	1460.75
468.488	1367.75
468.707	1276.75
468.927	1214.75
469.146	1203.75
469.365	1236.75
469.585	1241.75
469.804	1252.75
470.023	1245.75
470.243	1226.75
470.462	1235.75
470.681	1226.75
470.901	1255.75
471.12	1238.75
471.339	1229.75
471.558	1195.75
471.777	1217.75
471.997	1201.75
472.216	1195.75
472.435	1138.75
472.654	1148.75
472.873	1192.75
473.092	1217.75
473.311	1174.75
473.53	1140.75
473.749	1130.75
473.968	1202.75
474.187	1211.75
474.406	1262.75
474.625	1232.75
474.844	1205.75
475.063	1242.75
475.282	1244.75
475.501	1188.75
475.72	1217.75
475.939	1311.75
476.158	1239.75
476.377	1221.75
476.596	1221.75
476.814	1209.75
477.033	1239.75
477.252	1285.75
477.471	1333.75
477.69	1277.75
477.908	1289.75
478.127	1369.75
478.346	1443.75
478.564	1454.75
478.783	1428.75
479.002	1486.75
479.22	1422.75
479.439	1495.75
479.658	1560.75
479.876	1545.75
480.095	1404.75
480.313	1364.75
480.532	1331.75
480.751	1330.75
480.969	1289.75
481.188	1280.75
481.406	1235.75
481.624	1192.75
481.843	1259.75
482.061	1309.75
482.28	1322.75
482.498	1349.75
482.717	1290.75
482.935	1296.75
483.153	1384.75
483.372	1397.75
483.59	1356.75
483.808	1372.75
484.027	1362.75
484.245	1440.75
484.463	1765.75
484.681	1905.75
484.9	1468.75
485.118	1380.75
485.336	1363.75
485.554	1384.75
485.772	1426.75
485.99	1379.75
486.209	1408.75
486.427	1385.75
486.645	1390.75
486.863	1411.75
487.081	1472.75
487.299	1461.75
487.517	1449.75
487.735	1488.75
487.953	1498.75
488.171	1491.75
488.389	1429.75
488.607	1461.75
488.825	1594.75
489.043	1570.75
489.261	1400.75
489.479	1519.75
489.696	1486.75
489.914	1482.75
490.132	1455.75
490.35	1461.75
490.568	1538.75
490.786	1517.75
491.003	1465.75
491.221	1551.75
491.439	1591.75
491.657	1577.75
491.874	1632.75
492.092	1697.75
492.31	1686.75
492.527	1677.75
492.745	1587.75
492.963	1600.75
493.18	1599.75
493.398	1730.75
493.615	1672.75
493.833	1600.75
494.05	1538.75
494.268	1554.75
494.485	1618.75
494.703	1574.75
494.92	1526.75
495.138	1588.75
495.355	1583.75
495.573	1613.75
495.79	1702.75
496.008	1705.75
496.225	1635.75
496.442	1610.75
496.66	1615.75
496.877	1612.75
497.094	1653.75
497.312	1635.75
497.529	1641.75
497.746	1674.75
497.963	1846.75
498.181	1981.75
498.398	1871.75
498.615	1803.75
498.832	1805.75
499.049	1794.75
499.267	1782.75
499.484	1905.75
499.701	2018.75
499.918	2056.75
500.135	2238.75
500.352	2376.75
500.569	2324.75
500.786	2495.75
501.003	2324.75
501.22	2087.75
501.437	2065.75
501.654	2048.75
501.871	2010.75
502.088	1783.75
502.305	1761.75
502.522	1693.75
502.739	1592.75
502.956	1528.75
503.172	1555.75
503.389	1543.75
503.606	1477.75
503.823	1484.75
504.04	1540.75
504.256	1483.75
504.473	1474.75
504.69	1551.75
504.907	1443.75
505.123	1416.75
505.34	1521.75
505.557	2009.75
505.773	1633.75
505.99	1413.75
506.207	1327.75
506.423	1310.75
506.64	1298.75
506.856	1340.75
507.073	1492.75
507.289	1609.75
507.506	1508.75
507.722	1307.75
507.939	1250.75
508.155	1258.75
508.372	1240.75
508.588	1193.75
508.805	1153.75
509.021	1159.75
509.238	1166.75
509.454	1176.75
509.67	1165.75
509.887	1142.75
510.103	1141.75
510.319	1156.75
510.536	1174.75
510.752	1216.75
510.968	1220.75
511.184	1311.75
511.401	1244.75
511.617	1137.75
511.833	1083.75
512.049	1118.75
512.265	1134.75
512.481	1121.75
512.698	1144.75
512.914	1213.75
513.13	1167.75
513.346	1125.75
513.562	1125.75
513.778	1127.75
513.994	1183.75
514.21	1178.75
514.426	1236.75
514.642	1313.75
514.858	1204.75
515.074	1144.75
515.29	1117.75
515.506	1153.75
515.721	1166.75
515.937	1212.75
516.153	1303.75
516.369	1225.75
516.585	1196.75
516.801	1160.75
517.016	1164.75
517.232	1203.75
517.448	1192.75
517.664	1226.75
517.879	1238.75
518.095	1287.75
518.311	1234.75
518.527	1177.75
518.742	1165.75
518.958	1122.75
519.173	1160.75
519.389	1156.75
519.605	1177.75
519.82	1156.75
520.036	1202.75
520.251	1168.75
520.467	1182.75
520.682	1264.75
520.898	1265.75
521.113	1130.75
521.329	1111.75
521.544	1200.75
521.76	1133.75
521.975	1113.75
522.19	1088.75
522.406	1111.75
522.621	1410.75
522.836	1340.75
523.052	1088.75
523.267	1101.75
523.482	1119.75
523.698	1093.75
523.913	1074.75
524.128	1086.75
524.343	1127.75
524.559	1165.75
524.774	1110.75
524.989	1075.75
525.204	1112.75
525.419	1074.75
525.634	1081.75
525.849	1054.75
526.064	1056.75
526.28	1064.75
526.495	1035.75
526.71	985.75
526.925	991.75
527.14	996.75
527.355	966.75
527.57	999.75
527.785	1026.75
527.999	1005.75
528.214	987.75
528.429	1014.75
528.644	1025.75
528.859	1054.75
529.074	1073.75
529.289	1099.75
529.503	1101.75
529.718	1057.75
529.933	1037.75
530.148	960.75
530.363	972.75
530.577	958.75
530.792	972.75
531.007	966.75
531.221	961.75
531.436	998.75
531.651	1020.75
531.865	1032.75
532.08	997.75
532.295	989.75
532.509	919.75
532.724	982.75
532.938	1030.75
533.153	1060.75
533.367	1051.75
533.582	1042.75
533.796	1023.75
534.011	1007.75
534.225	1018.75
534.44	980.75
534.654	997.75
534.868	984.75
535.083	1032.75
535.297	1040.75
535.511	1000.75
535.726	991.75
535.94	1034.75
536.154	987.75
536.369	982.75
536.583	953.75
536.797	952.75
537.011	989.75
537.225	948.75
537.44	930.75
537.654	977.75
537.868	940.75
538.082	908.75
538.296	923.75
538.51	933.75
538.724	954.75
538.938	982.75
539.153	1029.75
539.367	995.75
539.581	974.75
539.795	1009.75
540.009	991.75
540.222	930.75
540.436	991.75
540.65	1082.75
540.864	1082.75
541.078	1088.75
541.292	1070.75
541.506	1060.75
541.72	1117.75
541.934	1148.75
542.147	1185.75
542.361	1175.75
542.575	1060.75
542.789	1013.75
543.002	973.75
543.216	974.75
543.43	1004.75
543.644	1079.75
543.857	1124.75
544.071	1096.75
544.285	1112.75
544.498	1058.75
544.712	1091.75
544.925	1125.75
545.139	1121.75
545.352	1082.75
545.566	1066.75
545.779	1048.75
545.993	1071.75
546.206	1101.75
546.42	1053.75
546.633	1070.75
546.847	1080.75
547.06	1073.75
547.274	1081.75
547.487	1082.75
547.7	1107.75
547.914	1095.75
548.127	1086.75
548.34	1070.75
548.554	1061.75
548.767	1072.75
548.98	1048.75
549.193	1072.75
549.407	1135.75
549.62	1100.75
549.833	1052.75
550.046	1048.75
550.259	1063.75
550.473	1057.75
550.686	1026.75
550.899	1006.75
551.112	965.75
551.325	993.75
551.538	1058.75
551.751	1124.75
551.964	947.75
552.177	933.75
552.39	970.75
552.603	1005.75
552.816	1009.75
553.029	1073.75
553.242	1065.75
553.455	1056.75
553.667	1038.75
553.88	1035.75
554.093	1014.75
554.306	993.75
554.519	994.75
554.732	952.75
554.944	955.75
555.157	959.75
555.37	953.75
555.583	956.75
555.795	940.75
556.008	910.75
556.221	874.75
556.433	886.75
556.646	882.75
556.859	864.75
557.071	877.75
557.284	878.75
557.496	876.75
557.709	847.75
557.921	886.75
558.134	879.75
558.346	865.75
558.559	847.75
558.771	852.75
558.984	819.75
559.196	800.75
559.409	805.75
559.621	807.75
559.833	817.75
560.046	822.75
560.258	812.75
560.47	822.75
560.683	808.75
560.895	820.75
561.107	805.75
561.32	803.75
561.532	845.75
561.744	806.75
561.956	806.75
562.168	790.75
562.381	805.75
562.593	755.75
562.805	771.75
563.017	773.75
563.229	815.75
563.441	817.75
563.653	778.75
563.865	766.75
564.077	797.75
564.289	765.75
564.501	788.75
564.713	788.75
564.925	819.75
565.137	875.75
565.349	820.75
565.561	818.75
565.773	820.75
565.985	813.75
566.197	877.75
566.408	891.75
566.62	920.75
566.832	897.75
567.044	896.75
567.255	885.75
567.467	880.75
567.679	914.75
567.891	909.75
568.102	873.75
568.314	865.75
568.526	801.75
568.737	785.75
568.949	745.75
569.161	717.75
569.372	684.75
569.584	665.75
569.795	674.75
570.007	671.75
570.218	665.75
570.43	650.75
570.641	655.75
570.853	654.75
571.064	655.75
571.276	640.75
571.487	663.75
571.698	644.75
571.91	644.75
572.121	646.75
572.333	626.75
572.544	604.75
572.755	574.75
572.966	590.75
573.178	596.75
573.389	573.75
573.6	611.75
573.811	656.75
574.023	588.75
574.234	587.75
574.445	562.75
574.656	551.75
574.867	560.75
575.078	569.75
575.289	586.75
575.501	556.75
575.712	560.75
575.923	547.75
576.134	573.75
576.345	544.75
576.556	563.75
576.767	554.75
576.978	559.75
577.188	533.75
577.399	537.75
577.61	510.75
577.821	503.75
578.032	519.75
578.243	507.75
578.454	503.75
578.665	501.75
578.875	480.75
579.086	473.75
579.297	478.75
579.508	512.75
579.718	508.75
579.929	508.75
580.14	482.75
580.35	478.75
580.561	498.75
580.772	536.75
580.982	535.75
581.193	493.75
581.403	489.75
581.614	490.75
581.825	461.75
582.035	442.75
582.246	499.75
582.456	477.75
582.667	485.75
582.877	458.75
583.087	484.75
583.298	441.75
583.508	474.75
583.719	466.75
583.929	473.75
584.139	475.75
584.35	465.75
584.56	462.75
584.77	468.75
584.981	468.75
585.191	480.75
585.401	482.75
585.611	485.75
585.821	457.75
586.032	455.75
586.242	445.75
586.452	448.75
586.662	474.75
586.872	446.75
587.082	452.75
587.292	458.75
587.502	446.75
587.713	490.75
587.923	451.75
588.133	450.75
588.343	466.75
588.553	438.75
588.762	432.75
588.972	441.75
589.182	448.75
589.392	438.75
589.602	441.75
589.812	454.75
590.022	460.75
590.232	444.75
590.441	479.75
590.651	448.75
590.861	455.75
591.071	440.75
591.281	457.75
591.49	438.75
591.7	432.75
591.91	450.75
592.119	450.75
592.329	437.75
592.539	464.75
592.748	445.75
592.958	441.75
593.167	473.75
593.377	466.75
593.587	466.75
593.796	459.75
594.006	459.75
594.215	452.75
594.424	465.75
594.634	464.75
594.843	460.75
595.053	479.75
595.262	435.75
595.472	437.75
595.681	453.75
595.89	434.75
596.1	438.75
596.309	439.75
596.518	440.75
596.727	439.75
596.937	436.75
597.146	443.75
597.355	416.75
597.564	415.75
597.774	405.75
597.983	384.75
598.192	394.75
598.401	399.75
598.61	384.75
598.819	399.75
599.028	395.75
599.237	399.75
599.446	390.75
599.655	409.75
599.864	393.75
600.073	385.75
600.282	406.75
600.491	372.75
600.7	384.75
600.909	398.75
601.118	392.75
601.327	400.75
601.536	428.75
601.745	427.75
601.953	384.75
602.162	420.75
602.371	423.75
602.58	407.75
602.789	421.75
602.997	392.75
603.206	404.75
603.415	399.75
603.623	390.75
603.832	410.75
604.041	397.75
604.249	407.75
604.458	384.75
604.666	378.75
604.875	378.75
605.084	384.75
605.292	412.75
605.501	394.75
605.709	410.75
605.918	415.75
606.126	406.75
606.334	383.75
606.543	407.75
606.751	402.75
606.96	410.75
607.168	390.75
607.376	390.75
607.585	386.75
607.793	405.75
608.001	400.75
608.21	402.75
608.418	408.75
608.626	414.75
608.834	421.75
609.043	405.75
609.251	383.75
609.459	374.75
609.667	412.75
609.875	408.75
610.083	424.75
610.291	423.75
610.499	398.75
610.707	402.75
610.916	394.75
611.124	392.75
611.332	395.75
611.54	394.75
611.748	393.75
611.955	405.75
612.163	384.75
612.371	371.75
612.579	374.75
612.787	394.75
612.995	386.75
613.203	383.75
613.411	399.75
613.618	376.75
613.826	371.75
614.034	385.75
614.242	375.75
614.449	392.75
614.657	406.75
614.865	388.75
615.072	394.75
615.28	382.75
615.488	384.75
615.695	399.75
615.903	382.75
616.111	376.75
616.318	385.75
616.526	350.75
616.733	388.75
616.941	360.75
617.148	374.75
617.356	381.75
617.563	378.75
617.771	361.75
617.978	360.75
618.185	376.75
618.393	372.75
618.6	366.75
618.807	377.75
619.015	354.75
619.222	354.75
619.429	370.75
619.637	365.75
619.844	322.75
620.051	358.75
620.258	339.75
620.466	347.75
620.673	350.75
620.88	347.75
621.087	352.75
621.294	337.75
621.501	352.75
621.708	335.75
621.915	351.75
622.122	353.75
622.329	353.75
622.536	372.75
622.743	350.75
622.95	356.75
623.157	344.75
623.364	345.75
623.571	334.75
623.778	332.75
623.985	334.75
624.192	349.75
624.399	332.75
624.606	338.75
624.812	336.75
625.019	348.75
625.226	314.75
625.433	310.75
625.639	328.75
625.846	320.75
626.053	322.75
626.259	302.75
626.466	285.75
626.673	286.75
626.879	267.75
627.086	288.75
627.293	306.75
627.499	300.75
627.706	305.75
627.912	314.75
628.119	319.75
628.325	320.75
628.532	328.75
628.738	320.75
628.945	331.75
629.151	314.75
629.357	318.75
629.564	314.75
629.77	297.75
629.976	313.75
630.183	295.75
630.389	302.75
630.595	305.75
630.802	315.75
631.008	303.75
631.214	310.75
631.42	281.75
631.627	288.75
631.833	297.75
632.039	297.75
632.245	288.75
632.451	274.75
632.657	306.75
632.863	290.75
633.069	283.75
633.275	290.75
633.481	304.75
633.688	263.75
633.893	296.75
634.099	268.75
634.305	280.75
634.511	286.75
634.717	265.75
634.923	272.75
635.129	265.75
635.335	292.75
635.541	270.75
635.747	274.75
635.952	276.75
636.158	258.75
636.364	284.75
636.57	291.75
636.775	283.75
636.981	284.75
637.187	271.75
637.392	278.75
637.598	258.75
637.804	281.75
638.009	254.75
638.215	260.75
638.421	257.75
638.626	269.75
638.832	263.75
639.037	271.75
639.243	250.75
639.448	265.75
639.654	266.75
639.859	263.75
640.065	242.75
640.27	268.75
640.475	282.75
640.681	266.75
640.886	276.75
641.091	272.75
641.297	276.75
641.502	277.75
641.707	277.75
641.913	253.75
642.118	257.75
642.323	277.75
642.528	264.75
642.733	257.75
642.939	254.75
643.144	268.75
643.349	264.75
643.554	278.75
643.759	256.75
643.964	237.75
644.169	253.75
644.374	241.75
644.579	256.75
644.784	243.75
644.989	247.75
645.194	263.75
645.399	244.75
645.604	248.75
645.809	246.75
646.014	240.75
646.219	237.75
646.423	261.75
646.628	263.75
646.833	253.75
647.038	266.75
647.243	252.75
647.447	255.75
647.652	249.75
647.857	247.75
648.062	256.75
648.266	249.75
648.471	253.75
648.676	230.75
648.88	266.75
649.085	243.75
649.289	257.75
649.494	256.75
649.698	274.75
649.903	256.75
650.107	248.75
650.312	270.75
650.516	223.75
650.721	244.75
650.925	236.75
651.13	244.75
651.334	242.75
651.539	242.75
651.743	224.75
651.947	228.75
652.152	230.75
652.356	224.75
652.56	229.75
652.764	225.75
652.969	220.75
653.173	206.75
653.377	232.75
653.581	221.75
653.785	220.75
653.99	217.75
654.194	197.75
654.398	224.75
654.602	224.75
654.806	208.75
655.01	211.75
655.214	200.75
655.418	218.75
655.622	209.75
655.826	238.75
656.03	238.75
656.234	223.75
656.438	252.75
656.642	250.75
656.846	222.75
657.049	221.75
657.253	216.75
657.457	199.75
657.661	181.75
657.865	173.75
658.068	169.75
658.272	169.75
658.476	154.75
658.68	156.75
658.883	154.75
659.087	157.75
659.291	136.75
659.494	144.75
659.698	128.75
659.901	133.75
660.105	137.75
660.309	125.75
660.512	119.75
660.716	120.75
660.919	116.75
661.123	122.75
661.326	106.75
661.53	88.75
661.733	117.75
661.936	107.75
662.14	95.75
662.343	104.75
662.546	97.75
662.75	95.75
662.953	96.75
663.156	90.75
663.36	85.75
663.563	104.75
663.766	76.75
663.969	82.75
664.173	66.75
664.376	86.75
664.579	90.75
664.782	89.75
664.985	96.75
665.188	79.75
665.391	86.75
665.594	72.75
665.797	81.75
666	80.75
666.203	71.75
666.406	71.75
666.609	78.75
666.812	66.75
667.015	67.75
667.218	85.75
667.421	80.75
667.624	76.75
667.827	88.75
668.03	86.75
668.232	76.75
668.435	78.75
668.638	81.75
668.841	84.75
669.043	84.75
669.246	87.75
669.449	79.75
669.651	97.75
669.854	73.75
670.057	89.75
670.259	85.75
670.462	65.75
670.665	81.75
670.867	82.75
671.07	92.75
671.272	61.75
671.475	86.75
671.677	64.75
671.88	87.75
672.082	78.75
672.284	60.75
672.487	81.75
672.689	72.75
672.892	80.75
