Data from WStandard_LampEnergy5.5LIBS07252019.E.O._I.C._HRD10591_16-09-12-920.txt Node
Date: Thu Jul 25 16:09:12 EDT 2019
User: cochatt
Spectrometer: HR+D1059
Trigger mode: 1
Integration Time (sec): 1.000000E-1
Scans to average: 1
Electric dark correction enabled: true
Nonlinearity correction enabled: false
Boxcar width: 0
XAxis mode: Wavelengths
Number of Pixels in Spectrum: 2048
>>>>>Begin Spectral Data<<<<<
223.165	-22.56
223.4	-22.56
223.635	-22.56
223.869	-6.56
224.104	-10.56
224.338	-20.56
224.573	-7.56
224.808	-11.56
225.042	-7.56
225.277	-3.56
225.511	-3.56
225.746	-5.56
225.98	3.44
226.215	15.44
226.449	14.44
226.683	24.44
226.918	19.44
227.152	22.44
227.387	30.44
227.621	35.44
227.856	46.44
228.09	44.44
228.324	43.44
228.559	40.44
228.793	144.44
229.027	343.44
229.262	345.44
229.496	356.44
229.73	370.44
229.964	427.44
230.199	428.44
230.433	454.44
230.667	473.44
230.901	477.44
231.136	458.44
231.37	447.44
231.604	438.44
231.838	448.44
232.072	452.44
232.306	424.44
232.541	475.44
232.775	529.44
233.009	587.44
233.243	566.44
233.477	500.44
233.711	510.44
233.945	518.44
234.179	500.44
234.413	549.44
234.647	612.44
234.881	562.44
235.115	497.44
235.349	515.44
235.583	555.44
235.817	527.44
236.051	499.44
236.285	528.44
236.519	558.44
236.753	617.44
236.987	638.44
237.221	629.44
237.455	683.44
237.689	661.44
237.922	647.44
238.156	623.44
238.39	627.44
238.624	652.44
238.858	711.44
239.091	727.44
239.325	762.44
239.559	856.44
239.793	896.44
240.027	988.44
240.26	979.44
240.494	739.44
240.728	681.44
240.961	694.44
241.195	700.44
241.429	783.44
241.662	795.44
241.896	723.44
242.13	724.44
242.363	804.44
242.597	883.44
242.83	834.44
243.064	818.44
243.298	895.44
243.531	881.44
243.765	868.44
243.998	869.44
244.232	786.44
244.465	738.44
244.699	766.44
244.932	853.44
245.166	994.44
245.399	901.44
245.633	851.44
245.866	850.44
246.099	889.44
246.333	871.44
246.566	912.44
246.8	1004.44
247.033	1116.44
247.266	1012.44
247.5	985.44
247.733	962.44
247.966	1050.44
248.2	1176.44
248.433	1128.44
248.666	1137.44
248.899	1264.44
249.133	1424.44
249.366	1588.44
249.599	1380.44
249.832	1164.44
250.066	1186.44
250.299	1195.44
250.532	1115.44
250.765	1039.44
250.998	1122.44
251.231	1122.44
251.465	1160.44
251.698	1100.44
251.931	1106.44
252.164	1118.44
252.397	1188.44
252.63	1168.44
252.863	1040.44
253.096	1031.44
253.329	1066.44
253.562	1111.44
253.795	1216.44
254.028	1228.44
254.261	1104.44
254.494	1099.44
254.727	1054.44
254.96	1087.44
255.193	1193.44
255.426	1354.44
255.659	1537.44
255.892	1563.44
256.124	1296.44
256.357	1273.44
256.59	1370.44
256.823	1358.44
257.056	1331.44
257.289	1601.44
257.521	1796.44
257.754	1604.44
257.987	1473.44
258.22	1665.44
258.452	1599.44
258.685	1311.44
258.918	1279.44
259.151	1326.44
259.383	1266.44
259.616	1115.44
259.849	1166.44
260.081	1300.44
260.314	1475.44
260.547	1623.44
260.779	1630.44
261.012	1486.44
261.244	1316.44
261.477	1286.44
261.71	1351.44
261.942	1352.44
262.175	1270.44
262.407	1353.44
262.64	1310.44
262.872	1212.44
263.105	1167.44
263.337	1233.44
263.57	1212.44
263.802	1235.44
264.035	1165.44
264.267	1124.44
264.499	1062.44
264.732	1126.44
264.964	1247.44
265.197	1249.44
265.429	1316.44
265.661	1470.44
265.894	1646.44
266.126	1682.44
266.358	1496.44
266.591	1574.44
266.823	1719.44
267.055	1528.44
267.287	1518.44
267.52	1495.44
267.752	1445.44
267.984	1426.44
268.216	1514.44
268.448	1541.44
268.681	1554.44
268.913	1408.44
269.145	1337.44
269.377	1317.44
269.609	1398.44
269.841	1607.44
270.073	1863.44
270.306	2086.44
270.538	2242.44
270.77	1916.44
271.002	1595.44
271.234	1550.44
271.466	1534.44
271.698	1720.44
271.93	2089.44
272.162	2154.44
272.394	1861.44
272.626	1818.44
272.858	1595.44
273.09	1384.44
273.322	1353.44
273.553	1322.44
273.785	1313.44
274.017	1346.44
274.249	1423.44
274.481	1474.44
274.713	1364.44
274.945	1310.44
275.176	1328.44
275.408	1312.44
275.64	1298.44
275.872	1305.44
276.104	1362.44
276.335	1522.44
276.567	1768.44
276.799	1774.44
277.031	1598.44
277.262	1543.44
277.494	1558.44
277.726	1730.44
277.957	1744.44
278.189	1569.44
278.421	1460.44
278.652	1395.44
278.884	1404.44
279.115	1376.44
279.347	1431.44
279.579	1376.44
279.81	1369.44
280.042	1538.44
280.273	1654.44
280.505	1619.44
280.736	1707.44
280.968	1621.44
281.199	1443.44
281.431	1336.44
281.662	1384.44
281.894	1409.44
282.125	1394.44
282.356	1429.44
282.588	1460.44
282.819	1454.44
283.051	1551.44
283.282	1705.44
283.513	1660.44
283.745	1441.44
283.976	1350.44
284.207	1380.44
284.439	1375.44
284.67	1425.44
284.901	1462.44
285.132	1506.44
285.364	1410.44
285.595	1471.44
285.826	1443.44
286.057	1402.44
286.288	1417.44
286.52	1450.44
286.751	1622.44
286.982	1657.44
287.213	1549.44
287.444	1354.44
287.675	1359.44
287.906	1488.44
288.138	1576.44
288.369	1527.44
288.6	1435.44
288.831	1395.44
289.062	1404.44
289.293	1430.44
289.524	1441.44
289.755	1512.44
289.986	1528.44
290.217	1367.44
290.448	1391.44
290.679	1456.44
290.91	1462.44
291.141	1511.44
291.371	1549.44
291.602	1545.44
291.833	1520.44
292.064	1564.44
292.295	1507.44
292.526	1554.44
292.757	1651.44
292.987	1526.44
293.218	1456.44
293.449	1580.44
293.68	1757.44
293.91	1910.44
294.141	1766.44
294.372	1666.44
294.603	1704.44
294.833	1782.44
295.064	1726.44
295.295	1569.44
295.525	1510.44
295.756	1428.44
295.987	1348.44
296.217	1333.44
296.448	1379.44
296.679	1419.44
296.909	1448.44
297.14	1420.44
297.37	1423.44
297.601	1500.44
297.831	1659.44
298.062	1619.44
298.292	1471.44
298.523	1460.44
298.753	1450.44
298.984	1435.44
299.214	1455.44
299.445	1488.44
299.675	1499.44
299.905	1510.44
300.136	1510.44
300.366	1458.44
300.597	1384.44
300.827	1423.44
301.057	1476.44
301.288	1507.44
301.518	1539.44
301.748	1572.44
301.979	1618.44
302.209	1648.44
302.439	1778.44
302.669	1844.44
302.9	1704.44
303.13	1570.44
303.36	1563.44
303.59	1556.44
303.82	1519.44
304.051	1521.44
304.281	1574.44
304.511	1566.44
304.741	1657.44
304.971	1792.44
305.201	1946.44
305.431	1856.44
305.661	1530.44
305.891	1348.44
306.121	1355.44
306.352	1409.44
306.582	1502.44
306.812	1567.44
307.042	1731.44
307.272	1732.44
307.502	1737.44
307.731	1849.44
307.961	2004.44
308.191	1915.44
308.421	1654.44
308.651	1520.44
308.881	1502.44
309.111	1513.44
309.341	1483.44
309.571	1490.44
309.8	1513.44
310.03	1479.44
310.26	1466.44
310.49	1470.44
310.72	1505.44
310.949	1578.44
311.179	1580.44
311.409	1573.44
311.639	1519.44
311.868	1477.44
312.098	1503.44
312.328	1512.44
312.557	1556.44
312.787	1513.44
313.017	1612.44
313.246	1568.44
313.476	1562.44
313.706	1608.44
313.935	1570.44
314.165	1565.44
314.394	1627.44
314.624	1667.44
314.853	1754.44
315.083	1899.44
315.312	1949.44
315.542	1828.44
315.771	1664.44
316.001	1612.44
316.23	1688.44
316.46	1672.44
316.689	1696.44
316.919	1586.44
317.148	1522.44
317.377	1557.44
317.607	1658.44
317.836	1871.44
318.065	1915.44
318.295	1830.44
318.524	1768.44
318.753	1715.44
318.983	1690.44
319.212	1670.44
319.441	1602.44
319.67	1582.44
319.9	1635.44
320.129	1738.44
320.358	1776.44
320.587	1874.44
320.816	1816.44
321.046	1808.44
321.275	1689.44
321.504	1729.44
321.733	1857.44
321.962	1846.44
322.191	1652.44
322.42	1611.44
322.649	1644.44
322.878	1656.44
323.108	1635.44
323.337	1683.44
323.566	1683.44
323.795	1653.44
324.024	1648.44
324.253	1646.44
324.482	1655.44
324.71	1625.44
324.939	1567.44
325.168	1560.44
325.397	1621.44
325.626	1658.44
325.855	1691.44
326.084	1638.44
326.313	1635.44
326.542	1704.44
326.77	1704.44
326.999	1724.44
327.228	1690.44
327.457	1551.44
327.686	1548.44
327.914	1595.44
328.143	1610.44
328.372	1621.44
328.6	1635.44
328.829	1631.44
329.058	1627.44
329.287	1630.44
329.515	1657.44
329.744	1712.44
329.972	1734.44
330.201	1801.44
330.43	1794.44
330.658	1716.44
330.887	1737.44
331.115	1718.44
331.344	1754.44
331.572	1686.44
331.801	1690.44
332.03	1701.44
332.258	1704.44
332.486	1775.44
332.715	1788.44
332.943	1740.44
333.172	1708.44
333.4	1747.44
333.629	1783.44
333.857	1889.44
334.085	2057.44
334.314	2292.44
334.542	2526.44
334.771	2379.44
334.999	2075.44
335.227	1958.44
335.455	1909.44
335.684	1852.44
335.912	1867.44
336.14	1930.44
336.369	1900.44
336.597	1816.44
336.825	1751.44
337.053	1840.44
337.281	1903.44
337.51	1975.44
337.738	2054.44
337.966	2007.44
338.194	1779.44
338.422	1714.44
338.65	1712.44
338.878	1723.44
339.106	1670.44
339.334	1657.44
339.562	1659.44
339.79	1654.44
340.018	1779.44
340.246	1826.44
340.474	1841.44
340.702	1776.44
340.93	1769.44
341.158	1833.44
341.386	1703.44
341.614	1722.44
341.842	1698.44
342.07	1648.44
342.298	1713.44
342.526	1726.44
342.754	1673.44
342.981	1659.44
343.209	1718.44
343.437	1662.44
343.665	1702.44
343.893	1754.44
344.12	1834.44
344.348	1827.44
344.576	1809.44
344.804	1674.44
345.031	1682.44
345.259	1712.44
345.487	1673.44
345.714	1610.44
345.942	1582.44
346.17	1612.44
346.397	1626.44
346.625	1650.44
346.853	1550.44
347.08	1540.44
347.308	1522.44
347.535	1554.44
347.763	1671.44
347.99	1616.44
348.218	1564.44
348.445	1553.44
348.673	1590.44
348.9	1629.44
349.128	1684.44
349.355	1739.44
349.583	1666.44
349.81	1612.44
350.037	1527.44
350.265	1458.44
350.492	1510.44
350.72	1562.44
350.947	1604.44
351.174	1643.44
351.402	1559.44
351.629	1489.44
351.856	1474.44
352.083	1449.44
352.311	1484.44
352.538	1546.44
352.765	1588.44
352.992	1659.44
353.22	1580.44
353.447	1509.44
353.674	1578.44
353.901	1602.44
354.128	1556.44
354.355	1535.44
354.583	1587.44
354.81	1624.44
355.037	1634.44
355.264	1596.44
355.491	1592.44
355.718	1610.44
355.945	1556.44
356.172	1516.44
356.399	1542.44
356.626	1553.44
356.853	1584.44
357.08	1668.44
357.307	1844.44
357.534	1911.44
357.761	1647.44
357.988	1550.44
358.215	1464.44
358.441	1498.44
358.668	1489.44
358.895	1513.44
359.122	1632.44
359.349	1766.44
359.576	1746.44
359.802	1610.44
360.029	1518.44
360.256	1508.44
360.483	1525.44
360.709	1586.44
360.936	1650.44
361.163	1663.44
361.39	1800.44
361.616	1988.44
361.843	1935.44
362.07	1796.44
362.296	1618.44
362.523	1569.44
362.749	1567.44
362.976	1556.44
363.203	1597.44
363.429	1553.44
363.656	1532.44
363.882	1521.44
364.109	1750.44
364.335	1877.44
364.562	1726.44
364.788	1712.44
365.015	1600.44
365.241	1542.44
365.468	1567.44
365.694	1656.44
365.92	1693.44
366.147	1664.44
366.373	1527.44
366.599	1491.44
366.826	1473.44
367.052	1541.44
367.278	1582.44
367.505	1571.44
367.731	1594.44
367.957	1604.44
368.184	1622.44
368.41	1756.44
368.636	1715.44
368.862	1721.44
369.089	1788.44
369.315	1726.44
369.541	1646.44
369.767	1597.44
369.993	1554.44
370.219	1564.44
370.445	1592.44
370.672	1669.44
370.898	1739.44
371.124	1733.44
371.35	1613.44
371.576	1702.44
371.802	1755.44
372.028	1696.44
372.254	1632.44
372.48	1580.44
372.706	1572.44
372.932	1582.44
373.158	1598.44
373.384	1648.44
373.61	1695.44
373.835	1760.44
374.061	1669.44
374.287	1626.44
374.513	1650.44
374.739	1706.44
374.965	1673.44
375.191	1670.44
375.416	1662.44
375.642	1683.44
375.868	1777.44
376.094	1824.44
376.319	1766.44
376.545	1648.44
376.771	1670.44
376.997	1749.44
377.222	1767.44
377.448	1695.44
377.674	1730.44
377.899	1700.44
378.125	1783.44
378.35	1794.44
378.576	1654.44
378.802	1600.44
379.027	1598.44
379.253	1617.44
379.478	1662.44
379.704	1678.44
379.929	1624.44
380.155	1619.44
380.38	1654.44
380.606	1663.44
380.831	1663.44
381.057	1778.44
381.282	1774.44
381.507	1729.44
381.733	1792.44
381.958	1882.44
382.184	1781.44
382.409	1688.44
382.634	1719.44
382.86	1725.44
383.085	1694.44
383.31	1734.44
383.535	1879.44
383.761	1998.44
383.986	1896.44
384.211	1880.44
384.436	1799.44
384.662	1903.44
384.887	2010.44
385.112	1889.44
385.337	1923.44
385.562	1920.44
385.787	1870.44
386.013	1898.44
386.238	1922.44
386.463	1944.44
386.688	2028.44
386.913	2153.44
387.138	2107.44
387.363	1939.44
387.588	1905.44
387.813	1885.44
388.038	1960.44
388.263	2003.44
388.488	1969.44
388.713	1795.44
388.938	1836.44
389.163	1849.44
389.387	1881.44
389.612	1877.44
389.837	1866.44
390.062	1893.44
390.287	1866.44
390.512	1874.44
390.736	1843.44
390.961	1842.44
391.186	1765.44
391.411	1838.44
391.636	1850.44
391.86	1864.44
392.085	1931.44
392.31	1879.44
392.534	1923.44
392.759	1889.44
392.984	1902.44
393.208	1878.44
393.433	1931.44
393.658	1979.44
393.882	2038.44
394.107	1907.44
394.331	1872.44
394.556	1862.44
394.78	1892.44
395.005	1952.44
395.229	1991.44
395.454	2133.44
395.678	2172.44
395.903	2061.44
396.127	1979.44
396.352	2035.44
396.576	2039.44
396.801	2058.44
397.025	2068.44
397.249	2048.44
397.474	2008.44
397.698	2039.44
397.922	2053.44
398.147	2150.44
398.371	2207.44
398.595	2232.44
398.82	2158.44
399.044	2211.44
399.268	2273.44
399.492	2389.44
399.717	2516.44
399.941	2567.44
400.165	2494.44
400.389	2423.44
400.613	2394.44
400.837	2601.44
401.062	3000.44
401.286	2558.44
401.51	2323.44
401.734	2416.44
401.958	2394.44
402.182	2242.44
402.406	2129.44
402.63	2127.44
402.854	2136.44
403.078	2166.44
403.302	2217.44
403.526	2300.44
403.75	2276.44
403.974	2261.44
404.198	2213.44
404.422	2224.44
404.645	2329.44
404.869	2396.44
405.093	2204.44
405.317	2154.44
405.541	2188.44
405.765	2255.44
405.988	2280.44
406.212	2304.44
406.436	2338.44
406.66	2393.44
406.883	2381.44
407.107	2654.44
407.331	2842.44
407.555	3159.44
407.778	2932.44
408.002	2454.44
408.226	2355.44
408.449	2366.44
408.673	2294.44
408.896	2287.44
409.12	2293.44
409.344	2259.44
409.567	2163.44
409.791	2221.44
410.014	2265.44
410.238	2377.44
410.461	2495.44
410.685	2279.44
410.908	2214.44
411.132	2248.44
411.355	2236.44
411.578	2179.44
411.802	2180.44
412.025	2248.44
412.249	2196.44
412.472	2123.44
412.695	2101.44
412.919	2106.44
413.142	2117.44
413.365	2137.44
413.589	2209.44
413.812	2210.44
414.035	2386.44
414.258	2176.44
414.482	2151.44
414.705	2129.44
414.928	2132.44
415.151	2122.44
415.374	2122.44
415.597	2186.44
415.821	2172.44
416.044	2234.44
416.267	2255.44
416.49	2091.44
416.713	2024.44
416.936	2107.44
417.159	2194.44
417.382	2207.44
417.605	2107.44
417.828	2134.44
418.051	2173.44
418.274	2163.44
418.497	2039.44
418.72	2064.44
418.943	2090.44
419.166	2209.44
419.389	2293.44
419.611	2146.44
419.834	2113.44
420.057	2149.44
420.28	2115.44
420.503	2063.44
420.726	2134.44
420.948	2137.44
421.171	2032.44
421.394	2044.44
421.617	2121.44
421.839	2108.44
422.062	2066.44
422.285	2042.44
422.507	2026.44
422.73	1970.44
422.953	1939.44
423.175	1973.44
423.398	2064.44
423.621	2054.44
423.843	2067.44
424.066	2108.44
424.288	2191.44
424.511	2206.44
424.733	2133.44
424.956	1990.44
425.178	1959.44
425.401	2035.44
425.623	2014.44
425.846	1989.44
426.068	2102.44
426.291	2148.44
426.513	2126.44
426.735	2072.44
426.958	2227.44
427.18	2376.44
427.402	2152.44
427.625	2240.44
427.847	2211.44
428.069	2121.44
428.292	2030.44
428.514	1938.44
428.736	1968.44
428.958	1983.44
429.181	1995.44
429.403	2207.44
429.625	2786.44
429.847	2433.44
430.069	2080.44
430.292	2206.44
430.514	2338.44
430.736	2181.44
430.958	2295.44
431.18	2150.44
431.402	2007.44
431.624	1923.44
431.846	1955.44
432.068	1959.44
432.29	1983.44
432.512	2012.44
432.734	2057.44
432.956	2036.44
433.178	2115.44
433.4	2177.44
433.622	2137.44
433.844	2064.44
434.066	2002.44
434.287	1954.44
434.509	2033.44
434.731	2161.44
434.953	2294.44
435.175	2259.44
435.397	2148.44
435.618	2055.44
435.84	2134.44
436.062	2064.44
436.284	2047.44
436.505	2086.44
436.727	2162.44
436.949	2068.44
437.17	2040.44
437.392	2017.44
437.614	2002.44
437.835	1984.44
438.057	2066.44
438.278	2234.44
438.5	2019.44
438.721	1983.44
438.943	1987.44
439.165	1968.44
439.386	1920.44
439.608	2002.44
439.829	2005.44
440.05	1975.44
440.272	1935.44
440.493	1935.44
440.715	1977.44
440.936	2067.44
441.158	2288.44
441.379	2285.44
441.6	2200.44
441.822	2142.44
442.043	2154.44
442.264	2051.44
442.486	1962.44
442.707	1937.44
442.928	1938.44
443.149	2046.44
443.371	2144.44
443.592	2249.44
443.813	2213.44
444.034	2146.44
444.255	2167.44
444.476	2219.44
444.698	2274.44
444.919	2241.44
445.14	2289.44
445.361	2282.44
445.582	2403.44
445.803	2256.44
446.024	2147.44
446.245	2261.44
446.466	2167.44
446.687	2083.44
446.908	2090.44
447.129	2005.44
447.35	2071.44
447.571	2034.44
447.792	1937.44
448.013	1976.44
448.234	1972.44
448.455	2009.44
448.675	2034.44
448.896	1884.44
449.117	1864.44
449.338	1932.44
449.559	2043.44
449.779	2104.44
450	2356.44
450.221	2517.44
450.442	2465.44
450.662	2123.44
450.883	1922.44
451.104	1876.44
451.324	1922.44
451.545	1989.44
451.766	1914.44
451.986	1845.44
452.207	1856.44
452.428	1773.44
452.648	1763.44
452.869	1789.44
453.089	1898.44
453.31	1936.44
453.53	1994.44
453.751	1956.44
453.971	1808.44
454.192	1858.44
454.412	1980.44
454.633	1881.44
454.853	1820.44
455.073	1737.44
455.294	1714.44
455.514	1763.44
455.734	1736.44
455.955	1784.44
456.175	1807.44
456.395	1760.44
456.616	1850.44
456.836	1893.44
457.056	1790.44
457.276	1808.44
457.497	1784.44
457.717	1711.44
457.937	1750.44
458.157	1800.44
458.377	1783.44
458.598	1800.44
458.818	1791.44
459.038	1903.44
459.258	2040.44
459.478	2014.44
459.698	1918.44
459.918	1960.44
460.138	2092.44
460.358	2142.44
460.578	2103.44
460.798	2208.44
461.018	2333.44
461.238	2229.44
461.458	2127.44
461.678	2140.44
461.898	2125.44
462.118	2073.44
462.338	2097.44
462.558	2155.44
462.777	2117.44
462.997	2191.44
463.217	2350.44
463.437	2330.44
463.657	2192.44
463.876	2159.44
464.096	2123.44
464.316	2116.44
464.536	2204.44
464.755	2248.44
464.975	2242.44
465.195	2152.44
465.414	2249.44
465.634	2248.44
465.854	2102.44
466.073	2217.44
466.293	2186.44
466.512	1940.44
466.732	1926.44
466.951	2051.44
467.171	2046.44
467.391	1939.44
467.61	1860.44
467.829	1916.44
468.049	2076.44
468.268	2304.44
468.488	2154.44
468.707	2040.44
468.927	1993.44
469.146	1935.44
469.365	1905.44
469.585	1927.44
469.804	1948.44
470.023	1893.44
470.243	1952.44
470.462	1978.44
470.681	1913.44
470.901	1914.44
471.12	1951.44
471.339	1889.44
471.558	1916.44
471.777	1865.44
471.997	1900.44
472.216	1883.44
472.435	1878.44
472.654	1873.44
472.873	1964.44
473.092	2102.44
473.311	2001.44
473.53	1854.44
473.749	1867.44
473.968	1900.44
474.187	2000.44
474.406	2103.44
474.625	2021.44
474.844	1949.44
475.063	1962.44
475.282	2006.44
475.501	1956.44
475.72	1946.44
475.939	2054.44
476.158	1998.44
476.377	1992.44
476.596	1968.44
476.814	2035.44
477.033	2009.44
477.252	2141.44
477.471	2174.44
477.69	2106.44
477.908	2034.44
478.127	2150.44
478.346	2334.44
478.564	2385.44
478.783	2308.44
479.002	2374.44
479.22	2310.44
479.439	2397.44
479.658	2718.44
479.876	2698.44
480.095	2379.44
480.313	2286.44
480.532	2176.44
480.751	2174.44
480.969	2248.44
481.188	2219.44
481.406	2199.44
481.624	2139.44
481.843	2182.44
482.061	2227.44
482.28	2203.44
482.498	2266.44
482.717	2295.44
482.935	2158.44
483.153	2144.44
483.372	2218.44
483.59	2142.44
483.808	2194.44
484.027	2204.44
484.245	2414.44
484.463	2656.44
484.681	3067.44
484.9	2398.44
485.118	2226.44
485.336	2196.44
485.554	2302.44
485.772	2403.44
485.99	2362.44
486.209	2360.44
486.427	2356.44
486.645	2350.44
486.863	2298.44
487.081	2411.44
487.299	2386.44
487.517	2343.44
487.735	2231.44
487.953	2271.44
488.171	2228.44
488.389	2240.44
488.607	2251.44
488.825	2462.44
489.043	2560.44
489.261	2255.44
489.479	2383.44
489.696	2424.44
489.914	2430.44
490.132	2290.44
490.35	2277.44
490.568	2341.44
490.786	2273.44
491.003	2215.44
491.221	2308.44
491.439	2374.44
491.657	2336.44
491.874	2328.44
492.092	2382.44
492.31	2401.44
492.527	2360.44
492.745	2287.44
492.963	2343.44
493.18	2444.44
493.398	2574.44
493.615	2618.44
493.833	2425.44
494.05	2347.44
494.268	2348.44
494.485	2435.44
494.703	2370.44
494.92	2302.44
495.138	2336.44
495.355	2440.44
495.573	2441.44
495.79	2572.44
496.008	2635.44
496.225	2467.44
496.442	2461.44
496.66	2543.44
496.877	2472.44
497.094	2623.44
497.312	2603.44
497.529	2591.44
497.746	2667.44
497.963	2996.44
498.181	3444.44
498.398	3146.44
498.615	3099.44
498.832	3029.44
499.049	2999.44
499.267	3038.44
499.484	3198.44
499.701	3464.44
499.918	3479.44
500.135	3714.44
500.352	4066.44
500.569	3964.44
500.786	4197.44
501.003	3978.44
501.22	3602.44
501.437	3493.44
501.654	3480.44
501.871	3384.44
502.088	2947.44
502.305	2964.44
502.522	2870.44
502.739	2686.44
502.956	2660.44
503.172	2590.44
503.389	2532.44
503.606	2445.44
503.823	2484.44
504.04	2539.44
504.256	2526.44
504.473	2510.44
504.69	2642.44
504.907	2452.44
505.123	2351.44
505.34	2444.44
505.557	3157.44
505.773	2718.44
505.99	2320.44
506.207	2182.44
506.423	2146.44
506.64	2110.44
506.856	2140.44
507.073	2384.44
507.289	2561.44
507.506	2508.44
507.722	2160.44
507.939	2080.44
508.155	2107.44
508.372	2129.44
508.588	2025.44
508.805	1966.44
509.021	1973.44
509.238	1956.44
509.454	1918.44
509.67	1926.44
509.887	1906.44
510.103	1906.44
510.319	1965.44
510.536	2002.44
510.752	2088.44
510.968	2109.44
511.184	2238.44
511.401	2217.44
511.617	1924.44
511.833	1883.44
512.049	1887.44
512.265	1917.44
512.481	1887.44
512.698	1943.44
512.914	2108.44
513.13	2011.44
513.346	1906.44
513.562	1875.44
513.778	1891.44
513.994	1980.44
514.21	2082.44
514.426	2086.44
514.642	2307.44
514.858	2162.44
515.074	1995.44
515.29	1891.44
515.506	1979.44
515.721	2005.44
515.937	2015.44
516.153	2308.44
516.369	2191.44
516.585	2064.44
516.801	2005.44
517.016	1965.44
517.232	2020.44
517.448	2073.44
517.664	2082.44
517.879	2124.44
518.095	2206.44
518.311	2122.44
518.527	2005.44
518.742	1973.44
518.958	1921.44
519.173	1943.44
519.389	1918.44
519.605	1957.44
519.82	1919.44
520.036	1959.44
520.251	1929.44
520.467	1918.44
520.682	2060.44
520.898	2151.44
521.113	1952.44
521.329	1891.44
521.544	2055.44
521.76	1942.44
521.975	1835.44
522.19	1821.44
522.406	1811.44
522.621	2139.44
522.836	2212.44
523.052	1841.44
523.267	1822.44
523.482	1804.44
523.698	1769.44
523.913	1712.44
524.128	1735.44
524.343	1844.44
524.559	1852.44
524.774	1744.44
524.989	1763.44
525.204	1748.44
525.419	1685.44
525.634	1694.44
525.849	1699.44
526.064	1746.44
526.28	1751.44
526.495	1684.44
526.71	1691.44
526.925	1714.44
527.14	1722.44
527.355	1671.44
527.57	1660.44
527.785	1701.44
527.999	1642.44
528.214	1613.44
528.429	1615.44
528.644	1607.44
528.859	1646.44
529.074	1685.44
529.289	1662.44
529.503	1682.44
529.718	1688.44
529.933	1647.44
530.148	1590.44
530.363	1608.44
530.577	1629.44
530.792	1643.44
531.007	1685.44
531.221	1630.44
531.436	1664.44
531.651	1706.44
531.865	1813.44
532.08	1730.44
532.295	1608.44
532.509	1559.44
532.724	1601.44
532.938	1664.44
533.153	1794.44
533.367	1664.44
533.582	1664.44
533.796	1635.44
534.011	1597.44
534.225	1643.44
534.44	1631.44
534.654	1609.44
534.868	1587.44
535.083	1662.44
535.297	1675.44
535.511	1631.44
535.726	1632.44
535.94	1609.44
536.154	1585.44
536.369	1562.44
536.583	1569.44
536.797	1545.44
537.011	1587.44
537.225	1579.44
537.44	1524.44
537.654	1630.44
537.868	1539.44
538.082	1469.44
538.296	1460.44
538.51	1512.44
538.724	1498.44
538.938	1457.44
539.153	1575.44
539.367	1528.44
539.581	1551.44
539.795	1610.44
540.009	1592.44
540.222	1563.44
540.436	1551.44
540.65	1655.44
540.864	1715.44
541.078	1607.44
541.292	1516.44
541.506	1506.44
541.72	1576.44
541.934	1548.44
542.147	1578.44
542.361	1533.44
542.575	1504.44
542.789	1506.44
543.002	1445.44
543.216	1488.44
543.43	1564.44
543.644	1623.44
543.857	1662.44
544.071	1562.44
544.285	1548.44
544.498	1489.44
544.712	1530.44
544.925	1591.44
545.139	1584.44
545.352	1513.44
545.566	1454.44
545.779	1442.44
545.993	1444.44
546.206	1539.44
546.42	1466.44
546.633	1414.44
546.847	1442.44
547.06	1454.44
547.274	1446.44
547.487	1455.44
547.7	1436.44
547.914	1464.44
548.127	1486.44
548.34	1500.44
548.554	1450.44
548.767	1440.44
548.98	1448.44
549.193	1442.44
549.407	1528.44
549.62	1552.44
549.833	1488.44
550.046	1454.44
550.259	1444.44
550.473	1412.44
550.686	1417.44
550.899	1413.44
551.112	1385.44
551.325	1398.44
551.538	1451.44
551.751	1697.44
551.964	1420.44
552.177	1379.44
552.39	1398.44
552.603	1447.44
552.816	1440.44
553.029	1504.44
553.242	1523.44
553.455	1443.44
553.667	1440.44
553.88	1443.44
554.093	1398.44
554.306	1374.44
554.519	1366.44
554.732	1335.44
554.944	1386.44
555.157	1410.44
555.37	1354.44
555.583	1347.44
555.795	1316.44
556.008	1302.44
556.221	1250.44
556.433	1237.44
556.646	1278.44
556.859	1228.44
557.071	1246.44
557.284	1247.44
557.496	1247.44
557.709	1215.44
557.921	1226.44
558.134	1219.44
558.346	1210.44
558.559	1200.44
558.771	1221.44
558.984	1183.44
559.196	1128.44
559.409	1142.44
559.621	1185.44
559.833	1158.44
560.046	1227.44
560.258	1159.44
560.47	1181.44
560.683	1169.44
560.895	1158.44
561.107	1183.44
561.32	1178.44
561.532	1207.44
561.744	1168.44
561.956	1207.44
562.168	1173.44
562.381	1136.44
562.593	1140.44
562.805	1157.44
563.017	1124.44
563.229	1152.44
563.441	1192.44
563.653	1144.44
563.865	1162.44
564.077	1137.44
564.289	1166.44
564.501	1150.44
564.713	1188.44
564.925	1245.44
565.137	1334.44
565.349	1243.44
565.561	1249.44
565.773	1274.44
565.985	1253.44
566.197	1353.44
566.408	1385.44
566.62	1408.44
566.832	1396.44
567.044	1401.44
567.255	1374.44
567.467	1393.44
567.679	1480.44
567.891	1506.44
568.102	1457.44
568.314	1438.44
568.526	1341.44
568.737	1268.44
568.949	1236.44
569.161	1144.44
569.372	1150.44
569.584	1112.44
569.795	1124.44
570.007	1130.44
570.218	1081.44
570.43	1075.44
570.641	1070.44
570.853	1062.44
571.064	1087.44
571.276	1042.44
571.487	1040.44
571.698	1002.44
571.91	1018.44
572.121	992.44
572.333	951.44
572.544	959.44
572.755	926.44
572.966	945.44
573.178	934.44
573.389	970.44
573.6	963.44
573.811	1047.44
574.023	1006.44
574.234	918.44
574.445	884.44
574.656	869.44
574.867	889.44
575.078	875.44
575.289	879.44
575.501	845.44
575.712	866.44
575.923	887.44
576.134	872.44
576.345	864.44
576.556	847.44
576.767	825.44
576.978	842.44
577.188	838.44
577.399	816.44
577.61	816.44
577.821	811.44
578.032	800.44
578.243	807.44
578.454	818.44
578.665	800.44
578.875	802.44
579.086	791.44
579.297	810.44
579.508	816.44
579.718	803.44
579.929	786.44
580.14	795.44
580.35	775.44
580.561	832.44
580.772	865.44
580.982	792.44
581.193	786.44
581.403	765.44
581.614	764.44
581.825	745.44
582.035	722.44
582.246	754.44
582.456	790.44
582.667	798.44
582.877	772.44
583.087	755.44
583.298	738.44
583.508	738.44
583.719	746.44
583.929	745.44
584.139	748.44
584.35	731.44
584.56	745.44
584.77	732.44
584.981	745.44
585.191	767.44
585.401	761.44
585.611	750.44
585.821	726.44
586.032	743.44
586.242	718.44
586.452	715.44
586.662	725.44
586.872	722.44
587.082	717.44
587.292	720.44
587.502	770.44
587.713	731.44
587.923	738.44
588.133	712.44
588.343	754.44
588.553	724.44
588.762	732.44
588.972	678.44
589.182	736.44
589.392	716.44
589.602	745.44
589.812	730.44
590.022	693.44
590.232	700.44
590.441	701.44
590.651	717.44
590.861	682.44
591.071	680.44
591.281	687.44
591.49	683.44
591.7	704.44
591.91	713.44
592.119	712.44
592.329	723.44
592.539	729.44
592.748	708.44
592.958	719.44
593.167	775.44
593.377	748.44
593.587	747.44
593.796	728.44
594.006	708.44
594.215	736.44
594.424	742.44
594.634	718.44
594.843	718.44
595.053	737.44
595.262	705.44
595.472	702.44
595.681	677.44
595.89	669.44
596.1	653.44
596.309	690.44
596.518	676.44
596.727	659.44
596.937	662.44
597.146	640.44
597.355	618.44
597.564	616.44
597.774	641.44
597.983	625.44
598.192	620.44
598.401	598.44
598.61	588.44
598.819	610.44
599.028	623.44
599.237	610.44
599.446	597.44
599.655	582.44
599.864	592.44
600.073	582.44
600.282	591.44
600.491	579.44
600.7	570.44
600.909	568.44
601.118	569.44
601.327	555.44
601.536	608.44
601.745	578.44
601.953	578.44
602.162	572.44
602.371	593.44
602.58	588.44
602.789	563.44
602.997	544.44
603.206	587.44
603.415	552.44
603.623	579.44
603.832	538.44
604.041	538.44
604.249	536.44
604.458	570.44
604.666	569.44
604.875	539.44
605.084	554.44
605.292	567.44
605.501	566.44
605.709	512.44
605.918	541.44
606.126	516.44
606.334	518.44
606.543	548.44
606.751	524.44
606.96	538.44
607.168	524.44
607.376	529.44
607.585	503.44
607.793	519.44
608.001	545.44
608.21	543.44
608.418	521.44
608.626	541.44
608.834	517.44
609.043	509.44
609.251	511.44
609.459	520.44
609.667	536.44
609.875	541.44
610.083	547.44
610.291	534.44
610.499	545.44
610.707	518.44
610.916	513.44
611.124	503.44
611.332	528.44
611.54	505.44
611.748	515.44
611.955	500.44
612.163	489.44
612.371	514.44
612.579	502.44
612.787	500.44
612.995	507.44
613.203	503.44
613.411	486.44
613.618	479.44
613.826	505.44
614.034	499.44
614.242	518.44
614.449	484.44
614.657	520.44
614.865	488.44
615.072	499.44
615.28	502.44
615.488	480.44
615.695	524.44
615.903	508.44
616.111	503.44
616.318	479.44
616.526	495.44
616.733	481.44
616.941	481.44
617.148	495.44
617.356	495.44
617.563	483.44
617.771	490.44
617.978	491.44
618.185	485.44
618.393	483.44
618.6	477.44
618.807	469.44
619.015	474.44
619.222	467.44
619.429	456.44
619.637	472.44
619.844	457.44
620.051	449.44
620.258	448.44
620.466	467.44
620.673	439.44
620.88	430.44
621.087	440.44
621.294	425.44
621.501	458.44
621.708	438.44
621.915	425.44
622.122	440.44
622.329	468.44
622.536	445.44
622.743	432.44
622.95	446.44
623.157	448.44
623.364	427.44
623.571	424.44
623.778	432.44
623.985	414.44
624.192	453.44
624.399	441.44
624.606	435.44
624.812	396.44
625.019	410.44
625.226	433.44
625.433	396.44
625.639	417.44
625.846	405.44
626.053	408.44
626.259	419.44
626.466	390.44
626.673	389.44
626.879	398.44
627.086	379.44
627.293	393.44
627.499	395.44
627.706	401.44
627.912	400.44
628.119	404.44
628.325	405.44
628.532	381.44
628.738	388.44
628.945	390.44
629.151	375.44
629.357	417.44
629.564	382.44
629.77	370.44
629.976	391.44
630.183	388.44
630.389	378.44
630.595	379.44
630.802	383.44
631.008	358.44
631.214	386.44
631.42	382.44
631.627	362.44
631.833	372.44
632.039	374.44
632.245	365.44
632.451	349.44
632.657	388.44
632.863	351.44
633.069	372.44
633.275	348.44
633.481	327.44
633.688	351.44
633.893	350.44
634.099	356.44
634.305	362.44
634.511	350.44
634.717	341.44
634.923	345.44
635.129	347.44
635.335	321.44
635.541	330.44
635.747	363.44
635.952	357.44
636.158	329.44
636.364	342.44
636.57	339.44
636.775	335.44
636.981	331.44
637.187	339.44
637.392	330.44
637.598	332.44
637.804	350.44
638.009	347.44
638.215	313.44
638.421	312.44
638.626	313.44
638.832	307.44
639.037	315.44
639.243	314.44
639.448	308.44
639.654	319.44
639.859	320.44
640.065	314.44
640.27	321.44
640.475	311.44
640.681	326.44
640.886	325.44
641.091	300.44
641.297	319.44
641.502	299.44
641.707	313.44
641.913	284.44
642.118	310.44
642.323	322.44
642.528	313.44
642.733	311.44
642.939	295.44
643.144	304.44
643.349	329.44
643.554	294.44
643.759	299.44
643.964	287.44
644.169	319.44
644.374	316.44
644.579	314.44
644.784	314.44
644.989	298.44
645.194	291.44
645.399	275.44
645.604	292.44
645.809	299.44
646.014	296.44
646.219	300.44
646.423	298.44
646.628	319.44
646.833	301.44
647.038	285.44
647.243	284.44
647.447	288.44
647.652	307.44
647.857	308.44
648.062	297.44
648.266	305.44
648.471	293.44
648.676	295.44
648.88	296.44
649.085	288.44
649.289	293.44
649.494	304.44
649.698	306.44
649.903	280.44
650.107	297.44
650.312	283.44
650.516	273.44
650.721	264.44
650.925	280.44
651.13	267.44
651.334	281.44
651.539	266.44
651.743	254.44
651.947	267.44
652.152	260.44
652.356	274.44
652.56	243.44
652.764	247.44
652.969	249.44
653.173	240.44
653.377	260.44
653.581	241.44
653.785	242.44
653.99	250.44
654.194	233.44
654.398	228.44
654.602	241.44
654.806	228.44
655.01	220.44
655.214	229.44
655.418	238.44
655.622	247.44
655.826	250.44
656.03	263.44
656.234	246.44
656.438	264.44
656.642	287.44
656.846	258.44
657.049	225.44
657.253	220.44
657.457	202.44
657.661	200.44
657.865	176.44
658.068	163.44
658.272	176.44
658.476	168.44
658.68	145.44
658.883	148.44
659.087	157.44
659.291	135.44
659.494	144.44
659.698	134.44
659.901	127.44
660.105	134.44
660.309	112.44
660.512	120.44
660.716	111.44
660.919	112.44
661.123	130.44
661.326	108.44
661.53	106.44
661.733	96.44
661.936	93.44
662.14	99.44
662.343	118.44
662.546	94.44
662.75	99.44
662.953	85.44
663.156	76.44
663.36	91.44
663.563	94.44
663.766	91.44
663.969	95.44
664.173	81.44
664.376	87.44
664.579	89.44
664.782	79.44
664.985	79.44
665.188	75.44
665.391	95.44
665.594	81.44
665.797	78.44
666	79.44
666.203	81.44
666.406	95.44
666.609	93.44
666.812	79.44
667.015	82.44
667.218	82.44
667.421	66.44
667.624	72.44
667.827	74.44
668.03	86.44
668.232	67.44
668.435	84.44
668.638	73.44
668.841	88.44
669.043	81.44
669.246	87.44
669.449	75.44
669.651	87.44
669.854	82.44
670.057	68.44
670.259	83.44
670.462	89.44
670.665	66.44
670.867	70.44
671.07	80.44
671.272	92.44
671.475	78.44
671.677	85.44
671.88	91.44
672.082	78.44
672.284	83.44
672.487	78.44
672.689	75.44
672.892	79.44
