Data from WStandard_LampEnergy10_LIBS07252019.E.O._I.C._HRD10591_15-54-24-928.txt Node
Date: Thu Jul 25 15:54:24 EDT 2019
User: cochatt
Spectrometer: HR+D1059
Trigger mode: 1
Integration Time (sec): 1.000000E-1
Scans to average: 1
Electric dark correction enabled: true
Nonlinearity correction enabled: false
Boxcar width: 0
XAxis mode: Wavelengths
Number of Pixels in Spectrum: 2048
>>>>>Begin Spectral Data<<<<<
223.165	-14.62
223.4	-14.62
223.635	-14.62
223.869	3.38
224.104	-24.62
224.338	-10.62
224.573	-15.62
224.808	-8.62
225.042	-15.62
225.277	-5.62
225.511	-12.62
225.746	3.38
225.98	2.38
226.215	23.38
226.449	13.38
226.683	11.38
226.918	29.38
227.152	21.38
227.387	34.38
227.621	33.38
227.856	42.38
228.09	36.38
228.324	38.38
228.559	49.38
228.793	89.38
229.027	119.38
229.262	155.38
229.496	127.38
229.73	176.38
229.964	178.38
230.199	181.38
230.433	151.38
230.667	185.38
230.901	200.38
231.136	187.38
231.37	168.38
231.604	175.38
231.838	174.38
232.072	180.38
232.306	155.38
232.541	188.38
232.775	223.38
233.009	220.38
233.243	222.38
233.477	196.38
233.711	205.38
233.945	188.38
234.179	199.38
234.413	200.38
234.647	213.38
234.881	211.38
235.115	213.38
235.349	196.38
235.583	200.38
235.817	197.38
236.051	209.38
236.285	190.38
236.519	202.38
236.753	212.38
236.987	215.38
237.221	233.38
237.455	256.38
237.689	229.38
237.922	228.38
238.156	214.38
238.39	216.38
238.624	218.38
238.858	260.38
239.091	256.38
239.325	256.38
239.559	290.38
239.793	281.38
240.027	303.38
240.26	275.38
240.494	216.38
240.728	229.38
240.961	238.38
241.195	243.38
241.429	256.38
241.662	251.38
241.896	249.38
242.13	230.38
242.363	269.38
242.597	282.38
242.83	274.38
243.064	261.38
243.298	295.38
243.531	301.38
243.765	276.38
243.998	283.38
244.232	248.38
244.465	241.38
244.699	255.38
244.932	279.38
245.166	294.38
245.399	275.38
245.633	279.38
245.866	268.38
246.099	280.38
246.333	285.38
246.566	303.38
246.8	320.38
247.033	353.38
247.266	328.38
247.5	315.38
247.733	321.38
247.966	333.38
248.2	367.38
248.433	355.38
248.666	371.38
248.899	384.38
249.133	431.38
249.366	460.38
249.599	391.38
249.832	383.38
250.066	364.38
250.299	366.38
250.532	357.38
250.765	335.38
250.998	344.38
251.231	355.38
251.465	351.38
251.698	334.38
251.931	322.38
252.164	359.38
252.397	369.38
252.63	364.38
252.863	343.38
253.096	317.38
253.329	342.38
253.562	360.38
253.795	380.38
254.028	353.38
254.261	337.38
254.494	329.38
254.727	324.38
254.96	341.38
255.193	381.38
255.426	405.38
255.659	479.38
255.892	425.38
256.124	389.38
256.357	395.38
256.59	399.38
256.823	400.38
257.056	428.38
257.289	471.38
257.521	499.38
257.754	472.38
257.987	453.38
258.22	493.38
258.452	448.38
258.685	412.38
258.918	392.38
259.151	388.38
259.383	376.38
259.616	351.38
259.849	373.38
260.081	407.38
260.314	434.38
260.547	455.38
260.779	461.38
261.012	424.38
261.244	408.38
261.477	412.38
261.71	422.38
261.942	418.38
262.175	406.38
262.407	407.38
262.64	389.38
262.872	361.38
263.105	362.38
263.337	360.38
263.57	397.38
263.802	373.38
264.035	355.38
264.267	338.38
264.499	348.38
264.732	389.38
264.964	383.38
265.197	369.38
265.429	423.38
265.661	460.38
265.894	484.38
266.126	505.38
266.358	455.38
266.591	472.38
266.823	493.38
267.055	457.38
267.287	460.38
267.52	448.38
267.752	445.38
267.984	461.38
268.216	471.38
268.448	450.38
268.681	474.38
268.913	443.38
269.145	429.38
269.377	420.38
269.609	446.38
269.841	517.38
270.073	587.38
270.306	625.38
270.538	633.38
270.77	525.38
271.002	501.38
271.234	460.38
271.466	476.38
271.698	509.38
271.93	589.38
272.162	604.38
272.394	534.38
272.626	524.38
272.858	450.38
273.09	399.38
273.322	406.38
273.553	400.38
273.785	410.38
274.017	420.38
274.249	449.38
274.481	437.38
274.713	428.38
274.945	431.38
275.176	401.38
275.408	400.38
275.64	409.38
275.872	395.38
276.104	427.38
276.335	518.38
276.567	528.38
276.799	530.38
277.031	490.38
277.262	467.38
277.494	499.38
277.726	529.38
277.957	494.38
278.189	452.38
278.421	439.38
278.652	437.38
278.884	427.38
279.115	437.38
279.347	459.38
279.579	437.38
279.81	440.38
280.042	476.38
280.273	512.38
280.505	505.38
280.736	491.38
280.968	487.38
281.199	433.38
281.431	407.38
281.662	435.38
281.894	435.38
282.125	443.38
282.356	435.38
282.588	440.38
282.819	461.38
283.051	507.38
283.282	510.38
283.513	477.38
283.745	438.38
283.976	417.38
284.207	414.38
284.439	447.38
284.67	460.38
284.901	460.38
285.132	453.38
285.364	454.38
285.595	451.38
285.826	435.38
286.057	449.38
286.288	446.38
286.52	473.38
286.751	490.38
286.982	509.38
287.213	453.38
287.444	444.38
287.675	442.38
287.906	491.38
288.138	486.38
288.369	470.38
288.6	451.38
288.831	431.38
289.062	445.38
289.293	449.38
289.524	432.38
289.755	457.38
289.986	445.38
290.217	443.38
290.448	442.38
290.679	454.38
290.91	476.38
291.141	461.38
291.371	494.38
291.602	483.38
291.833	493.38
292.064	476.38
292.295	481.38
292.526	503.38
292.757	515.38
292.987	512.38
293.218	480.38
293.449	549.38
293.68	590.38
293.91	600.38
294.141	563.38
294.372	556.38
294.603	573.38
294.833	567.38
295.064	528.38
295.295	471.38
295.525	487.38
295.756	464.38
295.987	442.38
296.217	435.38
296.448	468.38
296.679	458.38
296.909	467.38
297.14	440.38
297.37	482.38
297.601	516.38
297.831	537.38
298.062	525.38
298.292	481.38
298.523	463.38
298.753	483.38
298.984	472.38
299.214	489.38
299.445	490.38
299.675	519.38
299.905	482.38
300.136	480.38
300.366	467.38
300.597	453.38
300.827	480.38
301.057	498.38
301.288	494.38
301.518	501.38
301.748	538.38
301.979	576.38
302.209	543.38
302.439	564.38
302.669	602.38
302.9	555.38
303.13	525.38
303.36	523.38
303.59	508.38
303.82	522.38
304.051	522.38
304.281	531.38
304.511	539.38
304.741	576.38
304.971	616.38
305.201	629.38
305.431	579.38
305.661	500.38
305.891	454.38
306.121	469.38
306.352	478.38
306.582	517.38
306.812	559.38
307.042	573.38
307.272	591.38
307.502	583.38
307.731	632.38
307.961	627.38
308.191	573.38
308.421	536.38
308.651	513.38
308.881	500.38
309.111	479.38
309.341	485.38
309.571	502.38
309.8	497.38
310.03	515.38
310.26	501.38
310.49	494.38
310.72	512.38
310.949	539.38
311.179	522.38
311.409	509.38
311.639	503.38
311.868	503.38
312.098	536.38
312.328	488.38
312.557	504.38
312.787	498.38
313.017	531.38
313.246	525.38
313.476	531.38
313.706	531.38
313.935	533.38
314.165	537.38
314.394	571.38
314.624	585.38
314.853	629.38
315.083	624.38
315.312	625.38
315.542	595.38
315.771	544.38
316.001	561.38
316.23	585.38
316.46	556.38
316.689	566.38
316.919	533.38
317.148	522.38
317.377	555.38
317.607	611.38
317.836	643.38
318.065	651.38
318.295	619.38
318.524	582.38
318.753	580.38
318.983	568.38
319.212	543.38
319.441	556.38
319.67	555.38
319.9	574.38
320.129	611.38
320.358	605.38
320.587	649.38
320.816	635.38
321.046	599.38
321.275	576.38
321.504	578.38
321.733	615.38
321.962	594.38
322.191	569.38
322.42	551.38
322.649	565.38
322.878	556.38
323.108	580.38
323.337	592.38
323.566	579.38
323.795	557.38
324.024	576.38
324.253	543.38
324.482	556.38
324.71	534.38
324.939	557.38
325.168	558.38
325.397	579.38
325.626	587.38
325.855	584.38
326.084	591.38
326.313	579.38
326.542	576.38
326.77	587.38
326.999	572.38
327.228	551.38
327.457	519.38
327.686	534.38
327.914	557.38
328.143	567.38
328.372	581.38
328.6	551.38
328.829	574.38
329.058	564.38
329.287	550.38
329.515	546.38
329.744	592.38
329.972	613.38
330.201	630.38
330.43	585.38
330.658	576.38
330.887	587.38
331.115	602.38
331.344	604.38
331.572	600.38
331.801	603.38
332.03	592.38
332.258	606.38
332.486	593.38
332.715	605.38
332.943	608.38
333.172	594.38
333.4	613.38
333.629	643.38
333.857	673.38
334.085	737.38
334.314	843.38
334.542	844.38
334.771	773.38
334.999	705.38
335.227	638.38
335.455	649.38
335.684	639.38
335.912	668.38
336.14	656.38
336.369	617.38
336.597	621.38
336.825	603.38
337.053	621.38
337.281	684.38
337.51	690.38
337.738	702.38
337.966	641.38
338.194	608.38
338.422	612.38
338.65	597.38
338.878	586.38
339.106	573.38
339.334	589.38
339.562	562.38
339.79	566.38
340.018	632.38
340.246	639.38
340.474	643.38
340.702	635.38
340.93	599.38
341.158	610.38
341.386	600.38
341.614	600.38
341.842	611.38
342.07	611.38
342.298	593.38
342.526	593.38
342.754	611.38
342.981	596.38
343.209	591.38
343.437	604.38
343.665	599.38
343.893	608.38
344.12	647.38
344.348	627.38
344.576	614.38
344.804	603.38
345.031	597.38
345.259	593.38
345.487	575.38
345.714	551.38
345.942	553.38
346.17	562.38
346.397	565.38
346.625	576.38
346.853	559.38
347.08	556.38
347.308	564.38
347.535	562.38
347.763	570.38
347.99	551.38
348.218	556.38
348.445	554.38
348.673	565.38
348.9	598.38
349.128	602.38
349.355	603.38
349.583	589.38
349.81	546.38
350.037	529.38
350.265	521.38
350.492	540.38
350.72	552.38
350.947	565.38
351.174	582.38
351.402	535.38
351.629	515.38
351.856	531.38
352.083	547.38
352.311	536.38
352.538	563.38
352.765	577.38
352.992	576.38
353.22	561.38
353.447	548.38
353.674	563.38
353.901	575.38
354.128	549.38
354.355	578.38
354.583	582.38
354.81	593.38
355.037	610.38
355.264	587.38
355.491	581.38
355.718	563.38
355.945	562.38
356.172	557.38
356.399	528.38
356.626	555.38
356.853	596.38
357.08	629.38
357.307	668.38
357.534	654.38
357.761	577.38
357.988	537.38
358.215	569.38
358.441	559.38
358.668	546.38
358.895	571.38
359.122	618.38
359.349	664.38
359.576	616.38
359.802	570.38
360.029	556.38
360.256	540.38
360.483	568.38
360.709	593.38
360.936	620.38
361.163	634.38
361.39	703.38
361.616	707.38
361.843	714.38
362.07	618.38
362.296	580.38
362.523	563.38
362.749	569.38
362.976	596.38
363.203	606.38
363.429	561.38
363.656	559.38
363.882	596.38
364.109	655.38
364.335	687.38
364.562	618.38
364.788	597.38
365.015	584.38
365.241	583.38
365.468	597.38
365.694	606.38
365.92	616.38
366.147	590.38
366.373	578.38
366.599	553.38
366.826	580.38
367.052	565.38
367.278	573.38
367.505	606.38
367.731	605.38
367.957	601.38
368.184	615.38
368.41	675.38
368.636	678.38
368.862	696.38
369.089	687.38
369.315	639.38
369.541	617.38
369.767	587.38
369.993	601.38
370.219	614.38
370.445	611.38
370.672	644.38
370.898	678.38
371.124	655.38
371.35	629.38
371.576	657.38
371.802	657.38
372.028	638.38
372.254	599.38
372.48	585.38
372.706	610.38
372.932	600.38
373.158	599.38
373.384	618.38
373.61	650.38
373.835	667.38
374.061	636.38
374.287	608.38
374.513	617.38
374.739	631.38
374.965	652.38
375.191	663.38
375.416	655.38
375.642	680.38
375.868	697.38
376.094	704.38
376.319	661.38
376.545	665.38
376.771	661.38
376.997	709.38
377.222	690.38
377.448	677.38
377.674	673.38
377.899	679.38
378.125	705.38
378.35	700.38
378.576	631.38
378.802	609.38
379.027	641.38
379.253	652.38
379.478	645.38
379.704	665.38
379.929	661.38
380.155	669.38
380.38	656.38
380.606	638.38
380.831	651.38
381.057	705.38
381.282	691.38
381.507	708.38
381.733	739.38
381.958	754.38
382.184	697.38
382.409	678.38
382.634	698.38
382.86	687.38
383.085	711.38
383.31	742.38
383.535	793.38
383.761	801.38
383.986	743.38
384.211	733.38
384.436	715.38
384.662	780.38
384.887	755.38
385.112	745.38
385.337	731.38
385.562	737.38
385.787	728.38
386.013	767.38
386.238	748.38
386.463	755.38
386.688	815.38
386.913	884.38
387.138	840.38
387.363	767.38
387.588	780.38
387.813	784.38
388.038	778.38
388.263	826.38
388.488	765.38
388.713	704.38
388.938	751.38
389.163	725.38
389.387	760.38
389.612	749.38
389.837	757.38
390.062	748.38
390.287	757.38
390.512	781.38
390.736	728.38
390.961	713.38
391.186	743.38
391.411	740.38
391.636	743.38
391.86	770.38
392.085	769.38
392.31	739.38
392.534	748.38
392.759	787.38
392.984	771.38
393.208	782.38
393.433	811.38
393.658	833.38
393.882	842.38
394.107	755.38
394.331	789.38
394.556	781.38
394.78	787.38
395.005	797.38
395.229	838.38
395.454	879.38
395.678	890.38
395.903	844.38
396.127	830.38
396.352	847.38
396.576	846.38
396.801	872.38
397.025	849.38
397.249	835.38
397.474	849.38
397.698	811.38
397.922	868.38
398.147	901.38
398.371	935.38
398.595	905.38
398.82	883.38
399.044	871.38
399.268	927.38
399.492	963.38
399.717	983.38
399.941	987.38
400.165	963.38
400.389	1011.38
400.613	983.38
400.837	1099.38
401.062	1216.38
401.286	1021.38
401.51	954.38
401.734	1024.38
401.958	956.38
402.182	927.38
402.406	871.38
402.63	866.38
402.854	899.38
403.078	891.38
403.302	888.38
403.526	915.38
403.75	921.38
403.974	963.38
404.198	951.38
404.422	996.38
404.645	1017.38
404.869	981.38
405.093	906.38
405.317	894.38
405.541	917.38
405.765	948.38
405.988	944.38
406.212	957.38
406.436	972.38
406.66	999.38
406.883	1049.38
407.107	1111.38
407.331	1248.38
407.555	1286.38
407.778	1110.38
408.002	999.38
408.226	947.38
408.449	958.38
408.673	948.38
408.896	963.38
409.12	986.38
409.344	952.38
409.567	941.38
409.791	984.38
410.014	974.38
410.238	1012.38
410.461	1051.38
410.685	991.38
410.908	924.38
411.132	959.38
411.355	927.38
411.578	941.38
411.802	972.38
412.025	948.38
412.249	937.38
412.472	933.38
412.695	917.38
412.919	889.38
413.142	923.38
413.365	931.38
413.589	959.38
413.812	998.38
414.035	986.38
414.258	930.38
414.482	899.38
414.705	922.38
414.928	945.38
415.151	943.38
415.374	943.38
415.597	946.38
415.821	927.38
416.044	947.38
416.267	934.38
416.49	935.38
416.713	913.38
416.936	928.38
417.159	972.38
417.382	959.38
417.605	911.38
417.828	954.38
418.051	969.38
418.274	948.38
418.497	930.38
418.72	929.38
418.943	937.38
419.166	935.38
419.389	995.38
419.611	954.38
419.834	936.38
420.057	930.38
420.28	968.38
420.503	947.38
420.726	965.38
420.948	978.38
421.171	905.38
421.394	947.38
421.617	987.38
421.839	993.38
422.062	972.38
422.285	921.38
422.507	930.38
422.73	891.38
422.953	885.38
423.175	901.38
423.398	944.38
423.621	940.38
423.843	933.38
424.066	981.38
424.288	1021.38
424.511	1045.38
424.733	999.38
424.956	914.38
425.178	945.38
425.401	945.38
425.623	961.38
425.846	918.38
426.068	981.38
426.291	974.38
426.513	969.38
426.735	981.38
426.958	1012.38
427.18	1081.38
427.402	1004.38
427.625	1016.38
427.847	1003.38
428.069	926.38
428.292	913.38
428.514	892.38
428.736	924.38
428.958	912.38
429.181	952.38
429.403	1066.38
429.625	1231.38
429.847	1053.38
430.069	925.38
430.292	1066.38
430.514	1032.38
430.736	987.38
430.958	999.38
431.18	955.38
431.402	888.38
431.624	865.38
431.846	809.38
432.068	745.38
432.29	785.38
432.512	803.38
432.734	902.38
432.956	941.38
433.178	951.38
433.4	939.38
433.622	964.38
433.844	895.38
434.066	868.38
434.287	807.38
434.509	785.38
434.731	822.38
434.953	900.38
435.175	946.38
435.397	908.38
435.618	898.38
435.84	837.38
436.062	846.38
436.284	899.38
436.505	942.38
436.727	970.38
436.949	925.38
437.17	899.38
437.392	889.38
437.614	834.38
437.835	801.38
438.057	827.38
438.278	853.38
438.5	858.38
438.721	893.38
438.943	938.38
439.165	923.38
439.386	933.38
439.608	953.38
439.829	971.38
440.05	945.38
440.272	970.38
440.493	980.38
440.715	973.38
440.936	1024.38
441.158	1078.38
441.379	1031.38
441.6	1018.38
441.822	1033.38
442.043	1009.38
442.264	987.38
442.486	978.38
442.707	989.38
442.928	965.38
443.149	972.38
443.371	1001.38
443.592	1044.38
443.813	1039.38
444.034	1017.38
444.255	1008.38
444.476	1034.38
444.698	1044.38
444.919	1035.38
445.14	1168.38
445.361	1114.38
445.582	1097.38
445.803	1052.38
446.024	1052.38
446.245	1075.38
446.466	1040.38
446.687	1041.38
446.908	1029.38
447.129	1031.38
447.35	998.38
447.571	1008.38
447.792	966.38
448.013	949.38
448.234	954.38
448.455	1025.38
448.675	1000.38
448.896	889.38
449.117	917.38
449.338	924.38
449.559	954.38
449.779	964.38
450	1035.38
450.221	1029.38
450.442	1040.38
450.662	949.38
450.883	899.38
451.104	892.38
451.324	891.38
451.545	872.38
451.766	888.38
451.986	845.38
452.207	835.38
452.428	785.38
452.648	825.38
452.869	810.38
453.089	817.38
453.31	807.38
453.53	789.38
453.751	752.38
453.971	706.38
454.192	727.38
454.412	794.38
454.633	782.38
454.853	794.38
455.073	781.38
455.294	768.38
455.514	780.38
455.734	789.38
455.955	782.38
456.175	756.38
456.395	766.38
456.616	738.38
456.836	744.38
457.056	744.38
457.276	720.38
457.497	703.38
457.717	693.38
457.937	730.38
458.157	722.38
458.377	698.38
458.598	682.38
458.818	698.38
459.038	710.38
459.258	706.38
459.478	693.38
459.698	725.38
459.918	754.38
460.138	815.38
460.358	801.38
460.578	820.38
460.798	885.38
461.018	913.38
461.238	876.38
461.458	866.38
461.678	844.38
461.898	838.38
462.118	817.38
462.338	825.38
462.558	859.38
462.777	857.38
462.997	845.38
463.217	915.38
463.437	885.38
463.657	874.38
463.876	845.38
464.096	829.38
464.316	853.38
464.536	858.38
464.755	884.38
464.975	871.38
465.195	883.38
465.414	896.38
465.634	876.38
465.854	909.38
466.073	967.38
466.293	914.38
466.512	887.38
466.732	877.38
466.951	893.38
467.171	890.38
467.391	875.38
467.61	897.38
467.829	913.38
468.049	987.38
468.268	1014.38
468.488	959.38
468.707	935.38
468.927	907.38
469.146	899.38
469.365	921.38
469.585	918.38
469.804	931.38
470.023	936.38
470.243	968.38
470.462	942.38
470.681	939.38
470.901	917.38
471.12	923.38
471.339	943.38
471.558	932.38
471.777	908.38
471.997	894.38
472.216	857.38
472.435	803.38
472.654	747.38
472.873	779.38
473.092	830.38
473.311	841.38
473.53	819.38
473.749	808.38
473.968	861.38
474.187	844.38
474.406	851.38
474.625	870.38
474.844	857.38
475.063	856.38
475.282	857.38
475.501	830.38
475.72	829.38
475.939	936.38
476.158	899.38
476.377	901.38
476.596	846.38
476.814	842.38
477.033	818.38
477.252	875.38
477.471	874.38
477.69	937.38
477.908	937.38
478.127	1000.38
478.346	1023.38
478.564	1007.38
478.783	975.38
479.002	1018.38
479.22	1012.38
479.439	1048.38
479.658	1046.38
479.876	976.38
480.095	937.38
480.313	891.38
480.532	894.38
480.751	888.38
480.969	839.38
481.188	807.38
481.406	785.38
481.624	765.38
481.843	815.38
482.061	831.38
482.28	884.38
482.498	891.38
482.717	875.38
482.935	883.38
483.153	979.38
483.372	999.38
483.59	1000.38
483.808	964.38
484.027	967.38
484.245	1015.38
484.463	1221.38
484.681	1277.38
484.9	1050.38
485.118	967.38
485.336	925.38
485.554	927.38
485.772	897.38
485.99	874.38
486.209	895.38
486.427	923.38
486.645	953.38
486.863	1013.38
487.081	1007.38
487.299	1029.38
487.517	1024.38
487.735	1132.38
487.953	1218.38
488.171	1213.38
488.389	1142.38
488.607	1128.38
488.825	1138.38
489.043	1059.38
489.261	991.38
489.479	1038.38
489.696	1067.38
489.914	1057.38
490.132	1051.38
490.35	1107.38
490.568	1148.38
490.786	1199.38
491.003	1206.38
491.221	1287.38
491.439	1300.38
491.657	1327.38
491.874	1401.38
492.092	1463.38
492.31	1514.38
492.527	1443.38
492.745	1395.38
492.963	1354.38
493.18	1324.38
493.398	1359.38
493.615	1348.38
493.833	1287.38
494.05	1239.38
494.268	1233.38
494.485	1233.38
494.703	1265.38
494.92	1211.38
495.138	1233.38
495.355	1279.38
495.573	1240.38
495.79	1305.38
496.008	1300.38
496.225	1253.38
496.442	1248.38
496.66	1230.38
496.877	1242.38
497.094	1232.38
497.312	1219.38
497.529	1232.38
497.746	1206.38
497.963	1254.38
498.181	1292.38
498.398	1248.38
498.615	1226.38
498.832	1169.38
499.049	1159.38
499.267	1210.38
499.484	1283.38
499.701	1344.38
499.918	1394.38
500.135	1462.38
500.352	1587.38
500.569	1587.38
500.786	1671.38
501.003	1551.38
501.22	1475.38
501.437	1418.38
501.654	1433.38
501.871	1384.38
502.088	1221.38
502.305	1182.38
502.522	1165.38
502.739	1079.38
502.956	1100.38
503.172	1058.38
503.389	1027.38
503.606	1011.38
503.823	992.38
504.04	1001.38
504.256	1025.38
504.473	1013.38
504.69	1043.38
504.907	1008.38
505.123	988.38
505.34	1085.38
505.557	1375.38
505.773	1158.38
505.99	951.38
506.207	917.38
506.423	884.38
506.64	874.38
506.856	905.38
507.073	1050.38
507.289	1093.38
507.506	999.38
507.722	888.38
507.939	882.38
508.155	857.38
508.372	872.38
508.588	857.38
508.805	822.38
509.021	805.38
509.238	780.38
509.454	747.38
509.67	767.38
509.887	735.38
510.103	737.38
510.319	756.38
510.536	746.38
510.752	772.38
510.968	769.38
511.184	781.38
511.401	778.38
511.617	703.38
511.833	702.38
512.049	725.38
512.265	700.38
512.481	733.38
512.698	741.38
512.914	789.38
513.13	753.38
513.346	744.38
513.562	700.38
513.778	705.38
513.994	760.38
514.21	752.38
514.426	765.38
514.642	838.38
514.858	789.38
515.074	740.38
515.29	735.38
515.506	729.38
515.721	748.38
515.937	757.38
516.153	821.38
516.369	776.38
516.585	771.38
516.801	733.38
517.016	731.38
517.232	754.38
517.448	765.38
517.664	790.38
517.879	777.38
518.095	835.38
518.311	788.38
518.527	769.38
518.742	792.38
518.958	777.38
519.173	780.38
519.389	807.38
519.605	802.38
519.82	783.38
520.036	812.38
520.251	789.38
520.467	785.38
520.682	809.38
520.898	804.38
521.113	739.38
521.329	721.38
521.544	791.38
521.76	753.38
521.975	725.38
522.19	753.38
522.406	745.38
522.621	938.38
522.836	870.38
523.052	749.38
523.267	740.38
523.482	741.38
523.698	745.38
523.913	724.38
524.128	754.38
524.343	812.38
524.559	829.38
524.774	788.38
524.989	783.38
525.204	744.38
525.419	753.38
525.634	725.38
525.849	731.38
526.064	744.38
526.28	718.38
526.495	662.38
526.71	667.38
526.925	649.38
527.14	632.38
527.355	640.38
527.57	647.38
527.785	665.38
527.999	665.38
528.214	678.38
528.429	723.38
528.644	754.38
528.859	795.38
529.074	835.38
529.289	864.38
529.503	890.38
529.718	822.38
529.933	716.38
530.148	671.38
530.363	655.38
530.577	640.38
530.792	659.38
531.007	626.38
531.221	639.38
531.436	641.38
531.651	653.38
531.865	667.38
532.08	661.38
532.295	645.38
532.509	617.38
532.724	641.38
532.938	667.38
533.153	694.38
533.367	726.38
533.582	747.38
533.796	751.38
534.011	712.38
534.225	653.38
534.44	639.38
534.654	639.38
534.868	644.38
535.083	696.38
535.297	687.38
535.511	718.38
535.726	675.38
535.94	699.38
536.154	644.38
536.369	619.38
536.583	598.38
536.797	637.38
537.011	639.38
537.225	616.38
537.44	627.38
537.654	653.38
537.868	620.38
538.082	601.38
538.296	595.38
538.51	640.38
538.724	706.38
538.938	726.38
539.153	742.38
539.367	756.38
539.581	709.38
539.795	703.38
540.009	646.38
540.222	649.38
540.436	693.38
540.65	759.38
540.864	834.38
541.078	819.38
541.292	853.38
541.506	901.38
541.72	963.38
541.934	990.38
542.147	1077.38
542.361	983.38
542.575	910.38
542.789	834.38
543.002	761.38
543.216	759.38
543.43	803.38
543.644	803.38
543.857	872.38
544.071	929.38
544.285	965.38
544.498	928.38
544.712	919.38
544.925	960.38
545.139	937.38
545.352	934.38
545.566	934.38
545.779	912.38
545.993	944.38
546.206	944.38
546.42	971.38
546.633	931.38
546.847	975.38
547.06	977.38
547.274	1010.38
547.487	979.38
547.7	1000.38
547.914	976.38
548.127	962.38
548.34	966.38
548.554	938.38
548.767	966.38
548.98	947.38
549.193	925.38
549.407	962.38
549.62	969.38
549.833	911.38
550.046	889.38
550.259	902.38
550.473	887.38
550.686	879.38
550.899	872.38
551.112	872.38
551.325	869.38
551.538	845.38
551.751	884.38
551.964	709.38
552.177	737.38
552.39	809.38
552.603	851.38
552.816	865.38
553.029	925.38
553.242	936.38
553.455	918.38
553.667	913.38
553.88	913.38
554.093	908.38
554.306	858.38
554.519	849.38
554.732	827.38
554.944	829.38
555.157	796.38
555.37	798.38
555.583	796.38
555.795	799.38
556.008	729.38
556.221	733.38
556.433	718.38
556.646	732.38
556.859	734.38
557.071	745.38
557.284	755.38
557.496	765.38
557.709	751.38
557.921	777.38
558.134	694.38
558.346	737.38
558.559	718.38
558.771	706.38
558.984	677.38
559.196	691.38
559.409	685.38
559.621	649.38
559.833	681.38
560.046	676.38
560.258	688.38
560.47	683.38
560.683	669.38
560.895	695.38
561.107	689.38
561.32	680.38
561.532	666.38
561.744	659.38
561.956	669.38
562.168	666.38
562.381	639.38
562.593	651.38
562.805	639.38
563.017	645.38
563.229	647.38
563.441	676.38
563.653	643.38
563.865	626.38
564.077	600.38
564.289	620.38
564.501	595.38
564.713	612.38
564.925	643.38
565.137	676.38
565.349	624.38
565.561	644.38
565.773	608.38
565.985	623.38
566.197	659.38
566.408	685.38
566.62	690.38
566.832	690.38
567.044	694.38
567.255	691.38
567.467	650.38
567.679	641.38
567.891	657.38
568.102	619.38
568.314	556.38
568.526	536.38
568.737	540.38
568.949	500.38
569.161	486.38
569.372	461.38
569.584	445.38
569.795	461.38
570.007	457.38
570.218	429.38
570.43	448.38
570.641	465.38
570.853	470.38
571.064	475.38
571.276	500.38
571.487	472.38
571.698	475.38
571.91	468.38
572.121	474.38
572.333	458.38
572.544	452.38
572.755	406.38
572.966	381.38
573.178	400.38
573.389	402.38
573.6	416.38
573.811	442.38
574.023	403.38
574.234	377.38
574.445	394.38
574.656	397.38
574.867	395.38
575.078	403.38
575.289	411.38
575.501	414.38
575.712	391.38
575.923	402.38
576.134	421.38
576.345	418.38
576.556	421.38
576.767	398.38
576.978	406.38
577.188	390.38
577.399	360.38
577.61	383.38
577.821	367.38
578.032	380.38
578.243	380.38
578.454	386.38
578.665	348.38
578.875	347.38
579.086	347.38
579.297	339.38
579.508	343.38
579.718	329.38
579.929	335.38
580.14	340.38
580.35	326.38
580.561	373.38
580.772	403.38
580.982	369.38
581.193	336.38
581.403	348.38
581.614	342.38
581.825	355.38
582.035	364.38
582.246	357.38
582.456	346.38
582.667	323.38
582.877	338.38
583.087	337.38
583.298	332.38
583.508	329.38
583.719	336.38
583.929	332.38
584.139	347.38
584.35	305.38
584.56	311.38
584.77	351.38
584.981	330.38
585.191	347.38
585.401	341.38
585.611	329.38
585.821	337.38
586.032	332.38
586.242	315.38
586.452	328.38
586.662	332.38
586.872	321.38
587.082	317.38
587.292	335.38
587.502	315.38
587.713	310.38
587.923	322.38
588.133	325.38
588.343	329.38
588.553	291.38
588.762	327.38
588.972	301.38
589.182	313.38
589.392	303.38
589.602	299.38
589.812	328.38
590.022	305.38
590.232	295.38
590.441	311.38
590.651	323.38
590.861	307.38
591.071	307.38
591.281	290.38
591.49	319.38
591.7	294.38
591.91	322.38
592.119	313.38
592.329	326.38
592.539	332.38
592.748	327.38
592.958	323.38
593.167	321.38
593.377	327.38
593.587	326.38
593.796	323.38
594.006	327.38
594.215	352.38
594.424	333.38
594.634	338.38
594.843	349.38
595.053	367.38
595.262	349.38
595.472	320.38
595.681	331.38
595.89	330.38
596.1	304.38
596.309	347.38
596.518	327.38
596.727	339.38
596.937	308.38
597.146	298.38
597.355	312.38
597.564	316.38
597.774	302.38
597.983	295.38
598.192	285.38
598.401	274.38
598.61	291.38
598.819	287.38
599.028	308.38
599.237	315.38
599.446	297.38
599.655	298.38
599.864	305.38
600.073	288.38
600.282	299.38
600.491	279.38
600.7	305.38
600.909	282.38
601.118	321.38
601.327	307.38
601.536	332.38
601.745	353.38
601.953	359.38
602.162	354.38
602.371	355.38
602.58	348.38
602.789	357.38
602.997	348.38
603.206	357.38
603.415	347.38
603.623	341.38
603.832	341.38
604.041	335.38
604.249	309.38
604.458	292.38
604.666	319.38
604.875	295.38
605.084	324.38
605.292	340.38
605.501	374.38
605.709	349.38
605.918	383.38
606.126	348.38
606.334	367.38
606.543	353.38
606.751	342.38
606.96	363.38
607.168	361.38
607.376	367.38
607.585	364.38
607.793	367.38
608.001	355.38
608.21	371.38
608.418	370.38
608.626	357.38
608.834	356.38
609.043	382.38
609.251	361.38
609.459	363.38
609.667	384.38
609.875	379.38
610.083	381.38
610.291	390.38
610.499	359.38
610.707	359.38
610.916	373.38
611.124	350.38
611.332	372.38
611.54	374.38
611.748	381.38
611.955	365.38
612.163	373.38
612.371	363.38
612.579	368.38
612.787	373.38
612.995	359.38
613.203	371.38
613.411	366.38
613.618	345.38
613.826	369.38
614.034	371.38
614.242	369.38
614.449	364.38
614.657	362.38
614.865	348.38
615.072	365.38
615.28	357.38
615.488	376.38
615.695	348.38
615.903	354.38
616.111	364.38
616.318	356.38
616.526	346.38
616.733	365.38
616.941	350.38
617.148	348.38
617.356	349.38
617.563	329.38
617.771	335.38
617.978	324.38
618.185	319.38
618.393	353.38
618.6	337.38
618.807	337.38
619.015	343.38
619.222	339.38
619.429	351.38
619.637	316.38
619.844	283.38
620.051	290.38
620.258	340.38
620.466	328.38
620.673	323.38
620.88	303.38
621.087	314.38
621.294	315.38
621.501	306.38
621.708	305.38
621.915	307.38
622.122	331.38
622.329	328.38
622.536	339.38
622.743	323.38
622.95	314.38
623.157	306.38
623.364	324.38
623.571	327.38
623.778	325.38
623.985	335.38
624.192	333.38
624.399	331.38
624.606	314.38
624.812	304.38
625.019	308.38
625.226	299.38
625.433	286.38
625.639	284.38
625.846	255.38
626.053	255.38
626.259	248.38
626.466	236.38
626.673	252.38
626.879	230.38
627.086	247.38
627.293	264.38
627.499	308.38
627.706	291.38
627.912	309.38
628.119	315.38
628.325	310.38
628.532	301.38
628.738	295.38
628.945	303.38
629.151	279.38
629.357	297.38
629.564	292.38
629.77	275.38
629.976	273.38
630.183	260.38
630.389	269.38
630.595	282.38
630.802	269.38
631.008	259.38
631.214	270.38
631.42	271.38
631.627	248.38
631.833	258.38
632.039	276.38
632.245	281.38
632.451	268.38
632.657	263.38
632.863	267.38
633.069	265.38
633.275	268.38
633.481	240.38
633.688	257.38
633.893	262.38
634.099	261.38
634.305	258.38
634.511	251.38
634.717	249.38
634.923	244.38
635.129	248.38
635.335	227.38
635.541	233.38
635.747	235.38
635.952	254.38
636.158	278.38
636.364	247.38
636.57	277.38
636.775	266.38
636.981	259.38
637.187	257.38
637.392	267.38
637.598	277.38
637.804	268.38
638.009	234.38
638.215	260.38
638.421	270.38
638.626	252.38
638.832	257.38
639.037	261.38
639.243	249.38
639.448	262.38
639.654	245.38
639.859	247.38
640.065	253.38
640.27	248.38
640.475	266.38
640.681	248.38
640.886	257.38
641.091	255.38
641.297	250.38
641.502	255.38
641.707	250.38
641.913	228.38
642.118	255.38
642.323	251.38
642.528	234.38
642.733	239.38
642.939	239.38
643.144	239.38
643.349	244.38
643.554	225.38
643.759	255.38
643.964	258.38
644.169	229.38
644.374	233.38
644.579	261.38
644.784	266.38
644.989	259.38
645.194	219.38
645.399	248.38
645.604	235.38
645.809	223.38
646.014	228.38
646.219	240.38
646.423	242.38
646.628	226.38
646.833	227.38
647.038	249.38
647.243	233.38
647.447	239.38
647.652	247.38
647.857	258.38
648.062	241.38
648.266	246.38
648.471	257.38
648.676	257.38
648.88	231.38
649.085	255.38
649.289	243.38
649.494	234.38
649.698	231.38
649.903	239.38
650.107	232.38
650.312	236.38
650.516	233.38
650.721	202.38
650.925	225.38
651.13	229.38
651.334	224.38
651.539	216.38
651.743	230.38
651.947	215.38
652.152	207.38
652.356	230.38
652.56	213.38
652.764	222.38
652.969	198.38
653.173	224.38
653.377	210.38
653.581	212.38
653.785	197.38
653.99	210.38
654.194	217.38
654.398	205.38
654.602	189.38
654.806	207.38
655.01	200.38
655.214	199.38
655.418	188.38
655.622	215.38
655.826	215.38
656.03	216.38
656.234	219.38
656.438	226.38
656.642	231.38
656.846	239.38
657.049	226.38
657.253	195.38
657.457	187.38
657.661	185.38
657.865	168.38
658.068	157.38
658.272	163.38
658.476	136.38
658.68	155.38
658.883	139.38
659.087	139.38
659.291	139.38
659.494	137.38
659.698	118.38
659.901	137.38
660.105	135.38
660.309	132.38
660.512	131.38
660.716	117.38
660.919	118.38
661.123	123.38
661.326	115.38
661.53	105.38
661.733	118.38
661.936	111.38
662.14	97.38
662.343	96.38
662.546	88.38
662.75	102.38
662.953	112.38
663.156	96.38
663.36	91.38
663.563	69.38
663.766	95.38
663.969	94.38
664.173	94.38
664.376	94.38
664.579	75.38
664.782	79.38
664.985	83.38
665.188	85.38
665.391	84.38
665.594	88.38
665.797	83.38
666	65.38
666.203	91.38
666.406	77.38
666.609	74.38
666.812	106.38
667.015	91.38
667.218	79.38
667.421	84.38
667.624	97.38
667.827	87.38
668.03	97.38
668.232	91.38
668.435	79.38
668.638	99.38
668.841	86.38
669.043	88.38
669.246	87.38
669.449	84.38
669.651	83.38
669.854	88.38
670.057	84.38
670.259	90.38
670.462	88.38
670.665	77.38
670.867	88.38
671.07	86.38
671.272	87.38
671.475	83.38
671.677	69.38
671.88	87.38
672.082	75.38
672.284	76.38
672.487	87.38
672.689	67.38
672.892	77.38
