Data from WStandard_LampEnergy8_LIBS07252019.E.O._I.C._HRD10591_15-57-43-929.txt Node
Date: Thu Jul 25 15:57:43 EDT 2019
User: cochatt
Spectrometer: HR+D1059
Trigger mode: 1
Integration Time (sec): 1.000000E-1
Scans to average: 1
Electric dark correction enabled: true
Nonlinearity correction enabled: false
Boxcar width: 0
XAxis mode: Wavelengths
Number of Pixels in Spectrum: 2048
>>>>>Begin Spectral Data<<<<<
223.165	-21.38
223.4	-21.38
223.635	-21.38
223.869	-20.38
224.104	-19.38
224.338	-20.38
224.573	-21.38
224.808	-7.38
225.042	-2.38
225.277	0.62
225.511	2.62
225.746	-10.38
225.98	-5.38
226.215	21.62
226.449	24.62
226.683	32.62
226.918	13.62
227.152	32.62
227.387	36.62
227.621	38.62
227.856	45.62
228.09	59.62
228.324	57.62
228.559	71.62
228.793	108.62
229.027	208.62
229.262	219.62
229.496	226.62
229.73	244.62
229.964	248.62
230.199	255.62
230.433	288.62
230.667	283.62
230.901	309.62
231.136	279.62
231.37	262.62
231.604	291.62
231.838	279.62
232.072	298.62
232.306	284.62
232.541	281.62
232.775	313.62
233.009	331.62
233.243	334.62
233.477	317.62
233.711	304.62
233.945	318.62
234.179	313.62
234.413	320.62
234.647	379.62
234.881	337.62
235.115	312.62
235.349	313.62
235.583	309.62
235.817	312.62
236.051	314.62
236.285	333.62
236.519	355.62
236.753	382.62
236.987	382.62
237.221	386.62
237.455	411.62
237.689	384.62
237.922	385.62
238.156	363.62
238.39	379.62
238.624	392.62
238.858	421.62
239.091	406.62
239.325	458.62
239.559	514.62
239.793	524.62
240.027	552.62
240.26	520.62
240.494	434.62
240.728	381.62
240.961	408.62
241.195	399.62
241.429	424.62
241.662	438.62
241.896	441.62
242.13	424.62
242.363	480.62
242.597	506.62
242.83	481.62
243.064	498.62
243.298	516.62
243.531	470.62
243.765	497.62
243.998	493.62
244.232	447.62
244.465	433.62
244.699	444.62
244.932	482.62
245.166	552.62
245.399	521.62
245.633	478.62
245.866	474.62
246.099	519.62
246.333	505.62
246.566	527.62
246.8	573.62
247.033	600.62
247.266	586.62
247.5	564.62
247.733	567.62
247.966	597.62
248.2	668.62
248.433	646.62
248.666	651.62
248.899	725.62
249.133	792.62
249.366	852.62
249.599	743.62
249.832	633.62
250.066	667.62
250.299	686.62
250.532	669.62
250.765	570.62
250.998	619.62
251.231	660.62
251.465	652.62
251.698	622.62
251.931	639.62
252.164	620.62
252.397	664.62
252.63	671.62
252.863	598.62
253.096	601.62
253.329	627.62
253.562	630.62
253.795	650.62
254.028	649.62
254.261	611.62
254.494	609.62
254.727	582.62
254.96	626.62
255.193	672.62
255.426	770.62
255.659	851.62
255.892	836.62
256.124	711.62
256.357	693.62
256.59	741.62
256.823	772.62
257.056	782.62
257.289	889.62
257.521	992.62
257.754	873.62
257.987	831.62
258.22	901.62
258.452	875.62
258.685	725.62
258.918	718.62
259.151	711.62
259.383	685.62
259.616	631.62
259.849	657.62
260.081	757.62
260.314	816.62
260.547	865.62
260.779	862.62
261.012	825.62
261.244	747.62
261.477	705.62
261.71	760.62
261.942	727.62
262.175	726.62
262.407	753.62
262.64	730.62
262.872	676.62
263.105	666.62
263.337	674.62
263.57	682.62
263.802	689.62
264.035	640.62
264.267	623.62
264.499	603.62
264.732	643.62
264.964	699.62
265.197	723.62
265.429	747.62
265.661	820.62
265.894	924.62
266.126	924.62
266.358	859.62
266.591	888.62
266.823	937.62
267.055	843.62
267.287	830.62
267.52	818.62
267.752	791.62
267.984	823.62
268.216	871.62
268.448	864.62
268.681	841.62
268.913	786.62
269.145	721.62
269.377	748.62
269.609	812.62
269.841	923.62
270.073	1088.62
270.306	1188.62
270.538	1221.62
270.77	1031.62
271.002	901.62
271.234	871.62
271.466	890.62
271.698	986.62
271.93	1126.62
272.162	1145.62
272.394	1038.62
272.626	964.62
272.858	895.62
273.09	769.62
273.322	749.62
273.553	705.62
273.785	725.62
274.017	768.62
274.249	824.62
274.481	846.62
274.713	759.62
274.945	742.62
275.176	746.62
275.408	722.62
275.64	729.62
275.872	732.62
276.104	791.62
276.335	898.62
276.567	1026.62
276.799	977.62
277.031	869.62
277.262	872.62
277.494	903.62
277.726	966.62
277.957	934.62
278.189	863.62
278.421	785.62
278.652	794.62
278.884	803.62
279.115	788.62
279.347	802.62
279.579	800.62
279.81	773.62
280.042	884.62
280.273	952.62
280.505	922.62
280.736	961.62
280.968	850.62
281.199	761.62
281.431	758.62
281.662	759.62
281.894	798.62
282.125	814.62
282.356	832.62
282.588	835.62
282.819	811.62
283.051	894.62
283.282	944.62
283.513	910.62
283.745	804.62
283.976	762.62
284.207	752.62
284.439	800.62
284.67	825.62
284.901	835.62
285.132	837.62
285.364	813.62
285.595	816.62
285.826	816.62
286.057	791.62
286.288	824.62
286.52	856.62
286.751	881.62
286.982	916.62
287.213	829.62
287.444	784.62
287.675	800.62
287.906	854.62
288.138	886.62
288.369	862.62
288.6	813.62
288.831	781.62
289.062	797.62
289.293	789.62
289.524	776.62
289.755	819.62
289.986	811.62
290.217	761.62
290.448	791.62
290.679	840.62
290.91	828.62
291.141	834.62
291.371	866.62
291.602	874.62
291.833	864.62
292.064	898.62
292.295	883.62
292.526	900.62
292.757	919.62
292.987	889.62
293.218	876.62
293.449	961.62
293.68	1040.62
293.91	1080.62
294.141	980.62
294.372	978.62
294.603	1031.62
294.833	1045.62
295.064	969.62
295.295	874.62
295.525	866.62
295.756	796.62
295.987	763.62
296.217	804.62
296.448	814.62
296.679	824.62
296.909	831.62
297.14	802.62
297.37	842.62
297.601	889.62
297.831	944.62
298.062	910.62
298.292	882.62
298.523	834.62
298.753	855.62
298.984	861.62
299.214	847.62
299.445	892.62
299.675	882.62
299.905	860.62
300.136	856.62
300.366	854.62
300.597	811.62
300.827	816.62
301.057	842.62
301.288	877.62
301.518	916.62
301.748	916.62
301.979	961.62
302.209	977.62
302.439	1043.62
302.669	1079.62
302.9	988.62
303.13	914.62
303.36	910.62
303.59	947.62
303.82	902.62
304.051	924.62
304.281	889.62
304.511	932.62
304.741	1000.62
304.971	1080.62
305.201	1160.62
305.431	1036.62
305.661	860.62
305.891	786.62
306.121	791.62
306.352	873.62
306.582	890.62
306.812	944.62
307.042	1015.62
307.272	1013.62
307.502	1048.62
307.731	1128.62
307.961	1139.62
308.191	1021.62
308.421	932.62
308.651	855.62
308.881	870.62
309.111	885.62
309.341	844.62
309.571	875.62
309.8	886.62
310.03	862.62
310.26	861.62
310.49	887.62
310.72	886.62
310.949	931.62
311.179	940.62
311.409	906.62
311.639	888.62
311.868	912.62
312.098	904.62
312.328	884.62
312.557	894.62
312.787	882.62
313.017	915.62
313.246	961.62
313.476	893.62
313.706	931.62
313.935	933.62
314.165	945.62
314.394	998.62
314.624	1034.62
314.853	1104.62
315.083	1134.62
315.312	1145.62
315.542	1032.62
315.771	978.62
316.001	989.62
316.23	1036.62
316.46	1000.62
316.689	1003.62
316.919	902.62
317.148	895.62
317.377	918.62
317.607	1024.62
317.836	1138.62
318.065	1140.62
318.295	1084.62
318.524	1049.62
318.753	977.62
318.983	993.62
319.212	969.62
319.441	941.62
319.67	970.62
319.9	996.62
320.129	1047.62
320.358	1078.62
320.587	1130.62
320.816	1124.62
321.046	1090.62
321.275	1039.62
321.504	1058.62
321.733	1091.62
321.962	1054.62
322.191	992.62
322.42	998.62
322.649	966.62
322.878	978.62
323.108	974.62
323.337	1010.62
323.566	980.62
323.795	1006.62
324.024	1014.62
324.253	980.62
324.482	981.62
324.71	956.62
324.939	896.62
325.168	930.62
325.397	1004.62
325.626	991.62
325.855	1026.62
326.084	966.62
326.313	1003.62
326.542	1016.62
326.77	1010.62
326.999	1019.62
327.228	958.62
327.457	939.62
327.686	894.62
327.914	962.62
328.143	971.62
328.372	999.62
328.6	966.62
328.829	942.62
329.058	936.62
329.287	962.62
329.515	986.62
329.744	980.62
329.972	1049.62
330.201	1089.62
330.43	1046.62
330.658	1059.62
330.887	1033.62
331.115	1046.62
331.344	1084.62
331.572	1003.62
331.801	1022.62
332.03	984.62
332.258	1038.62
332.486	1038.62
332.715	1060.62
332.943	1043.62
333.172	1036.62
333.4	1047.62
333.629	1093.62
333.857	1136.62
334.085	1306.62
334.314	1473.62
334.542	1513.62
334.771	1406.62
334.999	1258.62
335.227	1160.62
335.455	1121.62
335.684	1089.62
335.912	1124.62
336.14	1173.62
336.369	1100.62
336.597	1047.62
336.825	1044.62
337.053	1090.62
337.281	1138.62
337.51	1210.62
337.738	1219.62
337.966	1189.62
338.194	1065.62
338.422	1024.62
338.65	1005.62
338.878	1038.62
339.106	983.62
339.334	980.62
339.562	954.62
339.79	992.62
340.018	1074.62
340.246	1104.62
340.474	1051.62
340.702	1074.62
340.93	1055.62
341.158	1069.62
341.386	1042.62
341.614	1037.62
341.842	1012.62
342.07	1044.62
342.298	1048.62
342.526	1030.62
342.754	1028.62
342.981	1031.62
343.209	1012.62
343.437	1015.62
343.665	1026.62
343.893	1042.62
344.12	1100.62
344.348	1097.62
344.576	1041.62
344.804	1038.62
345.031	1024.62
345.259	1026.62
345.487	1009.62
345.714	954.62
345.942	944.62
346.17	964.62
346.397	981.62
346.625	987.62
346.853	925.62
347.08	943.62
347.308	937.62
347.535	993.62
347.763	979.62
347.99	986.62
348.218	926.62
348.445	972.62
348.673	971.62
348.9	1019.62
349.128	1022.62
349.355	1079.62
349.583	1047.62
349.81	956.62
350.037	910.62
350.265	919.62
350.492	917.62
350.72	926.62
350.947	969.62
351.174	1003.62
351.402	943.62
351.629	920.62
351.856	867.62
352.083	900.62
352.311	898.62
352.538	923.62
352.765	1009.62
352.992	993.62
353.22	951.62
353.447	932.62
353.674	949.62
353.901	964.62
354.128	937.62
354.355	930.62
354.583	1002.62
354.81	1013.62
355.037	1008.62
355.264	988.62
355.491	966.62
355.718	980.62
355.945	946.62
356.172	929.62
356.399	920.62
356.626	929.62
356.853	994.62
357.08	1080.62
357.307	1146.62
357.534	1117.62
357.761	995.62
357.988	923.62
358.215	920.62
358.441	922.62
358.668	928.62
358.895	938.62
359.122	1006.62
359.349	1127.62
359.576	1051.62
359.802	972.62
360.029	908.62
360.256	934.62
360.483	950.62
360.709	971.62
360.936	1018.62
361.163	1070.62
361.39	1179.62
361.616	1245.62
361.843	1177.62
362.07	1091.62
362.296	956.62
362.523	931.62
362.749	964.62
362.976	978.62
363.203	994.62
363.429	947.62
363.656	925.62
363.882	973.62
364.109	1114.62
364.335	1154.62
364.562	1068.62
364.788	1001.62
365.015	962.62
365.241	928.62
365.468	968.62
365.694	1011.62
365.92	1039.62
366.147	992.62
366.373	946.62
366.599	900.62
366.826	937.62
367.052	928.62
367.278	979.62
367.505	983.62
367.731	1000.62
367.957	1022.62
368.184	1032.62
368.41	1119.62
368.636	1154.62
368.862	1114.62
369.089	1092.62
369.315	1051.62
369.541	996.62
369.767	978.62
369.993	974.62
370.219	984.62
370.445	1044.62
370.672	1058.62
370.898	1108.62
371.124	1064.62
371.35	1036.62
371.576	1089.62
371.802	1093.62
372.028	1052.62
372.254	1002.62
372.48	983.62
372.706	972.62
372.932	962.62
373.158	980.62
373.384	991.62
373.61	1050.62
373.835	1085.62
374.061	1004.62
374.287	1046.62
374.513	1030.62
374.739	1032.62
374.965	1033.62
375.191	1049.62
375.416	1044.62
375.642	1074.62
375.868	1156.62
376.094	1184.62
376.319	1110.62
376.545	1060.62
376.771	1078.62
376.997	1128.62
377.222	1096.62
377.448	1090.62
377.674	1075.62
377.899	1109.62
378.125	1158.62
378.35	1133.62
378.576	1022.62
378.802	996.62
379.027	989.62
379.253	1023.62
379.478	1015.62
379.704	1012.62
379.929	1028.62
380.155	1032.62
380.38	1032.62
380.606	1075.62
380.831	1028.62
381.057	1118.62
381.282	1099.62
381.507	1090.62
381.733	1152.62
381.958	1204.62
382.184	1064.62
382.409	1077.62
382.634	1089.62
382.86	1052.62
383.085	1064.62
383.31	1120.62
383.535	1240.62
383.761	1309.62
383.986	1225.62
384.211	1194.62
384.436	1179.62
384.662	1204.62
384.887	1241.62
385.112	1174.62
385.337	1169.62
385.562	1172.62
385.787	1164.62
386.013	1204.62
386.238	1190.62
386.463	1191.62
386.688	1322.62
386.913	1372.62
387.138	1303.62
387.363	1236.62
387.588	1202.62
387.813	1213.62
388.038	1239.62
388.263	1241.62
388.488	1207.62
388.713	1105.62
388.938	1075.62
389.163	1132.62
389.387	1149.62
389.612	1160.62
389.837	1168.62
390.062	1192.62
390.287	1167.62
390.512	1152.62
390.736	1154.62
390.961	1122.62
391.186	1092.62
391.411	1116.62
391.636	1170.62
391.86	1152.62
392.085	1166.62
392.31	1156.62
392.534	1159.62
392.759	1204.62
392.984	1185.62
393.208	1187.62
393.433	1220.62
393.658	1260.62
393.882	1245.62
394.107	1167.62
394.331	1198.62
394.556	1166.62
394.78	1194.62
395.005	1225.62
395.229	1272.62
395.454	1348.62
395.678	1325.62
395.903	1268.62
396.127	1266.62
396.352	1230.62
396.576	1300.62
396.801	1303.62
397.025	1328.62
397.249	1280.62
397.474	1273.62
397.698	1251.62
397.922	1312.62
398.147	1340.62
398.371	1404.62
398.595	1381.62
398.82	1339.62
399.044	1390.62
399.268	1405.62
399.492	1482.62
399.717	1556.62
399.941	1564.62
400.165	1511.62
400.389	1458.62
400.613	1508.62
400.837	1757.62
401.062	1884.62
401.286	1600.62
401.51	1511.62
401.734	1536.62
401.958	1440.62
402.182	1378.62
402.406	1330.62
402.63	1270.62
402.854	1314.62
403.078	1335.62
403.302	1336.62
403.526	1411.62
403.75	1354.62
403.974	1426.62
404.198	1408.62
404.422	1477.62
404.645	1562.62
404.869	1458.62
405.093	1376.62
405.317	1352.62
405.541	1371.62
405.765	1393.62
405.988	1390.62
406.212	1433.62
406.436	1470.62
406.66	1493.62
406.883	1564.62
407.107	1747.62
407.331	1866.62
407.555	2005.62
407.778	1752.62
408.002	1491.62
408.226	1464.62
408.449	1444.62
408.673	1414.62
408.896	1403.62
409.12	1442.62
409.344	1426.62
409.567	1379.62
409.791	1402.62
410.014	1419.62
410.238	1514.62
410.461	1586.62
410.685	1443.62
410.908	1374.62
411.132	1409.62
411.355	1385.62
411.578	1330.62
411.802	1380.62
412.025	1385.62
412.249	1381.62
412.472	1325.62
412.695	1343.62
412.919	1361.62
413.142	1325.62
413.365	1353.62
413.589	1394.62
413.812	1480.62
414.035	1506.62
414.258	1383.62
414.482	1315.62
414.705	1377.62
414.928	1329.62
415.151	1336.62
415.374	1329.62
415.597	1380.62
415.821	1384.62
416.044	1367.62
416.267	1381.62
416.49	1336.62
416.713	1317.62
416.936	1360.62
417.159	1433.62
417.382	1420.62
417.605	1339.62
417.828	1376.62
418.051	1349.62
418.274	1313.62
418.497	1312.62
418.72	1314.62
418.943	1308.62
419.166	1383.62
419.389	1381.62
419.611	1334.62
419.834	1343.62
420.057	1323.62
420.28	1329.62
420.503	1366.62
420.726	1390.62
420.948	1334.62
421.171	1287.62
421.394	1319.62
421.617	1363.62
421.839	1351.62
422.062	1368.62
422.285	1352.62
422.507	1317.62
422.73	1271.62
422.953	1238.62
423.175	1266.62
423.398	1319.62
423.621	1292.62
423.843	1336.62
424.066	1381.62
424.288	1460.62
424.511	1498.62
424.733	1424.62
424.956	1274.62
425.178	1264.62
425.401	1267.62
425.623	1288.62
425.846	1312.62
426.068	1364.62
426.291	1400.62
426.513	1378.62
426.735	1359.62
426.958	1473.62
427.18	1522.62
427.402	1383.62
427.625	1479.62
427.847	1437.62
428.069	1323.62
428.292	1298.62
428.514	1260.62
428.736	1260.62
428.958	1277.62
429.181	1312.62
429.403	1542.62
429.625	1825.62
429.847	1524.62
430.069	1338.62
430.292	1494.62
430.514	1479.62
430.736	1431.62
430.958	1436.62
431.18	1370.62
431.402	1284.62
431.624	1226.62
431.846	1214.62
432.068	1192.62
432.29	1181.62
432.512	1232.62
432.734	1294.62
432.956	1317.62
433.178	1371.62
433.4	1379.62
433.622	1307.62
433.844	1326.62
434.066	1221.62
434.287	1188.62
434.509	1237.62
434.731	1302.62
434.953	1435.62
435.175	1366.62
435.397	1316.62
435.618	1311.62
435.84	1264.62
436.062	1283.62
436.284	1295.62
436.505	1328.62
436.727	1347.62
436.949	1285.62
437.17	1268.62
437.392	1267.62
437.614	1246.62
437.835	1188.62
438.057	1265.62
438.278	1317.62
438.5	1244.62
438.721	1244.62
438.943	1254.62
439.165	1270.62
439.386	1276.62
439.608	1287.62
439.829	1267.62
440.05	1297.62
440.272	1268.62
440.493	1291.62
440.715	1297.62
440.936	1385.62
441.158	1497.62
441.379	1433.62
441.6	1463.62
441.822	1392.62
442.043	1339.62
442.264	1349.62
442.486	1285.62
442.707	1305.62
442.928	1317.62
443.149	1345.62
443.371	1376.62
443.592	1422.62
443.813	1445.62
444.034	1432.62
444.255	1413.62
444.476	1383.62
444.698	1452.62
444.919	1440.62
445.14	1512.62
445.361	1505.62
445.582	1461.62
445.803	1434.62
446.024	1433.62
446.245	1451.62
446.466	1473.62
446.687	1387.62
446.908	1402.62
447.129	1368.62
447.35	1380.62
447.571	1338.62
447.792	1317.62
448.013	1274.62
448.234	1340.62
448.455	1366.62
448.675	1355.62
448.896	1286.62
449.117	1240.62
449.338	1276.62
449.559	1302.62
449.779	1354.62
450	1493.62
450.221	1553.62
450.442	1493.62
450.662	1323.62
450.883	1220.62
451.104	1188.62
451.324	1225.62
451.545	1242.62
451.766	1195.62
451.986	1142.62
452.207	1173.62
452.428	1144.62
452.648	1113.62
452.869	1164.62
453.089	1212.62
453.31	1209.62
453.53	1201.62
453.751	1163.62
453.971	1094.62
454.192	1129.62
454.412	1195.62
454.633	1146.62
454.853	1165.62
455.073	1090.62
455.294	1108.62
455.514	1116.62
455.734	1114.62
455.955	1101.62
456.175	1139.62
456.395	1108.62
456.616	1129.62
456.836	1138.62
457.056	1113.62
457.276	1118.62
457.497	1103.62
457.717	1051.62
457.937	1077.62
458.157	1103.62
458.377	1098.62
458.598	1090.62
458.818	1079.62
459.038	1176.62
459.258	1188.62
459.478	1216.62
459.698	1157.62
459.918	1204.62
460.138	1260.62
460.358	1283.62
460.578	1284.62
460.798	1304.62
461.018	1372.62
461.238	1370.62
461.458	1308.62
461.678	1317.62
461.898	1234.62
462.118	1242.62
462.338	1294.62
462.558	1325.62
462.777	1326.62
462.997	1387.62
463.217	1388.62
463.437	1399.62
463.657	1317.62
463.876	1299.62
464.096	1278.62
464.316	1321.62
464.536	1348.62
464.755	1313.62
464.975	1337.62
465.195	1344.62
465.414	1379.62
465.634	1311.62
465.854	1344.62
466.073	1468.62
466.293	1410.62
466.512	1222.62
466.732	1224.62
466.951	1283.62
467.171	1259.62
467.391	1223.62
467.61	1214.62
467.829	1243.62
468.049	1393.62
468.268	1513.62
468.488	1386.62
468.707	1313.62
468.927	1278.62
469.146	1250.62
469.365	1256.62
469.585	1278.62
469.804	1272.62
470.023	1256.62
470.243	1302.62
470.462	1292.62
470.681	1233.62
470.901	1266.62
471.12	1260.62
471.339	1269.62
471.558	1243.62
471.777	1196.62
471.997	1196.62
472.216	1225.62
472.435	1169.62
472.654	1189.62
472.873	1203.62
473.092	1299.62
473.311	1213.62
473.53	1173.62
473.749	1179.62
473.968	1180.62
474.187	1259.62
474.406	1301.62
474.625	1265.62
474.844	1230.62
475.063	1246.62
475.282	1261.62
475.501	1259.62
475.72	1236.62
475.939	1324.62
476.158	1270.62
476.377	1244.62
476.596	1237.62
476.814	1245.62
477.033	1264.62
477.252	1325.62
477.471	1354.62
477.69	1332.62
477.908	1335.62
478.127	1399.62
478.346	1448.62
478.564	1472.62
478.783	1488.62
479.002	1489.62
479.22	1433.62
479.439	1525.62
479.658	1620.62
479.876	1589.62
480.095	1422.62
480.313	1396.62
480.532	1298.62
480.751	1357.62
480.969	1340.62
481.188	1302.62
481.406	1267.62
481.624	1261.62
481.843	1284.62
482.061	1323.62
482.28	1376.62
482.498	1397.62
482.717	1332.62
482.935	1338.62
483.153	1425.62
483.372	1434.62
483.59	1395.62
483.808	1400.62
484.027	1405.62
484.245	1492.62
484.463	1807.62
484.681	2015.62
484.9	1517.62
485.118	1412.62
485.336	1320.62
485.554	1414.62
485.772	1431.62
485.99	1400.62
486.209	1428.62
486.427	1363.62
486.645	1453.62
486.863	1482.62
487.081	1500.62
487.299	1477.62
487.517	1502.62
487.735	1493.62
487.953	1507.62
488.171	1515.62
488.389	1522.62
488.607	1479.62
488.825	1657.62
489.043	1634.62
489.261	1429.62
489.479	1528.62
489.696	1534.62
489.914	1523.62
490.132	1489.62
490.35	1488.62
490.568	1580.62
490.786	1504.62
491.003	1542.62
491.221	1561.62
491.439	1613.62
491.657	1630.62
491.874	1673.62
492.092	1705.62
492.31	1757.62
492.527	1700.62
492.745	1681.62
492.963	1643.62
493.18	1667.62
493.398	1746.62
493.615	1757.62
493.833	1634.62
494.05	1596.62
494.268	1604.62
494.485	1615.62
494.703	1581.62
494.92	1583.62
495.138	1576.62
495.355	1628.62
495.573	1651.62
495.79	1749.62
496.008	1740.62
496.225	1618.62
496.442	1638.62
496.66	1627.62
496.877	1640.62
497.094	1701.62
497.312	1685.62
497.529	1671.62
497.746	1720.62
497.963	1950.62
498.181	2044.62
498.398	1975.62
498.615	1904.62
498.832	1793.62
499.049	1814.62
499.267	1833.62
499.484	1931.62
499.701	2091.62
499.918	2097.62
500.135	2271.62
500.352	2389.62
500.569	2413.62
500.786	2597.62
501.003	2354.62
501.22	2169.62
501.437	2090.62
501.654	2172.62
501.871	2071.62
502.088	1865.62
502.305	1824.62
502.522	1738.62
502.739	1666.62
502.956	1606.62
503.172	1619.62
503.389	1544.62
503.606	1486.62
503.823	1458.62
504.04	1476.62
504.256	1501.62
504.473	1536.62
504.69	1574.62
504.907	1493.62
505.123	1454.62
505.34	1593.62
505.557	2135.62
505.773	1746.62
505.99	1414.62
506.207	1367.62
506.423	1328.62
506.64	1338.62
506.856	1354.62
507.073	1551.62
507.289	1656.62
507.506	1574.62
507.722	1333.62
507.939	1294.62
508.155	1286.62
508.372	1308.62
508.588	1228.62
508.805	1217.62
509.021	1170.62
509.238	1186.62
509.454	1216.62
509.67	1192.62
509.887	1155.62
510.103	1167.62
510.319	1177.62
510.536	1282.62
510.752	1276.62
510.968	1251.62
511.184	1332.62
511.401	1267.62
511.617	1183.62
511.833	1133.62
512.049	1149.62
512.265	1134.62
512.481	1142.62
512.698	1199.62
512.914	1267.62
513.13	1202.62
513.346	1149.62
513.562	1112.62
513.778	1160.62
513.994	1185.62
514.21	1205.62
514.426	1259.62
514.642	1351.62
514.858	1261.62
515.074	1168.62
515.29	1156.62
515.506	1224.62
515.721	1199.62
515.937	1247.62
516.153	1355.62
516.369	1286.62
516.585	1197.62
516.801	1188.62
517.016	1192.62
517.232	1214.62
517.448	1255.62
517.664	1256.62
517.879	1261.62
518.095	1282.62
518.311	1244.62
518.527	1178.62
518.742	1157.62
518.958	1148.62
519.173	1158.62
519.389	1216.62
519.605	1206.62
519.82	1211.62
520.036	1208.62
520.251	1171.62
520.467	1226.62
520.682	1322.62
520.898	1322.62
521.113	1170.62
521.329	1117.62
521.544	1246.62
521.76	1208.62
521.975	1115.62
522.19	1107.62
522.406	1139.62
522.621	1435.62
522.836	1402.62
523.052	1120.62
523.267	1128.62
523.482	1145.62
523.698	1105.62
523.913	1083.62
524.128	1109.62
524.343	1196.62
524.559	1228.62
524.774	1136.62
524.989	1112.62
525.204	1128.62
525.419	1074.62
525.634	1076.62
525.849	1095.62
526.064	1118.62
526.28	1123.62
526.495	1036.62
526.71	1030.62
526.925	1030.62
527.14	1024.62
527.355	1017.62
527.57	1014.62
527.785	1053.62
527.999	1020.62
528.214	1005.62
528.429	1013.62
528.644	1041.62
528.859	1081.62
529.074	1120.62
529.289	1100.62
529.503	1166.62
529.718	1102.62
529.933	1059.62
530.148	968.62
530.363	997.62
530.577	1022.62
530.792	988.62
531.007	993.62
531.221	999.62
531.436	1005.62
531.651	1059.62
531.865	1079.62
532.08	1044.62
532.295	953.62
532.509	969.62
532.724	984.62
532.938	1082.62
533.153	1090.62
533.367	1057.62
533.582	1065.62
533.796	1046.62
534.011	1072.62
534.225	1008.62
534.44	981.62
534.654	981.62
534.868	1015.62
535.083	1041.62
535.297	1072.62
535.511	1050.62
535.726	1045.62
535.94	1029.62
536.154	1005.62
536.369	996.62
536.583	934.62
536.797	954.62
537.011	977.62
537.225	955.62
537.44	950.62
537.654	1019.62
537.868	974.62
538.082	934.62
538.296	912.62
538.51	947.62
538.724	977.62
538.938	950.62
539.153	1033.62
539.367	1030.62
539.581	970.62
539.795	1028.62
540.009	994.62
540.222	968.62
540.436	979.62
540.65	1097.62
540.864	1102.62
541.078	1088.62
541.292	1061.62
541.506	1090.62
541.72	1148.62
541.934	1176.62
542.147	1225.62
542.361	1156.62
542.575	1104.62
542.789	1049.62
543.002	981.62
543.216	985.62
543.43	1043.62
543.644	1102.62
543.857	1170.62
544.071	1149.62
544.285	1152.62
544.498	1119.62
544.712	1113.62
544.925	1119.62
545.139	1144.62
545.352	1081.62
545.566	1072.62
545.779	1096.62
545.993	1079.62
546.206	1134.62
546.42	1091.62
546.633	1083.62
546.847	1069.62
547.06	1086.62
547.274	1093.62
547.487	1084.62
547.7	1116.62
547.914	1123.62
548.127	1083.62
548.34	1108.62
548.554	1081.62
548.767	1088.62
548.98	1126.62
549.193	1080.62
549.407	1129.62
549.62	1143.62
549.833	1093.62
550.046	1066.62
550.259	1082.62
550.473	1079.62
550.686	1041.62
550.899	1027.62
551.112	1028.62
551.325	995.62
551.538	1097.62
551.751	1221.62
551.964	960.62
552.177	948.62
552.39	992.62
552.603	1045.62
552.816	1034.62
553.029	1104.62
553.242	1112.62
553.455	1077.62
553.667	1068.62
553.88	1078.62
554.093	1045.62
554.306	1000.62
554.519	1010.62
554.732	996.62
554.944	1013.62
555.157	1011.62
555.37	958.62
555.583	976.62
555.795	966.62
556.008	896.62
556.221	906.62
556.433	876.62
556.646	894.62
556.859	891.62
557.071	899.62
557.284	883.62
557.496	912.62
557.709	869.62
557.921	887.62
558.134	886.62
558.346	878.62
558.559	884.62
558.771	886.62
558.984	832.62
559.196	835.62
559.409	812.62
559.621	828.62
559.833	848.62
560.046	843.62
560.258	810.62
560.47	844.62
560.683	850.62
560.895	859.62
561.107	853.62
561.32	838.62
561.532	860.62
561.744	837.62
561.956	838.62
562.168	859.62
562.381	813.62
562.593	782.62
562.805	798.62
563.017	829.62
563.229	808.62
563.441	818.62
563.653	818.62
563.865	806.62
564.077	800.62
564.289	810.62
564.501	800.62
564.713	855.62
564.925	848.62
565.137	935.62
565.349	824.62
565.561	820.62
565.773	836.62
565.985	843.62
566.197	886.62
566.408	924.62
566.62	890.62
566.832	926.62
567.044	914.62
567.255	909.62
567.467	925.62
567.679	939.62
567.891	955.62
568.102	905.62
568.314	853.62
568.526	826.62
568.737	796.62
568.949	735.62
569.161	720.62
569.372	714.62
569.584	693.62
569.795	711.62
570.007	699.62
570.218	637.62
570.43	649.62
570.641	662.62
570.853	666.62
571.064	684.62
571.276	668.62
571.487	682.62
571.698	682.62
571.91	666.62
572.121	650.62
572.333	634.62
572.544	620.62
572.755	598.62
572.966	588.62
573.178	586.62
573.389	600.62
573.6	622.62
573.811	685.62
574.023	612.62
574.234	578.62
574.445	570.62
574.656	562.62
574.867	556.62
575.078	572.62
575.289	592.62
575.501	569.62
575.712	556.62
575.923	552.62
576.134	570.62
576.345	571.62
576.556	565.62
576.767	548.62
576.978	560.62
577.188	564.62
577.399	529.62
577.61	519.62
577.821	522.62
578.032	530.62
578.243	530.62
578.454	523.62
578.665	496.62
578.875	483.62
579.086	492.62
579.297	507.62
579.508	527.62
579.718	504.62
579.929	522.62
580.14	512.62
580.35	520.62
580.561	521.62
580.772	581.62
580.982	520.62
581.193	521.62
581.403	506.62
581.614	468.62
581.825	493.62
582.035	496.62
582.246	504.62
582.456	532.62
582.667	503.62
582.877	479.62
583.087	476.62
583.298	476.62
583.508	487.62
583.719	499.62
583.929	490.62
584.139	484.62
584.35	474.62
584.56	484.62
584.77	489.62
584.981	477.62
585.191	500.62
585.401	495.62
585.611	478.62
585.821	477.62
586.032	455.62
586.242	444.62
586.452	474.62
586.662	454.62
586.872	471.62
587.082	452.62
587.292	466.62
587.502	462.62
587.713	473.62
587.923	454.62
588.133	498.62
588.343	470.62
588.553	468.62
588.762	457.62
588.972	446.62
589.182	468.62
589.392	471.62
589.602	473.62
589.812	464.62
590.022	459.62
590.232	437.62
590.441	454.62
590.651	469.62
590.861	432.62
591.071	420.62
591.281	453.62
591.49	451.62
591.7	445.62
591.91	458.62
592.119	457.62
592.329	454.62
592.539	473.62
592.748	450.62
592.958	480.62
593.167	472.62
593.377	480.62
593.587	486.62
593.796	485.62
594.006	467.62
594.215	469.62
594.424	482.62
594.634	462.62
594.843	497.62
595.053	477.62
595.262	484.62
595.472	469.62
595.681	481.62
595.89	426.62
596.1	437.62
596.309	440.62
596.518	452.62
596.727	453.62
596.937	446.62
597.146	423.62
597.355	427.62
597.564	417.62
597.774	419.62
597.983	433.62
598.192	391.62
598.401	421.62
598.61	393.62
598.819	389.62
599.028	408.62
599.237	410.62
599.446	399.62
599.655	394.62
599.864	390.62
600.073	394.62
600.282	384.62
600.491	375.62
600.7	390.62
600.909	401.62
601.118	402.62
601.327	396.62
601.536	442.62
601.745	421.62
601.953	432.62
602.162	420.62
602.371	436.62
602.58	441.62
602.789	433.62
602.997	439.62
603.206	426.62
603.415	417.62
603.623	412.62
603.832	416.62
604.041	401.62
604.249	398.62
604.458	414.62
604.666	369.62
604.875	366.62
605.084	380.62
605.292	418.62
605.501	430.62
605.709	430.62
605.918	409.62
606.126	399.62
606.334	406.62
606.543	400.62
606.751	441.62
606.96	417.62
607.168	414.62
607.376	396.62
607.585	407.62
607.793	401.62
608.001	400.62
608.21	404.62
608.418	422.62
608.626	409.62
608.834	389.62
609.043	401.62
609.251	389.62
609.459	393.62
609.667	412.62
609.875	400.62
610.083	412.62
610.291	402.62
610.499	414.62
610.707	406.62
610.916	423.62
611.124	398.62
611.332	410.62
611.54	393.62
611.748	403.62
611.955	396.62
612.163	397.62
612.371	402.62
612.579	394.62
612.787	394.62
612.995	389.62
613.203	425.62
613.411	381.62
613.618	398.62
613.826	390.62
614.034	376.62
614.242	392.62
614.449	392.62
614.657	389.62
614.865	397.62
615.072	396.62
615.28	396.62
615.488	407.62
615.695	426.62
615.903	407.62
616.111	412.62
616.318	381.62
616.526	391.62
616.733	377.62
616.941	395.62
617.148	379.62
617.356	382.62
617.563	379.62
617.771	394.62
617.978	380.62
618.185	391.62
618.393	369.62
618.6	397.62
618.807	404.62
619.015	394.62
619.222	377.62
619.429	380.62
619.637	378.62
619.844	347.62
620.051	359.62
620.258	360.62
620.466	351.62
620.673	370.62
620.88	350.62
621.087	344.62
621.294	334.62
621.501	337.62
621.708	348.62
621.915	352.62
622.122	358.62
622.329	363.62
622.536	375.62
622.743	367.62
622.95	346.62
623.157	330.62
623.364	358.62
623.571	364.62
623.778	362.62
623.985	356.62
624.192	367.62
624.399	348.62
624.606	346.62
624.812	345.62
625.019	325.62
625.226	336.62
625.433	316.62
625.639	330.62
625.846	332.62
626.053	314.62
626.259	300.62
626.466	290.62
626.673	293.62
626.879	322.62
627.086	305.62
627.293	314.62
627.499	328.62
627.706	327.62
627.912	328.62
628.119	329.62
628.325	320.62
628.532	324.62
628.738	331.62
628.945	322.62
629.151	309.62
629.357	320.62
629.564	325.62
629.77	317.62
629.976	314.62
630.183	316.62
630.389	314.62
630.595	318.62
630.802	315.62
631.008	312.62
631.214	324.62
631.42	292.62
631.627	280.62
631.833	275.62
632.039	295.62
632.245	300.62
632.451	298.62
632.657	304.62
632.863	293.62
633.069	281.62
633.275	301.62
633.481	289.62
633.688	280.62
633.893	289.62
634.099	284.62
634.305	301.62
634.511	286.62
634.717	282.62
634.923	272.62
635.129	278.62
635.335	265.62
635.541	282.62
635.747	285.62
635.952	293.62
636.158	297.62
636.364	293.62
636.57	268.62
636.775	286.62
636.981	289.62
637.187	278.62
637.392	268.62
637.598	284.62
637.804	281.62
638.009	284.62
638.215	280.62
638.421	304.62
638.626	287.62
638.832	287.62
639.037	281.62
639.243	260.62
639.448	265.62
639.654	280.62
639.859	286.62
640.065	278.62
640.27	280.62
640.475	279.62
640.681	282.62
640.886	290.62
641.091	272.62
641.297	264.62
641.502	262.62
641.707	257.62
641.913	287.62
642.118	280.62
642.323	271.62
642.528	278.62
642.733	266.62
642.939	261.62
643.144	270.62
643.349	280.62
643.554	263.62
643.759	270.62
643.964	256.62
644.169	261.62
644.374	245.62
644.579	282.62
644.784	267.62
644.989	283.62
645.194	273.62
645.399	249.62
645.604	266.62
645.809	277.62
646.014	264.62
646.219	259.62
646.423	247.62
646.628	262.62
646.833	267.62
647.038	257.62
647.243	269.62
647.447	254.62
647.652	270.62
647.857	275.62
648.062	262.62
648.266	258.62
648.471	245.62
648.676	263.62
648.88	277.62
649.085	256.62
649.289	264.62
649.494	256.62
649.698	260.62
649.903	258.62
650.107	262.62
650.312	280.62
650.516	259.62
650.721	245.62
650.925	251.62
651.13	259.62
651.334	242.62
651.539	237.62
651.743	234.62
651.947	229.62
652.152	248.62
652.356	245.62
652.56	248.62
652.764	229.62
652.969	231.62
653.173	225.62
653.377	218.62
653.581	234.62
653.785	224.62
653.99	212.62
654.194	225.62
654.398	232.62
654.602	220.62
654.806	228.62
655.01	224.62
655.214	214.62
655.418	206.62
655.622	225.62
655.826	235.62
656.03	241.62
656.234	256.62
656.438	258.62
656.642	260.62
656.846	240.62
657.049	230.62
657.253	200.62
657.457	206.62
657.661	176.62
657.865	196.62
658.068	178.62
658.272	178.62
658.476	177.62
658.68	177.62
658.883	171.62
659.087	142.62
659.291	153.62
659.494	156.62
659.698	145.62
659.901	141.62
660.105	141.62
660.309	128.62
660.512	137.62
660.716	125.62
660.919	114.62
661.123	115.62
661.326	132.62
661.53	117.62
661.733	123.62
661.936	104.62
662.14	100.62
662.343	96.62
662.546	111.62
662.75	88.62
662.953	93.62
663.156	109.62
663.36	106.62
663.563	96.62
663.766	95.62
663.969	86.62
664.173	89.62
664.376	87.62
664.579	76.62
664.782	97.62
664.985	83.62
665.188	93.62
665.391	88.62
665.594	96.62
665.797	86.62
666	78.62
666.203	94.62
666.406	83.62
666.609	81.62
666.812	96.62
667.015	76.62
667.218	85.62
667.421	84.62
667.624	83.62
667.827	76.62
668.03	90.62
668.232	76.62
668.435	76.62
668.638	75.62
668.841	88.62
669.043	93.62
669.246	77.62
669.449	77.62
669.651	87.62
669.854	87.62
670.057	90.62
670.259	88.62
670.462	90.62
670.665	97.62
670.867	69.62
671.07	87.62
671.272	90.62
671.475	71.62
671.677	97.62
671.88	94.62
672.082	91.62
672.284	91.62
672.487	88.62
672.689	77.62
672.892	93.62
