Data from WStandard_LampEnergy5.5LIBS07252019.E.O._I.C._HRD10591_16-09-17-921.txt Node
Date: Thu Jul 25 16:09:17 EDT 2019
User: cochatt
Spectrometer: HR+D1059
Trigger mode: 1
Integration Time (sec): 1.000000E-1
Scans to average: 1
Electric dark correction enabled: true
Nonlinearity correction enabled: false
Boxcar width: 0
XAxis mode: Wavelengths
Number of Pixels in Spectrum: 2048
>>>>>Begin Spectral Data<<<<<
223.165	-16.44
223.4	-16.44
223.635	-16.44
223.869	-19.44
224.104	-17.44
224.338	-14.44
224.573	-10.44
224.808	-20.44
225.042	1.56
225.277	1.56
225.511	-5.44
225.746	5.56
225.98	-4.44
226.215	15.56
226.449	13.56
226.683	20.56
226.918	9.56
227.152	40.56
227.387	28.56
227.621	43.56
227.856	41.56
228.09	50.56
228.324	61.56
228.559	47.56
228.793	128.56
229.027	341.56
229.262	356.56
229.496	360.56
229.73	369.56
229.964	418.56
230.199	420.56
230.433	415.56
230.667	447.56
230.901	488.56
231.136	443.56
231.37	437.56
231.604	444.56
231.838	440.56
232.072	444.56
232.306	442.56
232.541	442.56
232.775	510.56
233.009	576.56
233.243	549.56
233.477	492.56
233.711	516.56
233.945	523.56
234.179	546.56
234.413	561.56
234.647	585.56
234.881	573.56
235.115	533.56
235.349	498.56
235.583	519.56
235.817	541.56
236.051	516.56
236.285	506.56
236.519	555.56
236.753	633.56
236.987	653.56
237.221	633.56
237.455	717.56
237.689	697.56
237.922	633.56
238.156	601.56
238.39	605.56
238.624	661.56
238.858	684.56
239.091	730.56
239.325	756.56
239.559	880.56
239.793	911.56
240.027	990.56
240.26	1004.56
240.494	712.56
240.728	693.56
240.961	699.56
241.195	695.56
241.429	801.56
241.662	771.56
241.896	703.56
242.13	743.56
242.363	792.56
242.597	863.56
242.83	819.56
243.064	809.56
243.298	926.56
243.531	885.56
243.765	890.56
243.998	890.56
244.232	776.56
244.465	735.56
244.699	730.56
244.932	838.56
245.166	973.56
245.399	913.56
245.633	863.56
245.866	823.56
246.099	858.56
246.333	890.56
246.566	907.56
246.8	993.56
247.033	1100.56
247.266	1007.56
247.5	1009.56
247.733	986.56
247.966	1036.56
248.2	1155.56
248.433	1142.56
248.666	1124.56
248.899	1271.56
249.133	1440.56
249.366	1627.56
249.599	1329.56
249.832	1183.56
250.066	1203.56
250.299	1223.56
250.532	1129.56
250.765	1016.56
250.998	1069.56
251.231	1139.56
251.465	1155.56
251.698	1116.56
251.931	1109.56
252.164	1122.56
252.397	1189.56
252.63	1159.56
252.863	1039.56
253.096	998.56
253.329	1092.56
253.562	1099.56
253.795	1179.56
254.028	1193.56
254.261	1116.56
254.494	1076.56
254.727	1027.56
254.96	1059.56
255.193	1169.56
255.426	1307.56
255.659	1554.56
255.892	1606.56
256.124	1281.56
256.357	1245.56
256.59	1351.56
256.823	1337.56
257.056	1322.56
257.289	1587.56
257.521	1775.56
257.754	1588.56
257.987	1491.56
258.22	1682.56
258.452	1620.56
258.685	1270.56
258.918	1311.56
259.151	1287.56
259.383	1235.56
259.616	1079.56
259.849	1167.56
260.081	1291.56
260.314	1453.56
260.547	1595.56
260.779	1612.56
261.012	1512.56
261.244	1352.56
261.477	1284.56
261.71	1335.56
261.942	1318.56
262.175	1256.56
262.407	1360.56
262.64	1311.56
262.872	1207.56
263.105	1143.56
263.337	1194.56
263.57	1194.56
263.802	1220.56
264.035	1187.56
264.267	1089.56
264.499	1049.56
264.732	1126.56
264.964	1219.56
265.197	1274.56
265.429	1329.56
265.661	1460.56
265.894	1633.56
266.126	1693.56
266.358	1490.56
266.591	1547.56
266.823	1683.56
267.055	1544.56
267.287	1499.56
267.52	1492.56
267.752	1464.56
267.984	1471.56
268.216	1555.56
268.448	1587.56
268.681	1551.56
268.913	1439.56
269.145	1303.56
269.377	1311.56
269.609	1407.56
269.841	1653.56
270.073	1894.56
270.306	2060.56
270.538	2268.56
270.77	1933.56
271.002	1591.56
271.234	1553.56
271.466	1533.56
271.698	1716.56
271.93	2041.56
272.162	2039.56
272.394	1841.56
272.626	1781.56
272.858	1602.56
273.09	1353.56
273.322	1356.56
273.553	1287.56
273.785	1306.56
274.017	1388.56
274.249	1442.56
274.481	1481.56
274.713	1368.56
274.945	1342.56
275.176	1347.56
275.408	1318.56
275.64	1274.56
275.872	1266.56
276.104	1368.56
276.335	1547.56
276.567	1763.56
276.799	1797.56
277.031	1610.56
277.262	1517.56
277.494	1553.56
277.726	1740.56
277.957	1694.56
278.189	1574.56
278.421	1427.56
278.652	1373.56
278.884	1402.56
279.115	1389.56
279.347	1425.56
279.579	1384.56
279.81	1379.56
280.042	1492.56
280.273	1675.56
280.505	1652.56
280.736	1692.56
280.968	1645.56
281.199	1458.56
281.431	1332.56
281.662	1347.56
281.894	1339.56
282.125	1373.56
282.356	1440.56
282.588	1455.56
282.819	1435.56
283.051	1588.56
283.282	1689.56
283.513	1627.56
283.745	1393.56
283.976	1355.56
284.207	1353.56
284.439	1439.56
284.67	1399.56
284.901	1461.56
285.132	1475.56
285.364	1424.56
285.595	1452.56
285.826	1427.56
286.057	1435.56
286.288	1412.56
286.52	1487.56
286.751	1580.56
286.982	1668.56
287.213	1546.56
287.444	1375.56
287.675	1380.56
287.906	1451.56
288.138	1549.56
288.369	1528.56
288.6	1456.56
288.831	1381.56
289.062	1407.56
289.293	1415.56
289.524	1415.56
289.755	1480.56
289.986	1506.56
290.217	1338.56
290.448	1421.56
290.679	1462.56
290.91	1462.56
291.141	1501.56
291.371	1519.56
291.602	1549.56
291.833	1538.56
292.064	1585.56
292.295	1521.56
292.526	1534.56
292.757	1650.56
292.987	1559.56
293.218	1474.56
293.449	1595.56
293.68	1778.56
293.91	1917.56
294.141	1761.56
294.372	1665.56
294.603	1713.56
294.833	1830.56
295.064	1711.56
295.295	1539.56
295.525	1548.56
295.756	1406.56
295.987	1355.56
296.217	1363.56
296.448	1407.56
296.679	1427.56
296.909	1433.56
297.14	1403.56
297.37	1429.56
297.601	1478.56
297.831	1620.56
298.062	1641.56
298.292	1500.56
298.523	1451.56
298.753	1453.56
298.984	1491.56
299.214	1452.56
299.445	1483.56
299.675	1513.56
299.905	1532.56
300.136	1472.56
300.366	1473.56
300.597	1385.56
300.827	1392.56
301.057	1457.56
301.288	1511.56
301.518	1516.56
301.748	1589.56
301.979	1641.56
302.209	1676.56
302.439	1768.56
302.669	1839.56
302.9	1728.56
303.13	1567.56
303.36	1527.56
303.59	1575.56
303.82	1562.56
304.051	1541.56
304.281	1570.56
304.511	1560.56
304.741	1609.56
304.971	1833.56
305.201	1928.56
305.431	1802.56
305.661	1523.56
305.891	1383.56
306.121	1361.56
306.352	1419.56
306.582	1475.56
306.812	1559.56
307.042	1706.56
307.272	1678.56
307.502	1767.56
307.731	1874.56
307.961	1968.56
308.191	1841.56
308.421	1605.56
308.651	1511.56
308.881	1482.56
309.111	1495.56
309.341	1471.56
309.571	1482.56
309.8	1505.56
310.03	1507.56
310.26	1483.56
310.49	1477.56
310.72	1501.56
310.949	1551.56
311.179	1614.56
311.409	1567.56
311.639	1528.56
311.868	1495.56
312.098	1510.56
312.328	1503.56
312.557	1500.56
312.787	1519.56
313.017	1547.56
313.246	1558.56
313.476	1543.56
313.706	1599.56
313.935	1555.56
314.165	1577.56
314.394	1616.56
314.624	1685.56
314.853	1798.56
315.083	1901.56
315.312	1933.56
315.542	1783.56
315.771	1612.56
316.001	1647.56
316.23	1706.56
316.46	1657.56
316.689	1669.56
316.919	1612.56
317.148	1515.56
317.377	1550.56
317.607	1636.56
317.836	1779.56
318.065	1916.56
318.295	1835.56
318.524	1760.56
318.753	1659.56
318.983	1683.56
319.212	1661.56
319.441	1627.56
319.67	1587.56
319.9	1632.56
320.129	1718.56
320.358	1768.56
320.587	1821.56
320.816	1821.56
321.046	1780.56
321.275	1653.56
321.504	1719.56
321.733	1828.56
321.962	1802.56
322.191	1651.56
322.42	1625.56
322.649	1647.56
322.878	1592.56
323.108	1634.56
323.337	1690.56
323.566	1690.56
323.795	1685.56
324.024	1667.56
324.253	1651.56
324.482	1687.56
324.71	1639.56
324.939	1514.56
325.168	1580.56
325.397	1621.56
325.626	1688.56
325.855	1731.56
326.084	1608.56
326.313	1601.56
326.542	1667.56
326.77	1705.56
326.999	1716.56
327.228	1636.56
327.457	1578.56
327.686	1573.56
327.914	1602.56
328.143	1634.56
328.372	1634.56
328.6	1625.56
328.829	1597.56
329.058	1593.56
329.287	1632.56
329.515	1639.56
329.744	1664.56
329.972	1779.56
330.201	1778.56
330.43	1780.56
330.658	1733.56
330.887	1733.56
331.115	1715.56
331.344	1787.56
331.572	1706.56
331.801	1712.56
332.03	1704.56
332.258	1711.56
332.486	1718.56
332.715	1791.56
332.943	1798.56
333.172	1742.56
333.4	1735.56
333.629	1777.56
333.857	1864.56
334.085	2042.56
334.314	2312.56
334.542	2545.56
334.771	2346.56
334.999	2050.56
335.227	1957.56
335.455	1851.56
335.684	1847.56
335.912	1856.56
336.14	1913.56
336.369	1894.56
336.597	1821.56
336.825	1698.56
337.053	1801.56
337.281	1915.56
337.51	1989.56
337.738	2041.56
337.966	1985.56
338.194	1802.56
338.422	1750.56
338.65	1723.56
338.878	1695.56
339.106	1653.56
339.334	1633.56
339.562	1591.56
339.79	1659.56
340.018	1773.56
340.246	1815.56
340.474	1824.56
340.702	1759.56
340.93	1790.56
341.158	1749.56
341.386	1744.56
341.614	1684.56
341.842	1720.56
342.07	1700.56
342.298	1733.56
342.526	1731.56
342.754	1666.56
342.981	1672.56
343.209	1669.56
343.437	1674.56
343.665	1658.56
343.893	1691.56
344.12	1826.56
344.348	1868.56
344.576	1786.56
344.804	1712.56
345.031	1713.56
345.259	1728.56
345.487	1689.56
345.714	1613.56
345.942	1575.56
346.17	1570.56
346.397	1616.56
346.625	1637.56
346.853	1565.56
347.08	1558.56
347.308	1530.56
347.535	1576.56
347.763	1655.56
347.99	1602.56
348.218	1570.56
348.445	1553.56
348.673	1596.56
348.9	1617.56
349.128	1661.56
349.355	1719.56
349.583	1683.56
349.81	1635.56
350.037	1528.56
350.265	1506.56
350.492	1526.56
350.72	1555.56
350.947	1594.56
351.174	1640.56
351.402	1546.56
351.629	1474.56
351.856	1443.56
352.083	1476.56
352.311	1491.56
352.538	1529.56
352.765	1583.56
352.992	1653.56
353.22	1593.56
353.447	1517.56
353.674	1544.56
353.901	1567.56
354.128	1537.56
354.355	1519.56
354.583	1590.56
354.81	1664.56
355.037	1635.56
355.264	1635.56
355.491	1603.56
355.718	1612.56
355.945	1621.56
356.172	1563.56
356.399	1527.56
356.626	1520.56
356.853	1573.56
357.08	1687.56
357.307	1817.56
357.534	1863.56
357.761	1620.56
357.988	1503.56
358.215	1506.56
358.441	1481.56
358.668	1485.56
358.895	1466.56
359.122	1560.56
359.349	1700.56
359.576	1743.56
359.802	1596.56
360.029	1531.56
360.256	1513.56
360.483	1532.56
360.709	1555.56
360.936	1594.56
361.163	1670.56
361.39	1824.56
361.616	1989.56
361.843	1898.56
362.07	1865.56
362.296	1580.56
362.523	1527.56
362.749	1514.56
362.976	1577.56
363.203	1632.56
363.429	1594.56
363.656	1513.56
363.882	1580.56
364.109	1667.56
364.335	1858.56
364.562	1742.56
364.788	1659.56
365.015	1592.56
365.241	1517.56
365.468	1582.56
365.694	1621.56
365.92	1699.56
366.147	1654.56
366.373	1547.56
366.599	1513.56
366.826	1513.56
367.052	1533.56
367.278	1555.56
367.505	1576.56
367.731	1566.56
367.957	1641.56
368.184	1646.56
368.41	1734.56
368.636	1735.56
368.862	1709.56
369.089	1806.56
369.315	1663.56
369.541	1642.56
369.767	1599.56
369.993	1549.56
370.219	1580.56
370.445	1573.56
370.672	1719.56
370.898	1728.56
371.124	1755.56
371.35	1688.56
371.576	1695.56
371.802	1747.56
372.028	1694.56
372.254	1625.56
372.48	1610.56
372.706	1570.56
372.932	1579.56
373.158	1611.56
373.384	1607.56
373.61	1643.56
373.835	1732.56
374.061	1686.56
374.287	1620.56
374.513	1599.56
374.739	1656.56
374.965	1659.56
375.191	1721.56
375.416	1677.56
375.642	1703.56
375.868	1775.56
376.094	1816.56
376.319	1753.56
376.545	1627.56
376.771	1635.56
376.997	1751.56
377.222	1731.56
377.448	1704.56
377.674	1674.56
377.899	1713.56
378.125	1806.56
378.35	1833.56
378.576	1663.56
378.802	1575.56
379.027	1591.56
379.253	1613.56
379.478	1642.56
379.704	1640.56
379.929	1650.56
380.155	1663.56
380.38	1695.56
380.606	1660.56
380.831	1673.56
381.057	1732.56
381.282	1704.56
381.507	1691.56
381.733	1791.56
381.958	1934.56
382.184	1751.56
382.409	1683.56
382.634	1715.56
382.86	1727.56
383.085	1725.56
383.31	1737.56
383.535	1831.56
383.761	1944.56
383.986	1900.56
384.211	1856.56
384.436	1833.56
384.662	1919.56
384.887	1994.56
385.112	1857.56
385.337	1885.56
385.562	1878.56
385.787	1912.56
386.013	1937.56
386.238	1929.56
386.463	1935.56
386.688	1999.56
386.913	2141.56
387.138	2125.56
387.363	1969.56
387.588	1951.56
387.813	1933.56
388.038	1944.56
388.263	1999.56
388.488	1924.56
388.713	1819.56
388.938	1792.56
389.163	1778.56
389.387	1876.56
389.612	1829.56
389.837	1920.56
390.062	1875.56
390.287	1895.56
390.512	1882.56
390.736	1882.56
390.961	1842.56
391.186	1823.56
391.411	1812.56
391.636	1815.56
391.86	1874.56
392.085	1871.56
392.31	1854.56
392.534	1857.56
392.759	1913.56
392.984	1875.56
393.208	1941.56
393.433	1930.56
393.658	1986.56
393.882	1991.56
394.107	1940.56
394.331	1891.56
394.556	1873.56
394.78	1893.56
395.005	1929.56
395.229	1974.56
395.454	2151.56
395.678	2227.56
395.903	2112.56
396.127	2022.56
396.352	1959.56
396.576	2031.56
396.801	2049.56
397.025	2023.56
397.249	2036.56
397.474	2049.56
397.698	2005.56
397.922	2054.56
398.147	2150.56
398.371	2198.56
398.595	2239.56
398.82	2131.56
399.044	2157.56
399.268	2253.56
399.492	2477.56
399.717	2552.56
399.941	2495.56
400.165	2473.56
400.389	2399.56
400.613	2367.56
400.837	2590.56
401.062	3023.56
401.286	2596.56
401.51	2341.56
401.734	2418.56
401.958	2331.56
402.182	2258.56
402.406	2131.56
402.63	2107.56
402.854	2103.56
403.078	2136.56
403.302	2207.56
403.526	2249.56
403.75	2262.56
403.974	2191.56
404.198	2214.56
404.422	2321.56
404.645	2355.56
404.869	2352.56
405.093	2179.56
405.317	2165.56
405.541	2242.56
405.765	2258.56
405.988	2245.56
406.212	2285.56
406.436	2384.56
406.66	2396.56
406.883	2369.56
407.107	2630.56
407.331	2893.56
407.555	3106.56
407.778	2906.56
408.002	2418.56
408.226	2389.56
408.449	2343.56
408.673	2285.56
408.896	2296.56
409.12	2307.56
409.344	2326.56
409.567	2213.56
409.791	2252.56
410.014	2263.56
410.238	2386.56
410.461	2512.56
410.685	2280.56
410.908	2189.56
411.132	2214.56
411.355	2220.56
411.578	2183.56
411.802	2215.56
412.025	2258.56
412.249	2211.56
412.472	2135.56
412.695	2076.56
412.919	2144.56
413.142	2107.56
413.365	2171.56
413.589	2205.56
413.812	2228.56
414.035	2383.56
414.258	2150.56
414.482	2136.56
414.705	2175.56
414.928	2149.56
415.151	2142.56
415.374	2164.56
415.597	2125.56
415.821	2166.56
416.044	2252.56
416.267	2235.56
416.49	2085.56
416.713	2037.56
416.936	2118.56
417.159	2161.56
417.382	2256.56
417.605	2053.56
417.828	2174.56
418.051	2166.56
418.274	2089.56
418.497	2061.56
418.72	2050.56
418.943	2054.56
419.166	2225.56
419.389	2243.56
419.611	2140.56
419.834	2099.56
420.057	2125.56
420.28	2124.56
420.503	2088.56
420.726	2110.56
420.948	2043.56
421.171	1992.56
421.394	2066.56
421.617	2083.56
421.839	2095.56
422.062	2056.56
422.285	2004.56
422.507	2099.56
422.73	1927.56
422.953	1947.56
423.175	1985.56
423.398	2054.56
423.621	2059.56
423.843	2056.56
424.066	2072.56
424.288	2157.56
424.511	2172.56
424.733	2127.56
424.956	1937.56
425.178	1945.56
425.401	1951.56
425.623	1975.56
425.846	1963.56
426.068	2095.56
426.291	2109.56
426.513	2105.56
426.735	2059.56
426.958	2182.56
427.18	2344.56
427.402	2124.56
427.625	2184.56
427.847	2218.56
428.069	2051.56
428.292	2024.56
428.514	1996.56
428.736	1978.56
428.958	2025.56
429.181	2011.56
429.403	2191.56
429.625	2786.56
429.847	2438.56
430.069	2053.56
430.292	2247.56
430.514	2282.56
430.736	2154.56
430.958	2240.56
431.18	2120.56
431.402	1977.56
431.624	1973.56
431.846	1997.56
432.068	1977.56
432.29	1990.56
432.512	2016.56
432.734	2059.56
432.956	2103.56
433.178	2111.56
433.4	2134.56
433.622	2132.56
433.844	2045.56
434.066	1977.56
434.287	1980.56
434.509	2060.56
434.731	2146.56
434.953	2264.56
435.175	2202.56
435.397	2108.56
435.618	2100.56
435.84	2124.56
436.062	2076.56
436.284	2088.56
436.505	2097.56
436.727	2137.56
436.949	2057.56
437.17	2019.56
437.392	1972.56
437.614	2000.56
437.835	1947.56
438.057	2061.56
438.278	2198.56
438.5	2029.56
438.721	1976.56
438.943	1992.56
439.165	1988.56
439.386	1939.56
439.608	1978.56
439.829	1978.56
440.05	2009.56
440.272	1975.56
440.493	1922.56
440.715	1999.56
440.936	2128.56
441.158	2328.56
441.379	2248.56
441.6	2187.56
441.822	2137.56
442.043	2162.56
442.264	2089.56
442.486	1969.56
442.707	1997.56
442.928	1971.56
443.149	2016.56
443.371	2171.56
443.592	2252.56
443.813	2184.56
444.034	2135.56
444.255	2151.56
444.476	2247.56
444.698	2289.56
444.919	2247.56
445.14	2316.56
445.361	2323.56
445.582	2406.56
445.803	2239.56
446.024	2186.56
446.245	2283.56
446.466	2122.56
446.687	2053.56
446.908	2090.56
447.129	1986.56
447.35	2037.56
447.571	2021.56
447.792	1944.56
448.013	1935.56
448.234	1975.56
448.455	2063.56
448.675	2093.56
448.896	1891.56
449.117	1883.56
449.338	1963.56
449.559	2004.56
449.779	2146.56
450	2368.56
450.221	2506.56
450.442	2379.56
450.662	2140.56
450.883	1919.56
451.104	1868.56
451.324	1928.56
451.545	1969.56
451.766	1899.56
451.986	1849.56
452.207	1782.56
452.428	1790.56
452.648	1755.56
452.869	1826.56
453.089	1929.56
453.31	1925.56
453.53	1991.56
453.751	1894.56
453.971	1789.56
454.192	1831.56
454.412	1932.56
454.633	1885.56
454.853	1841.56
455.073	1741.56
455.294	1701.56
455.514	1729.56
455.734	1740.56
455.955	1810.56
456.175	1763.56
456.395	1796.56
456.616	1827.56
456.836	1877.56
457.056	1861.56
457.276	1808.56
457.497	1760.56
457.717	1712.56
457.937	1741.56
458.157	1818.56
458.377	1742.56
458.598	1757.56
458.818	1812.56
459.038	1898.56
459.258	2022.56
459.478	1991.56
459.698	1916.56
459.918	2000.56
460.138	2084.56
460.358	2097.56
460.578	2132.56
460.798	2198.56
461.018	2375.56
461.238	2215.56
461.458	2088.56
461.678	2112.56
461.898	2108.56
462.118	2003.56
462.338	2171.56
462.558	2137.56
462.777	2104.56
462.997	2235.56
463.217	2372.56
463.437	2341.56
463.657	2161.56
463.876	2145.56
464.096	2147.56
464.316	2098.56
464.536	2195.56
464.755	2161.56
464.975	2239.56
465.195	2146.56
465.414	2236.56
465.634	2246.56
465.854	2121.56
466.073	2225.56
466.293	2171.56
466.512	1948.56
466.732	1951.56
466.951	2019.56
467.171	2042.56
467.391	1906.56
467.61	1901.56
467.829	1923.56
468.049	2049.56
468.268	2287.56
468.488	2114.56
468.707	2040.56
468.927	1951.56
469.146	1948.56
469.365	1905.56
469.585	1958.56
469.804	1942.56
470.023	1913.56
470.243	1942.56
470.462	1955.56
470.681	1915.56
470.901	1973.56
471.12	1934.56
471.339	1909.56
471.558	1886.56
471.777	1878.56
471.997	1896.56
472.216	1910.56
472.435	1831.56
472.654	1894.56
472.873	1980.56
473.092	2103.56
473.311	1986.56
473.53	1867.56
473.749	1866.56
473.968	1938.56
474.187	2013.56
474.406	2142.56
474.625	1990.56
474.844	1964.56
475.063	1923.56
475.282	2000.56
475.501	1940.56
475.72	1944.56
475.939	2059.56
476.158	1983.56
476.377	1952.56
476.596	2024.56
476.814	2039.56
477.033	2026.56
477.252	2117.56
477.471	2136.56
477.69	2082.56
477.908	2033.56
478.127	2177.56
478.346	2351.56
478.564	2358.56
478.783	2273.56
479.002	2390.56
479.22	2307.56
479.439	2363.56
479.658	2751.56
479.876	2699.56
480.095	2368.56
480.313	2268.56
480.532	2170.56
480.751	2180.56
480.969	2241.56
481.188	2213.56
481.406	2176.56
481.624	2104.56
481.843	2130.56
482.061	2221.56
482.28	2246.56
482.498	2294.56
482.717	2236.56
482.935	2154.56
483.153	2175.56
483.372	2197.56
483.59	2155.56
483.808	2153.56
484.027	2194.56
484.245	2386.56
484.463	2658.56
484.681	3076.56
484.9	2401.56
485.118	2258.56
485.336	2185.56
485.554	2268.56
485.772	2404.56
485.99	2375.56
486.209	2371.56
486.427	2346.56
486.645	2325.56
486.863	2288.56
487.081	2389.56
487.299	2417.56
487.517	2333.56
487.735	2263.56
487.953	2279.56
488.171	2261.56
488.389	2279.56
488.607	2254.56
488.825	2474.56
489.043	2498.56
489.261	2252.56
489.479	2364.56
489.696	2399.56
489.914	2355.56
490.132	2346.56
490.35	2239.56
490.568	2419.56
490.786	2341.56
491.003	2251.56
491.221	2268.56
491.439	2388.56
491.657	2324.56
491.874	2342.56
492.092	2362.56
492.31	2305.56
492.527	2310.56
492.745	2291.56
492.963	2357.56
493.18	2379.56
493.398	2563.56
493.615	2640.56
493.833	2440.56
494.05	2370.56
494.268	2325.56
494.485	2471.56
494.703	2357.56
494.92	2345.56
495.138	2350.56
495.355	2415.56
495.573	2446.56
495.79	2593.56
496.008	2602.56
496.225	2452.56
496.442	2460.56
496.66	2537.56
496.877	2476.56
497.094	2583.56
497.312	2588.56
497.529	2532.56
497.746	2603.56
497.963	3010.56
498.181	3431.56
498.398	3145.56
498.615	3083.56
498.832	2991.56
499.049	2987.56
499.267	2973.56
499.484	3192.56
499.701	3427.56
499.918	3479.56
500.135	3811.56
500.352	4018.56
500.569	4005.56
500.786	4192.56
501.003	3922.56
501.22	3601.56
501.437	3488.56
501.654	3457.56
501.871	3416.56
502.088	3013.56
502.305	3000.56
502.522	2904.56
502.739	2673.56
502.956	2691.56
503.172	2645.56
503.389	2589.56
503.606	2496.56
503.823	2454.56
504.04	2531.56
504.256	2504.56
504.473	2527.56
504.69	2614.56
504.907	2437.56
505.123	2352.56
505.34	2447.56
505.557	3119.56
505.773	2660.56
505.99	2294.56
506.207	2175.56
506.423	2120.56
506.64	2108.56
506.856	2172.56
507.073	2416.56
507.289	2578.56
507.506	2457.56
507.722	2143.56
507.939	2027.56
508.155	2073.56
508.372	2075.56
508.588	2048.56
508.805	2033.56
509.021	1973.56
509.238	1951.56
509.454	1941.56
509.67	1973.56
509.887	1890.56
510.103	1914.56
510.319	1971.56
510.536	2054.56
510.752	2112.56
510.968	2069.56
511.184	2267.56
511.401	2220.56
511.617	1915.56
511.833	1879.56
512.049	1917.56
512.265	1883.56
512.481	1879.56
512.698	1930.56
512.914	2068.56
513.13	2024.56
513.346	1919.56
513.562	1898.56
513.778	1905.56
513.994	1966.56
514.21	2010.56
514.426	2088.56
514.642	2279.56
514.858	2145.56
515.074	1952.56
515.29	1909.56
515.506	1952.56
515.721	2020.56
515.937	2018.56
516.153	2287.56
516.369	2180.56
516.585	2051.56
516.801	1971.56
517.016	1947.56
517.232	2029.56
517.448	2116.56
517.664	2086.56
517.879	2086.56
518.095	2194.56
518.311	2113.56
518.527	2003.56
518.742	1962.56
518.958	1894.56
519.173	1922.56
519.389	1923.56
519.605	1937.56
519.82	1944.56
520.036	1990.56
520.251	1917.56
520.467	1922.56
520.682	2089.56
520.898	2131.56
521.113	1959.56
521.329	1888.56
521.544	2037.56
521.76	1915.56
521.975	1823.56
522.19	1798.56
522.406	1793.56
522.621	2111.56
522.836	2163.56
523.052	1806.56
523.267	1806.56
523.482	1819.56
523.698	1730.56
523.913	1688.56
524.128	1756.56
524.343	1849.56
524.559	1907.56
524.774	1772.56
524.989	1733.56
525.204	1704.56
525.419	1676.56
525.634	1684.56
525.849	1735.56
526.064	1715.56
526.28	1720.56
526.495	1681.56
526.71	1700.56
526.925	1701.56
527.14	1690.56
527.355	1667.56
527.57	1650.56
527.785	1700.56
527.999	1648.56
528.214	1638.56
528.429	1570.56
528.644	1621.56
528.859	1650.56
529.074	1663.56
529.289	1662.56
529.503	1678.56
529.718	1663.56
529.933	1687.56
530.148	1598.56
530.363	1619.56
530.577	1660.56
530.792	1649.56
531.007	1669.56
531.221	1631.56
531.436	1701.56
531.651	1726.56
531.865	1832.56
532.08	1738.56
532.295	1612.56
532.509	1572.56
532.724	1612.56
532.938	1666.56
533.153	1738.56
533.367	1684.56
533.582	1674.56
533.796	1624.56
534.011	1623.56
534.225	1657.56
534.44	1568.56
534.654	1617.56
534.868	1619.56
535.083	1687.56
535.297	1654.56
535.511	1599.56
535.726	1597.56
535.94	1620.56
536.154	1596.56
536.369	1559.56
536.583	1560.56
536.797	1547.56
537.011	1625.56
537.225	1580.56
537.44	1556.56
537.654	1603.56
537.868	1573.56
538.082	1457.56
538.296	1476.56
538.51	1476.56
538.724	1479.56
538.938	1498.56
539.153	1555.56
539.367	1558.56
539.581	1530.56
539.795	1602.56
540.009	1590.56
540.222	1515.56
540.436	1566.56
540.65	1679.56
540.864	1763.56
541.078	1609.56
541.292	1537.56
541.506	1541.56
541.72	1546.56
541.934	1524.56
542.147	1599.56
542.361	1533.56
542.575	1535.56
542.789	1496.56
543.002	1460.56
543.216	1464.56
543.43	1567.56
543.644	1598.56
543.857	1677.56
544.071	1568.56
544.285	1538.56
544.498	1535.56
544.712	1501.56
544.925	1541.56
545.139	1605.56
545.352	1488.56
545.566	1445.56
545.779	1461.56
545.993	1455.56
546.206	1480.56
546.42	1430.56
546.633	1423.56
546.847	1424.56
547.06	1452.56
547.274	1427.56
547.487	1422.56
547.7	1432.56
547.914	1471.56
548.127	1481.56
548.34	1482.56
548.554	1476.56
548.767	1428.56
548.98	1468.56
549.193	1464.56
549.407	1488.56
549.62	1509.56
549.833	1456.56
550.046	1406.56
550.259	1455.56
550.473	1392.56
550.686	1412.56
550.899	1418.56
551.112	1425.56
551.325	1388.56
551.538	1469.56
551.751	1687.56
551.964	1419.56
552.177	1378.56
552.39	1395.56
552.603	1432.56
552.816	1414.56
553.029	1484.56
553.242	1516.56
553.455	1432.56
553.667	1436.56
553.88	1434.56
554.093	1412.56
554.306	1363.56
554.519	1290.56
554.732	1331.56
554.944	1365.56
555.157	1395.56
555.37	1333.56
555.583	1370.56
555.795	1330.56
556.008	1305.56
556.221	1259.56
556.433	1247.56
556.646	1257.56
556.859	1257.56
557.071	1237.56
557.284	1218.56
557.496	1251.56
557.709	1216.56
557.921	1200.56
558.134	1194.56
558.346	1207.56
558.559	1187.56
558.771	1232.56
558.984	1169.56
559.196	1142.56
559.409	1171.56
559.621	1163.56
559.833	1191.56
560.046	1226.56
560.258	1210.56
560.47	1180.56
560.683	1183.56
560.895	1183.56
561.107	1187.56
561.32	1180.56
561.532	1207.56
561.744	1161.56
561.956	1219.56
562.168	1149.56
562.381	1100.56
562.593	1136.56
562.805	1160.56
563.017	1153.56
563.229	1175.56
563.441	1189.56
563.653	1155.56
563.865	1162.56
564.077	1155.56
564.289	1185.56
564.501	1163.56
564.713	1209.56
564.925	1237.56
565.137	1332.56
565.349	1226.56
565.561	1237.56
565.773	1251.56
565.985	1266.56
566.197	1336.56
566.408	1422.56
566.62	1419.56
566.832	1407.56
567.044	1417.56
567.255	1391.56
567.467	1402.56
567.679	1473.56
567.891	1502.56
568.102	1460.56
568.314	1446.56
568.526	1361.56
568.737	1299.56
568.949	1223.56
569.161	1188.56
569.372	1107.56
569.584	1125.56
569.795	1140.56
570.007	1105.56
570.218	1079.56
570.43	1087.56
570.641	1071.56
570.853	1079.56
571.064	1066.56
571.276	1052.56
571.487	1020.56
571.698	1015.56
571.91	992.56
572.121	988.56
572.333	968.56
572.544	956.56
572.755	943.56
572.966	905.56
573.178	895.56
573.389	939.56
573.6	992.56
573.811	1040.56
574.023	961.56
574.234	934.56
574.445	890.56
574.656	889.56
574.867	867.56
575.078	901.56
575.289	922.56
575.501	863.56
575.712	863.56
575.923	872.56
576.134	879.56
576.345	888.56
576.556	845.56
576.767	829.56
576.978	854.56
577.188	812.56
577.399	801.56
577.61	822.56
577.821	815.56
578.032	836.56
578.243	828.56
578.454	824.56
578.665	804.56
578.875	786.56
579.086	773.56
579.297	799.56
579.508	864.56
579.718	832.56
579.929	804.56
580.14	807.56
580.35	784.56
580.561	825.56
580.772	858.56
580.982	849.56
581.193	799.56
581.403	751.56
581.614	756.56
581.825	749.56
582.035	784.56
582.246	760.56
582.456	779.56
582.667	747.56
582.877	771.56
583.087	751.56
583.298	725.56
583.508	759.56
583.719	775.56
583.929	771.56
584.139	751.56
584.35	735.56
584.56	726.56
584.77	743.56
584.981	751.56
585.191	757.56
585.401	781.56
585.611	748.56
585.821	713.56
586.032	747.56
586.242	727.56
586.452	715.56
586.662	727.56
586.872	741.56
587.082	679.56
587.292	741.56
587.502	745.56
587.713	726.56
587.923	751.56
588.133	716.56
588.343	707.56
588.553	739.56
588.762	732.56
588.972	713.56
589.182	732.56
589.392	745.56
589.602	742.56
589.812	738.56
590.022	682.56
590.232	702.56
590.441	737.56
590.651	708.56
590.861	696.56
591.071	688.56
591.281	681.56
591.49	705.56
591.7	682.56
591.91	722.56
592.119	695.56
592.329	696.56
592.539	757.56
592.748	769.56
592.958	761.56
593.167	755.56
593.377	726.56
593.587	763.56
593.796	739.56
594.006	756.56
594.215	742.56
594.424	737.56
594.634	709.56
594.843	708.56
595.053	704.56
595.262	699.56
595.472	703.56
595.681	705.56
595.89	707.56
596.1	677.56
596.309	661.56
596.518	679.56
596.727	653.56
596.937	675.56
597.146	593.56
597.355	611.56
597.564	615.56
597.774	610.56
597.983	617.56
598.192	598.56
598.401	609.56
598.61	625.56
598.819	600.56
599.028	612.56
599.237	617.56
599.446	586.56
599.655	595.56
599.864	591.56
600.073	562.56
600.282	578.56
600.491	563.56
600.7	556.56
600.909	556.56
601.118	603.56
601.327	590.56
601.536	600.56
601.745	567.56
601.953	580.56
602.162	580.56
602.371	587.56
602.58	574.56
602.789	562.56
602.997	561.56
603.206	583.56
603.415	556.56
603.623	552.56
603.832	567.56
604.041	553.56
604.249	539.56
604.458	549.56
604.666	563.56
604.875	552.56
605.084	575.56
605.292	581.56
605.501	567.56
605.709	568.56
605.918	540.56
606.126	539.56
606.334	540.56
606.543	543.56
606.751	533.56
606.96	526.56
607.168	523.56
607.376	513.56
607.585	522.56
607.793	526.56
608.001	535.56
608.21	533.56
608.418	541.56
608.626	518.56
608.834	540.56
609.043	532.56
609.251	533.56
609.459	545.56
609.667	518.56
609.875	522.56
610.083	544.56
610.291	544.56
610.499	532.56
610.707	507.56
610.916	521.56
611.124	513.56
611.332	503.56
611.54	519.56
611.748	498.56
611.955	496.56
612.163	496.56
612.371	489.56
612.579	491.56
612.787	483.56
612.995	502.56
613.203	507.56
613.411	493.56
613.618	495.56
613.826	511.56
614.034	489.56
614.242	500.56
614.449	511.56
614.657	513.56
614.865	496.56
615.072	476.56
615.28	509.56
615.488	506.56
615.695	514.56
615.903	495.56
616.111	496.56
616.318	482.56
616.526	511.56
616.733	490.56
616.941	488.56
617.148	482.56
617.356	464.56
617.563	478.56
617.771	482.56
617.978	475.56
618.185	486.56
618.393	467.56
618.6	496.56
618.807	477.56
619.015	478.56
619.222	473.56
619.429	462.56
619.637	465.56
619.844	452.56
620.051	458.56
620.258	442.56
620.466	428.56
620.673	440.56
620.88	440.56
621.087	445.56
621.294	435.56
621.501	436.56
621.708	447.56
621.915	452.56
622.122	456.56
622.329	442.56
622.536	436.56
622.743	451.56
622.95	435.56
623.157	444.56
623.364	448.56
623.571	449.56
623.778	435.56
623.985	439.56
624.192	420.56
624.399	443.56
624.606	435.56
624.812	403.56
625.019	385.56
625.226	424.56
625.433	427.56
625.639	401.56
625.846	396.56
626.053	393.56
626.259	409.56
626.466	391.56
626.673	398.56
626.879	391.56
627.086	404.56
627.293	400.56
627.499	397.56
627.706	406.56
627.912	425.56
628.119	384.56
628.325	388.56
628.532	379.56
628.738	390.56
628.945	401.56
629.151	395.56
629.357	386.56
629.564	372.56
629.77	370.56
629.976	377.56
630.183	388.56
630.389	386.56
630.595	385.56
630.802	377.56
631.008	374.56
631.214	381.56
631.42	339.56
631.627	383.56
631.833	369.56
632.039	367.56
632.245	374.56
632.451	373.56
632.657	353.56
632.863	357.56
633.069	351.56
633.275	346.56
633.481	352.56
633.688	344.56
633.893	345.56
634.099	344.56
634.305	343.56
634.511	356.56
634.717	338.56
634.923	332.56
635.129	327.56
635.335	345.56
635.541	337.56
635.747	349.56
635.952	330.56
636.158	359.56
636.364	359.56
636.57	351.56
636.775	356.56
636.981	349.56
637.187	352.56
637.392	309.56
637.598	334.56
637.804	339.56
638.009	348.56
638.215	345.56
638.421	351.56
638.626	353.56
638.832	333.56
639.037	312.56
639.243	314.56
639.448	310.56
639.654	333.56
639.859	338.56
640.065	316.56
640.27	327.56
640.475	305.56
640.681	320.56
640.886	318.56
641.091	330.56
641.297	309.56
641.502	319.56
641.707	307.56
641.913	315.56
642.118	301.56
642.323	284.56
642.528	304.56
642.733	300.56
642.939	288.56
643.144	311.56
643.349	309.56
643.554	321.56
643.759	308.56
643.964	322.56
644.169	309.56
644.374	286.56
644.579	309.56
644.784	300.56
644.989	282.56
645.194	314.56
645.399	308.56
645.604	285.56
645.809	311.56
646.014	333.56
646.219	320.56
646.423	295.56
646.628	289.56
646.833	290.56
647.038	289.56
647.243	284.56
647.447	313.56
647.652	305.56
647.857	330.56
648.062	306.56
648.266	315.56
648.471	303.56
648.676	312.56
648.88	295.56
649.085	294.56
649.289	293.56
649.494	305.56
649.698	298.56
649.903	303.56
650.107	292.56
650.312	304.56
650.516	283.56
650.721	284.56
650.925	267.56
651.13	279.56
651.334	263.56
651.539	271.56
651.743	264.56
651.947	263.56
652.152	256.56
652.356	253.56
652.56	256.56
652.764	259.56
652.969	245.56
653.173	244.56
653.377	257.56
653.581	240.56
653.785	236.56
653.99	231.56
654.194	217.56
654.398	245.56
654.602	233.56
654.806	228.56
655.01	238.56
655.214	229.56
655.418	241.56
655.622	245.56
655.826	237.56
656.03	251.56
656.234	273.56
656.438	255.56
656.642	271.56
656.846	265.56
657.049	225.56
657.253	231.56
657.457	211.56
657.661	194.56
657.865	198.56
658.068	190.56
658.272	164.56
658.476	160.56
658.68	160.56
658.883	146.56
659.087	140.56
659.291	137.56
659.494	132.56
659.698	123.56
659.901	108.56
660.105	104.56
660.309	121.56
660.512	121.56
660.716	121.56
660.919	111.56
661.123	101.56
661.326	105.56
661.53	100.56
661.733	113.56
661.936	92.56
662.14	94.56
662.343	92.56
662.546	100.56
662.75	93.56
662.953	109.56
663.156	92.56
663.36	92.56
663.563	86.56
663.766	74.56
663.969	88.56
664.173	71.56
664.376	89.56
664.579	79.56
664.782	90.56
664.985	77.56
665.188	87.56
665.391	86.56
665.594	79.56
665.797	83.56
666	74.56
666.203	87.56
666.406	70.56
666.609	87.56
666.812	84.56
667.015	77.56
667.218	75.56
667.421	82.56
667.624	79.56
667.827	86.56
668.03	84.56
668.232	76.56
668.435	86.56
668.638	68.56
668.841	89.56
669.043	81.56
669.246	77.56
669.449	76.56
669.651	86.56
669.854	89.56
670.057	87.56
670.259	92.56
670.462	88.56
670.665	95.56
670.867	85.56
671.07	80.56
671.272	81.56
671.475	96.56
671.677	89.56
671.88	87.56
672.082	82.56
672.284	84.56
672.487	78.56
672.689	92.56
672.892	82.56
