Data from WStandard_LampEnergy8_LIBS07252019.E.O._I.C._HRD10591_15-59-25-929.txt Node
Date: Thu Jul 25 15:59:25 EDT 2019
User: cochatt
Spectrometer: HR+D1059
Trigger mode: 1
Integration Time (sec): 1.000000E-1
Scans to average: 1
Electric dark correction enabled: true
Nonlinearity correction enabled: false
Boxcar width: 0
XAxis mode: Wavelengths
Number of Pixels in Spectrum: 2048
>>>>>Begin Spectral Data<<<<<
223.165	-10.75
223.4	-10.75
223.635	-10.75
223.869	-8.75
224.104	-7.75
224.338	-11.75
224.573	-23.75
224.808	-19.75
225.042	-8.75
225.277	-11.75
225.511	-2.75
225.746	0.25
225.98	0.25
226.215	17.25
226.449	13.25
226.683	17.25
226.918	36.25
227.152	21.25
227.387	32.25
227.621	41.25
227.856	36.25
228.09	38.25
228.324	48.25
228.559	55.25
228.793	95.25
229.027	197.25
229.262	216.25
229.496	222.25
229.73	196.25
229.964	232.25
230.199	246.25
230.433	255.25
230.667	268.25
230.901	273.25
231.136	242.25
231.37	270.25
231.604	260.25
231.838	255.25
232.072	261.25
232.306	258.25
232.541	259.25
232.775	276.25
233.009	312.25
233.243	284.25
233.477	281.25
233.711	291.25
233.945	292.25
234.179	289.25
234.413	325.25
234.647	321.25
234.881	306.25
235.115	277.25
235.349	280.25
235.583	291.25
235.817	293.25
236.051	281.25
236.285	292.25
236.519	326.25
236.753	347.25
236.987	334.25
237.221	341.25
237.455	368.25
237.689	365.25
237.922	336.25
238.156	331.25
238.39	339.25
238.624	363.25
238.858	376.25
239.091	390.25
239.325	400.25
239.559	449.25
239.793	440.25
240.027	511.25
240.26	510.25
240.494	378.25
240.728	349.25
240.961	373.25
241.195	381.25
241.429	402.25
241.662	387.25
241.896	372.25
242.13	388.25
242.363	415.25
242.597	444.25
242.83	430.25
243.064	445.25
243.298	453.25
243.531	469.25
243.765	460.25
243.998	435.25
244.232	394.25
244.465	385.25
244.699	416.25
244.932	456.25
245.166	508.25
245.399	457.25
245.633	440.25
245.866	457.25
246.099	467.25
246.333	464.25
246.566	465.25
246.8	508.25
247.033	567.25
247.266	510.25
247.5	508.25
247.733	525.25
247.966	550.25
248.2	583.25
248.433	561.25
248.666	619.25
248.899	676.25
249.133	728.25
249.366	784.25
249.599	663.25
249.832	592.25
250.066	597.25
250.299	598.25
250.532	571.25
250.765	539.25
250.998	544.25
251.231	575.25
251.465	584.25
251.698	559.25
251.931	542.25
252.164	572.25
252.397	609.25
252.63	580.25
252.863	537.25
253.096	536.25
253.329	548.25
253.562	572.25
253.795	616.25
254.028	584.25
254.261	552.25
254.494	539.25
254.727	544.25
254.96	541.25
255.193	643.25
255.426	693.25
255.659	756.25
255.892	757.25
256.124	667.25
256.357	661.25
256.59	657.25
256.823	675.25
257.056	680.25
257.289	808.25
257.521	872.25
257.754	786.25
257.987	753.25
258.22	828.25
258.452	789.25
258.685	667.25
258.918	661.25
259.151	647.25
259.383	624.25
259.616	567.25
259.849	606.25
260.081	677.25
260.314	739.25
260.547	797.25
260.779	809.25
261.012	733.25
261.244	692.25
261.477	640.25
261.71	663.25
261.942	669.25
262.175	645.25
262.407	664.25
262.64	641.25
262.872	609.25
263.105	609.25
263.337	628.25
263.57	621.25
263.802	607.25
264.035	591.25
264.267	556.25
264.499	568.25
264.732	598.25
264.964	646.25
265.197	631.25
265.429	687.25
265.661	783.25
265.894	805.25
266.126	819.25
266.358	763.25
266.591	795.25
266.823	837.25
267.055	779.25
267.287	786.25
267.52	760.25
267.752	758.25
267.984	741.25
268.216	746.25
268.448	786.25
268.681	770.25
268.913	698.25
269.145	693.25
269.377	688.25
269.609	747.25
269.841	841.25
270.073	953.25
270.306	1070.25
270.538	1080.25
270.77	923.25
271.002	835.25
271.234	802.25
271.466	797.25
271.698	923.25
271.93	1003.25
272.162	1027.25
272.394	939.25
272.626	870.25
272.858	794.25
273.09	694.25
273.322	699.25
273.553	671.25
273.785	661.25
274.017	689.25
274.249	734.25
274.481	735.25
274.713	685.25
274.945	699.25
275.176	705.25
275.408	687.25
275.64	656.25
275.872	669.25
276.104	752.25
276.335	798.25
276.567	902.25
276.799	864.25
277.031	807.25
277.262	781.25
277.494	835.25
277.726	880.25
277.957	877.25
278.189	804.25
278.421	743.25
278.652	716.25
278.884	696.25
279.115	709.25
279.347	722.25
279.579	729.25
279.81	718.25
280.042	804.25
280.273	861.25
280.505	864.25
280.736	869.25
280.968	803.25
281.199	725.25
281.431	696.25
281.662	700.25
281.894	712.25
282.125	734.25
282.356	752.25
282.588	717.25
282.819	758.25
283.051	813.25
283.282	852.25
283.513	824.25
283.745	769.25
283.976	684.25
284.207	692.25
284.439	734.25
284.67	711.25
284.901	749.25
285.132	787.25
285.364	732.25
285.595	769.25
285.826	750.25
286.057	736.25
286.288	724.25
286.52	770.25
286.751	852.25
286.982	836.25
287.213	789.25
287.444	732.25
287.675	732.25
287.906	764.25
288.138	821.25
288.369	808.25
288.6	734.25
288.831	725.25
289.062	731.25
289.293	746.25
289.524	759.25
289.755	724.25
289.986	745.25
290.217	710.25
290.448	742.25
290.679	788.25
290.91	773.25
291.141	771.25
291.371	778.25
291.602	798.25
291.833	800.25
292.064	841.25
292.295	824.25
292.526	832.25
292.757	851.25
292.987	820.25
293.218	811.25
293.449	845.25
293.68	946.25
293.91	974.25
294.141	925.25
294.372	895.25
294.603	924.25
294.833	979.25
295.064	900.25
295.295	831.25
295.525	807.25
295.756	758.25
295.987	728.25
296.217	752.25
296.448	736.25
296.679	732.25
296.909	745.25
297.14	783.25
297.37	792.25
297.601	863.25
297.831	897.25
298.062	840.25
298.292	784.25
298.523	769.25
298.753	789.25
298.984	786.25
299.214	792.25
299.445	789.25
299.675	803.25
299.905	792.25
300.136	806.25
300.366	780.25
300.597	754.25
300.827	739.25
301.057	820.25
301.288	865.25
301.518	852.25
301.748	865.25
301.979	899.25
302.209	907.25
302.439	943.25
302.669	992.25
302.9	941.25
303.13	835.25
303.36	839.25
303.59	834.25
303.82	839.25
304.051	865.25
304.281	846.25
304.511	883.25
304.741	927.25
304.971	1000.25
305.201	1048.25
305.431	930.25
305.661	791.25
305.891	753.25
306.121	741.25
306.352	796.25
306.582	836.25
306.812	871.25
307.042	954.25
307.272	933.25
307.502	975.25
307.731	1010.25
307.961	1064.25
308.191	979.25
308.421	864.25
308.651	802.25
308.881	833.25
309.111	827.25
309.341	803.25
309.571	784.25
309.8	812.25
310.03	817.25
310.26	822.25
310.49	809.25
310.72	832.25
310.949	879.25
311.179	890.25
311.409	846.25
311.639	849.25
311.868	809.25
312.098	808.25
312.328	836.25
312.557	819.25
312.787	839.25
313.017	837.25
313.246	882.25
313.476	863.25
313.706	865.25
313.935	880.25
314.165	891.25
314.394	897.25
314.624	963.25
314.853	987.25
315.083	1037.25
315.312	1027.25
315.542	966.25
315.771	921.25
316.001	895.25
316.23	952.25
316.46	925.25
316.689	905.25
316.919	905.25
317.148	851.25
317.377	868.25
317.607	939.25
317.836	1035.25
318.065	1035.25
318.295	1007.25
318.524	985.25
318.753	950.25
318.983	914.25
319.212	908.25
319.441	889.25
319.67	915.25
319.9	935.25
320.129	961.25
320.358	1011.25
320.587	1045.25
320.816	982.25
321.046	967.25
321.275	949.25
321.504	975.25
321.733	1038.25
321.962	952.25
322.191	900.25
322.42	906.25
322.649	888.25
322.878	899.25
323.108	919.25
323.337	982.25
323.566	936.25
323.795	943.25
324.024	946.25
324.253	916.25
324.482	921.25
324.71	888.25
324.939	850.25
325.168	895.25
325.397	915.25
325.626	921.25
325.855	944.25
326.084	909.25
326.313	919.25
326.542	919.25
326.77	950.25
326.999	957.25
327.228	901.25
327.457	840.25
327.686	870.25
327.914	912.25
328.143	922.25
328.372	927.25
328.6	911.25
328.829	891.25
329.058	906.25
329.287	911.25
329.515	916.25
329.744	962.25
329.972	989.25
330.201	985.25
330.43	998.25
330.658	955.25
330.887	984.25
331.115	981.25
331.344	973.25
331.572	984.25
331.801	976.25
332.03	951.25
332.258	964.25
332.486	975.25
332.715	1003.25
332.943	975.25
333.172	972.25
333.4	983.25
333.629	1036.25
333.857	1074.25
334.085	1192.25
334.314	1342.25
334.542	1390.25
334.771	1272.25
334.999	1135.25
335.227	1084.25
335.455	1039.25
335.684	1038.25
335.912	1055.25
336.14	1078.25
336.369	1047.25
336.597	987.25
336.825	985.25
337.053	1005.25
337.281	1071.25
337.51	1069.25
337.738	1175.25
337.966	1071.25
338.194	984.25
338.422	947.25
338.65	983.25
338.878	916.25
339.106	943.25
339.334	945.25
339.562	957.25
339.79	975.25
340.018	994.25
340.246	1036.25
340.474	1024.25
340.702	1008.25
340.93	1003.25
341.158	978.25
341.386	981.25
341.614	963.25
341.842	964.25
342.07	966.25
342.298	999.25
342.526	985.25
342.754	963.25
342.981	956.25
343.209	961.25
343.437	950.25
343.665	952.25
343.893	975.25
344.12	1042.25
344.348	1038.25
344.576	958.25
344.804	980.25
345.031	968.25
345.259	931.25
345.487	940.25
345.714	909.25
345.942	875.25
346.17	906.25
346.397	893.25
346.625	914.25
346.853	857.25
347.08	854.25
347.308	877.25
347.535	925.25
347.763	947.25
347.99	906.25
348.218	913.25
348.445	905.25
348.673	922.25
348.9	943.25
349.128	987.25
349.355	997.25
349.583	967.25
349.81	912.25
350.037	867.25
350.265	868.25
350.492	865.25
350.72	880.25
350.947	927.25
351.174	949.25
351.402	876.25
351.629	886.25
351.856	848.25
352.083	817.25
352.311	879.25
352.538	876.25
352.765	930.25
352.992	935.25
353.22	907.25
353.447	856.25
353.674	919.25
353.901	899.25
354.128	877.25
354.355	897.25
354.583	917.25
354.81	923.25
355.037	967.25
355.264	955.25
355.491	958.25
355.718	951.25
355.945	888.25
356.172	871.25
356.399	859.25
356.626	883.25
356.853	933.25
357.08	1015.25
357.307	1104.25
357.534	1085.25
357.761	939.25
357.988	893.25
358.215	859.25
358.441	882.25
358.668	868.25
358.895	893.25
359.122	960.25
359.349	1050.25
359.576	962.25
359.802	901.25
360.029	870.25
360.256	873.25
360.483	902.25
360.709	925.25
360.936	953.25
361.163	1027.25
361.39	1095.25
361.616	1131.25
361.843	1124.25
362.07	1043.25
362.296	925.25
362.523	907.25
362.749	909.25
362.976	919.25
363.203	930.25
363.429	887.25
363.656	886.25
363.882	926.25
364.109	1052.25
364.335	1059.25
364.562	1021.25
364.788	945.25
365.015	928.25
365.241	885.25
365.468	907.25
365.694	943.25
365.92	1012.25
366.147	911.25
366.373	886.25
366.599	876.25
366.826	899.25
367.052	905.25
367.278	902.25
367.505	943.25
367.731	935.25
367.957	956.25
368.184	1005.25
368.41	1003.25
368.636	1030.25
368.862	1035.25
369.089	1048.25
369.315	990.25
369.541	942.25
369.767	921.25
369.993	906.25
370.219	925.25
370.445	941.25
370.672	1008.25
370.898	1040.25
371.124	1000.25
371.35	983.25
371.576	1009.25
371.802	991.25
372.028	1000.25
372.254	958.25
372.48	947.25
372.706	935.25
372.932	939.25
373.158	927.25
373.384	943.25
373.61	936.25
373.835	1025.25
374.061	956.25
374.287	970.25
374.513	963.25
374.739	966.25
374.965	964.25
375.191	988.25
375.416	990.25
375.642	1024.25
375.868	1085.25
376.094	1088.25
376.319	1048.25
376.545	991.25
376.771	1008.25
376.997	1090.25
377.222	1049.25
377.448	1031.25
377.674	1017.25
377.899	1028.25
378.125	1072.25
378.35	1053.25
378.576	967.25
378.802	941.25
379.027	965.25
379.253	955.25
379.478	950.25
379.704	940.25
379.929	980.25
380.155	1002.25
380.38	996.25
380.606	974.25
380.831	977.25
381.057	1058.25
381.282	1057.25
381.507	1030.25
381.733	1116.25
381.958	1105.25
382.184	1045.25
382.409	1013.25
382.634	1041.25
382.86	1056.25
383.085	990.25
383.31	1080.25
383.535	1172.25
383.761	1193.25
383.986	1140.25
384.211	1100.25
384.436	1081.25
384.662	1130.25
384.887	1164.25
385.112	1140.25
385.337	1128.25
385.562	1112.25
385.787	1142.25
386.013	1127.25
386.238	1117.25
386.463	1101.25
386.688	1214.25
386.913	1287.25
387.138	1263.25
387.363	1158.25
387.588	1131.25
387.813	1156.25
388.038	1155.25
388.263	1175.25
388.488	1175.25
388.713	1081.25
388.938	1051.25
389.163	1083.25
389.387	1100.25
389.612	1121.25
389.837	1139.25
390.062	1127.25
390.287	1139.25
390.512	1093.25
390.736	1101.25
390.961	1112.25
391.186	1049.25
391.411	1092.25
391.636	1109.25
391.86	1112.25
392.085	1101.25
392.31	1097.25
392.534	1110.25
392.759	1128.25
392.984	1135.25
393.208	1147.25
393.433	1160.25
393.658	1232.25
393.882	1215.25
394.107	1139.25
394.331	1128.25
394.556	1147.25
394.78	1137.25
395.005	1168.25
395.229	1214.25
395.454	1282.25
395.678	1283.25
395.903	1204.25
396.127	1186.25
396.352	1213.25
396.576	1231.25
396.801	1223.25
397.025	1238.25
397.249	1236.25
397.474	1196.25
397.698	1224.25
397.922	1272.25
398.147	1288.25
398.371	1348.25
398.595	1336.25
398.82	1287.25
399.044	1323.25
399.268	1416.25
399.492	1423.25
399.717	1478.25
399.941	1468.25
400.165	1437.25
400.389	1406.25
400.613	1419.25
400.837	1667.25
401.062	1858.25
401.286	1528.25
401.51	1416.25
401.734	1461.25
401.958	1400.25
402.182	1308.25
402.406	1288.25
402.63	1272.25
402.854	1260.25
403.078	1299.25
403.302	1308.25
403.526	1356.25
403.75	1326.25
403.974	1349.25
404.198	1341.25
404.422	1397.25
404.645	1477.25
404.869	1380.25
405.093	1289.25
405.317	1275.25
405.541	1338.25
405.765	1342.25
405.988	1321.25
406.212	1345.25
406.436	1410.25
406.66	1437.25
406.883	1456.25
407.107	1632.25
407.331	1772.25
407.555	1876.25
407.778	1626.25
408.002	1418.25
408.226	1381.25
408.449	1421.25
408.673	1353.25
408.896	1361.25
409.12	1341.25
409.344	1305.25
409.567	1295.25
409.791	1357.25
410.014	1399.25
410.238	1465.25
410.461	1492.25
410.685	1310.25
410.908	1331.25
411.132	1351.25
411.355	1296.25
411.578	1314.25
411.802	1318.25
412.025	1301.25
412.249	1299.25
412.472	1255.25
412.695	1287.25
412.919	1281.25
413.142	1238.25
413.365	1301.25
413.589	1341.25
413.812	1389.25
414.035	1411.25
414.258	1303.25
414.482	1290.25
414.705	1301.25
414.928	1289.25
415.151	1279.25
415.374	1288.25
415.597	1317.25
415.821	1340.25
416.044	1346.25
416.267	1344.25
416.49	1283.25
416.713	1284.25
416.936	1332.25
417.159	1365.25
417.382	1335.25
417.605	1291.25
417.828	1294.25
418.051	1324.25
418.274	1296.25
418.497	1260.25
418.72	1295.25
418.943	1244.25
419.166	1321.25
419.389	1325.25
419.611	1303.25
419.834	1278.25
420.057	1310.25
420.28	1272.25
420.503	1281.25
420.726	1312.25
420.948	1278.25
421.171	1244.25
421.394	1278.25
421.617	1331.25
421.839	1313.25
422.062	1279.25
422.285	1222.25
422.507	1248.25
422.73	1200.25
422.953	1176.25
423.175	1227.25
423.398	1257.25
423.621	1212.25
423.843	1244.25
424.066	1336.25
424.288	1373.25
424.511	1437.25
424.733	1362.25
424.956	1214.25
425.178	1229.25
425.401	1264.25
425.623	1234.25
425.846	1248.25
426.068	1331.25
426.291	1338.25
426.513	1333.25
426.735	1305.25
426.958	1405.25
427.18	1476.25
427.402	1400.25
427.625	1407.25
427.847	1361.25
428.069	1301.25
428.292	1257.25
428.514	1218.25
428.736	1247.25
428.958	1221.25
429.181	1231.25
429.403	1447.25
429.625	1761.25
429.847	1425.25
430.069	1259.25
430.292	1443.25
430.514	1415.25
430.736	1340.25
430.958	1371.25
431.18	1260.25
431.402	1216.25
431.624	1203.25
431.846	1151.25
432.068	1094.25
432.29	1124.25
432.512	1185.25
432.734	1222.25
432.956	1262.25
433.178	1310.25
433.4	1329.25
433.622	1268.25
433.844	1199.25
434.066	1199.25
434.287	1192.25
434.509	1212.25
434.731	1271.25
434.953	1334.25
435.175	1294.25
435.397	1278.25
435.618	1247.25
435.84	1229.25
436.062	1206.25
436.284	1249.25
436.505	1281.25
436.727	1293.25
436.949	1261.25
437.17	1251.25
437.392	1231.25
437.614	1215.25
437.835	1187.25
438.057	1217.25
438.278	1249.25
438.5	1194.25
438.721	1229.25
438.943	1201.25
439.165	1223.25
439.386	1202.25
439.608	1221.25
439.829	1222.25
440.05	1275.25
440.272	1223.25
440.493	1220.25
440.715	1252.25
440.936	1350.25
441.158	1422.25
441.379	1353.25
441.6	1357.25
441.822	1333.25
442.043	1328.25
442.264	1291.25
442.486	1288.25
442.707	1230.25
442.928	1253.25
443.149	1288.25
443.371	1327.25
443.592	1391.25
443.813	1363.25
444.034	1338.25
444.255	1334.25
444.476	1337.25
444.698	1385.25
444.919	1411.25
445.14	1447.25
445.361	1436.25
445.582	1448.25
445.803	1369.25
446.024	1378.25
446.245	1374.25
446.466	1355.25
446.687	1312.25
446.908	1340.25
447.129	1276.25
447.35	1284.25
447.571	1309.25
447.792	1239.25
448.013	1239.25
448.234	1273.25
448.455	1329.25
448.675	1301.25
448.896	1203.25
449.117	1175.25
449.338	1218.25
449.559	1287.25
449.779	1328.25
450	1397.25
450.221	1466.25
450.442	1377.25
450.662	1268.25
450.883	1181.25
451.104	1159.25
451.324	1174.25
451.545	1233.25
451.766	1202.25
451.986	1121.25
452.207	1126.25
452.428	1083.25
452.648	1082.25
452.869	1096.25
453.089	1112.25
453.31	1139.25
453.53	1159.25
453.751	1116.25
453.971	1032.25
454.192	1063.25
454.412	1142.25
454.633	1123.25
454.853	1096.25
455.073	1031.25
455.294	1047.25
455.514	1036.25
455.734	1046.25
455.955	1068.25
456.175	1030.25
456.395	1068.25
456.616	1093.25
456.836	1085.25
457.056	1078.25
457.276	1081.25
457.497	1040.25
457.717	1019.25
457.937	1056.25
458.157	1060.25
458.377	1057.25
458.598	1022.25
458.818	1051.25
459.038	1100.25
459.258	1107.25
459.478	1126.25
459.698	1067.25
459.918	1148.25
460.138	1199.25
460.358	1225.25
460.578	1260.25
460.798	1295.25
461.018	1316.25
461.238	1275.25
461.458	1253.25
461.678	1250.25
461.898	1196.25
462.118	1199.25
462.338	1247.25
462.558	1254.25
462.777	1222.25
462.997	1289.25
463.217	1363.25
463.437	1330.25
463.657	1279.25
463.876	1233.25
464.096	1223.25
464.316	1245.25
464.536	1290.25
464.755	1273.25
464.975	1266.25
465.195	1262.25
465.414	1267.25
465.634	1281.25
465.854	1252.25
466.073	1380.25
466.293	1341.25
466.512	1186.25
466.732	1177.25
466.951	1243.25
467.171	1231.25
467.391	1159.25
467.61	1171.25
467.829	1171.25
468.049	1317.25
468.268	1457.25
468.488	1307.25
468.707	1235.25
468.927	1212.25
469.146	1187.25
469.365	1211.25
469.585	1223.25
469.804	1181.25
470.023	1205.25
470.243	1206.25
470.462	1227.25
470.681	1214.25
470.901	1243.25
471.12	1230.25
471.339	1227.25
471.558	1187.25
471.777	1200.25
471.997	1186.25
472.216	1151.25
472.435	1094.25
472.654	1109.25
472.873	1133.25
473.092	1206.25
473.311	1179.25
473.53	1157.25
473.749	1131.25
473.968	1177.25
474.187	1225.25
474.406	1213.25
474.625	1167.25
474.844	1171.25
475.063	1208.25
475.282	1215.25
475.501	1175.25
475.72	1186.25
475.939	1275.25
476.158	1228.25
476.377	1213.25
476.596	1151.25
476.814	1210.25
477.033	1188.25
477.252	1267.25
477.471	1290.25
477.69	1258.25
477.908	1283.25
478.127	1347.25
478.346	1411.25
478.564	1401.25
478.783	1382.25
479.002	1430.25
479.22	1397.25
479.439	1417.25
479.658	1553.25
479.876	1496.25
480.095	1353.25
480.313	1300.25
480.532	1295.25
480.751	1297.25
480.969	1310.25
481.188	1250.25
481.406	1238.25
481.624	1178.25
481.843	1249.25
482.061	1262.25
482.28	1300.25
482.498	1342.25
482.717	1298.25
482.935	1257.25
483.153	1301.25
483.372	1348.25
483.59	1354.25
483.808	1329.25
484.027	1341.25
484.245	1429.25
484.463	1713.25
484.681	1859.25
484.9	1447.25
485.118	1365.25
485.336	1331.25
485.554	1329.25
485.772	1390.25
485.99	1343.25
486.209	1390.25
486.427	1365.25
486.645	1389.25
486.863	1406.25
487.081	1421.25
487.299	1420.25
487.517	1412.25
487.735	1423.25
487.953	1499.25
488.171	1472.25
488.389	1430.25
488.607	1471.25
488.825	1582.25
489.043	1566.25
489.261	1344.25
489.479	1463.25
489.696	1456.25
489.914	1462.25
490.132	1415.25
490.35	1425.25
490.568	1510.25
490.786	1500.25
491.003	1473.25
491.221	1520.25
491.439	1527.25
491.657	1601.25
491.874	1614.25
492.092	1654.25
492.31	1699.25
492.527	1628.25
492.745	1624.25
492.963	1552.25
493.18	1593.25
493.398	1664.25
493.615	1665.25
493.833	1588.25
494.05	1538.25
494.268	1558.25
494.485	1588.25
494.703	1549.25
494.92	1541.25
495.138	1504.25
495.355	1509.25
495.573	1568.25
495.79	1677.25
496.008	1690.25
496.225	1563.25
496.442	1579.25
496.66	1636.25
496.877	1540.25
497.094	1668.25
497.312	1615.25
497.529	1613.25
497.746	1658.25
497.963	1805.25
498.181	1939.25
498.398	1890.25
498.615	1826.25
498.832	1767.25
499.049	1714.25
499.267	1762.25
499.484	1836.25
499.701	1992.25
499.918	2047.25
500.135	2195.25
500.352	2315.25
500.569	2365.25
500.786	2509.25
501.003	2266.25
501.22	2071.25
501.437	2051.25
501.654	2091.25
501.871	1945.25
502.088	1771.25
502.305	1759.25
502.522	1669.25
502.739	1568.25
502.956	1582.25
503.172	1519.25
503.389	1491.25
503.606	1488.25
503.823	1447.25
504.04	1453.25
504.256	1489.25
504.473	1484.25
504.69	1530.25
504.907	1447.25
505.123	1435.25
505.34	1522.25
505.557	1985.25
505.773	1635.25
505.99	1389.25
506.207	1272.25
506.423	1310.25
506.64	1278.25
506.856	1286.25
507.073	1451.25
507.289	1556.25
507.506	1511.25
507.722	1277.25
507.939	1247.25
508.155	1216.25
508.372	1217.25
508.588	1196.25
508.805	1153.25
509.021	1135.25
509.238	1151.25
509.454	1117.25
509.67	1151.25
509.887	1125.25
510.103	1120.25
510.319	1123.25
510.536	1161.25
510.752	1207.25
510.968	1200.25
511.184	1246.25
511.401	1199.25
511.617	1111.25
511.833	1099.25
512.049	1069.25
512.265	1089.25
512.481	1063.25
512.698	1122.25
512.914	1203.25
513.13	1134.25
513.346	1091.25
513.562	1091.25
513.778	1126.25
513.994	1159.25
514.21	1191.25
514.426	1193.25
514.642	1276.25
514.858	1211.25
515.074	1137.25
515.29	1107.25
515.506	1147.25
515.721	1145.25
515.937	1178.25
516.153	1297.25
516.369	1244.25
516.585	1187.25
516.801	1140.25
517.016	1120.25
517.232	1151.25
517.448	1175.25
517.664	1194.25
517.879	1199.25
518.095	1261.25
518.311	1210.25
518.527	1155.25
518.742	1135.25
518.958	1123.25
519.173	1153.25
519.389	1137.25
519.605	1174.25
519.82	1159.25
520.036	1151.25
520.251	1156.25
520.467	1175.25
520.682	1231.25
520.898	1229.25
521.113	1104.25
521.329	1115.25
521.544	1165.25
521.76	1141.25
521.975	1083.25
522.19	1087.25
522.406	1101.25
522.621	1356.25
522.836	1325.25
523.052	1112.25
523.267	1077.25
523.482	1099.25
523.698	1110.25
523.913	1035.25
524.128	1074.25
524.343	1123.25
524.559	1133.25
524.774	1078.25
524.989	1052.25
525.204	1073.25
525.419	1055.25
525.634	1031.25
525.849	1063.25
526.064	1039.25
526.28	1036.25
526.495	1002.25
526.71	990.25
526.925	986.25
527.14	950.25
527.355	965.25
527.57	975.25
527.785	1006.25
527.999	1005.25
528.214	1014.25
528.429	984.25
528.644	1019.25
528.859	1032.25
529.074	1080.25
529.289	1109.25
529.503	1103.25
529.718	1080.25
529.933	1003.25
530.148	959.25
530.363	961.25
530.577	973.25
530.792	978.25
531.007	961.25
531.221	979.25
531.436	1005.25
531.651	1012.25
531.865	1054.25
532.08	1001.25
532.295	950.25
532.509	934.25
532.724	959.25
532.938	990.25
533.153	1052.25
533.367	1022.25
533.582	1020.25
533.796	1022.25
534.011	1013.25
534.225	1008.25
534.44	969.25
534.654	946.25
534.868	957.25
535.083	1007.25
535.297	1007.25
535.511	998.25
535.726	975.25
535.94	979.25
536.154	958.25
536.369	919.25
536.583	932.25
536.797	912.25
537.011	926.25
537.225	926.25
537.44	921.25
537.654	949.25
537.868	936.25
538.082	901.25
538.296	907.25
538.51	928.25
538.724	931.25
538.938	990.25
539.153	1001.25
539.367	960.25
539.581	947.25
539.795	952.25
540.009	963.25
540.222	918.25
540.436	969.25
540.65	1016.25
540.864	1068.25
541.078	1035.25
541.292	1029.25
541.506	1054.25
541.72	1111.25
541.934	1143.25
542.147	1170.25
542.361	1147.25
542.575	1055.25
542.789	1020.25
543.002	945.25
543.216	935.25
543.43	966.25
543.644	1047.25
543.857	1108.25
544.071	1094.25
544.285	1091.25
544.498	1094.25
544.712	1068.25
544.925	1108.25
545.139	1074.25
545.352	1054.25
545.566	1051.25
545.779	1038.25
545.993	1085.25
546.206	1091.25
546.42	1068.25
546.633	1065.25
546.847	1045.25
547.06	1049.25
547.274	1065.25
547.487	1072.25
547.7	1080.25
547.914	1079.25
548.127	1083.25
548.34	1069.25
548.554	1057.25
548.767	1079.25
548.98	1077.25
549.193	1048.25
549.407	1102.25
549.62	1072.25
549.833	1034.25
550.046	1025.25
550.259	1010.25
550.473	1010.25
550.686	1023.25
550.899	980.25
551.112	952.25
551.325	987.25
551.538	1032.25
551.751	1147.25
551.964	916.25
552.177	895.25
552.39	961.25
552.603	974.25
552.816	994.25
553.029	1062.25
553.242	1056.25
553.455	1040.25
553.667	1063.25
553.88	1051.25
554.093	1026.25
554.306	966.25
554.519	954.25
554.732	951.25
554.944	975.25
555.157	964.25
555.37	951.25
555.583	965.25
555.795	928.25
556.008	873.25
556.221	872.25
556.433	843.25
556.646	867.25
556.859	853.25
557.071	848.25
557.284	879.25
557.496	889.25
557.709	870.25
557.921	856.25
558.134	843.25
558.346	865.25
558.559	830.25
558.771	827.25
558.984	824.25
559.196	789.25
559.409	802.25
559.621	761.25
559.833	777.25
560.046	805.25
560.258	829.25
560.47	805.25
560.683	800.25
560.895	801.25
561.107	814.25
561.32	813.25
561.532	812.25
561.744	803.25
561.956	805.25
562.168	764.25
562.381	793.25
562.593	797.25
562.805	795.25
563.017	772.25
563.229	801.25
563.441	776.25
563.653	764.25
563.865	742.25
564.077	769.25
564.289	765.25
564.501	771.25
564.713	794.25
564.925	791.25
565.137	866.25
565.349	809.25
565.561	801.25
565.773	797.25
565.985	811.25
566.197	849.25
566.408	904.25
566.62	909.25
566.832	883.25
567.044	901.25
567.255	897.25
567.467	905.25
567.679	896.25
567.891	911.25
568.102	875.25
568.314	836.25
568.526	795.25
568.737	747.25
568.949	729.25
569.161	702.25
569.372	686.25
569.584	691.25
569.795	687.25
570.007	666.25
570.218	628.25
570.43	631.25
570.641	643.25
570.853	647.25
571.064	647.25
571.276	656.25
571.487	638.25
571.698	649.25
571.91	629.25
572.121	584.25
572.333	616.25
572.544	609.25
572.755	577.25
572.966	572.25
573.178	585.25
573.389	577.25
573.6	565.25
573.811	622.25
574.023	570.25
574.234	586.25
574.445	557.25
574.656	535.25
574.867	561.25
575.078	555.25
575.289	551.25
575.501	555.25
575.712	547.25
575.923	547.25
576.134	553.25
576.345	534.25
576.556	543.25
576.767	532.25
576.978	539.25
577.188	527.25
577.399	519.25
577.61	516.25
577.821	517.25
578.032	520.25
578.243	511.25
578.454	510.25
578.665	491.25
578.875	496.25
579.086	476.25
579.297	486.25
579.508	510.25
579.718	491.25
579.929	509.25
580.14	480.25
580.35	473.25
580.561	520.25
580.772	545.25
580.982	515.25
581.193	515.25
581.403	480.25
581.614	476.25
581.825	468.25
582.035	465.25
582.246	504.25
582.456	463.25
582.667	478.25
582.877	461.25
583.087	469.25
583.298	460.25
583.508	456.25
583.719	475.25
583.929	467.25
584.139	445.25
584.35	446.25
584.56	451.25
584.77	471.25
584.981	462.25
585.191	452.25
585.401	494.25
585.611	444.25
585.821	457.25
586.032	466.25
586.242	450.25
586.452	448.25
586.662	461.25
586.872	425.25
587.082	460.25
587.292	454.25
587.502	457.25
587.713	458.25
587.923	464.25
588.133	451.25
588.343	448.25
588.553	432.25
588.762	431.25
588.972	455.25
589.182	452.25
589.392	436.25
589.602	452.25
589.812	438.25
590.022	437.25
590.232	433.25
590.441	440.25
590.651	444.25
590.861	430.25
591.071	444.25
591.281	431.25
591.49	441.25
591.7	432.25
591.91	427.25
592.119	460.25
592.329	446.25
592.539	448.25
592.748	468.25
592.958	449.25
593.167	447.25
593.377	453.25
593.587	469.25
593.796	471.25
594.006	428.25
594.215	456.25
594.424	432.25
594.634	443.25
594.843	474.25
595.053	467.25
595.262	455.25
595.472	432.25
595.681	440.25
595.89	415.25
596.1	407.25
596.309	433.25
596.518	411.25
596.727	427.25
596.937	427.25
597.146	402.25
597.355	436.25
597.564	414.25
597.774	387.25
597.983	393.25
598.192	362.25
598.401	376.25
598.61	385.25
598.819	395.25
599.028	389.25
599.237	392.25
599.446	383.25
599.655	367.25
599.864	376.25
600.073	370.25
600.282	389.25
600.491	379.25
600.7	375.25
600.909	397.25
601.118	389.25
601.327	411.25
601.536	419.25
601.745	414.25
601.953	422.25
602.162	408.25
602.371	378.25
602.58	386.25
602.789	429.25
602.997	414.25
603.206	403.25
603.415	393.25
603.623	404.25
603.832	396.25
604.041	409.25
604.249	371.25
604.458	387.25
604.666	376.25
604.875	372.25
605.084	386.25
605.292	398.25
605.501	406.25
605.709	396.25
605.918	384.25
606.126	414.25
606.334	393.25
606.543	407.25
606.751	420.25
606.96	408.25
607.168	383.25
607.376	402.25
607.585	397.25
607.793	404.25
608.001	403.25
608.21	387.25
608.418	403.25
608.626	387.25
608.834	383.25
609.043	387.25
609.251	380.25
609.459	383.25
609.667	389.25
609.875	389.25
610.083	417.25
610.291	392.25
610.499	382.25
610.707	405.25
610.916	383.25
611.124	390.25
611.332	383.25
611.54	382.25
611.748	384.25
611.955	383.25
612.163	399.25
612.371	375.25
612.579	375.25
612.787	375.25
612.995	386.25
613.203	388.25
613.411	385.25
613.618	378.25
613.826	399.25
614.034	397.25
614.242	354.25
614.449	373.25
614.657	379.25
614.865	373.25
615.072	371.25
615.28	389.25
615.488	402.25
615.695	418.25
615.903	385.25
616.111	386.25
616.318	375.25
616.526	371.25
616.733	369.25
616.941	370.25
617.148	392.25
617.356	403.25
617.563	385.25
617.771	343.25
617.978	375.25
618.185	364.25
618.393	368.25
618.6	367.25
618.807	377.25
619.015	397.25
619.222	350.25
619.429	363.25
619.637	341.25
619.844	346.25
620.051	339.25
620.258	364.25
620.466	334.25
620.673	344.25
620.88	345.25
621.087	348.25
621.294	328.25
621.501	321.25
621.708	350.25
621.915	350.25
622.122	343.25
622.329	339.25
622.536	349.25
622.743	332.25
622.95	328.25
623.157	340.25
623.364	340.25
623.571	343.25
623.778	353.25
623.985	331.25
624.192	347.25
624.399	338.25
624.606	312.25
624.812	335.25
625.019	313.25
625.226	327.25
625.433	332.25
625.639	313.25
625.846	319.25
626.053	313.25
626.259	275.25
626.466	294.25
626.673	283.25
626.879	287.25
627.086	293.25
627.293	303.25
627.499	299.25
627.706	319.25
627.912	321.25
628.119	308.25
628.325	325.25
628.532	313.25
628.738	327.25
628.945	311.25
629.151	302.25
629.357	325.25
629.564	308.25
629.77	297.25
629.976	303.25
630.183	287.25
630.389	288.25
630.595	307.25
630.802	301.25
631.008	312.25
631.214	291.25
631.42	291.25
631.627	299.25
631.833	281.25
632.039	280.25
632.245	297.25
632.451	282.25
632.657	280.25
632.863	269.25
633.069	280.25
633.275	299.25
633.481	269.25
633.688	276.25
633.893	265.25
634.099	264.25
634.305	265.25
634.511	276.25
634.717	262.25
634.923	253.25
635.129	249.25
635.335	265.25
635.541	262.25
635.747	282.25
635.952	279.25
636.158	279.25
636.364	276.25
636.57	271.25
636.775	262.25
636.981	268.25
637.187	269.25
637.392	260.25
637.598	265.25
637.804	263.25
638.009	282.25
638.215	271.25
638.421	274.25
638.626	265.25
638.832	253.25
639.037	251.25
639.243	272.25
639.448	262.25
639.654	260.25
639.859	265.25
640.065	265.25
640.27	290.25
640.475	272.25
640.681	252.25
640.886	260.25
641.091	262.25
641.297	252.25
641.502	266.25
641.707	263.25
641.913	259.25
642.118	279.25
642.323	273.25
642.528	267.25
642.733	242.25
642.939	266.25
643.144	261.25
643.349	279.25
643.554	266.25
643.759	233.25
643.964	255.25
644.169	243.25
644.374	244.25
644.579	259.25
644.784	258.25
644.989	251.25
645.194	233.25
645.399	239.25
645.604	242.25
645.809	274.25
646.014	254.25
646.219	256.25
646.423	247.25
646.628	253.25
646.833	259.25
647.038	247.25
647.243	254.25
647.447	262.25
647.652	265.25
647.857	246.25
648.062	249.25
648.266	257.25
648.471	253.25
648.676	262.25
648.88	254.25
649.085	247.25
649.289	261.25
649.494	253.25
649.698	256.25
649.903	252.25
650.107	244.25
650.312	253.25
650.516	233.25
650.721	233.25
650.925	261.25
651.13	229.25
651.334	241.25
651.539	226.25
651.743	232.25
651.947	240.25
652.152	214.25
652.356	213.25
652.56	219.25
652.764	215.25
652.969	219.25
653.173	230.25
653.377	217.25
653.581	218.25
653.785	217.25
653.99	232.25
654.194	212.25
654.398	202.25
654.602	212.25
654.806	209.25
655.01	226.25
655.214	213.25
655.418	223.25
655.622	222.25
655.826	226.25
656.03	235.25
656.234	231.25
656.438	255.25
656.642	247.25
656.846	248.25
657.049	221.25
657.253	201.25
657.457	191.25
657.661	181.25
657.865	175.25
658.068	152.25
658.272	165.25
658.476	158.25
658.68	167.25
658.883	123.25
659.087	143.25
659.291	149.25
659.494	131.25
659.698	136.25
659.901	129.25
660.105	136.25
660.309	111.25
660.512	124.25
660.716	117.25
660.919	116.25
661.123	127.25
661.326	101.25
661.53	95.25
661.733	103.25
661.936	94.25
662.14	109.25
662.343	96.25
662.546	94.25
662.75	100.25
662.953	83.25
663.156	74.25
663.36	91.25
663.563	97.25
663.766	82.25
663.969	80.25
664.173	83.25
664.376	74.25
664.579	62.25
664.782	70.25
664.985	81.25
665.188	83.25
665.391	62.25
665.594	80.25
665.797	79.25
666	78.25
666.203	76.25
666.406	72.25
666.609	73.25
666.812	72.25
667.015	84.25
667.218	77.25
667.421	85.25
667.624	77.25
667.827	79.25
668.03	71.25
668.232	79.25
668.435	76.25
668.638	84.25
668.841	83.25
669.043	70.25
669.246	51.25
669.449	84.25
669.651	80.25
669.854	75.25
670.057	68.25
670.259	88.25
670.462	80.25
670.665	76.25
670.867	84.25
671.07	77.25
671.272	84.25
671.475	81.25
671.677	71.25
671.88	74.25
672.082	79.25
672.284	65.25
672.487	72.25
672.689	76.25
672.892	84.25
