Data from WStandard_LampEnergy10_LIBS07252019.E.O._I.C._HRD10591_15-54-54-928.txt Node
Date: Thu Jul 25 15:54:54 EDT 2019
User: cochatt
Spectrometer: HR+D1059
Trigger mode: 1
Integration Time (sec): 1.000000E-1
Scans to average: 1
Electric dark correction enabled: true
Nonlinearity correction enabled: false
Boxcar width: 0
XAxis mode: Wavelengths
Number of Pixels in Spectrum: 2048
>>>>>Begin Spectral Data<<<<<
223.165	-9.62
223.4	-9.62
223.635	-9.62
223.869	-35.62
224.104	-26.62
224.338	4.38
224.573	-14.62
224.808	10.38
225.042	-7.62
225.277	-6.62
225.511	-11.62
225.746	-2.62
225.98	12.38
226.215	10.38
226.449	28.38
226.683	16.38
226.918	10.38
227.152	22.38
227.387	34.38
227.621	40.38
227.856	41.38
228.09	49.38
228.324	61.38
228.559	45.38
228.793	82.38
229.027	132.38
229.262	130.38
229.496	140.38
229.73	165.38
229.964	166.38
230.199	163.38
230.433	183.38
230.667	174.38
230.901	194.38
231.136	166.38
231.37	177.38
231.604	168.38
231.838	176.38
232.072	173.38
232.306	167.38
232.541	184.38
232.775	206.38
233.009	203.38
233.243	205.38
233.477	197.38
233.711	195.38
233.945	215.38
234.179	210.38
234.413	210.38
234.647	210.38
234.881	197.38
235.115	196.38
235.349	196.38
235.583	187.38
235.817	201.38
236.051	184.38
236.285	195.38
236.519	206.38
236.753	218.38
236.987	210.38
237.221	228.38
237.455	242.38
237.689	230.38
237.922	202.38
238.156	213.38
238.39	211.38
238.624	218.38
238.858	252.38
239.091	237.38
239.325	268.38
239.559	305.38
239.793	278.38
240.027	288.38
240.26	283.38
240.494	233.38
240.728	229.38
240.961	232.38
241.195	221.38
241.429	247.38
241.662	248.38
241.896	242.38
242.13	244.38
242.363	280.38
242.597	263.38
242.83	272.38
243.064	276.38
243.298	287.38
243.531	270.38
243.765	293.38
243.998	294.38
244.232	252.38
244.465	283.38
244.699	260.38
244.932	292.38
245.166	310.38
245.399	299.38
245.633	276.38
245.866	269.38
246.099	273.38
246.333	308.38
246.566	303.38
246.8	323.38
247.033	329.38
247.266	312.38
247.5	316.38
247.733	325.38
247.966	313.38
248.2	367.38
248.433	340.38
248.666	362.38
248.899	380.38
249.133	446.38
249.366	462.38
249.599	401.38
249.832	368.38
250.066	372.38
250.299	380.38
250.532	357.38
250.765	308.38
250.998	338.38
251.231	340.38
251.465	337.38
251.698	342.38
251.931	352.38
252.164	344.38
252.397	369.38
252.63	369.38
252.863	328.38
253.096	346.38
253.329	340.38
253.562	342.38
253.795	355.38
254.028	351.38
254.261	343.38
254.494	336.38
254.727	315.38
254.96	353.38
255.193	378.38
255.426	414.38
255.659	445.38
255.892	467.38
256.124	390.38
256.357	382.38
256.59	386.38
256.823	416.38
257.056	408.38
257.289	481.38
257.521	525.38
257.754	459.38
257.987	453.38
258.22	477.38
258.452	444.38
258.685	406.38
258.918	400.38
259.151	398.38
259.383	368.38
259.616	326.38
259.849	352.38
260.081	403.38
260.314	432.38
260.547	517.38
260.779	471.38
261.012	440.38
261.244	421.38
261.477	390.38
261.71	421.38
261.942	407.38
262.175	404.38
262.407	398.38
262.64	381.38
262.872	377.38
263.105	369.38
263.337	378.38
263.57	371.38
263.802	382.38
264.035	358.38
264.267	343.38
264.499	338.38
264.732	374.38
264.964	396.38
265.197	402.38
265.429	420.38
265.661	459.38
265.894	483.38
266.126	498.38
266.358	467.38
266.591	465.38
266.823	477.38
267.055	453.38
267.287	468.38
267.52	471.38
267.752	432.38
267.984	432.38
268.216	459.38
268.448	444.38
268.681	456.38
268.913	434.38
269.145	394.38
269.377	397.38
269.609	437.38
269.841	525.38
270.073	591.38
270.306	617.38
270.538	617.38
270.77	551.38
271.002	493.38
271.234	471.38
271.466	476.38
271.698	519.38
271.93	578.38
272.162	585.38
272.394	546.38
272.626	493.38
272.858	456.38
273.09	428.38
273.322	410.38
273.553	396.38
273.785	408.38
274.017	422.38
274.249	439.38
274.481	446.38
274.713	409.38
274.945	394.38
275.176	411.38
275.408	388.38
275.64	397.38
275.872	421.38
276.104	440.38
276.335	492.38
276.567	514.38
276.799	509.38
277.031	483.38
277.262	491.38
277.494	479.38
277.726	519.38
277.957	525.38
278.189	458.38
278.421	428.38
278.652	440.38
278.884	439.38
279.115	444.38
279.347	437.38
279.579	424.38
279.81	425.38
280.042	468.38
280.273	515.38
280.505	503.38
280.736	486.38
280.968	478.38
281.199	426.38
281.431	428.38
281.662	420.38
281.894	425.38
282.125	439.38
282.356	445.38
282.588	458.38
282.819	454.38
283.051	508.38
283.282	518.38
283.513	482.38
283.745	434.38
283.976	421.38
284.207	437.38
284.439	438.38
284.67	467.38
284.901	451.38
285.132	443.38
285.364	453.38
285.595	453.38
285.826	453.38
286.057	461.38
286.288	464.38
286.52	465.38
286.751	500.38
286.982	506.38
287.213	455.38
287.444	433.38
287.675	439.38
287.906	467.38
288.138	478.38
288.369	470.38
288.6	445.38
288.831	445.38
289.062	440.38
289.293	450.38
289.524	448.38
289.755	457.38
289.986	491.38
290.217	437.38
290.448	458.38
290.679	456.38
290.91	456.38
291.141	480.38
291.371	500.38
291.602	493.38
291.833	498.38
292.064	507.38
292.295	502.38
292.526	520.38
292.757	488.38
292.987	481.38
293.218	485.38
293.449	524.38
293.68	567.38
293.91	611.38
294.141	552.38
294.372	530.38
294.603	552.38
294.833	565.38
295.064	541.38
295.295	494.38
295.525	478.38
295.756	457.38
295.987	448.38
296.217	432.38
296.448	449.38
296.679	466.38
296.909	458.38
297.14	457.38
297.37	474.38
297.601	516.38
297.831	504.38
298.062	493.38
298.292	490.38
298.523	455.38
298.753	477.38
298.984	465.38
299.214	489.38
299.445	513.38
299.675	492.38
299.905	474.38
300.136	470.38
300.366	475.38
300.597	457.38
300.827	473.38
301.057	497.38
301.288	510.38
301.518	517.38
301.748	512.38
301.979	546.38
302.209	561.38
302.439	578.38
302.669	594.38
302.9	541.38
303.13	513.38
303.36	515.38
303.59	529.38
303.82	516.38
304.051	521.38
304.281	524.38
304.511	499.38
304.741	573.38
304.971	635.38
305.201	641.38
305.431	564.38
305.661	501.38
305.891	438.38
306.121	464.38
306.352	498.38
306.582	516.38
306.812	538.38
307.042	586.38
307.272	584.38
307.502	601.38
307.731	615.38
307.961	621.38
308.191	591.38
308.421	539.38
308.651	488.38
308.881	499.38
309.111	501.38
309.341	478.38
309.571	506.38
309.8	474.38
310.03	505.38
310.26	506.38
310.49	484.38
310.72	514.38
310.949	549.38
311.179	521.38
311.409	520.38
311.639	512.38
311.868	524.38
312.098	498.38
312.328	510.38
312.557	515.38
312.787	503.38
313.017	530.38
313.246	525.38
313.476	516.38
313.706	544.38
313.935	512.38
314.165	533.38
314.394	554.38
314.624	593.38
314.853	620.38
315.083	616.38
315.312	620.38
315.542	573.38
315.771	519.38
316.001	562.38
316.23	579.38
316.46	556.38
316.689	549.38
316.919	553.38
317.148	513.38
317.377	541.38
317.607	578.38
317.836	643.38
318.065	639.38
318.295	614.38
318.524	585.38
318.753	572.38
318.983	557.38
319.212	554.38
319.441	532.38
319.67	553.38
319.9	555.38
320.129	617.38
320.358	617.38
320.587	615.38
320.816	624.38
321.046	596.38
321.275	564.38
321.504	587.38
321.733	617.38
321.962	602.38
322.191	577.38
322.42	548.38
322.649	548.38
322.878	573.38
323.108	565.38
323.337	594.38
323.566	578.38
323.795	576.38
324.024	571.38
324.253	571.38
324.482	572.38
324.71	536.38
324.939	542.38
325.168	550.38
325.397	584.38
325.626	580.38
325.855	583.38
326.084	565.38
326.313	551.38
326.542	578.38
326.77	603.38
326.999	577.38
327.228	538.38
327.457	527.38
327.686	535.38
327.914	569.38
328.143	567.38
328.372	552.38
328.6	558.38
328.829	549.38
329.058	561.38
329.287	546.38
329.515	566.38
329.744	597.38
329.972	626.38
330.201	634.38
330.43	605.38
330.658	590.38
330.887	592.38
331.115	579.38
331.344	608.38
331.572	597.38
331.801	576.38
332.03	595.38
332.258	612.38
332.486	599.38
332.715	634.38
332.943	599.38
333.172	564.38
333.4	608.38
333.629	620.38
333.857	666.38
334.085	726.38
334.314	809.38
334.542	855.38
334.771	760.38
334.999	672.38
335.227	634.38
335.455	624.38
335.684	629.38
335.912	660.38
336.14	637.38
336.369	636.38
336.597	600.38
336.825	600.38
337.053	635.38
337.281	676.38
337.51	692.38
337.738	686.38
337.966	658.38
338.194	633.38
338.422	624.38
338.65	588.38
338.878	583.38
339.106	549.38
339.334	560.38
339.562	550.38
339.79	589.38
340.018	632.38
340.246	638.38
340.474	596.38
340.702	611.38
340.93	626.38
341.158	596.38
341.386	584.38
341.614	607.38
341.842	597.38
342.07	597.38
342.298	615.38
342.526	584.38
342.754	588.38
342.981	615.38
343.209	596.38
343.437	592.38
343.665	594.38
343.893	611.38
344.12	637.38
344.348	629.38
344.576	620.38
344.804	599.38
345.031	624.38
345.259	606.38
345.487	564.38
345.714	586.38
345.942	556.38
346.17	577.38
346.397	580.38
346.625	564.38
346.853	539.38
347.08	530.38
347.308	562.38
347.535	585.38
347.763	585.38
347.99	572.38
348.218	563.38
348.445	567.38
348.673	569.38
348.9	597.38
349.128	592.38
349.355	596.38
349.583	601.38
349.81	574.38
350.037	520.38
350.265	532.38
350.492	548.38
350.72	541.38
350.947	578.38
351.174	594.38
351.402	545.38
351.629	519.38
351.856	529.38
352.083	543.38
352.311	554.38
352.538	541.38
352.765	581.38
352.992	590.38
353.22	583.38
353.447	536.38
353.674	571.38
353.901	562.38
354.128	575.38
354.355	549.38
354.583	570.38
354.81	574.38
355.037	580.38
355.264	572.38
355.491	572.38
355.718	573.38
355.945	558.38
356.172	568.38
356.399	568.38
356.626	553.38
356.853	579.38
357.08	640.38
357.307	718.38
357.534	662.38
357.761	562.38
357.988	550.38
358.215	535.38
358.441	519.38
358.668	538.38
358.895	556.38
359.122	610.38
359.349	644.38
359.576	604.38
359.802	552.38
360.029	529.38
360.256	546.38
360.483	562.38
360.709	586.38
360.936	596.38
361.163	605.38
361.39	681.38
361.616	715.38
361.843	685.38
362.07	626.38
362.296	578.38
362.523	543.38
362.749	562.38
362.976	594.38
363.203	580.38
363.429	554.38
363.656	544.38
363.882	599.38
364.109	659.38
364.335	667.38
364.562	643.38
364.788	592.38
365.015	560.38
365.241	537.38
365.468	581.38
365.694	617.38
365.92	630.38
366.147	570.38
366.373	548.38
366.599	539.38
366.826	560.38
367.052	573.38
367.278	578.38
367.505	600.38
367.731	602.38
367.957	605.38
368.184	619.38
368.41	659.38
368.636	667.38
368.862	679.38
369.089	648.38
369.315	652.38
369.541	615.38
369.767	590.38
369.993	592.38
370.219	614.38
370.445	603.38
370.672	676.38
370.898	678.38
371.124	644.38
371.35	624.38
371.576	630.38
371.802	669.38
372.028	636.38
372.254	635.38
372.48	593.38
372.706	596.38
372.932	629.38
373.158	630.38
373.384	598.38
373.61	639.38
373.835	646.38
374.061	617.38
374.287	636.38
374.513	633.38
374.739	614.38
374.965	640.38
375.191	636.38
375.416	647.38
375.642	656.38
375.868	690.38
376.094	732.38
376.319	678.38
376.545	628.38
376.771	652.38
376.997	678.38
377.222	697.38
377.448	690.38
377.674	677.38
377.899	683.38
378.125	722.38
378.35	712.38
378.576	636.38
378.802	626.38
379.027	619.38
379.253	635.38
379.478	633.38
379.704	652.38
379.929	620.38
380.155	650.38
380.38	644.38
380.606	637.38
380.831	667.38
381.057	711.38
381.282	697.38
381.507	709.38
381.733	728.38
381.958	755.38
382.184	683.38
382.409	676.38
382.634	698.38
382.86	680.38
383.085	701.38
383.31	707.38
383.535	770.38
383.761	777.38
383.986	725.38
384.211	752.38
384.436	714.38
384.662	734.38
384.887	783.38
385.112	737.38
385.337	733.38
385.562	758.38
385.787	731.38
386.013	749.38
386.238	743.38
386.463	756.38
386.688	821.38
386.913	857.38
387.138	832.38
387.363	779.38
387.588	758.38
387.813	738.38
388.038	785.38
388.263	826.38
388.488	769.38
388.713	730.38
388.938	749.38
389.163	729.38
389.387	745.38
389.612	722.38
389.837	766.38
390.062	738.38
390.287	753.38
390.512	778.38
390.736	729.38
390.961	717.38
391.186	724.38
391.411	733.38
391.636	772.38
391.86	764.38
392.085	758.38
392.31	752.38
392.534	747.38
392.759	765.38
392.984	749.38
393.208	766.38
393.433	769.38
393.658	798.38
393.882	805.38
394.107	754.38
394.331	775.38
394.556	803.38
394.78	807.38
395.005	798.38
395.229	857.38
395.454	890.38
395.678	872.38
395.903	812.38
396.127	829.38
396.352	831.38
396.576	829.38
396.801	837.38
397.025	825.38
397.249	844.38
397.474	802.38
397.698	822.38
397.922	834.38
398.147	860.38
398.371	944.38
398.595	920.38
398.82	850.38
399.044	851.38
399.268	938.38
399.492	990.38
399.717	981.38
399.941	980.38
400.165	988.38
400.389	955.38
400.613	982.38
400.837	1141.38
401.062	1217.38
401.286	1006.38
401.51	989.38
401.734	1000.38
401.958	931.38
402.182	904.38
402.406	880.38
402.63	884.38
402.854	861.38
403.078	884.38
403.302	902.38
403.526	917.38
403.75	928.38
403.974	928.38
404.198	928.38
404.422	981.38
404.645	1005.38
404.869	976.38
405.093	876.38
405.317	881.38
405.541	892.38
405.765	932.38
405.988	905.38
406.212	946.38
406.436	960.38
406.66	987.38
406.883	1009.38
407.107	1112.38
407.331	1192.38
407.555	1294.38
407.778	1155.38
408.002	979.38
408.226	938.38
408.449	969.38
408.673	933.38
408.896	928.38
409.12	953.38
409.344	928.38
409.567	906.38
409.791	904.38
410.014	964.38
410.238	1037.38
410.461	1059.38
410.685	966.38
410.908	907.38
411.132	934.38
411.355	930.38
411.578	930.38
411.802	935.38
412.025	945.38
412.249	910.38
412.472	908.38
412.695	914.38
412.919	918.38
413.142	903.38
413.365	936.38
413.589	939.38
413.812	984.38
414.035	983.38
414.258	937.38
414.482	918.38
414.705	900.38
414.928	933.38
415.151	917.38
415.374	922.38
415.597	953.38
415.821	970.38
416.044	938.38
416.267	940.38
416.49	929.38
416.713	916.38
416.936	957.38
417.159	968.38
417.382	960.38
417.605	966.38
417.828	961.38
418.051	932.38
418.274	917.38
418.497	925.38
418.72	915.38
418.943	958.38
419.166	948.38
419.389	994.38
419.611	944.38
419.834	940.38
420.057	966.38
420.28	935.38
420.503	936.38
420.726	965.38
420.948	966.38
421.171	910.38
421.394	947.38
421.617	968.38
421.839	985.38
422.062	1000.38
422.285	958.38
422.507	926.38
422.73	920.38
422.953	892.38
423.175	896.38
423.398	908.38
423.621	922.38
423.843	949.38
424.066	1001.38
424.288	1011.38
424.511	1042.38
424.733	1015.38
424.956	920.38
425.178	912.38
425.401	896.38
425.623	955.38
425.846	938.38
426.068	956.38
426.291	948.38
426.513	956.38
426.735	940.38
426.958	1068.38
427.18	1063.38
427.402	995.38
427.625	1032.38
427.847	1011.38
428.069	938.38
428.292	929.38
428.514	926.38
428.736	894.38
428.958	875.38
429.181	940.38
429.403	1086.38
429.625	1213.38
429.847	1051.38
430.069	933.38
430.292	1053.38
430.514	1018.38
430.736	987.38
430.958	950.38
431.18	914.38
431.402	909.38
431.624	870.38
431.846	802.38
432.068	743.38
432.29	730.38
432.512	813.38
432.734	878.38
432.956	914.38
433.178	959.38
433.4	952.38
433.622	973.38
433.844	895.38
434.066	872.38
434.287	796.38
434.509	806.38
434.731	835.38
434.953	924.38
435.175	932.38
435.397	905.38
435.618	865.38
435.84	834.38
436.062	823.38
436.284	900.38
436.505	921.38
436.727	931.38
436.949	916.38
437.17	905.38
437.392	901.38
437.614	853.38
437.835	796.38
438.057	825.38
438.278	828.38
438.5	861.38
438.721	894.38
438.943	877.38
439.165	914.38
439.386	910.38
439.608	944.38
439.829	960.38
440.05	918.38
440.272	948.38
440.493	931.38
440.715	964.38
440.936	1020.38
441.158	1049.38
441.379	1034.38
441.6	1033.38
441.822	1005.38
442.043	1003.38
442.264	999.38
442.486	955.38
442.707	950.38
442.928	984.38
443.149	988.38
443.371	1009.38
443.592	1033.38
443.813	1018.38
444.034	1003.38
444.255	1004.38
444.476	1020.38
444.698	1050.38
444.919	1042.38
445.14	1174.38
445.361	1098.38
445.582	1097.38
445.803	1035.38
446.024	1024.38
446.245	1089.38
446.466	1082.38
446.687	1033.38
446.908	1053.38
447.129	1003.38
447.35	997.38
447.571	993.38
447.792	951.38
448.013	935.38
448.234	989.38
448.455	967.38
448.675	988.38
448.896	947.38
449.117	907.38
449.338	916.38
449.559	932.38
449.779	979.38
450	1004.38
450.221	1039.38
450.442	1047.38
450.662	966.38
450.883	904.38
451.104	882.38
451.324	870.38
451.545	900.38
451.766	861.38
451.986	844.38
452.207	813.38
452.428	794.38
452.648	779.38
452.869	782.38
453.089	800.38
453.31	766.38
453.53	782.38
453.751	739.38
453.971	696.38
454.192	726.38
454.412	798.38
454.633	760.38
454.853	795.38
455.073	769.38
455.294	784.38
455.514	745.38
455.734	782.38
455.955	776.38
456.175	757.38
456.395	712.38
456.616	754.38
456.836	752.38
457.056	723.38
457.276	726.38
457.497	693.38
457.717	692.38
457.937	713.38
458.157	716.38
458.377	684.38
458.598	659.38
458.818	664.38
459.038	725.38
459.258	716.38
459.478	706.38
459.698	721.38
459.918	741.38
460.138	812.38
460.358	825.38
460.578	831.38
460.798	846.38
461.018	882.38
461.238	879.38
461.458	847.38
461.678	852.38
461.898	813.38
462.118	802.38
462.338	844.38
462.558	851.38
462.777	842.38
462.997	882.38
463.217	886.38
463.437	884.38
463.657	856.38
463.876	844.38
464.096	827.38
464.316	852.38
464.536	865.38
464.755	874.38
464.975	874.38
465.195	872.38
465.414	913.38
465.634	875.38
465.854	903.38
466.073	949.38
466.293	956.38
466.512	875.38
466.732	882.38
466.951	906.38
467.171	907.38
467.391	857.38
467.61	862.38
467.829	893.38
468.049	980.38
468.268	1059.38
468.488	915.38
468.707	919.38
468.927	934.38
469.146	875.38
469.365	922.38
469.585	914.38
469.804	908.38
470.023	939.38
470.243	958.38
470.462	927.38
470.681	899.38
470.901	914.38
471.12	962.38
471.339	930.38
471.558	907.38
471.777	907.38
471.997	897.38
472.216	847.38
472.435	788.38
472.654	768.38
472.873	805.38
473.092	848.38
473.311	818.38
473.53	794.38
473.749	813.38
473.968	854.38
474.187	858.38
474.406	870.38
474.625	845.38
474.844	898.38
475.063	859.38
475.282	892.38
475.501	822.38
475.72	828.38
475.939	915.38
476.158	877.38
476.377	869.38
476.596	851.38
476.814	805.38
477.033	821.38
477.252	847.38
477.471	899.38
477.69	900.38
477.908	930.38
478.127	963.38
478.346	996.38
478.564	997.38
478.783	1018.38
479.002	1001.38
479.22	992.38
479.439	1059.38
479.658	1032.38
479.876	989.38
480.095	896.38
480.313	910.38
480.532	870.38
480.751	874.38
480.969	820.38
481.188	769.38
481.406	777.38
481.624	781.38
481.843	794.38
482.061	807.38
482.28	899.38
482.498	884.38
482.717	859.38
482.935	893.38
483.153	944.38
483.372	1011.38
483.59	1035.38
483.808	957.38
484.027	935.38
484.245	1005.38
484.463	1220.38
484.681	1297.38
484.9	998.38
485.118	945.38
485.336	954.38
485.554	896.38
485.772	895.38
485.99	891.38
486.209	902.38
486.427	904.38
486.645	954.38
486.863	1005.38
487.081	1054.38
487.299	995.38
487.517	1016.38
487.735	1091.38
487.953	1173.38
488.171	1194.38
488.389	1136.38
488.607	1104.38
488.825	1120.38
489.043	1062.38
489.261	998.38
489.479	1041.38
489.696	1078.38
489.914	1032.38
490.132	1070.38
490.35	1095.38
490.568	1154.38
490.786	1234.38
491.003	1197.38
491.221	1240.38
491.439	1295.38
491.657	1288.38
491.874	1346.38
492.092	1396.38
492.31	1514.38
492.527	1418.38
492.745	1352.38
492.963	1312.38
493.18	1323.38
493.398	1355.38
493.615	1353.38
493.833	1283.38
494.05	1233.38
494.268	1233.38
494.485	1238.38
494.703	1245.38
494.92	1193.38
495.138	1240.38
495.355	1221.38
495.573	1269.38
495.79	1301.38
496.008	1267.38
496.225	1253.38
496.442	1231.38
496.66	1220.38
496.877	1232.38
497.094	1241.38
497.312	1225.38
497.529	1208.38
497.746	1214.38
497.963	1272.38
498.181	1292.38
498.398	1248.38
498.615	1189.38
498.832	1186.38
499.049	1181.38
499.267	1173.38
499.484	1244.38
499.701	1338.38
499.918	1354.38
500.135	1466.38
500.352	1571.38
500.569	1571.38
500.786	1668.38
501.003	1546.38
501.22	1460.38
501.437	1444.38
501.654	1439.38
501.871	1340.38
502.088	1176.38
502.305	1206.38
502.522	1136.38
502.739	1109.38
502.956	1086.38
503.172	1058.38
503.389	1037.38
503.606	1030.38
503.823	1025.38
504.04	1004.38
504.256	1014.38
504.473	1026.38
504.69	1036.38
504.907	968.38
505.123	998.38
505.34	1052.38
505.557	1342.38
505.773	1104.38
505.99	958.38
506.207	889.38
506.423	919.38
506.64	869.38
506.856	920.38
507.073	1030.38
507.289	1054.38
507.506	1006.38
507.722	887.38
507.939	869.38
508.155	871.38
508.372	865.38
508.588	809.38
508.805	808.38
509.021	781.38
509.238	771.38
509.454	774.38
509.67	761.38
509.887	749.38
510.103	732.38
510.319	759.38
510.536	772.38
510.752	792.38
510.968	743.38
511.184	796.38
511.401	772.38
511.617	732.38
511.833	710.38
512.049	709.38
512.265	715.38
512.481	706.38
512.698	764.38
512.914	747.38
513.13	742.38
513.346	715.38
513.562	722.38
513.778	701.38
513.994	737.38
514.21	744.38
514.426	786.38
514.642	824.38
514.858	766.38
515.074	722.38
515.29	713.38
515.506	739.38
515.721	739.38
515.937	757.38
516.153	822.38
516.369	806.38
516.585	758.38
516.801	745.38
517.016	744.38
517.232	769.38
517.448	788.38
517.664	807.38
517.879	780.38
518.095	837.38
518.311	794.38
518.527	758.38
518.742	752.38
518.958	745.38
519.173	772.38
519.389	793.38
519.605	800.38
519.82	800.38
520.036	808.38
520.251	771.38
520.467	760.38
520.682	824.38
520.898	764.38
521.113	717.38
521.329	720.38
521.544	788.38
521.76	731.38
521.975	722.38
522.19	718.38
522.406	726.38
522.621	957.38
522.836	886.38
523.052	713.38
523.267	770.38
523.482	757.38
523.698	735.38
523.913	745.38
524.128	764.38
524.343	818.38
524.559	818.38
524.774	777.38
524.989	776.38
525.204	770.38
525.419	733.38
525.634	713.38
525.849	753.38
526.064	736.38
526.28	726.38
526.495	682.38
526.71	670.38
526.925	634.38
527.14	634.38
527.355	646.38
527.57	634.38
527.785	661.38
527.999	657.38
528.214	664.38
528.429	672.38
528.644	727.38
528.859	811.38
529.074	823.38
529.289	850.38
529.503	868.38
529.718	824.38
529.933	716.38
530.148	659.38
530.363	647.38
530.577	626.38
530.792	608.38
531.007	615.38
531.221	652.38
531.436	638.38
531.651	653.38
531.865	657.38
532.08	645.38
532.295	642.38
532.509	633.38
532.724	616.38
532.938	662.38
533.153	727.38
533.367	724.38
533.582	746.38
533.796	730.38
534.011	719.38
534.225	680.38
534.44	617.38
534.654	634.38
534.868	632.38
535.083	684.38
535.297	690.38
535.511	671.38
535.726	678.38
535.94	681.38
536.154	660.38
536.369	642.38
536.583	619.38
536.797	598.38
537.011	624.38
537.225	604.38
537.44	620.38
537.654	654.38
537.868	638.38
538.082	595.38
538.296	624.38
538.51	634.38
538.724	651.38
538.938	700.38
539.153	740.38
539.367	752.38
539.581	684.38
539.795	665.38
540.009	658.38
540.222	630.38
540.436	686.38
540.65	756.38
540.864	816.38
541.078	817.38
541.292	814.38
541.506	873.38
541.72	986.38
541.934	1031.38
542.147	1078.38
542.361	992.38
542.575	909.38
542.789	829.38
543.002	770.38
543.216	744.38
543.43	773.38
543.644	792.38
543.857	879.38
544.071	910.38
544.285	912.38
544.498	915.38
544.712	946.38
544.925	952.38
545.139	948.38
545.352	939.38
545.566	931.38
545.779	940.38
545.993	962.38
546.206	965.38
546.42	969.38
546.633	939.38
546.847	944.38
547.06	957.38
547.274	973.38
547.487	999.38
547.7	1004.38
547.914	939.38
548.127	974.38
548.34	949.38
548.554	930.38
548.767	916.38
548.98	958.38
549.193	916.38
549.407	935.38
549.62	937.38
549.833	936.38
550.046	927.38
550.259	915.38
550.473	890.38
550.686	898.38
550.899	868.38
551.112	847.38
551.325	814.38
551.538	831.38
551.751	870.38
551.964	697.38
552.177	740.38
552.39	808.38
552.603	828.38
552.816	872.38
553.029	891.38
553.242	907.38
553.455	912.38
553.667	899.38
553.88	923.38
554.093	887.38
554.306	869.38
554.519	854.38
554.732	810.38
554.944	843.38
555.157	832.38
555.37	826.38
555.583	789.38
555.795	779.38
556.008	768.38
556.221	730.38
556.433	712.38
556.646	738.38
556.859	746.38
557.071	730.38
557.284	736.38
557.496	752.38
557.709	735.38
557.921	737.38
558.134	746.38
558.346	708.38
558.559	705.38
558.771	731.38
558.984	716.38
559.196	694.38
559.409	680.38
559.621	668.38
559.833	645.38
560.046	692.38
560.258	681.38
560.47	679.38
560.683	685.38
560.895	669.38
561.107	647.38
561.32	687.38
561.532	669.38
561.744	691.38
561.956	689.38
562.168	666.38
562.381	653.38
562.593	655.38
562.805	667.38
563.017	635.38
563.229	646.38
563.441	659.38
563.653	637.38
563.865	625.38
564.077	610.38
564.289	615.38
564.501	606.38
564.713	622.38
564.925	632.38
565.137	670.38
565.349	636.38
565.561	638.38
565.773	617.38
565.985	640.38
566.197	676.38
566.408	667.38
566.62	684.38
566.832	678.38
567.044	677.38
567.255	654.38
567.467	648.38
567.679	679.38
567.891	655.38
568.102	643.38
568.314	576.38
568.526	558.38
568.737	509.38
568.949	510.38
569.161	479.38
569.372	464.38
569.584	442.38
569.795	443.38
570.007	462.38
570.218	435.38
570.43	440.38
570.641	458.38
570.853	475.38
571.064	490.38
571.276	490.38
571.487	489.38
571.698	465.38
571.91	453.38
572.121	461.38
572.333	465.38
572.544	436.38
572.755	413.38
572.966	386.38
573.178	392.38
573.389	403.38
573.6	404.38
573.811	454.38
574.023	421.38
574.234	376.38
574.445	396.38
574.656	374.38
574.867	400.38
575.078	440.38
575.289	397.38
575.501	378.38
575.712	404.38
575.923	416.38
576.134	403.38
576.345	413.38
576.556	416.38
576.767	397.38
576.978	406.38
577.188	371.38
577.399	388.38
577.61	373.38
577.821	372.38
578.032	365.38
578.243	388.38
578.454	380.38
578.665	359.38
578.875	360.38
579.086	331.38
579.297	333.38
579.508	335.38
579.718	369.38
579.929	345.38
580.14	344.38
580.35	357.38
580.561	372.38
580.772	380.38
580.982	363.38
581.193	355.38
581.403	364.38
581.614	362.38
581.825	349.38
582.035	368.38
582.246	350.38
582.456	368.38
582.667	348.38
582.877	351.38
583.087	331.38
583.298	311.38
583.508	332.38
583.719	340.38
583.929	338.38
584.139	334.38
584.35	314.38
584.56	312.38
584.77	320.38
584.981	342.38
585.191	330.38
585.401	340.38
585.611	340.38
585.821	329.38
586.032	315.38
586.242	292.38
586.452	304.38
586.662	309.38
586.872	321.38
587.082	310.38
587.292	321.38
587.502	320.38
587.713	317.38
587.923	314.38
588.133	317.38
588.343	317.38
588.553	312.38
588.762	304.38
588.972	318.38
589.182	329.38
589.392	312.38
589.602	316.38
589.812	339.38
590.022	318.38
590.232	306.38
590.441	324.38
590.651	318.38
590.861	312.38
591.071	290.38
591.281	310.38
591.49	294.38
591.7	305.38
591.91	315.38
592.119	289.38
592.329	312.38
592.539	328.38
592.748	314.38
592.958	331.38
593.167	337.38
593.377	323.38
593.587	340.38
593.796	317.38
594.006	321.38
594.215	326.38
594.424	340.38
594.634	336.38
594.843	343.38
595.053	360.38
595.262	334.38
595.472	327.38
595.681	316.38
595.89	312.38
596.1	311.38
596.309	331.38
596.518	308.38
596.727	332.38
596.937	324.38
597.146	309.38
597.355	297.38
597.564	280.38
597.774	288.38
597.983	291.38
598.192	272.38
598.401	298.38
598.61	294.38
598.819	288.38
599.028	318.38
599.237	293.38
599.446	287.38
599.655	287.38
599.864	296.38
600.073	292.38
600.282	301.38
600.491	289.38
600.7	301.38
600.909	289.38
601.118	304.38
601.327	328.38
601.536	319.38
601.745	342.38
601.953	357.38
602.162	361.38
602.371	360.38
602.58	353.38
602.789	358.38
602.997	354.38
603.206	359.38
603.415	352.38
603.623	333.38
603.832	350.38
604.041	344.38
604.249	337.38
604.458	324.38
604.666	305.38
604.875	317.38
605.084	302.38
605.292	360.38
605.501	365.38
605.709	361.38
605.918	374.38
606.126	364.38
606.334	360.38
606.543	370.38
606.751	366.38
606.96	365.38
607.168	359.38
607.376	336.38
607.585	351.38
607.793	370.38
608.001	373.38
608.21	365.38
608.418	360.38
608.626	379.38
608.834	365.38
609.043	377.38
609.251	353.38
609.459	354.38
609.667	349.38
609.875	370.38
610.083	370.38
610.291	385.38
610.499	353.38
610.707	359.38
610.916	352.38
611.124	366.38
611.332	362.38
611.54	369.38
611.748	373.38
611.955	343.38
612.163	354.38
612.371	361.38
612.579	363.38
612.787	360.38
612.995	359.38
613.203	366.38
613.411	348.38
613.618	365.38
613.826	344.38
614.034	352.38
614.242	359.38
614.449	368.38
614.657	360.38
614.865	352.38
615.072	355.38
615.28	358.38
615.488	364.38
615.695	378.38
615.903	348.38
616.111	347.38
616.318	382.38
616.526	378.38
616.733	350.38
616.941	350.38
617.148	364.38
617.356	359.38
617.563	345.38
617.771	337.38
617.978	341.38
618.185	334.38
618.393	368.38
618.6	339.38
618.807	334.38
619.015	359.38
619.222	321.38
619.429	351.38
619.637	321.38
619.844	294.38
620.051	313.38
620.258	316.38
620.466	310.38
620.673	333.38
620.88	321.38
621.087	321.38
621.294	296.38
621.501	302.38
621.708	288.38
621.915	317.38
622.122	328.38
622.329	324.38
622.536	333.38
622.743	315.38
622.95	338.38
623.157	330.38
623.364	334.38
623.571	341.38
623.778	327.38
623.985	334.38
624.192	312.38
624.399	308.38
624.606	339.38
624.812	316.38
625.019	311.38
625.226	308.38
625.433	304.38
625.639	279.38
625.846	268.38
626.053	249.38
626.259	242.38
626.466	232.38
626.673	238.38
626.879	244.38
627.086	253.38
627.293	279.38
627.499	297.38
627.706	299.38
627.912	318.38
628.119	305.38
628.325	314.38
628.532	304.38
628.738	299.38
628.945	312.38
629.151	291.38
629.357	279.38
629.564	281.38
629.77	274.38
629.976	271.38
630.183	266.38
630.389	280.38
630.595	272.38
630.802	279.38
631.008	299.38
631.214	274.38
631.42	274.38
631.627	266.38
631.833	274.38
632.039	277.38
632.245	249.38
632.451	276.38
632.657	288.38
632.863	272.38
633.069	277.38
633.275	266.38
633.481	238.38
633.688	255.38
633.893	260.38
634.099	254.38
634.305	250.38
634.511	258.38
634.717	260.38
634.923	228.38
635.129	230.38
635.335	240.38
635.541	229.38
635.747	237.38
635.952	239.38
636.158	250.38
636.364	256.38
636.57	244.38
636.775	258.38
636.981	268.38
637.187	248.38
637.392	238.38
637.598	261.38
637.804	273.38
638.009	260.38
638.215	250.38
638.421	260.38
638.626	262.38
638.832	257.38
639.037	255.38
639.243	232.38
639.448	246.38
639.654	252.38
639.859	233.38
640.065	254.38
640.27	261.38
640.475	231.38
640.681	249.38
640.886	244.38
641.091	240.38
641.297	262.38
641.502	240.38
641.707	246.38
641.913	257.38
642.118	252.38
642.323	234.38
642.528	237.38
642.733	254.38
642.939	235.38
643.144	254.38
643.349	248.38
643.554	242.38
643.759	240.38
643.964	229.38
644.169	255.38
644.374	256.38
644.579	232.38
644.784	250.38
644.989	256.38
645.194	226.38
645.399	255.38
645.604	244.38
645.809	236.38
646.014	241.38
646.219	251.38
646.423	250.38
646.628	248.38
646.833	234.38
647.038	232.38
647.243	244.38
647.447	224.38
647.652	250.38
647.857	244.38
648.062	234.38
648.266	224.38
648.471	235.38
648.676	239.38
648.88	232.38
649.085	237.38
649.289	220.38
649.494	240.38
649.698	240.38
649.903	240.38
650.107	236.38
650.312	220.38
650.516	229.38
650.721	231.38
650.925	240.38
651.13	218.38
651.334	218.38
651.539	220.38
651.743	228.38
651.947	218.38
652.152	204.38
652.356	206.38
652.56	225.38
652.764	229.38
652.969	216.38
653.173	212.38
653.377	215.38
653.581	199.38
653.785	217.38
653.99	203.38
654.194	217.38
654.398	202.38
654.602	210.38
654.806	201.38
655.01	208.38
655.214	194.38
655.418	208.38
655.622	197.38
655.826	201.38
656.03	221.38
656.234	224.38
656.438	241.38
656.642	226.38
656.846	233.38
657.049	202.38
657.253	210.38
657.457	186.38
657.661	199.38
657.865	169.38
658.068	164.38
658.272	170.38
658.476	139.38
658.68	143.38
658.883	150.38
659.087	141.38
659.291	147.38
659.494	136.38
659.698	134.38
659.901	146.38
660.105	120.38
660.309	119.38
660.512	130.38
660.716	122.38
660.919	120.38
661.123	124.38
661.326	104.38
661.53	101.38
661.733	96.38
661.936	95.38
662.14	98.38
662.343	103.38
662.546	100.38
662.75	90.38
662.953	92.38
663.156	94.38
663.36	84.38
663.563	99.38
663.766	100.38
663.969	86.38
664.173	93.38
664.376	87.38
664.579	81.38
664.782	79.38
664.985	81.38
665.188	91.38
665.391	77.38
665.594	78.38
665.797	77.38
666	86.38
666.203	93.38
666.406	92.38
666.609	85.38
666.812	103.38
667.015	82.38
667.218	77.38
667.421	75.38
667.624	89.38
667.827	93.38
668.03	84.38
668.232	91.38
668.435	83.38
668.638	99.38
668.841	92.38
669.043	78.38
669.246	75.38
669.449	77.38
669.651	90.38
669.854	88.38
670.057	89.38
670.259	82.38
670.462	74.38
670.665	72.38
670.867	81.38
671.07	70.38
671.272	81.38
671.475	94.38
671.677	99.38
671.88	84.38
672.082	92.38
672.284	68.38
672.487	83.38
672.689	83.38
672.892	89.38
