Data from WStandard_LampEnergy10_LIBS07252019.E.O._I.C._HRD10591_15-55-24-928.txt Node
Date: Thu Jul 25 15:55:24 EDT 2019
User: cochatt
Spectrometer: HR+D1059
Trigger mode: 1
Integration Time (sec): 1.000000E-1
Scans to average: 1
Electric dark correction enabled: true
Nonlinearity correction enabled: false
Boxcar width: 0
XAxis mode: Wavelengths
Number of Pixels in Spectrum: 2048
>>>>>Begin Spectral Data<<<<<
223.165	-13.12
223.4	-13.12
223.635	-13.12
223.869	-14.12
224.104	-12.12
224.338	-19.12
224.573	-13.12
224.808	-12.12
225.042	-2.12
225.277	7.88
225.511	0.88
225.746	-2.12
225.98	8.88
226.215	-5.12
226.449	11.88
226.683	21.88
226.918	16.88
227.152	24.88
227.387	47.88
227.621	42.88
227.856	43.88
228.09	53.88
228.324	49.88
228.559	59.88
228.793	78.88
229.027	133.88
229.262	130.88
229.496	142.88
229.73	143.88
229.964	155.88
230.199	164.88
230.433	168.88
230.667	180.88
230.901	193.88
231.136	183.88
231.37	163.88
231.604	164.88
231.838	173.88
232.072	171.88
232.306	165.88
232.541	196.88
232.775	191.88
233.009	191.88
233.243	200.88
233.477	164.88
233.711	193.88
233.945	204.88
234.179	197.88
234.413	200.88
234.647	224.88
234.881	208.88
235.115	195.88
235.349	198.88
235.583	197.88
235.817	191.88
236.051	186.88
236.285	185.88
236.519	199.88
236.753	235.88
236.987	223.88
237.221	210.88
237.455	234.88
237.689	227.88
237.922	231.88
238.156	189.88
238.39	227.88
238.624	207.88
238.858	239.88
239.091	248.88
239.325	249.88
239.559	273.88
239.793	273.88
240.027	318.88
240.26	284.88
240.494	225.88
240.728	230.88
240.961	254.88
241.195	244.88
241.429	259.88
241.662	261.88
241.896	241.88
242.13	244.88
242.363	258.88
242.597	276.88
242.83	274.88
243.064	275.88
243.298	272.88
243.531	279.88
243.765	296.88
243.998	281.88
244.232	262.88
244.465	241.88
244.699	263.88
244.932	259.88
245.166	288.88
245.399	281.88
245.633	268.88
245.866	291.88
246.099	283.88
246.333	256.88
246.566	291.88
246.8	303.88
247.033	328.88
247.266	316.88
247.5	313.88
247.733	328.88
247.966	343.88
248.2	357.88
248.433	341.88
248.666	360.88
248.899	381.88
249.133	424.88
249.366	458.88
249.599	387.88
249.832	348.88
250.066	375.88
250.299	379.88
250.532	338.88
250.765	319.88
250.998	351.88
251.231	323.88
251.465	348.88
251.698	332.88
251.931	337.88
252.164	343.88
252.397	345.88
252.63	352.88
252.863	336.88
253.096	315.88
253.329	365.88
253.562	356.88
253.795	371.88
254.028	352.88
254.261	332.88
254.494	334.88
254.727	326.88
254.96	334.88
255.193	370.88
255.426	409.88
255.659	425.88
255.892	449.88
256.124	376.88
256.357	346.88
256.59	377.88
256.823	399.88
257.056	418.88
257.289	469.88
257.521	482.88
257.754	445.88
257.987	431.88
258.22	472.88
258.452	427.88
258.685	401.88
258.918	387.88
259.151	387.88
259.383	369.88
259.616	323.88
259.849	345.88
260.081	416.88
260.314	409.88
260.547	468.88
260.779	451.88
261.012	454.88
261.244	375.88
261.477	391.88
261.71	384.88
261.942	381.88
262.175	392.88
262.407	396.88
262.64	380.88
262.872	368.88
263.105	386.88
263.337	376.88
263.57	383.88
263.802	370.88
264.035	342.88
264.267	342.88
264.499	337.88
264.732	374.88
264.964	391.88
265.197	405.88
265.429	415.88
265.661	439.88
265.894	476.88
266.126	497.88
266.358	443.88
266.591	470.88
266.823	460.88
267.055	437.88
267.287	451.88
267.52	450.88
267.752	436.88
267.984	439.88
268.216	448.88
268.448	482.88
268.681	441.88
268.913	405.88
269.145	416.88
269.377	404.88
269.609	448.88
269.841	502.88
270.073	598.88
270.306	631.88
270.538	620.88
270.77	507.88
271.002	498.88
271.234	486.88
271.466	484.88
271.698	544.88
271.93	594.88
272.162	584.88
272.394	539.88
272.626	495.88
272.858	447.88
273.09	420.88
273.322	386.88
273.553	378.88
273.785	423.88
274.017	416.88
274.249	426.88
274.481	437.88
274.713	427.88
274.945	393.88
275.176	385.88
275.408	400.88
275.64	405.88
275.872	424.88
276.104	433.88
276.335	480.88
276.567	543.88
276.799	520.88
277.031	468.88
277.262	470.88
277.494	513.88
277.726	547.88
277.957	506.88
278.189	474.88
278.421	433.88
278.652	401.88
278.884	423.88
279.115	425.88
279.347	446.88
279.579	436.88
279.81	423.88
280.042	480.88
280.273	499.88
280.505	499.88
280.736	493.88
280.968	465.88
281.199	422.88
281.431	428.88
281.662	432.88
281.894	428.88
282.125	432.88
282.356	445.88
282.588	448.88
282.819	469.88
283.051	463.88
283.282	521.88
283.513	497.88
283.745	452.88
283.976	434.88
284.207	442.88
284.439	429.88
284.67	451.88
284.901	439.88
285.132	441.88
285.364	449.88
285.595	451.88
285.826	428.88
286.057	447.88
286.288	447.88
286.52	463.88
286.751	485.88
286.982	490.88
287.213	451.88
287.444	426.88
287.675	433.88
287.906	468.88
288.138	477.88
288.369	466.88
288.6	429.88
288.831	433.88
289.062	428.88
289.293	446.88
289.524	450.88
289.755	460.88
289.986	455.88
290.217	425.88
290.448	452.88
290.679	431.88
290.91	453.88
291.141	473.88
291.371	469.88
291.602	467.88
291.833	477.88
292.064	487.88
292.295	481.88
292.526	502.88
292.757	491.88
292.987	476.88
293.218	479.88
293.449	540.88
293.68	562.88
293.91	560.88
294.141	537.88
294.372	559.88
294.603	561.88
294.833	585.88
295.064	525.88
295.295	489.88
295.525	469.88
295.756	443.88
295.987	417.88
296.217	447.88
296.448	464.88
296.679	459.88
296.909	471.88
297.14	456.88
297.37	457.88
297.601	496.88
297.831	531.88
298.062	495.88
298.292	480.88
298.523	474.88
298.753	472.88
298.984	467.88
299.214	491.88
299.445	500.88
299.675	501.88
299.905	492.88
300.136	491.88
300.366	465.88
300.597	459.88
300.827	468.88
301.057	491.88
301.288	487.88
301.518	503.88
301.748	519.88
301.979	537.88
302.209	577.88
302.439	574.88
302.669	587.88
302.9	534.88
303.13	518.88
303.36	513.88
303.59	521.88
303.82	487.88
304.051	513.88
304.281	517.88
304.511	511.88
304.741	565.88
304.971	609.88
305.201	607.88
305.431	551.88
305.661	470.88
305.891	437.88
306.121	452.88
306.352	480.88
306.582	505.88
306.812	543.88
307.042	550.88
307.272	559.88
307.502	598.88
307.731	633.88
307.961	615.88
308.191	572.88
308.421	495.88
308.651	483.88
308.881	487.88
309.111	483.88
309.341	474.88
309.571	495.88
309.8	488.88
310.03	475.88
310.26	487.88
310.49	493.88
310.72	518.88
310.949	521.88
311.179	525.88
311.409	484.88
311.639	501.88
311.868	489.88
312.098	504.88
312.328	498.88
312.557	510.88
312.787	504.88
313.017	514.88
313.246	507.88
313.476	497.88
313.706	542.88
313.935	540.88
314.165	549.88
314.394	527.88
314.624	576.88
314.853	587.88
315.083	612.88
315.312	605.88
315.542	576.88
315.771	536.88
316.001	551.88
316.23	570.88
316.46	565.88
316.689	560.88
316.919	525.88
317.148	509.88
317.377	522.88
317.607	539.88
317.836	625.88
318.065	608.88
318.295	585.88
318.524	556.88
318.753	556.88
318.983	555.88
319.212	544.88
319.441	537.88
319.67	546.88
319.9	574.88
320.129	604.88
320.358	635.88
320.587	645.88
320.816	608.88
321.046	595.88
321.275	568.88
321.504	579.88
321.733	612.88
321.962	598.88
322.191	551.88
322.42	543.88
322.649	539.88
322.878	529.88
323.108	546.88
323.337	579.88
323.566	584.88
323.795	567.88
324.024	565.88
324.253	551.88
324.482	545.88
324.71	541.88
324.939	535.88
325.168	543.88
325.397	556.88
325.626	563.88
325.855	564.88
326.084	578.88
326.313	548.88
326.542	566.88
326.77	559.88
326.999	544.88
327.228	542.88
327.457	511.88
327.686	536.88
327.914	534.88
328.143	554.88
328.372	572.88
328.6	547.88
328.829	531.88
329.058	525.88
329.287	555.88
329.515	555.88
329.744	579.88
329.972	618.88
330.201	615.88
330.43	593.88
330.658	579.88
330.887	575.88
331.115	588.88
331.344	569.88
331.572	595.88
331.801	606.88
332.03	575.88
332.258	594.88
332.486	588.88
332.715	613.88
332.943	579.88
333.172	588.88
333.4	583.88
333.629	617.88
333.857	664.88
334.085	743.88
334.314	804.88
334.542	819.88
334.771	764.88
334.999	681.88
335.227	657.88
335.455	610.88
335.684	621.88
335.912	662.88
336.14	645.88
336.369	631.88
336.597	595.88
336.825	579.88
337.053	618.88
337.281	655.88
337.51	684.88
337.738	693.88
337.966	665.88
338.194	594.88
338.422	589.88
338.65	587.88
338.878	579.88
339.106	577.88
339.334	561.88
339.562	566.88
339.79	551.88
340.018	613.88
340.246	639.88
340.474	639.88
340.702	625.88
340.93	643.88
341.158	600.88
341.386	610.88
341.614	597.88
341.842	583.88
342.07	605.88
342.298	593.88
342.526	583.88
342.754	566.88
342.981	576.88
343.209	569.88
343.437	561.88
343.665	603.88
343.893	609.88
344.12	620.88
344.348	614.88
344.576	595.88
344.804	571.88
345.031	608.88
345.259	598.88
345.487	554.88
345.714	548.88
345.942	527.88
346.17	574.88
346.397	554.88
346.625	576.88
346.853	542.88
347.08	511.88
347.308	526.88
347.535	563.88
347.763	563.88
347.99	554.88
348.218	540.88
348.445	552.88
348.673	546.88
348.9	576.88
349.128	600.88
349.355	601.88
349.583	566.88
349.81	570.88
350.037	532.88
350.265	552.88
350.492	549.88
350.72	567.88
350.947	577.88
351.174	583.88
351.402	541.88
351.629	537.88
351.856	514.88
352.083	532.88
352.311	531.88
352.538	542.88
352.765	571.88
352.992	543.88
353.22	546.88
353.447	544.88
353.674	555.88
353.901	559.88
354.128	540.88
354.355	563.88
354.583	589.88
354.81	593.88
355.037	577.88
355.264	574.88
355.491	567.88
355.718	550.88
355.945	539.88
356.172	531.88
356.399	540.88
356.626	533.88
356.853	582.88
357.08	609.88
357.307	661.88
357.534	623.88
357.761	570.88
357.988	569.88
358.215	556.88
358.441	550.88
358.668	536.88
358.895	548.88
359.122	602.88
359.349	630.88
359.576	612.88
359.802	554.88
360.029	527.88
360.256	549.88
360.483	545.88
360.709	587.88
360.936	595.88
361.163	636.88
361.39	677.88
361.616	702.88
361.843	699.88
362.07	626.88
362.296	561.88
362.523	547.88
362.749	572.88
362.976	602.88
363.203	572.88
363.429	554.88
363.656	551.88
363.882	595.88
364.109	653.88
364.335	641.88
364.562	616.88
364.788	594.88
365.015	581.88
365.241	562.88
365.468	575.88
365.694	616.88
365.92	611.88
366.147	582.88
366.373	555.88
366.599	559.88
366.826	552.88
367.052	563.88
367.278	574.88
367.505	573.88
367.731	565.88
367.957	603.88
368.184	652.88
368.41	669.88
368.636	682.88
368.862	643.88
369.089	653.88
369.315	623.88
369.541	620.88
369.767	615.88
369.993	588.88
370.219	615.88
370.445	632.88
370.672	660.88
370.898	679.88
371.124	668.88
371.35	625.88
371.576	660.88
371.802	657.88
372.028	627.88
372.254	616.88
372.48	590.88
372.706	585.88
372.932	595.88
373.158	593.88
373.384	609.88
373.61	624.88
373.835	663.88
374.061	620.88
374.287	585.88
374.513	617.88
374.739	629.88
374.965	632.88
375.191	653.88
375.416	665.88
375.642	649.88
375.868	699.88
376.094	717.88
376.319	672.88
376.545	643.88
376.771	674.88
376.997	695.88
377.222	660.88
377.448	670.88
377.674	683.88
377.899	669.88
378.125	680.88
378.35	673.88
378.576	630.88
378.802	645.88
379.027	601.88
379.253	629.88
379.478	609.88
379.704	630.88
379.929	617.88
380.155	647.88
380.38	645.88
380.606	661.88
380.831	659.88
381.057	698.88
381.282	686.88
381.507	659.88
381.733	752.88
381.958	721.88
382.184	680.88
382.409	647.88
382.634	671.88
382.86	671.88
383.085	671.88
383.31	707.88
383.535	764.88
383.761	787.88
383.986	756.88
384.211	729.88
384.436	741.88
384.662	766.88
384.887	791.88
385.112	722.88
385.337	721.88
385.562	735.88
385.787	736.88
386.013	764.88
386.238	777.88
386.463	770.88
386.688	831.88
386.913	856.88
387.138	831.88
387.363	774.88
387.588	746.88
387.813	765.88
388.038	788.88
388.263	775.88
388.488	764.88
388.713	727.88
388.938	703.88
389.163	703.88
389.387	722.88
389.612	752.88
389.837	758.88
390.062	753.88
390.287	744.88
390.512	741.88
390.736	730.88
390.961	716.88
391.186	733.88
391.411	722.88
391.636	731.88
391.86	767.88
392.085	756.88
392.31	726.88
392.534	755.88
392.759	753.88
392.984	732.88
393.208	771.88
393.433	795.88
393.658	790.88
393.882	827.88
394.107	744.88
394.331	757.88
394.556	781.88
394.78	780.88
395.005	804.88
395.229	809.88
395.454	879.88
395.678	846.88
395.903	825.88
396.127	813.88
396.352	851.88
396.576	844.88
396.801	821.88
397.025	818.88
397.249	837.88
397.474	843.88
397.698	827.88
397.922	825.88
398.147	893.88
398.371	944.88
398.595	890.88
398.82	875.88
399.044	881.88
399.268	936.88
399.492	981.88
399.717	981.88
399.941	988.88
400.165	976.88
400.389	984.88
400.613	978.88
400.837	1124.88
401.062	1192.88
401.286	1027.88
401.51	972.88
401.734	971.88
401.958	932.88
402.182	872.88
402.406	866.88
402.63	863.88
402.854	888.88
403.078	897.88
403.302	877.88
403.526	912.88
403.75	904.88
403.974	929.88
404.198	947.88
404.422	980.88
404.645	999.88
404.869	953.88
405.093	906.88
405.317	895.88
405.541	895.88
405.765	936.88
405.988	900.88
406.212	947.88
406.436	970.88
406.66	984.88
406.883	1010.88
407.107	1117.88
407.331	1193.88
407.555	1251.88
407.778	1149.88
408.002	986.88
408.226	959.88
408.449	968.88
408.673	959.88
408.896	916.88
409.12	970.88
409.344	919.88
409.567	914.88
409.791	945.88
410.014	960.88
410.238	1026.88
410.461	1030.88
410.685	938.88
410.908	916.88
411.132	932.88
411.355	919.88
411.578	929.88
411.802	949.88
412.025	952.88
412.249	913.88
412.472	890.88
412.695	921.88
412.919	931.88
413.142	907.88
413.365	927.88
413.589	930.88
413.812	998.88
414.035	1012.88
414.258	943.88
414.482	905.88
414.705	937.88
414.928	924.88
415.151	906.88
415.374	904.88
415.597	961.88
415.821	922.88
416.044	925.88
416.267	915.88
416.49	899.88
416.713	935.88
416.936	927.88
417.159	949.88
417.382	947.88
417.605	903.88
417.828	933.88
418.051	929.88
418.274	925.88
418.497	908.88
418.72	911.88
418.943	895.88
419.166	957.88
419.389	1000.88
419.611	950.88
419.834	915.88
420.057	933.88
420.28	933.88
420.503	927.88
420.726	922.88
420.948	962.88
421.171	902.88
421.394	932.88
421.617	978.88
421.839	970.88
422.062	991.88
422.285	916.88
422.507	913.88
422.73	879.88
422.953	868.88
423.175	897.88
423.398	902.88
423.621	913.88
423.843	927.88
424.066	976.88
424.288	1034.88
424.511	1034.88
424.733	999.88
424.956	904.88
425.178	933.88
425.401	905.88
425.623	926.88
425.846	920.88
426.068	966.88
426.291	934.88
426.513	927.88
426.735	964.88
426.958	1017.88
427.18	1037.88
427.402	972.88
427.625	1027.88
427.847	972.88
428.069	913.88
428.292	913.88
428.514	924.88
428.736	906.88
428.958	908.88
429.181	920.88
429.403	1069.88
429.625	1238.88
429.847	1059.88
430.069	941.88
430.292	1039.88
430.514	1008.88
430.736	947.88
430.958	956.88
431.18	916.88
431.402	870.88
431.624	812.88
431.846	784.88
432.068	727.88
432.29	724.88
432.512	757.88
432.734	871.88
432.956	937.88
433.178	964.88
433.4	928.88
433.622	939.88
433.844	907.88
434.066	840.88
434.287	778.88
434.509	778.88
434.731	825.88
434.953	900.88
435.175	923.88
435.397	897.88
435.618	858.88
435.84	834.88
436.062	836.88
436.284	891.88
436.505	933.88
436.727	924.88
436.949	913.88
437.17	867.88
437.392	900.88
437.614	834.88
437.835	791.88
438.057	809.88
438.278	844.88
438.5	864.88
438.721	888.88
438.943	897.88
439.165	899.88
439.386	908.88
439.608	928.88
439.829	956.88
440.05	985.88
440.272	955.88
440.493	934.88
440.715	976.88
440.936	1021.88
441.158	1079.88
441.379	1028.88
441.6	1037.88
441.822	1026.88
442.043	999.88
442.264	988.88
442.486	943.88
442.707	972.88
442.928	931.88
443.149	970.88
443.371	974.88
443.592	1003.88
443.813	1029.88
444.034	995.88
444.255	976.88
444.476	1030.88
444.698	1067.88
444.919	1033.88
445.14	1119.88
445.361	1071.88
445.582	1058.88
445.803	1067.88
446.024	1055.88
446.245	1075.88
446.466	1061.88
446.687	1027.88
446.908	1004.88
447.129	977.88
447.35	995.88
447.571	1001.88
447.792	952.88
448.013	945.88
448.234	957.88
448.455	980.88
448.675	972.88
448.896	893.88
449.117	928.88
449.338	931.88
449.559	956.88
449.779	972.88
450	1027.88
450.221	1059.88
450.442	1021.88
450.662	957.88
450.883	881.88
451.104	839.88
451.324	861.88
451.545	873.88
451.766	872.88
451.986	832.88
452.207	819.88
452.428	767.88
452.648	770.88
452.869	791.88
453.089	762.88
453.31	749.88
453.53	771.88
453.751	727.88
453.971	668.88
454.192	694.88
454.412	787.88
454.633	767.88
454.853	768.88
455.073	755.88
455.294	773.88
455.514	752.88
455.734	789.88
455.955	760.88
456.175	743.88
456.395	748.88
456.616	712.88
456.836	711.88
457.056	740.88
457.276	708.88
457.497	661.88
457.717	681.88
457.937	713.88
458.157	719.88
458.377	699.88
458.598	670.88
458.818	687.88
459.038	728.88
459.258	715.88
459.478	706.88
459.698	693.88
459.918	742.88
460.138	815.88
460.358	815.88
460.578	819.88
460.798	845.88
461.018	882.88
461.238	866.88
461.458	836.88
461.678	856.88
461.898	801.88
462.118	826.88
462.338	827.88
462.558	835.88
462.777	828.88
462.997	864.88
463.217	860.88
463.437	847.88
463.657	849.88
463.876	829.88
464.096	826.88
464.316	867.88
464.536	861.88
464.755	867.88
464.975	873.88
465.195	864.88
465.414	866.88
465.634	885.88
465.854	905.88
466.073	946.88
466.293	939.88
466.512	869.88
466.732	874.88
466.951	888.88
467.171	919.88
467.391	899.88
467.61	876.88
467.829	912.88
468.049	963.88
468.268	1030.88
468.488	960.88
468.707	918.88
468.927	907.88
469.146	895.88
469.365	918.88
469.585	929.88
469.804	897.88
470.023	921.88
470.243	936.88
470.462	904.88
470.681	934.88
470.901	919.88
471.12	938.88
471.339	926.88
471.558	918.88
471.777	895.88
471.997	899.88
472.216	822.88
472.435	768.88
472.654	752.88
472.873	790.88
473.092	845.88
473.311	823.88
473.53	817.88
473.749	835.88
473.968	839.88
474.187	831.88
474.406	846.88
474.625	855.88
474.844	863.88
475.063	897.88
475.282	852.88
475.501	820.88
475.72	840.88
475.939	907.88
476.158	873.88
476.377	843.88
476.596	817.88
476.814	805.88
477.033	800.88
477.252	848.88
477.471	886.88
477.69	927.88
477.908	922.88
478.127	962.88
478.346	1001.88
478.564	980.88
478.783	1010.88
479.002	1017.88
479.22	985.88
479.439	1019.88
479.658	1041.88
479.876	952.88
480.095	912.88
480.313	889.88
480.532	888.88
480.751	856.88
480.969	837.88
481.188	768.88
481.406	784.88
481.624	771.88
481.843	771.88
482.061	823.88
482.28	866.88
482.498	880.88
482.717	843.88
482.935	895.88
483.153	954.88
483.372	1032.88
483.59	994.88
483.808	955.88
484.027	919.88
484.245	970.88
484.463	1193.88
484.681	1269.88
484.9	987.88
485.118	965.88
485.336	932.88
485.554	916.88
485.772	901.88
485.99	879.88
486.209	907.88
486.427	913.88
486.645	960.88
486.863	984.88
487.081	1041.88
487.299	1048.88
487.517	1000.88
487.735	1081.88
487.953	1171.88
488.171	1175.88
488.389	1125.88
488.607	1080.88
488.825	1143.88
489.043	1029.88
489.261	985.88
489.479	1011.88
489.696	1064.88
489.914	1041.88
490.132	1032.88
490.35	1082.88
490.568	1156.88
490.786	1171.88
491.003	1182.88
491.221	1213.88
491.439	1247.88
491.657	1308.88
491.874	1348.88
492.092	1433.88
492.31	1491.88
492.527	1461.88
492.745	1369.88
492.963	1294.88
493.18	1329.88
493.398	1354.88
493.615	1319.88
493.833	1267.88
494.05	1210.88
494.268	1212.88
494.485	1235.88
494.703	1224.88
494.92	1230.88
495.138	1236.88
495.355	1255.88
495.573	1256.88
495.79	1274.88
496.008	1293.88
496.225	1226.88
496.442	1244.88
496.66	1249.88
496.877	1203.88
497.094	1203.88
497.312	1218.88
497.529	1196.88
497.746	1188.88
497.963	1248.88
498.181	1320.88
498.398	1249.88
498.615	1188.88
498.832	1149.88
499.049	1122.88
499.267	1156.88
499.484	1263.88
499.701	1360.88
499.918	1375.88
500.135	1442.88
500.352	1567.88
500.569	1580.88
500.786	1698.88
501.003	1594.88
501.22	1434.88
501.437	1400.88
501.654	1417.88
501.871	1336.88
502.088	1207.88
502.305	1195.88
502.522	1146.88
502.739	1097.88
502.956	1073.88
503.172	1035.88
503.389	1009.88
503.606	996.88
503.823	973.88
504.04	995.88
504.256	984.88
504.473	1011.88
504.69	998.88
504.907	994.88
505.123	977.88
505.34	1065.88
505.557	1351.88
505.773	1117.88
505.99	926.88
506.207	895.88
506.423	930.88
506.64	900.88
506.856	928.88
507.073	1030.88
507.289	1074.88
507.506	1041.88
507.722	898.88
507.939	844.88
508.155	864.88
508.372	835.88
508.588	792.88
508.805	787.88
509.021	762.88
509.238	769.88
509.454	774.88
509.67	762.88
509.887	723.88
510.103	729.88
510.319	737.88
510.536	757.88
510.752	789.88
510.968	794.88
511.184	777.88
511.401	759.88
511.617	710.88
511.833	696.88
512.049	714.88
512.265	689.88
512.481	708.88
512.698	758.88
512.914	766.88
513.13	753.88
513.346	711.88
513.562	700.88
513.778	729.88
513.994	740.88
514.21	744.88
514.426	769.88
514.642	794.88
514.858	763.88
515.074	743.88
515.29	703.88
515.506	717.88
515.721	747.88
515.937	751.88
516.153	801.88
516.369	762.88
516.585	749.88
516.801	712.88
517.016	748.88
517.232	745.88
517.448	764.88
517.664	801.88
517.879	767.88
518.095	794.88
518.311	790.88
518.527	747.88
518.742	769.88
518.958	757.88
519.173	779.88
519.389	796.88
519.605	792.88
519.82	818.88
520.036	804.88
520.251	774.88
520.467	780.88
520.682	795.88
520.898	795.88
521.113	716.88
521.329	721.88
521.544	757.88
521.76	740.88
521.975	709.88
522.19	720.88
522.406	734.88
522.621	906.88
522.836	869.88
523.052	719.88
523.267	775.88
523.482	768.88
523.698	751.88
523.913	741.88
524.128	775.88
524.343	799.88
524.559	832.88
524.774	799.88
524.989	749.88
525.204	741.88
525.419	765.88
525.634	743.88
525.849	718.88
526.064	718.88
526.28	689.88
526.495	650.88
526.71	641.88
526.925	636.88
527.14	620.88
527.355	629.88
527.57	629.88
527.785	660.88
527.999	649.88
528.214	676.88
528.429	707.88
528.644	701.88
528.859	759.88
529.074	841.88
529.289	864.88
529.503	872.88
529.718	828.88
529.933	732.88
530.148	690.88
530.363	652.88
530.577	644.88
530.792	637.88
531.007	617.88
531.221	607.88
531.436	630.88
531.651	661.88
531.865	644.88
532.08	650.88
532.295	623.88
532.509	590.88
532.724	625.88
532.938	651.88
533.153	696.88
533.367	701.88
533.582	720.88
533.796	716.88
534.011	726.88
534.225	643.88
534.44	649.88
534.654	650.88
534.868	683.88
535.083	699.88
535.297	687.88
535.511	680.88
535.726	678.88
535.94	651.88
536.154	630.88
536.369	634.88
536.583	600.88
536.797	612.88
537.011	610.88
537.225	610.88
537.44	621.88
537.654	617.88
537.868	589.88
538.082	588.88
538.296	601.88
538.51	647.88
538.724	661.88
538.938	711.88
539.153	735.88
539.367	742.88
539.581	696.88
539.795	690.88
540.009	634.88
540.222	621.88
540.436	687.88
540.65	754.88
540.864	808.88
541.078	807.88
541.292	837.88
541.506	880.88
541.72	965.88
541.934	1007.88
542.147	1038.88
542.361	980.88
542.575	931.88
542.789	852.88
543.002	772.88
543.216	725.88
543.43	737.88
543.644	804.88
543.857	883.88
544.071	919.88
544.285	917.88
544.498	914.88
544.712	942.88
544.925	955.88
545.139	938.88
545.352	927.88
545.566	933.88
545.779	918.88
545.993	965.88
546.206	972.88
546.42	936.88
546.633	948.88
546.847	945.88
547.06	926.88
547.274	967.88
547.487	971.88
547.7	993.88
547.914	943.88
548.127	957.88
548.34	929.88
548.554	900.88
548.767	907.88
548.98	941.88
549.193	933.88
549.407	921.88
549.62	955.88
549.833	897.88
550.046	892.88
550.259	909.88
550.473	891.88
550.686	889.88
550.899	848.88
551.112	853.88
551.325	831.88
551.538	864.88
551.751	846.88
551.964	694.88
552.177	703.88
552.39	777.88
552.603	837.88
552.816	876.88
553.029	908.88
553.242	930.88
553.455	908.88
553.667	907.88
553.88	891.88
554.093	899.88
554.306	840.88
554.519	848.88
554.732	831.88
554.944	817.88
555.157	812.88
555.37	800.88
555.583	786.88
555.795	769.88
556.008	745.88
556.221	721.88
556.433	719.88
556.646	751.88
556.859	737.88
557.071	763.88
557.284	751.88
557.496	711.88
557.709	731.88
557.921	730.88
558.134	740.88
558.346	721.88
558.559	721.88
558.771	688.88
558.984	667.88
559.196	701.88
559.409	691.88
559.621	669.88
559.833	674.88
560.046	663.88
560.258	680.88
560.47	688.88
560.683	699.88
560.895	671.88
561.107	689.88
561.32	649.88
561.532	664.88
561.744	661.88
561.956	664.88
562.168	670.88
562.381	644.88
562.593	636.88
562.805	618.88
563.017	634.88
563.229	637.88
563.441	637.88
563.653	635.88
563.865	604.88
564.077	635.88
564.289	619.88
564.501	643.88
564.713	629.88
564.925	647.88
565.137	675.88
565.349	629.88
565.561	604.88
565.773	595.88
565.985	603.88
566.197	647.88
566.408	665.88
566.62	665.88
566.832	672.88
567.044	681.88
567.255	640.88
567.467	659.88
567.679	651.88
567.891	650.88
568.102	608.88
568.314	581.88
568.526	532.88
568.737	533.88
568.949	491.88
569.161	476.88
569.372	463.88
569.584	463.88
569.795	443.88
570.007	441.88
570.218	442.88
570.43	433.88
570.641	452.88
570.853	463.88
571.064	492.88
571.276	472.88
571.487	483.88
571.698	486.88
571.91	453.88
572.121	464.88
572.333	441.88
572.544	436.88
572.755	415.88
572.966	415.88
573.178	394.88
573.389	379.88
573.6	417.88
573.811	424.88
574.023	383.88
574.234	390.88
574.445	401.88
574.656	383.88
574.867	395.88
575.078	429.88
575.289	417.88
575.501	392.88
575.712	387.88
575.923	416.88
576.134	398.88
576.345	416.88
576.556	393.88
576.767	372.88
576.978	386.88
577.188	373.88
577.399	395.88
577.61	375.88
577.821	375.88
578.032	357.88
578.243	371.88
578.454	373.88
578.665	365.88
578.875	352.88
579.086	346.88
579.297	343.88
579.508	361.88
579.718	360.88
579.929	351.88
580.14	342.88
580.35	335.88
580.561	348.88
580.772	372.88
580.982	378.88
581.193	348.88
581.403	346.88
581.614	357.88
581.825	340.88
582.035	348.88
582.246	333.88
582.456	351.88
582.667	357.88
582.877	348.88
583.087	331.88
583.298	327.88
583.508	360.88
583.719	336.88
583.929	329.88
584.139	332.88
584.35	311.88
584.56	314.88
584.77	332.88
584.981	334.88
585.191	347.88
585.401	353.88
585.611	326.88
585.821	330.88
586.032	314.88
586.242	326.88
586.452	318.88
586.662	310.88
586.872	312.88
587.082	299.88
587.292	296.88
587.502	310.88
587.713	333.88
587.923	328.88
588.133	311.88
588.343	299.88
588.553	299.88
588.762	311.88
588.972	312.88
589.182	330.88
589.392	327.88
589.602	327.88
589.812	300.88
590.022	305.88
590.232	312.88
590.441	325.88
590.651	299.88
590.861	314.88
591.071	311.88
591.281	295.88
591.49	308.88
591.7	321.88
591.91	305.88
592.119	320.88
592.329	292.88
592.539	343.88
592.748	314.88
592.958	290.88
593.167	327.88
593.377	321.88
593.587	304.88
593.796	328.88
594.006	343.88
594.215	328.88
594.424	331.88
594.634	337.88
594.843	334.88
595.053	346.88
595.262	343.88
595.472	340.88
595.681	311.88
595.89	315.88
596.1	312.88
596.309	323.88
596.518	311.88
596.727	330.88
596.937	312.88
597.146	305.88
597.355	313.88
597.564	306.88
597.774	311.88
597.983	291.88
598.192	274.88
598.401	297.88
598.61	276.88
598.819	290.88
599.028	311.88
599.237	300.88
599.446	293.88
599.655	287.88
599.864	294.88
600.073	291.88
600.282	295.88
600.491	296.88
600.7	313.88
600.909	296.88
601.118	311.88
601.327	329.88
601.536	346.88
601.745	336.88
601.953	347.88
602.162	354.88
602.371	348.88
602.58	351.88
602.789	332.88
602.997	357.88
603.206	345.88
603.415	338.88
603.623	335.88
603.832	343.88
604.041	335.88
604.249	313.88
604.458	301.88
604.666	298.88
604.875	306.88
605.084	321.88
605.292	327.88
605.501	351.88
605.709	351.88
605.918	369.88
606.126	356.88
606.334	363.88
606.543	349.88
606.751	370.88
606.96	367.88
607.168	359.88
607.376	341.88
607.585	350.88
607.793	338.88
608.001	360.88
608.21	357.88
608.418	358.88
608.626	368.88
608.834	376.88
609.043	360.88
609.251	368.88
609.459	356.88
609.667	344.88
609.875	378.88
610.083	377.88
610.291	375.88
610.499	361.88
610.707	357.88
610.916	369.88
611.124	363.88
611.332	353.88
611.54	372.88
611.748	362.88
611.955	371.88
612.163	355.88
612.371	375.88
612.579	349.88
612.787	362.88
612.995	371.88
613.203	375.88
613.411	341.88
613.618	342.88
613.826	364.88
614.034	362.88
614.242	369.88
614.449	353.88
614.657	361.88
614.865	353.88
615.072	360.88
615.28	358.88
615.488	359.88
615.695	372.88
615.903	355.88
616.111	348.88
616.318	361.88
616.526	352.88
616.733	346.88
616.941	341.88
617.148	332.88
617.356	331.88
617.563	363.88
617.771	331.88
617.978	330.88
618.185	338.88
618.393	351.88
618.6	339.88
618.807	336.88
619.015	351.88
619.222	327.88
619.429	319.88
619.637	314.88
619.844	295.88
620.051	303.88
620.258	325.88
620.466	326.88
620.673	321.88
620.88	323.88
621.087	322.88
621.294	315.88
621.501	302.88
621.708	291.88
621.915	328.88
622.122	314.88
622.329	336.88
622.536	331.88
622.743	324.88
622.95	305.88
623.157	313.88
623.364	337.88
623.571	321.88
623.778	339.88
623.985	357.88
624.192	319.88
624.399	320.88
624.606	319.88
624.812	318.88
625.019	299.88
625.226	306.88
625.433	294.88
625.639	279.88
625.846	267.88
626.053	248.88
626.259	241.88
626.466	243.88
626.673	236.88
626.879	246.88
627.086	244.88
627.293	266.88
627.499	280.88
627.706	287.88
627.912	285.88
628.119	289.88
628.325	285.88
628.532	284.88
628.738	290.88
628.945	288.88
629.151	277.88
629.357	276.88
629.564	296.88
629.77	282.88
629.976	275.88
630.183	256.88
630.389	255.88
630.595	277.88
630.802	274.88
631.008	282.88
631.214	279.88
631.42	265.88
631.627	271.88
631.833	265.88
632.039	261.88
632.245	265.88
632.451	277.88
632.657	273.88
632.863	257.88
633.069	269.88
633.275	268.88
633.481	263.88
633.688	255.88
633.893	256.88
634.099	255.88
634.305	240.88
634.511	246.88
634.717	246.88
634.923	234.88
635.129	216.88
635.335	245.88
635.541	251.88
635.747	254.88
635.952	277.88
636.158	250.88
636.364	265.88
636.57	263.88
636.775	260.88
636.981	247.88
637.187	261.88
637.392	248.88
637.598	269.88
637.804	248.88
638.009	263.88
638.215	241.88
638.421	263.88
638.626	272.88
638.832	263.88
639.037	231.88
639.243	264.88
639.448	239.88
639.654	234.88
639.859	255.88
640.065	249.88
640.27	273.88
640.475	253.88
640.681	230.88
640.886	228.88
641.091	239.88
641.297	254.88
641.502	262.88
641.707	246.88
641.913	257.88
642.118	239.88
642.323	256.88
642.528	265.88
642.733	255.88
642.939	232.88
643.144	255.88
643.349	273.88
643.554	243.88
643.759	229.88
643.964	227.88
644.169	234.88
644.374	234.88
644.579	249.88
644.784	236.88
644.989	236.88
645.194	223.88
645.399	248.88
645.604	245.88
645.809	244.88
646.014	259.88
646.219	244.88
646.423	229.88
646.628	242.88
646.833	251.88
647.038	256.88
647.243	230.88
647.447	242.88
647.652	236.88
647.857	219.88
648.062	245.88
648.266	253.88
648.471	237.88
648.676	241.88
648.88	241.88
649.085	256.88
649.289	239.88
649.494	243.88
649.698	236.88
649.903	248.88
650.107	235.88
650.312	230.88
650.516	213.88
650.721	236.88
650.925	247.88
651.13	241.88
651.334	226.88
651.539	225.88
651.743	224.88
651.947	218.88
652.152	217.88
652.356	210.88
652.56	220.88
652.764	200.88
652.969	205.88
653.173	194.88
653.377	191.88
653.581	203.88
653.785	206.88
653.99	209.88
654.194	193.88
654.398	217.88
654.602	209.88
654.806	216.88
655.01	202.88
655.214	197.88
655.418	196.88
655.622	203.88
655.826	211.88
656.03	215.88
656.234	216.88
656.438	233.88
656.642	223.88
656.846	222.88
657.049	204.88
657.253	205.88
657.457	192.88
657.661	175.88
657.865	177.88
658.068	165.88
658.272	149.88
658.476	156.88
658.68	156.88
658.883	148.88
659.087	135.88
659.291	145.88
659.494	139.88
659.698	146.88
659.901	127.88
660.105	132.88
660.309	129.88
660.512	111.88
660.716	120.88
660.919	135.88
661.123	121.88
661.326	108.88
661.53	107.88
661.733	106.88
661.936	100.88
662.14	108.88
662.343	89.88
662.546	81.88
662.75	94.88
662.953	97.88
663.156	92.88
663.36	100.88
663.563	90.88
663.766	74.88
663.969	99.88
664.173	88.88
664.376	83.88
664.579	74.88
664.782	80.88
664.985	95.88
665.188	101.88
665.391	87.88
665.594	96.88
665.797	105.88
666	82.88
666.203	79.88
666.406	83.88
666.609	85.88
666.812	79.88
667.015	81.88
667.218	80.88
667.421	84.88
667.624	78.88
667.827	90.88
668.03	81.88
668.232	83.88
668.435	96.88
668.638	88.88
668.841	89.88
669.043	84.88
669.246	76.88
669.449	75.88
669.651	94.88
669.854	72.88
670.057	90.88
670.259	70.88
670.462	81.88
670.665	82.88
670.867	75.88
671.07	79.88
671.272	82.88
671.475	91.88
671.677	78.88
671.88	77.88
672.082	85.88
672.284	82.88
672.487	85.88
672.689	82.88
672.892	85.88
