Data from WStandard_LampEnergy8_LIBS07252019.E.O._I.C._HRD10591_15-58-30-929.txt Node
Date: Thu Jul 25 15:58:30 EDT 2019
User: cochatt
Spectrometer: HR+D1059
Trigger mode: 1
Integration Time (sec): 1.000000E-1
Scans to average: 1
Electric dark correction enabled: true
Nonlinearity correction enabled: false
Boxcar width: 0
XAxis mode: Wavelengths
Number of Pixels in Spectrum: 2048
>>>>>Begin Spectral Data<<<<<
223.165	-8.56
223.4	-8.56
223.635	-8.56
223.869	-15.56
224.104	-14.56
224.338	-4.56
224.573	-14.56
224.808	-11.56
225.042	-15.56
225.277	-6.56
225.511	-5.56
225.746	1.44
225.98	9.44
226.215	11.44
226.449	8.44
226.683	13.44
226.918	24.44
227.152	28.44
227.387	38.44
227.621	36.44
227.856	61.44
228.09	66.44
228.324	47.44
228.559	57.44
228.793	105.44
229.027	198.44
229.262	206.44
229.496	218.44
229.73	233.44
229.964	233.44
230.199	257.44
230.433	268.44
230.667	279.44
230.901	285.44
231.136	238.44
231.37	264.44
231.604	251.44
231.838	259.44
232.072	277.44
232.306	263.44
232.541	277.44
232.775	295.44
233.009	328.44
233.243	309.44
233.477	291.44
233.711	300.44
233.945	313.44
234.179	319.44
234.413	315.44
234.647	335.44
234.881	302.44
235.115	296.44
235.349	293.44
235.583	315.44
235.817	301.44
236.051	297.44
236.285	289.44
236.519	346.44
236.753	347.44
236.987	365.44
237.221	348.44
237.455	369.44
237.689	349.44
237.922	342.44
238.156	348.44
238.39	348.44
238.624	358.44
238.858	393.44
239.091	379.44
239.325	399.44
239.559	467.44
239.793	496.44
240.027	522.44
240.26	491.44
240.494	372.44
240.728	378.44
240.961	381.44
241.195	367.44
241.429	416.44
241.662	424.44
241.896	381.44
242.13	396.44
242.363	423.44
242.597	459.44
242.83	432.44
243.064	454.44
243.298	456.44
243.531	472.44
243.765	467.44
243.998	479.44
244.232	420.44
244.465	395.44
244.699	419.44
244.932	459.44
245.166	510.44
245.399	490.44
245.633	434.44
245.866	458.44
246.099	470.44
246.333	491.44
246.566	512.44
246.8	539.44
247.033	576.44
247.266	554.44
247.5	516.44
247.733	546.44
247.966	553.44
248.2	593.44
248.433	618.44
248.666	607.44
248.899	684.44
249.133	716.44
249.366	806.44
249.599	683.44
249.832	614.44
250.066	638.44
250.299	631.44
250.532	584.44
250.765	560.44
250.998	578.44
251.231	592.44
251.465	639.44
251.698	580.44
251.931	584.44
252.164	599.44
252.397	639.44
252.63	600.44
252.863	554.44
253.096	567.44
253.329	552.44
253.562	588.44
253.795	626.44
254.028	619.44
254.261	582.44
254.494	552.44
254.727	540.44
254.96	618.44
255.193	639.44
255.426	716.44
255.659	772.44
255.892	817.44
256.124	640.44
256.357	668.44
256.59	706.44
256.823	675.44
257.056	694.44
257.289	828.44
257.521	911.44
257.754	812.44
257.987	800.44
258.22	845.44
258.452	808.44
258.685	685.44
258.918	678.44
259.151	685.44
259.383	640.44
259.616	584.44
259.849	631.44
260.081	709.44
260.314	781.44
260.547	793.44
260.779	827.44
261.012	772.44
261.244	714.44
261.477	676.44
261.71	677.44
261.942	712.44
262.175	688.44
262.407	699.44
262.64	673.44
262.872	640.44
263.105	629.44
263.337	626.44
263.57	633.44
263.802	649.44
264.035	633.44
264.267	563.44
264.499	566.44
264.732	614.44
264.964	639.44
265.197	689.44
265.429	725.44
265.661	783.44
265.894	854.44
266.126	874.44
266.358	819.44
266.591	809.44
266.823	866.44
267.055	783.44
267.287	770.44
267.52	753.44
267.752	756.44
267.984	785.44
268.216	778.44
268.448	827.44
268.681	781.44
268.913	762.44
269.145	700.44
269.377	703.44
269.609	763.44
269.841	877.44
270.073	1000.44
270.306	1125.44
270.538	1111.44
270.77	938.44
271.002	856.44
271.234	804.44
271.466	843.44
271.698	916.44
271.93	1059.44
272.162	1004.44
272.394	956.44
272.626	906.44
272.858	822.44
273.09	710.44
273.322	704.44
273.553	654.44
273.785	690.44
274.017	722.44
274.249	784.44
274.481	756.44
274.713	689.44
274.945	694.44
275.176	704.44
275.408	713.44
275.64	681.44
275.872	689.44
276.104	743.44
276.335	820.44
276.567	940.44
276.799	924.44
277.031	835.44
277.262	798.44
277.494	848.44
277.726	877.44
277.957	890.44
278.189	810.44
278.421	754.44
278.652	733.44
278.884	702.44
279.115	744.44
279.347	756.44
279.579	721.44
279.81	758.44
280.042	811.44
280.273	870.44
280.505	892.44
280.736	864.44
280.968	840.44
281.199	732.44
281.431	721.44
281.662	732.44
281.894	697.44
282.125	736.44
282.356	794.44
282.588	780.44
282.819	787.44
283.051	834.44
283.282	871.44
283.513	840.44
283.745	749.44
283.976	718.44
284.207	720.44
284.439	727.44
284.67	748.44
284.901	773.44
285.132	767.44
285.364	755.44
285.595	802.44
285.826	794.44
286.057	757.44
286.288	769.44
286.52	821.44
286.751	842.44
286.982	871.44
287.213	775.44
287.444	734.44
287.675	733.44
287.906	790.44
288.138	841.44
288.369	794.44
288.6	760.44
288.831	736.44
289.062	741.44
289.293	764.44
289.524	800.44
289.755	779.44
289.986	766.44
290.217	708.44
290.448	746.44
290.679	771.44
290.91	789.44
291.141	830.44
291.371	839.44
291.602	812.44
291.833	802.44
292.064	841.44
292.295	805.44
292.526	872.44
292.757	869.44
292.987	852.44
293.218	813.44
293.449	910.44
293.68	968.44
293.91	1012.44
294.141	944.44
294.372	908.44
294.603	921.44
294.833	977.44
295.064	936.44
295.295	840.44
295.525	807.44
295.756	743.44
295.987	758.44
296.217	758.44
296.448	767.44
296.679	782.44
296.909	801.44
297.14	777.44
297.37	787.44
297.601	847.44
297.831	904.44
298.062	866.44
298.292	824.44
298.523	793.44
298.753	780.44
298.984	800.44
299.214	792.44
299.445	811.44
299.675	838.44
299.905	836.44
300.136	795.44
300.366	813.44
300.597	769.44
300.827	789.44
301.057	822.44
301.288	837.44
301.518	846.44
301.748	873.44
301.979	931.44
302.209	924.44
302.439	993.44
302.669	995.44
302.9	901.44
303.13	828.44
303.36	865.44
303.59	865.44
303.82	881.44
304.051	869.44
304.281	882.44
304.511	892.44
304.741	950.44
304.971	1046.44
305.201	1084.44
305.431	949.44
305.661	810.44
305.891	762.44
306.121	736.44
306.352	774.44
306.582	840.44
306.812	898.44
307.042	963.44
307.272	946.44
307.502	1008.44
307.731	1094.44
307.961	1090.44
308.191	988.44
308.421	898.44
308.651	828.44
308.881	825.44
309.111	816.44
309.341	825.44
309.571	817.44
309.8	820.44
310.03	814.44
310.26	818.44
310.49	836.44
310.72	840.44
310.949	864.44
311.179	902.44
311.409	864.44
311.639	882.44
311.868	852.44
312.098	871.44
312.328	849.44
312.557	834.44
312.787	830.44
313.017	867.44
313.246	864.44
313.476	857.44
313.706	878.44
313.935	868.44
314.165	917.44
314.394	973.44
314.624	971.44
314.853	1034.44
315.083	1081.44
315.312	1044.44
315.542	944.44
315.771	904.44
316.001	886.44
316.23	937.44
316.46	944.44
316.689	922.44
316.919	893.44
317.148	868.44
317.377	886.44
317.607	964.44
317.836	1088.44
318.065	1096.44
318.295	1042.44
318.524	1002.44
318.753	947.44
318.983	975.44
319.212	930.44
319.441	916.44
319.67	922.44
319.9	947.44
320.129	988.44
320.358	1038.44
320.587	1015.44
320.816	1030.44
321.046	1014.44
321.275	944.44
321.504	978.44
321.733	1064.44
321.962	1036.44
322.191	938.44
322.42	898.44
322.649	931.44
322.878	905.44
323.108	925.44
323.337	967.44
323.566	946.44
323.795	950.44
324.024	936.44
324.253	935.44
324.482	952.44
324.71	906.44
324.939	864.44
325.168	914.44
325.397	922.44
325.626	956.44
325.855	938.44
326.084	928.44
326.313	953.44
326.542	952.44
326.77	973.44
326.999	981.44
327.228	931.44
327.457	877.44
327.686	884.44
327.914	910.44
328.143	931.44
328.372	960.44
328.6	952.44
328.829	914.44
329.058	936.44
329.287	894.44
329.515	962.44
329.744	971.44
329.972	1001.44
330.201	1022.44
330.43	1039.44
330.658	979.44
330.887	1006.44
331.115	984.44
331.344	985.44
331.572	978.44
331.801	957.44
332.03	977.44
332.258	985.44
332.486	989.44
332.715	989.44
332.943	988.44
333.172	963.44
333.4	993.44
333.629	1033.44
333.857	1116.44
334.085	1208.44
334.314	1368.44
334.542	1422.44
334.771	1280.44
334.999	1150.44
335.227	1094.44
335.455	1068.44
335.684	1083.44
335.912	1049.44
336.14	1103.44
336.369	1034.44
336.597	995.44
336.825	997.44
337.053	1044.44
337.281	1103.44
337.51	1166.44
337.738	1187.44
337.966	1108.44
338.194	1005.44
338.422	980.44
338.65	974.44
338.878	993.44
339.106	916.44
339.334	917.44
339.562	918.44
339.79	973.44
340.018	1039.44
340.246	1074.44
340.474	1028.44
340.702	1017.44
340.93	1017.44
341.158	998.44
341.386	986.44
341.614	989.44
341.842	1013.44
342.07	994.44
342.298	993.44
342.526	963.44
342.754	964.44
342.981	955.44
343.209	955.44
343.437	993.44
343.665	990.44
343.893	1016.44
344.12	1058.44
344.348	1053.44
344.576	1018.44
344.804	1015.44
345.031	966.44
345.259	965.44
345.487	926.44
345.714	927.44
345.942	904.44
346.17	914.44
346.397	976.44
346.625	945.44
346.853	902.44
347.08	885.44
347.308	935.44
347.535	914.44
347.763	936.44
347.99	914.44
348.218	906.44
348.445	898.44
348.673	923.44
348.9	960.44
349.128	1018.44
349.355	1001.44
349.583	966.44
349.81	931.44
350.037	853.44
350.265	860.44
350.492	900.44
350.72	920.44
350.947	952.44
351.174	923.44
351.402	887.44
351.629	872.44
351.856	836.44
352.083	856.44
352.311	862.44
352.538	892.44
352.765	961.44
352.992	970.44
353.22	897.44
353.447	906.44
353.674	895.44
353.901	912.44
354.128	896.44
354.355	898.44
354.583	972.44
354.81	976.44
355.037	983.44
355.264	962.44
355.491	919.44
355.718	908.44
355.945	927.44
356.172	914.44
356.399	903.44
356.626	874.44
356.853	954.44
357.08	1067.44
357.307	1106.44
357.534	1077.44
357.761	962.44
357.988	893.44
358.215	861.44
358.441	903.44
358.668	873.44
358.895	904.44
359.122	979.44
359.349	1034.44
359.576	1018.44
359.802	919.44
360.029	886.44
360.256	886.44
360.483	913.44
360.709	948.44
360.936	1003.44
361.163	1021.44
361.39	1113.44
361.616	1165.44
361.843	1125.44
362.07	1030.44
362.296	922.44
362.523	915.44
362.749	921.44
362.976	932.44
363.203	959.44
363.429	931.44
363.656	893.44
363.882	960.44
364.109	1053.44
364.335	1078.44
364.562	1021.44
364.788	955.44
365.015	936.44
365.241	892.44
365.468	951.44
365.694	980.44
365.92	997.44
366.147	964.44
366.373	923.44
366.599	871.44
366.826	911.44
367.052	919.44
367.278	921.44
367.505	930.44
367.731	945.44
367.957	953.44
368.184	993.44
368.41	1062.44
368.636	1090.44
368.862	1049.44
369.089	1073.44
369.315	986.44
369.541	977.44
369.767	954.44
369.993	909.44
370.219	907.44
370.445	943.44
370.672	1011.44
370.898	1070.44
371.124	1004.44
371.35	997.44
371.576	1030.44
371.802	1036.44
372.028	1000.44
372.254	969.44
372.48	941.44
372.706	936.44
372.932	937.44
373.158	941.44
373.384	985.44
373.61	1000.44
373.835	1038.44
374.061	990.44
374.287	982.44
374.513	1003.44
374.739	984.44
374.965	980.44
375.191	1018.44
375.416	1036.44
375.642	1035.44
375.868	1107.44
376.094	1084.44
376.319	1067.44
376.545	970.44
376.771	1023.44
376.997	1086.44
377.222	1058.44
377.448	1036.44
377.674	1067.44
377.899	1055.44
378.125	1104.44
378.35	1065.44
378.576	985.44
378.802	935.44
379.027	993.44
379.253	998.44
379.478	988.44
379.704	980.44
379.929	956.44
380.155	971.44
380.38	1010.44
380.606	1029.44
380.831	1028.44
381.057	1064.44
381.282	1052.44
381.507	1061.44
381.733	1151.44
381.958	1162.44
382.184	1055.44
382.409	1055.44
382.634	1020.44
382.86	1038.44
383.085	1028.44
383.31	1094.44
383.535	1165.44
383.761	1229.44
383.986	1171.44
384.211	1110.44
384.436	1126.44
384.662	1175.44
384.887	1189.44
385.112	1118.44
385.337	1136.44
385.562	1162.44
385.787	1113.44
386.013	1164.44
386.238	1126.44
386.463	1181.44
386.688	1270.44
386.913	1315.44
387.138	1253.44
387.363	1164.44
387.588	1192.44
387.813	1156.44
388.038	1181.44
388.263	1204.44
388.488	1182.44
388.713	1074.44
388.938	1102.44
389.163	1112.44
389.387	1120.44
389.612	1132.44
389.837	1149.44
390.062	1150.44
390.287	1141.44
390.512	1131.44
390.736	1110.44
390.961	1070.44
391.186	1061.44
391.411	1075.44
391.636	1084.44
391.86	1129.44
392.085	1142.44
392.31	1128.44
392.534	1115.44
392.759	1120.44
392.984	1142.44
393.208	1150.44
393.433	1191.44
393.658	1226.44
393.882	1224.44
394.107	1142.44
394.331	1108.44
394.556	1120.44
394.78	1148.44
395.005	1180.44
395.229	1237.44
395.454	1334.44
395.678	1291.44
395.903	1203.44
396.127	1185.44
396.352	1194.44
396.576	1240.44
396.801	1260.44
397.025	1256.44
397.249	1227.44
397.474	1223.44
397.698	1192.44
397.922	1248.44
398.147	1307.44
398.371	1417.44
398.595	1383.44
398.82	1290.44
399.044	1308.44
399.268	1355.44
399.492	1462.44
399.717	1494.44
399.941	1499.44
400.165	1438.44
400.389	1418.44
400.613	1435.44
400.837	1672.44
401.062	1805.44
401.286	1546.44
401.51	1431.44
401.734	1430.44
401.958	1417.44
402.182	1341.44
402.406	1287.44
402.63	1275.44
402.854	1280.44
403.078	1320.44
403.302	1332.44
403.526	1340.44
403.75	1329.44
403.974	1396.44
404.198	1378.44
404.422	1414.44
404.645	1498.44
404.869	1413.44
405.093	1341.44
405.317	1317.44
405.541	1344.44
405.765	1334.44
405.988	1368.44
406.212	1400.44
406.436	1374.44
406.66	1422.44
406.883	1460.44
407.107	1691.44
407.331	1760.44
407.555	1867.44
407.778	1672.44
408.002	1452.44
408.226	1403.44
408.449	1446.44
408.673	1392.44
408.896	1383.44
409.12	1380.44
409.344	1328.44
409.567	1333.44
409.791	1372.44
410.014	1408.44
410.238	1456.44
410.461	1511.44
410.685	1345.44
410.908	1308.44
411.132	1341.44
411.355	1330.44
411.578	1330.44
411.802	1360.44
412.025	1361.44
412.249	1315.44
412.472	1307.44
412.695	1270.44
412.919	1297.44
413.142	1272.44
413.365	1304.44
413.589	1341.44
413.812	1410.44
414.035	1458.44
414.258	1352.44
414.482	1274.44
414.705	1314.44
414.928	1300.44
415.151	1302.44
415.374	1333.44
415.597	1335.44
415.821	1340.44
416.044	1342.44
416.267	1324.44
416.49	1268.44
416.713	1266.44
416.936	1300.44
417.159	1370.44
417.382	1355.44
417.605	1303.44
417.828	1321.44
418.051	1294.44
418.274	1294.44
418.497	1274.44
418.72	1260.44
418.943	1284.44
419.166	1350.44
419.389	1357.44
419.611	1288.44
419.834	1271.44
420.057	1301.44
420.28	1266.44
420.503	1314.44
420.726	1316.44
420.948	1308.44
421.171	1247.44
421.394	1277.44
421.617	1309.44
421.839	1338.44
422.062	1346.44
422.285	1237.44
422.507	1271.44
422.73	1234.44
422.953	1220.44
423.175	1219.44
423.398	1240.44
423.621	1262.44
423.843	1284.44
424.066	1317.44
424.288	1387.44
424.511	1397.44
424.733	1376.44
424.956	1256.44
425.178	1245.44
425.401	1257.44
425.623	1302.44
425.846	1243.44
426.068	1326.44
426.291	1346.44
426.513	1324.44
426.735	1317.44
426.958	1440.44
427.18	1475.44
427.402	1340.44
427.625	1388.44
427.847	1391.44
428.069	1274.44
428.292	1248.44
428.514	1259.44
428.736	1204.44
428.958	1264.44
429.181	1278.44
429.403	1453.44
429.625	1726.44
429.847	1478.44
430.069	1316.44
430.292	1430.44
430.514	1444.44
430.736	1381.44
430.958	1359.44
431.18	1312.44
431.402	1216.44
431.624	1203.44
431.846	1174.44
432.068	1111.44
432.29	1157.44
432.512	1200.44
432.734	1274.44
432.956	1271.44
433.178	1336.44
433.4	1342.44
433.622	1288.44
433.844	1241.44
434.066	1174.44
434.287	1188.44
434.509	1183.44
434.731	1267.44
434.953	1352.44
435.175	1344.44
435.397	1280.44
435.618	1280.44
435.84	1209.44
436.062	1214.44
436.284	1280.44
436.505	1312.44
436.727	1347.44
436.949	1288.44
437.17	1262.44
437.392	1227.44
437.614	1195.44
437.835	1148.44
438.057	1246.44
438.278	1240.44
438.5	1212.44
438.721	1226.44
438.943	1258.44
439.165	1233.44
439.386	1207.44
439.608	1220.44
439.829	1222.44
440.05	1236.44
440.272	1258.44
440.493	1251.44
440.715	1275.44
440.936	1357.44
441.158	1417.44
441.379	1377.44
441.6	1387.44
441.822	1376.44
442.043	1358.44
442.264	1312.44
442.486	1265.44
442.707	1234.44
442.928	1274.44
443.149	1290.44
443.371	1359.44
443.592	1377.44
443.813	1382.44
444.034	1355.44
444.255	1362.44
444.476	1369.44
444.698	1421.44
444.919	1402.44
445.14	1463.44
445.361	1466.44
445.582	1427.44
445.803	1400.44
446.024	1374.44
446.245	1404.44
446.466	1396.44
446.687	1332.44
446.908	1369.44
447.129	1309.44
447.35	1324.44
447.571	1304.44
447.792	1236.44
448.013	1252.44
448.234	1273.44
448.455	1353.44
448.675	1326.44
448.896	1212.44
449.117	1204.44
449.338	1208.44
449.559	1278.44
449.779	1301.44
450	1429.44
450.221	1487.44
450.442	1396.44
450.662	1288.44
450.883	1179.44
451.104	1186.44
451.324	1179.44
451.545	1213.44
451.766	1184.44
451.986	1107.44
452.207	1136.44
452.428	1070.44
452.648	1091.44
452.869	1103.44
453.089	1136.44
453.31	1146.44
453.53	1151.44
453.751	1117.44
453.971	1053.44
454.192	1117.44
454.412	1143.44
454.633	1141.44
454.853	1144.44
455.073	1055.44
455.294	1070.44
455.514	1094.44
455.734	1074.44
455.955	1109.44
456.175	1080.44
456.395	1086.44
456.616	1078.44
456.836	1096.44
457.056	1091.44
457.276	1098.44
457.497	1079.44
457.717	996.44
457.937	1040.44
458.157	1060.44
458.377	1056.44
458.598	1044.44
458.818	1048.44
459.038	1122.44
459.258	1184.44
459.478	1160.44
459.698	1115.44
459.918	1125.44
460.138	1194.44
460.358	1206.44
460.578	1221.44
460.798	1300.44
461.018	1320.44
461.238	1299.44
461.458	1252.44
461.678	1228.44
461.898	1211.44
462.118	1204.44
462.338	1238.44
462.558	1226.44
462.777	1228.44
462.997	1317.44
463.217	1381.44
463.437	1321.44
463.657	1259.44
463.876	1245.44
464.096	1254.44
464.316	1252.44
464.536	1318.44
464.755	1306.44
464.975	1289.44
465.195	1288.44
465.414	1325.44
465.634	1310.44
465.854	1317.44
466.073	1405.44
466.293	1332.44
466.512	1194.44
466.732	1200.44
466.951	1254.44
467.171	1224.44
467.391	1172.44
467.61	1205.44
467.829	1221.44
468.049	1327.44
468.268	1445.44
468.488	1333.44
468.707	1266.44
468.927	1217.44
469.146	1221.44
469.365	1194.44
469.585	1253.44
469.804	1185.44
470.023	1218.44
470.243	1269.44
470.462	1228.44
470.681	1227.44
470.901	1224.44
471.12	1207.44
471.339	1243.44
471.558	1184.44
471.777	1160.44
471.997	1179.44
472.216	1173.44
472.435	1132.44
472.654	1110.44
472.873	1173.44
473.092	1202.44
473.311	1155.44
473.53	1134.44
473.749	1144.44
473.968	1157.44
474.187	1213.44
474.406	1220.44
474.625	1173.44
474.844	1189.44
475.063	1203.44
475.282	1200.44
475.501	1201.44
475.72	1224.44
475.939	1282.44
476.158	1226.44
476.377	1205.44
476.596	1200.44
476.814	1225.44
477.033	1203.44
477.252	1284.44
477.471	1308.44
477.69	1260.44
477.908	1257.44
478.127	1367.44
478.346	1412.44
478.564	1390.44
478.783	1438.44
479.002	1434.44
479.22	1444.44
479.439	1467.44
479.658	1591.44
479.876	1497.44
480.095	1381.44
480.313	1333.44
480.532	1300.44
480.751	1303.44
480.969	1324.44
481.188	1278.44
481.406	1226.44
481.624	1221.44
481.843	1257.44
482.061	1299.44
482.28	1302.44
482.498	1334.44
482.717	1284.44
482.935	1272.44
483.153	1367.44
483.372	1345.44
483.59	1357.44
483.808	1361.44
484.027	1380.44
484.245	1459.44
484.463	1748.44
484.681	1876.44
484.9	1449.44
485.118	1368.44
485.336	1344.44
485.554	1363.44
485.772	1363.44
485.99	1340.44
486.209	1396.44
486.427	1383.44
486.645	1373.44
486.863	1406.44
487.081	1497.44
487.299	1461.44
487.517	1452.44
487.735	1436.44
487.953	1492.44
488.171	1479.44
488.389	1472.44
488.607	1461.44
488.825	1628.44
489.043	1530.44
489.261	1383.44
489.479	1480.44
489.696	1453.44
489.914	1453.44
490.132	1426.44
490.35	1428.44
490.568	1493.44
490.786	1536.44
491.003	1474.44
491.221	1508.44
491.439	1560.44
491.657	1571.44
491.874	1566.44
492.092	1652.44
492.31	1706.44
492.527	1648.44
492.745	1576.44
492.963	1546.44
493.18	1605.44
493.398	1702.44
493.615	1686.44
493.833	1598.44
494.05	1555.44
494.268	1554.44
494.485	1570.44
494.703	1569.44
494.92	1529.44
495.138	1540.44
495.355	1561.44
495.573	1600.44
495.79	1648.44
496.008	1649.44
496.225	1588.44
496.442	1634.44
496.66	1589.44
496.877	1573.44
497.094	1635.44
497.312	1612.44
497.529	1620.44
497.746	1640.44
497.963	1868.44
498.181	1976.44
498.398	1929.44
498.615	1822.44
498.832	1763.44
499.049	1786.44
499.267	1767.44
499.484	1876.44
499.701	2014.44
499.918	2041.44
500.135	2200.44
500.352	2354.44
500.569	2320.44
500.786	2545.44
501.003	2344.44
501.22	2124.44
501.437	2059.44
501.654	2084.44
501.871	1990.44
502.088	1770.44
502.305	1752.44
502.522	1685.44
502.739	1588.44
502.956	1581.44
503.172	1495.44
503.389	1472.44
503.606	1451.44
503.823	1454.44
504.04	1477.44
504.256	1484.44
504.473	1493.44
504.69	1523.44
504.907	1426.44
505.123	1422.44
505.34	1539.44
505.557	1987.44
505.773	1635.44
505.99	1368.44
506.207	1344.44
506.423	1294.44
506.64	1302.44
506.856	1335.44
507.073	1494.44
507.289	1621.44
507.506	1519.44
507.722	1310.44
507.939	1242.44
508.155	1236.44
508.372	1234.44
508.588	1225.44
508.805	1186.44
509.021	1150.44
509.238	1151.44
509.454	1154.44
509.67	1152.44
509.887	1145.44
510.103	1106.44
510.319	1107.44
510.536	1209.44
510.752	1236.44
510.968	1222.44
511.184	1250.44
511.401	1208.44
511.617	1126.44
511.833	1091.44
512.049	1076.44
512.265	1080.44
512.481	1126.44
512.698	1122.44
512.914	1182.44
513.13	1152.44
513.346	1125.44
513.562	1102.44
513.778	1128.44
513.994	1219.44
514.21	1191.44
514.426	1186.44
514.642	1312.44
514.858	1252.44
515.074	1167.44
515.29	1072.44
515.506	1158.44
515.721	1168.44
515.937	1183.44
516.153	1272.44
516.369	1253.44
516.585	1188.44
516.801	1128.44
517.016	1134.44
517.232	1196.44
517.448	1202.44
517.664	1204.44
517.879	1251.44
518.095	1269.44
518.311	1206.44
518.527	1159.44
518.742	1162.44
518.958	1119.44
519.173	1154.44
519.389	1152.44
519.605	1178.44
519.82	1177.44
520.036	1184.44
520.251	1112.44
520.467	1159.44
520.682	1234.44
520.898	1264.44
521.113	1133.44
521.329	1109.44
521.544	1181.44
521.76	1161.44
521.975	1116.44
522.19	1103.44
522.406	1136.44
522.621	1416.44
522.836	1320.44
523.052	1074.44
523.267	1116.44
523.482	1124.44
523.698	1058.44
523.913	1050.44
524.128	1078.44
524.343	1148.44
524.559	1182.44
524.774	1094.44
524.989	1072.44
525.204	1059.44
525.419	1044.44
525.634	1061.44
525.849	1049.44
526.064	1053.44
526.28	1063.44
526.495	1020.44
526.71	1011.44
526.925	961.44
527.14	1022.44
527.355	967.44
527.57	964.44
527.785	996.44
527.999	994.44
528.214	984.44
528.429	975.44
528.644	1010.44
528.859	1074.44
529.074	1080.44
529.289	1079.44
529.503	1093.44
529.718	1084.44
529.933	1059.44
530.148	982.44
530.363	967.44
530.577	970.44
530.792	1001.44
531.007	1003.44
531.221	969.44
531.436	992.44
531.651	1016.44
531.865	1045.44
532.08	983.44
532.295	959.44
532.509	945.44
532.724	949.44
532.938	998.44
533.153	1074.44
533.367	1033.44
533.582	1008.44
533.796	967.44
534.011	1020.44
534.225	992.44
534.44	992.44
534.654	982.44
534.868	971.44
535.083	1017.44
535.297	1037.44
535.511	1026.44
535.726	995.44
535.94	978.44
536.154	961.44
536.369	959.44
536.583	920.44
536.797	886.44
537.011	967.44
537.225	933.44
537.44	917.44
537.654	990.44
537.868	956.44
538.082	883.44
538.296	891.44
538.51	904.44
538.724	934.44
538.938	932.44
539.153	985.44
539.367	989.44
539.581	981.44
539.795	983.44
540.009	973.44
540.222	964.44
540.436	952.44
540.65	1057.44
540.864	1103.44
541.078	1069.44
541.292	1026.44
541.506	1057.44
541.72	1082.44
541.934	1121.44
542.147	1178.44
542.361	1117.44
542.575	1091.44
542.789	1014.44
543.002	953.44
543.216	985.44
543.43	993.44
543.644	1049.44
543.857	1126.44
544.071	1132.44
544.285	1100.44
544.498	1079.44
544.712	1094.44
544.925	1115.44
545.139	1129.44
545.352	1082.44
545.566	1059.44
545.779	1016.44
545.993	1078.44
546.206	1108.44
546.42	1080.44
546.633	1046.44
546.847	1038.44
547.06	1046.44
547.274	1072.44
547.487	1087.44
547.7	1106.44
547.914	1068.44
548.127	1057.44
548.34	1094.44
548.554	1065.44
548.767	1085.44
548.98	1097.44
549.193	1063.44
549.407	1141.44
549.62	1116.44
549.833	1052.44
550.046	1044.44
550.259	1058.44
550.473	1041.44
550.686	1022.44
550.899	993.44
551.112	1004.44
551.325	1002.44
551.538	1048.44
551.751	1154.44
551.964	944.44
552.177	895.44
552.39	950.44
552.603	986.44
552.816	1034.44
553.029	1037.44
553.242	1069.44
553.455	1054.44
553.667	1048.44
553.88	1028.44
554.093	1005.44
554.306	1008.44
554.519	1009.44
554.732	919.44
554.944	962.44
555.157	993.44
555.37	956.44
555.583	944.44
555.795	958.44
556.008	886.44
556.221	860.44
556.433	862.44
556.646	872.44
556.859	867.44
557.071	877.44
557.284	873.44
557.496	878.44
557.709	884.44
557.921	854.44
558.134	844.44
558.346	861.44
558.559	850.44
558.771	853.44
558.984	826.44
559.196	833.44
559.409	797.44
559.621	801.44
559.833	805.44
560.046	833.44
560.258	823.44
560.47	822.44
560.683	804.44
560.895	818.44
561.107	804.44
561.32	812.44
561.532	805.44
561.744	821.44
561.956	845.44
562.168	804.44
562.381	796.44
562.593	774.44
562.805	803.44
563.017	779.44
563.229	796.44
563.441	811.44
563.653	787.44
563.865	763.44
564.077	778.44
564.289	772.44
564.501	778.44
564.713	779.44
564.925	832.44
565.137	894.44
565.349	806.44
565.561	798.44
565.773	816.44
565.985	820.44
566.197	848.44
566.408	874.44
566.62	886.44
566.832	886.44
567.044	917.44
567.255	850.44
567.467	881.44
567.679	928.44
567.891	933.44
568.102	894.44
568.314	846.44
568.526	801.44
568.737	766.44
568.949	720.44
569.161	694.44
569.372	669.44
569.584	666.44
569.795	664.44
570.007	675.44
570.218	642.44
570.43	634.44
570.641	629.44
570.853	654.44
571.064	665.44
571.276	649.44
571.487	677.44
571.698	655.44
571.91	638.44
572.121	642.44
572.333	612.44
572.544	590.44
572.755	598.44
572.966	577.44
573.178	587.44
573.389	604.44
573.6	603.44
573.811	641.44
574.023	585.44
574.234	572.44
574.445	552.44
574.656	570.44
574.867	553.44
575.078	571.44
575.289	574.44
575.501	564.44
575.712	554.44
575.923	561.44
576.134	547.44
576.345	536.44
576.556	530.44
576.767	547.44
576.978	530.44
577.188	517.44
577.399	526.44
577.61	514.44
577.821	508.44
578.032	523.44
578.243	530.44
578.454	516.44
578.665	490.44
578.875	507.44
579.086	515.44
579.297	492.44
579.508	501.44
579.718	516.44
579.929	493.44
580.14	472.44
580.35	489.44
580.561	489.44
580.772	541.44
580.982	510.44
581.193	486.44
581.403	490.44
581.614	479.44
581.825	485.44
582.035	479.44
582.246	488.44
582.456	498.44
582.667	491.44
582.877	479.44
583.087	448.44
583.298	471.44
583.508	473.44
583.719	499.44
583.929	450.44
584.139	479.44
584.35	474.44
584.56	453.44
584.77	479.44
584.981	450.44
585.191	465.44
585.401	485.44
585.611	451.44
585.821	455.44
586.032	468.44
586.242	445.44
586.452	449.44
586.662	462.44
586.872	435.44
587.082	436.44
587.292	463.44
587.502	476.44
587.713	472.44
587.923	456.44
588.133	457.44
588.343	474.44
588.553	468.44
588.762	438.44
588.972	446.44
589.182	443.44
589.392	442.44
589.602	461.44
589.812	447.44
590.022	438.44
590.232	436.44
590.441	464.44
590.651	433.44
590.861	446.44
591.071	429.44
591.281	422.44
591.49	414.44
591.7	453.44
591.91	449.44
592.119	436.44
592.329	455.44
592.539	460.44
592.748	461.44
592.958	439.44
593.167	457.44
593.377	456.44
593.587	462.44
593.796	452.44
594.006	461.44
594.215	466.44
594.424	462.44
594.634	469.44
594.843	477.44
595.053	490.44
595.262	454.44
595.472	452.44
595.681	440.44
595.89	418.44
596.1	445.44
596.309	444.44
596.518	429.44
596.727	446.44
596.937	436.44
597.146	418.44
597.355	406.44
597.564	408.44
597.774	409.44
597.983	398.44
598.192	398.44
598.401	390.44
598.61	389.44
598.819	410.44
599.028	396.44
599.237	414.44
599.446	389.44
599.655	374.44
599.864	394.44
600.073	366.44
600.282	399.44
600.491	392.44
600.7	392.44
600.909	396.44
601.118	402.44
601.327	402.44
601.536	423.44
601.745	409.44
601.953	395.44
602.162	419.44
602.371	421.44
602.58	408.44
602.789	394.44
602.997	402.44
603.206	413.44
603.415	393.44
603.623	404.44
603.832	406.44
604.041	405.44
604.249	396.44
604.458	378.44
604.666	405.44
604.875	397.44
605.084	386.44
605.292	383.44
605.501	410.44
605.709	416.44
605.918	417.44
606.126	397.44
606.334	398.44
606.543	403.44
606.751	388.44
606.96	421.44
607.168	392.44
607.376	397.44
607.585	399.44
607.793	379.44
608.001	383.44
608.21	410.44
608.418	405.44
608.626	421.44
608.834	376.44
609.043	394.44
609.251	397.44
609.459	398.44
609.667	401.44
609.875	398.44
610.083	405.44
610.291	410.44
610.499	412.44
610.707	390.44
610.916	389.44
611.124	398.44
611.332	394.44
611.54	390.44
611.748	388.44
611.955	389.44
612.163	399.44
612.371	408.44
612.579	405.44
612.787	379.44
612.995	398.44
613.203	380.44
613.411	384.44
613.618	395.44
613.826	396.44
614.034	388.44
614.242	379.44
614.449	370.44
614.657	377.44
614.865	400.44
615.072	393.44
615.28	397.44
615.488	395.44
615.695	419.44
615.903	398.44
616.111	378.44
616.318	404.44
616.526	374.44
616.733	393.44
616.941	350.44
617.148	380.44
617.356	403.44
617.563	372.44
617.771	365.44
617.978	349.44
618.185	360.44
618.393	363.44
618.6	366.44
618.807	380.44
619.015	366.44
619.222	353.44
619.429	343.44
619.637	355.44
619.844	357.44
620.051	362.44
620.258	376.44
620.466	342.44
620.673	353.44
620.88	350.44
621.087	357.44
621.294	346.44
621.501	324.44
621.708	340.44
621.915	344.44
622.122	352.44
622.329	365.44
622.536	358.44
622.743	349.44
622.95	353.44
623.157	353.44
623.364	349.44
623.571	353.44
623.778	367.44
623.985	341.44
624.192	332.44
624.399	348.44
624.606	360.44
624.812	331.44
625.019	357.44
625.226	342.44
625.433	329.44
625.639	301.44
625.846	315.44
626.053	289.44
626.259	288.44
626.466	277.44
626.673	302.44
626.879	278.44
627.086	276.44
627.293	299.44
627.499	299.44
627.706	330.44
627.912	324.44
628.119	331.44
628.325	314.44
628.532	325.44
628.738	330.44
628.945	309.44
629.151	308.44
629.357	330.44
629.564	328.44
629.77	301.44
629.976	309.44
630.183	302.44
630.389	290.44
630.595	310.44
630.802	317.44
631.008	316.44
631.214	294.44
631.42	306.44
631.627	293.44
631.833	280.44
632.039	280.44
632.245	290.44
632.451	294.44
632.657	282.44
632.863	304.44
633.069	292.44
633.275	283.44
633.481	283.44
633.688	280.44
633.893	282.44
634.099	275.44
634.305	287.44
634.511	276.44
634.717	268.44
634.923	281.44
635.129	258.44
635.335	270.44
635.541	276.44
635.747	274.44
635.952	289.44
636.158	298.44
636.364	280.44
636.57	281.44
636.775	280.44
636.981	293.44
637.187	284.44
637.392	273.44
637.598	284.44
637.804	284.44
638.009	285.44
638.215	282.44
638.421	291.44
638.626	268.44
638.832	274.44
639.037	257.44
639.243	278.44
639.448	262.44
639.654	263.44
639.859	272.44
640.065	235.44
640.27	264.44
640.475	275.44
640.681	286.44
640.886	265.44
641.091	268.44
641.297	256.44
641.502	262.44
641.707	281.44
641.913	275.44
642.118	263.44
642.323	273.44
642.528	265.44
642.733	252.44
642.939	267.44
643.144	250.44
643.349	249.44
643.554	262.44
643.759	258.44
643.964	242.44
644.169	262.44
644.374	264.44
644.579	264.44
644.784	261.44
644.989	257.44
645.194	255.44
645.399	254.44
645.604	248.44
645.809	264.44
646.014	257.44
646.219	281.44
646.423	251.44
646.628	260.44
646.833	255.44
647.038	268.44
647.243	246.44
647.447	259.44
647.652	256.44
647.857	266.44
648.062	248.44
648.266	261.44
648.471	275.44
648.676	256.44
648.88	264.44
649.085	259.44
649.289	263.44
649.494	239.44
649.698	238.44
649.903	250.44
650.107	226.44
650.312	252.44
650.516	245.44
650.721	253.44
650.925	241.44
651.13	249.44
651.334	240.44
651.539	230.44
651.743	241.44
651.947	230.44
652.152	229.44
652.356	216.44
652.56	236.44
652.764	228.44
652.969	235.44
653.173	223.44
653.377	217.44
653.581	224.44
653.785	218.44
653.99	217.44
654.194	233.44
654.398	221.44
654.602	212.44
654.806	208.44
655.01	208.44
655.214	212.44
655.418	228.44
655.622	227.44
655.826	222.44
656.03	236.44
656.234	251.44
656.438	235.44
656.642	268.44
656.846	231.44
657.049	233.44
657.253	213.44
657.457	204.44
657.661	189.44
657.865	186.44
658.068	161.44
658.272	164.44
658.476	170.44
658.68	142.44
658.883	148.44
659.087	133.44
659.291	148.44
659.494	144.44
659.698	128.44
659.901	155.44
660.105	135.44
660.309	112.44
660.512	133.44
660.716	125.44
660.919	117.44
661.123	106.44
661.326	112.44
661.53	114.44
661.733	100.44
661.936	96.44
662.14	86.44
662.343	102.44
662.546	83.44
662.75	104.44
662.953	96.44
663.156	104.44
663.36	90.44
663.563	92.44
663.766	96.44
663.969	100.44
664.173	88.44
664.376	86.44
664.579	75.44
664.782	85.44
664.985	89.44
665.188	84.44
665.391	101.44
665.594	88.44
665.797	93.44
666	78.44
666.203	91.44
666.406	86.44
666.609	84.44
666.812	102.44
667.015	103.44
667.218	97.44
667.421	90.44
667.624	77.44
667.827	90.44
668.03	82.44
668.232	86.44
668.435	89.44
668.638	74.44
668.841	90.44
669.043	93.44
669.246	75.44
669.449	75.44
669.651	95.44
669.854	77.44
670.057	82.44
670.259	88.44
670.462	77.44
670.665	96.44
670.867	74.44
671.07	85.44
671.272	81.44
671.475	89.44
671.677	81.44
671.88	87.44
672.082	93.44
672.284	91.44
672.487	95.44
672.689	72.44
672.892	80.44
