Data from WStandard_LampEnergy10_LIBS07252019.E.O._I.C._HRD10591_15-53-50-928.txt Node
Date: Thu Jul 25 15:53:50 EDT 2019
User: cochatt
Spectrometer: HR+D1059
Trigger mode: 1
Integration Time (sec): 1.000000E-1
Scans to average: 1
Electric dark correction enabled: true
Nonlinearity correction enabled: false
Boxcar width: 0
XAxis mode: Wavelengths
Number of Pixels in Spectrum: 2048
>>>>>Begin Spectral Data<<<<<
223.165	-17.06
223.4	-17.06
223.635	-17.06
223.869	-28.06
224.104	-33.06
224.338	-14.06
224.573	-12.06
224.808	-9.06
225.042	-3.06
225.277	-16.06
225.511	1.94
225.746	1.94
225.98	5.94
226.215	12.94
226.449	25.94
226.683	32.94
226.918	26.94
227.152	23.94
227.387	48.94
227.621	25.94
227.856	50.94
228.09	48.94
228.324	48.94
228.559	50.94
228.793	70.94
229.027	133.94
229.262	140.94
229.496	170.94
229.73	152.94
229.964	155.94
230.199	174.94
230.433	176.94
230.667	203.94
230.901	189.94
231.136	172.94
231.37	170.94
231.604	181.94
231.838	160.94
232.072	168.94
232.306	186.94
232.541	170.94
232.775	193.94
233.009	206.94
233.243	193.94
233.477	192.94
233.711	193.94
233.945	193.94
234.179	191.94
234.413	238.94
234.647	199.94
234.881	207.94
235.115	197.94
235.349	204.94
235.583	183.94
235.817	199.94
236.051	187.94
236.285	210.94
236.519	207.94
236.753	231.94
236.987	229.94
237.221	219.94
237.455	238.94
237.689	225.94
237.922	222.94
238.156	204.94
238.39	216.94
238.624	217.94
238.858	218.94
239.091	250.94
239.325	264.94
239.559	274.94
239.793	292.94
240.027	297.94
240.26	288.94
240.494	249.94
240.728	236.94
240.961	229.94
241.195	233.94
241.429	256.94
241.662	262.94
241.896	245.94
242.13	265.94
242.363	264.94
242.597	271.94
242.83	274.94
243.064	274.94
243.298	279.94
243.531	278.94
243.765	295.94
243.998	292.94
244.232	235.94
244.465	254.94
244.699	264.94
244.932	318.94
245.166	290.94
245.399	302.94
245.633	267.94
245.866	290.94
246.099	287.94
246.333	295.94
246.566	292.94
246.8	318.94
247.033	326.94
247.266	308.94
247.5	316.94
247.733	299.94
247.966	343.94
248.2	370.94
248.433	370.94
248.666	375.94
248.899	376.94
249.133	430.94
249.366	446.94
249.599	382.94
249.832	361.94
250.066	376.94
250.299	363.94
250.532	340.94
250.765	313.94
250.998	336.94
251.231	344.94
251.465	355.94
251.698	344.94
251.931	338.94
252.164	341.94
252.397	345.94
252.63	345.94
252.863	321.94
253.096	309.94
253.329	332.94
253.562	352.94
253.795	365.94
254.028	366.94
254.261	323.94
254.494	341.94
254.727	332.94
254.96	341.94
255.193	393.94
255.426	391.94
255.659	440.94
255.892	451.94
256.124	375.94
256.357	404.94
256.59	402.94
256.823	414.94
257.056	428.94
257.289	482.94
257.521	514.94
257.754	472.94
257.987	451.94
258.22	466.94
258.452	453.94
258.685	411.94
258.918	404.94
259.151	398.94
259.383	362.94
259.616	375.94
259.849	356.94
260.081	407.94
260.314	444.94
260.547	463.94
260.779	469.94
261.012	427.94
261.244	402.94
261.477	393.94
261.71	392.94
261.942	388.94
262.175	403.94
262.407	403.94
262.64	397.94
262.872	383.94
263.105	343.94
263.337	366.94
263.57	350.94
263.802	378.94
264.035	362.94
264.267	350.94
264.499	345.94
264.732	382.94
264.964	372.94
265.197	392.94
265.429	434.94
265.661	448.94
265.894	476.94
266.126	486.94
266.358	467.94
266.591	466.94
266.823	475.94
267.055	451.94
267.287	445.94
267.52	441.94
267.752	436.94
267.984	427.94
268.216	444.94
268.448	460.94
268.681	454.94
268.913	419.94
269.145	409.94
269.377	405.94
269.609	441.94
269.841	484.94
270.073	564.94
270.306	611.94
270.538	618.94
270.77	531.94
271.002	491.94
271.234	461.94
271.466	506.94
271.698	526.94
271.93	579.94
272.162	595.94
272.394	571.94
272.626	503.94
272.858	458.94
273.09	400.94
273.322	411.94
273.553	393.94
273.785	397.94
274.017	425.94
274.249	425.94
274.481	442.94
274.713	422.94
274.945	422.94
275.176	409.94
275.408	389.94
275.64	398.94
275.872	392.94
276.104	440.94
276.335	495.94
276.567	519.94
276.799	505.94
277.031	468.94
277.262	475.94
277.494	494.94
277.726	545.94
277.957	505.94
278.189	444.94
278.421	440.94
278.652	424.94
278.884	433.94
279.115	424.94
279.347	442.94
279.579	421.94
279.81	430.94
280.042	488.94
280.273	510.94
280.505	532.94
280.736	510.94
280.968	485.94
281.199	435.94
281.431	406.94
281.662	416.94
281.894	415.94
282.125	434.94
282.356	444.94
282.588	460.94
282.819	447.94
283.051	500.94
283.282	516.94
283.513	483.94
283.745	446.94
283.976	411.94
284.207	425.94
284.439	447.94
284.67	446.94
284.901	451.94
285.132	469.94
285.364	479.94
285.595	454.94
285.826	474.94
286.057	442.94
286.288	463.94
286.52	473.94
286.751	500.94
286.982	482.94
287.213	458.94
287.444	427.94
287.675	428.94
287.906	475.94
288.138	485.94
288.369	471.94
288.6	450.94
288.831	416.94
289.062	443.94
289.293	465.94
289.524	448.94
289.755	467.94
289.986	482.94
290.217	434.94
290.448	459.94
290.679	456.94
290.91	464.94
291.141	491.94
291.371	480.94
291.602	480.94
291.833	474.94
292.064	488.94
292.295	480.94
292.526	502.94
292.757	532.94
292.987	507.94
293.218	472.94
293.449	515.94
293.68	550.94
293.91	587.94
294.141	546.94
294.372	533.94
294.603	558.94
294.833	567.94
295.064	531.94
295.295	489.94
295.525	458.94
295.756	468.94
295.987	436.94
296.217	430.94
296.448	465.94
296.679	441.94
296.909	455.94
297.14	468.94
297.37	480.94
297.601	488.94
297.831	537.94
298.062	528.94
298.292	478.94
298.523	464.94
298.753	474.94
298.984	455.94
299.214	467.94
299.445	497.94
299.675	494.94
299.905	499.94
300.136	488.94
300.366	470.94
300.597	450.94
300.827	460.94
301.057	483.94
301.288	514.94
301.518	506.94
301.748	500.94
301.979	560.94
302.209	565.94
302.439	600.94
302.669	593.94
302.9	571.94
303.13	496.94
303.36	516.94
303.59	527.94
303.82	519.94
304.051	511.94
304.281	522.94
304.511	553.94
304.741	569.94
304.971	627.94
305.201	634.94
305.431	568.94
305.661	487.94
305.891	445.94
306.121	456.94
306.352	499.94
306.582	506.94
306.812	543.94
307.042	559.94
307.272	584.94
307.502	612.94
307.731	654.94
307.961	638.94
308.191	596.94
308.421	536.94
308.651	515.94
308.881	464.94
309.111	509.94
309.341	487.94
309.571	481.94
309.8	510.94
310.03	506.94
310.26	482.94
310.49	509.94
310.72	501.94
310.949	531.94
311.179	531.94
311.409	542.94
311.639	530.94
311.868	497.94
312.098	502.94
312.328	487.94
312.557	506.94
312.787	496.94
313.017	525.94
313.246	510.94
313.476	532.94
313.706	546.94
313.935	531.94
314.165	547.94
314.394	551.94
314.624	601.94
314.853	642.94
315.083	638.94
315.312	637.94
315.542	592.94
315.771	543.94
316.001	560.94
316.23	554.94
316.46	564.94
316.689	553.94
316.919	532.94
317.148	539.94
317.377	537.94
317.607	543.94
317.836	616.94
318.065	636.94
318.295	601.94
318.524	575.94
318.753	570.94
318.983	542.94
319.212	550.94
319.441	530.94
319.67	566.94
319.9	572.94
320.129	594.94
320.358	630.94
320.587	618.94
320.816	600.94
321.046	579.94
321.275	601.94
321.504	626.94
321.733	598.94
321.962	600.94
322.191	567.94
322.42	542.94
322.649	562.94
322.878	553.94
323.108	585.94
323.337	555.94
323.566	582.94
323.795	579.94
324.024	574.94
324.253	579.94
324.482	565.94
324.71	534.94
324.939	520.94
325.168	552.94
325.397	561.94
325.626	574.94
325.855	577.94
326.084	564.94
326.313	555.94
326.542	602.94
326.77	606.94
326.999	551.94
327.228	529.94
327.457	533.94
327.686	542.94
327.914	542.94
328.143	566.94
328.372	550.94
328.6	572.94
328.829	556.94
329.058	543.94
329.287	562.94
329.515	552.94
329.744	598.94
329.972	633.94
330.201	636.94
330.43	627.94
330.658	583.94
330.887	596.94
331.115	582.94
331.344	575.94
331.572	584.94
331.801	592.94
332.03	604.94
332.258	603.94
332.486	607.94
332.715	605.94
332.943	593.94
333.172	595.94
333.4	580.94
333.629	616.94
333.857	670.94
334.085	755.94
334.314	816.94
334.542	850.94
334.771	764.94
334.999	688.94
335.227	668.94
335.455	608.94
335.684	648.94
335.912	645.94
336.14	667.94
336.369	617.94
336.597	600.94
336.825	585.94
337.053	630.94
337.281	677.94
337.51	726.94
337.738	700.94
337.966	658.94
338.194	594.94
338.422	581.94
338.65	583.94
338.878	579.94
339.106	567.94
339.334	578.94
339.562	557.94
339.79	592.94
340.018	631.94
340.246	616.94
340.474	622.94
340.702	626.94
340.93	604.94
341.158	600.94
341.386	611.94
341.614	616.94
341.842	636.94
342.07	611.94
342.298	638.94
342.526	600.94
342.754	603.94
342.981	618.94
343.209	575.94
343.437	581.94
343.665	598.94
343.893	607.94
344.12	660.94
344.348	625.94
344.576	612.94
344.804	594.94
345.031	599.94
345.259	607.94
345.487	580.94
345.714	570.94
345.942	548.94
346.17	546.94
346.397	583.94
346.625	572.94
346.853	562.94
347.08	547.94
347.308	532.94
347.535	568.94
347.763	584.94
347.99	559.94
348.218	558.94
348.445	576.94
348.673	566.94
348.9	614.94
349.128	613.94
349.355	593.94
349.583	606.94
349.81	581.94
350.037	546.94
350.265	533.94
350.492	543.94
350.72	570.94
350.947	584.94
351.174	565.94
351.402	520.94
351.629	526.94
351.856	533.94
352.083	545.94
352.311	538.94
352.538	551.94
352.765	577.94
352.992	576.94
353.22	563.94
353.447	554.94
353.674	542.94
353.901	576.94
354.128	561.94
354.355	546.94
354.583	578.94
354.81	590.94
355.037	602.94
355.264	572.94
355.491	563.94
355.718	566.94
355.945	582.94
356.172	541.94
356.399	553.94
356.626	543.94
356.853	584.94
357.08	664.94
357.307	661.94
357.534	649.94
357.761	569.94
357.988	551.94
358.215	533.94
358.441	561.94
358.668	535.94
358.895	545.94
359.122	621.94
359.349	651.94
359.576	614.94
359.802	570.94
360.029	548.94
360.256	549.94
360.483	576.94
360.709	582.94
360.936	600.94
361.163	619.94
361.39	679.94
361.616	699.94
361.843	692.94
362.07	644.94
362.296	575.94
362.523	573.94
362.749	539.94
362.976	592.94
363.203	578.94
363.429	563.94
363.656	565.94
363.882	613.94
364.109	671.94
364.335	692.94
364.562	636.94
364.788	602.94
365.015	568.94
365.241	544.94
365.468	582.94
365.694	600.94
365.92	591.94
366.147	596.94
366.373	589.94
366.599	562.94
366.826	563.94
367.052	553.94
367.278	576.94
367.505	566.94
367.731	576.94
367.957	595.94
368.184	639.94
368.41	679.94
368.636	652.94
368.862	643.94
369.089	654.94
369.315	651.94
369.541	600.94
369.767	594.94
369.993	592.94
370.219	577.94
370.445	614.94
370.672	674.94
370.898	659.94
371.124	667.94
371.35	636.94
371.576	660.94
371.802	660.94
372.028	646.94
372.254	619.94
372.48	574.94
372.706	595.94
372.932	576.94
373.158	608.94
373.384	633.94
373.61	656.94
373.835	674.94
374.061	647.94
374.287	644.94
374.513	612.94
374.739	640.94
374.965	615.94
375.191	633.94
375.416	655.94
375.642	676.94
375.868	696.94
376.094	725.94
376.319	674.94
376.545	634.94
376.771	659.94
376.997	697.94
377.222	710.94
377.448	668.94
377.674	675.94
377.899	707.94
378.125	704.94
378.35	706.94
378.576	627.94
378.802	608.94
379.027	626.94
379.253	640.94
379.478	648.94
379.704	651.94
379.929	653.94
380.155	661.94
380.38	663.94
380.606	653.94
380.831	677.94
381.057	692.94
381.282	697.94
381.507	691.94
381.733	734.94
381.958	748.94
382.184	691.94
382.409	679.94
382.634	708.94
382.86	679.94
383.085	681.94
383.31	710.94
383.535	809.94
383.761	809.94
383.986	764.94
384.211	754.94
384.436	731.94
384.662	752.94
384.887	779.94
385.112	720.94
385.337	773.94
385.562	727.94
385.787	742.94
386.013	766.94
386.238	760.94
386.463	751.94
386.688	822.94
386.913	850.94
387.138	812.94
387.363	788.94
387.588	785.94
387.813	754.94
388.038	778.94
388.263	822.94
388.488	751.94
388.713	736.94
388.938	729.94
389.163	746.94
389.387	748.94
389.612	755.94
389.837	777.94
390.062	786.94
390.287	759.94
390.512	752.94
390.736	740.94
390.961	707.94
391.186	724.94
391.411	757.94
391.636	745.94
391.86	755.94
392.085	755.94
392.31	741.94
392.534	766.94
392.759	741.94
392.984	772.94
393.208	756.94
393.433	822.94
393.658	852.94
393.882	814.94
394.107	773.94
394.331	745.94
394.556	780.94
394.78	809.94
395.005	821.94
395.229	867.94
395.454	867.94
395.678	866.94
395.903	843.94
396.127	815.94
396.352	822.94
396.576	856.94
396.801	856.94
397.025	836.94
397.249	811.94
397.474	825.94
397.698	848.94
397.922	849.94
398.147	916.94
398.371	920.94
398.595	898.94
398.82	882.94
399.044	904.94
399.268	927.94
399.492	964.94
399.717	954.94
399.941	997.94
400.165	979.94
400.389	954.94
400.613	965.94
400.837	1114.94
401.062	1188.94
401.286	1016.94
401.51	986.94
401.734	957.94
401.958	942.94
402.182	908.94
402.406	890.94
402.63	908.94
402.854	872.94
403.078	909.94
403.302	886.94
403.526	899.94
403.75	955.94
403.974	939.94
404.198	946.94
404.422	977.94
404.645	1026.94
404.869	981.94
405.093	912.94
405.317	895.94
405.541	925.94
405.765	924.94
405.988	926.94
406.212	960.94
406.436	956.94
406.66	1038.94
406.883	1044.94
407.107	1156.94
407.331	1233.94
407.555	1291.94
407.778	1140.94
408.002	1006.94
408.226	1003.94
408.449	944.94
408.673	947.94
408.896	944.94
409.12	932.94
409.344	946.94
409.567	917.94
409.791	946.94
410.014	969.94
410.238	1012.94
410.461	1066.94
410.685	969.94
410.908	942.94
411.132	922.94
411.355	932.94
411.578	923.94
411.802	931.94
412.025	944.94
412.249	937.94
412.472	928.94
412.695	894.94
412.919	916.94
413.142	907.94
413.365	932.94
413.589	969.94
413.812	1010.94
414.035	1012.94
414.258	954.94
414.482	935.94
414.705	948.94
414.928	920.94
415.151	894.94
415.374	932.94
415.597	949.94
415.821	953.94
416.044	956.94
416.267	947.94
416.49	913.94
416.713	905.94
416.936	953.94
417.159	997.94
417.382	975.94
417.605	949.94
417.828	924.94
418.051	958.94
418.274	950.94
418.497	929.94
418.72	930.94
418.943	938.94
419.166	958.94
419.389	988.94
419.611	942.94
419.834	938.94
420.057	946.94
420.28	938.94
420.503	937.94
420.726	954.94
420.948	952.94
421.171	925.94
421.394	920.94
421.617	969.94
421.839	1018.94
422.062	976.94
422.285	932.94
422.507	949.94
422.73	918.94
422.953	899.94
423.175	868.94
423.398	935.94
423.621	928.94
423.843	932.94
424.066	983.94
424.288	1027.94
424.511	1064.94
424.733	1017.94
424.956	936.94
425.178	938.94
425.401	928.94
425.623	943.94
425.846	958.94
426.068	966.94
426.291	974.94
426.513	961.94
426.735	961.94
426.958	1045.94
427.18	1059.94
427.402	1002.94
427.625	1027.94
427.847	994.94
428.069	916.94
428.292	909.94
428.514	937.94
428.736	918.94
428.958	912.94
429.181	922.94
429.403	1060.94
429.625	1225.94
429.847	1046.94
430.069	974.94
430.292	1053.94
430.514	1052.94
430.736	960.94
430.958	967.94
431.18	901.94
431.402	890.94
431.624	846.94
431.846	818.94
432.068	707.94
432.29	727.94
432.512	779.94
432.734	862.94
432.956	922.94
433.178	994.94
433.4	977.94
433.622	984.94
433.844	916.94
434.066	831.94
434.287	803.94
434.509	787.94
434.731	834.94
434.953	888.94
435.175	946.94
435.397	906.94
435.618	906.94
435.84	866.94
436.062	847.94
436.284	910.94
436.505	941.94
436.727	960.94
436.949	919.94
437.17	901.94
437.392	874.94
437.614	843.94
437.835	788.94
438.057	825.94
438.278	851.94
438.5	870.94
438.721	896.94
438.943	937.94
439.165	931.94
439.386	966.94
439.608	985.94
439.829	944.94
440.05	947.94
440.272	981.94
440.493	955.94
440.715	982.94
440.936	1003.94
441.158	1054.94
441.379	1029.94
441.6	1047.94
441.822	1036.94
442.043	1020.94
442.264	1012.94
442.486	961.94
442.707	958.94
442.928	987.94
443.149	983.94
443.371	995.94
443.592	1025.94
443.813	1034.94
444.034	1010.94
444.255	1010.94
444.476	1039.94
444.698	1034.94
444.919	1044.94
445.14	1126.94
445.361	1109.94
445.582	1087.94
445.803	1075.94
446.024	1041.94
446.245	1078.94
446.466	1082.94
446.687	1062.94
446.908	1036.94
447.129	1050.94
447.35	986.94
447.571	996.94
447.792	966.94
448.013	979.94
448.234	974.94
448.455	986.94
448.675	991.94
448.896	894.94
449.117	906.94
449.338	932.94
449.559	959.94
449.779	966.94
450	1015.94
450.221	1041.94
450.442	1020.94
450.662	960.94
450.883	870.94
451.104	895.94
451.324	886.94
451.545	888.94
451.766	879.94
451.986	866.94
452.207	829.94
452.428	815.94
452.648	807.94
452.869	759.94
453.089	776.94
453.31	768.94
453.53	774.94
453.751	738.94
453.971	722.94
454.192	730.94
454.412	780.94
454.633	788.94
454.853	785.94
455.073	764.94
455.294	798.94
455.514	778.94
455.734	788.94
455.955	767.94
456.175	750.94
456.395	728.94
456.616	728.94
456.836	743.94
457.056	734.94
457.276	737.94
457.497	712.94
457.717	690.94
457.937	720.94
458.157	739.94
458.377	692.94
458.598	672.94
458.818	689.94
459.038	701.94
459.258	708.94
459.478	722.94
459.698	697.94
459.918	737.94
460.138	798.94
460.358	824.94
460.578	845.94
460.798	872.94
461.018	900.94
461.238	876.94
461.458	880.94
461.678	856.94
461.898	856.94
462.118	831.94
462.338	852.94
462.558	836.94
462.777	880.94
462.997	888.94
463.217	897.94
463.437	886.94
463.657	814.94
463.876	841.94
464.096	833.94
464.316	853.94
464.536	886.94
464.755	882.94
464.975	887.94
465.195	875.94
465.414	887.94
465.634	880.94
465.854	873.94
466.073	978.94
466.293	938.94
466.512	857.94
466.732	884.94
466.951	908.94
467.171	905.94
467.391	869.94
467.61	884.94
467.829	934.94
468.049	1009.94
468.268	1025.94
468.488	995.94
468.707	927.94
468.927	939.94
469.146	924.94
469.365	907.94
469.585	904.94
469.804	927.94
470.023	914.94
470.243	940.94
470.462	961.94
470.681	958.94
470.901	942.94
471.12	924.94
471.339	946.94
471.558	925.94
471.777	886.94
471.997	882.94
472.216	853.94
472.435	787.94
472.654	799.94
472.873	787.94
473.092	824.94
473.311	804.94
473.53	822.94
473.749	806.94
473.968	850.94
474.187	848.94
474.406	860.94
474.625	865.94
474.844	883.94
475.063	880.94
475.282	882.94
475.501	834.94
475.72	867.94
475.939	890.94
476.158	887.94
476.377	870.94
476.596	840.94
476.814	843.94
477.033	821.94
477.252	864.94
477.471	931.94
477.69	960.94
477.908	931.94
478.127	1003.94
478.346	1044.94
478.564	1003.94
478.783	1001.94
479.002	1004.94
479.22	1032.94
479.439	1065.94
479.658	1072.94
479.876	994.94
480.095	906.94
480.313	891.94
480.532	882.94
480.751	880.94
480.969	835.94
481.188	816.94
481.406	800.94
481.624	779.94
481.843	805.94
482.061	843.94
482.28	857.94
482.498	912.94
482.717	883.94
482.935	892.94
483.153	988.94
483.372	1046.94
483.59	1002.94
483.808	968.94
484.027	968.94
484.245	1013.94
484.463	1223.94
484.681	1282.94
484.9	1050.94
485.118	978.94
485.336	946.94
485.554	914.94
485.772	911.94
485.99	881.94
486.209	892.94
486.427	900.94
486.645	973.94
486.863	1016.94
487.081	1070.94
487.299	1024.94
487.517	1011.94
487.735	1117.94
487.953	1202.94
488.171	1168.94
488.389	1127.94
488.607	1098.94
488.825	1167.94
489.043	1061.94
489.261	1002.94
489.479	1039.94
489.696	1033.94
489.914	1041.94
490.132	1051.94
490.35	1083.94
490.568	1164.94
490.786	1191.94
491.003	1193.94
491.221	1256.94
491.439	1289.94
491.657	1330.94
491.874	1371.94
492.092	1482.94
492.31	1521.94
492.527	1440.94
492.745	1381.94
492.963	1339.94
493.18	1321.94
493.398	1347.94
493.615	1342.94
493.833	1279.94
494.05	1273.94
494.268	1226.94
494.485	1239.94
494.703	1245.94
494.92	1249.94
495.138	1249.94
495.355	1241.94
495.573	1254.94
495.79	1288.94
496.008	1294.94
496.225	1266.94
496.442	1263.94
496.66	1251.94
496.877	1194.94
497.094	1241.94
497.312	1225.94
497.529	1217.94
497.746	1210.94
497.963	1274.94
498.181	1306.94
498.398	1263.94
498.615	1214.94
498.832	1146.94
499.049	1165.94
499.267	1164.94
499.484	1284.94
499.701	1348.94
499.918	1375.94
500.135	1504.94
500.352	1577.94
500.569	1582.94
500.786	1696.94
501.003	1559.94
501.22	1456.94
501.437	1408.94
501.654	1445.94
501.871	1336.94
502.088	1220.94
502.305	1195.94
502.522	1124.94
502.739	1097.94
502.956	1074.94
503.172	1057.94
503.389	1032.94
503.606	1002.94
503.823	1000.94
504.04	977.94
504.256	1005.94
504.473	1007.94
504.69	1025.94
504.907	991.94
505.123	981.94
505.34	1112.94
505.557	1380.94
505.773	1129.94
505.99	983.94
506.207	919.94
506.423	907.94
506.64	903.94
506.856	915.94
507.073	1024.94
507.289	1101.94
507.506	1023.94
507.722	896.94
507.939	849.94
508.155	866.94
508.372	870.94
508.588	841.94
508.805	806.94
509.021	794.94
509.238	795.94
509.454	768.94
509.67	742.94
509.887	736.94
510.103	753.94
510.319	752.94
510.536	769.94
510.752	765.94
510.968	756.94
511.184	826.94
511.401	752.94
511.617	711.94
511.833	710.94
512.049	700.94
512.265	693.94
512.481	726.94
512.698	748.94
512.914	778.94
513.13	766.94
513.346	711.94
513.562	691.94
513.778	698.94
513.994	734.94
514.21	742.94
514.426	770.94
514.642	816.94
514.858	790.94
515.074	739.94
515.29	732.94
515.506	727.94
515.721	742.94
515.937	769.94
516.153	795.94
516.369	775.94
516.585	762.94
516.801	726.94
517.016	754.94
517.232	752.94
517.448	774.94
517.664	801.94
517.879	783.94
518.095	819.94
518.311	772.94
518.527	756.94
518.742	746.94
518.958	744.94
519.173	770.94
519.389	793.94
519.605	792.94
519.82	783.94
520.036	795.94
520.251	776.94
520.467	796.94
520.682	833.94
520.898	804.94
521.113	742.94
521.329	719.94
521.544	768.94
521.76	755.94
521.975	734.94
522.19	731.94
522.406	725.94
522.621	904.94
522.836	875.94
523.052	750.94
523.267	745.94
523.482	766.94
523.698	746.94
523.913	725.94
524.128	759.94
524.343	792.94
524.559	804.94
524.774	776.94
524.989	763.94
525.204	764.94
525.419	744.94
525.634	739.94
525.849	714.94
526.064	730.94
526.28	716.94
526.495	700.94
526.71	652.94
526.925	632.94
527.14	635.94
527.355	623.94
527.57	631.94
527.785	683.94
527.999	673.94
528.214	665.94
528.429	694.94
528.644	743.94
528.859	795.94
529.074	838.94
529.289	854.94
529.503	827.94
529.718	785.94
529.933	748.94
530.148	668.94
530.363	641.94
530.577	633.94
530.792	616.94
531.007	658.94
531.221	618.94
531.436	650.94
531.651	653.94
531.865	692.94
532.08	640.94
532.295	628.94
532.509	604.94
532.724	630.94
532.938	655.94
533.153	685.94
533.367	725.94
533.582	759.94
533.796	726.94
534.011	711.94
534.225	675.94
534.44	650.94
534.654	624.94
534.868	645.94
535.083	702.94
535.297	717.94
535.511	694.94
535.726	697.94
535.94	696.94
536.154	666.94
536.369	632.94
536.583	612.94
536.797	624.94
537.011	642.94
537.225	620.94
537.44	598.94
537.654	640.94
537.868	638.94
538.082	611.94
538.296	602.94
538.51	638.94
538.724	672.94
538.938	716.94
539.153	750.94
539.367	728.94
539.581	699.94
539.795	674.94
540.009	656.94
540.222	625.94
540.436	670.94
540.65	760.94
540.864	802.94
541.078	808.94
541.292	851.94
541.506	891.94
541.72	942.94
541.934	1043.94
542.147	1072.94
542.361	1024.94
542.575	929.94
542.789	854.94
543.002	760.94
543.216	746.94
543.43	775.94
543.644	838.94
543.857	874.94
544.071	892.94
544.285	932.94
544.498	944.94
544.712	937.94
544.925	956.94
545.139	958.94
545.352	944.94
545.566	912.94
545.779	931.94
545.993	977.94
546.206	953.94
546.42	967.94
546.633	924.94
546.847	930.94
547.06	953.94
547.274	972.94
547.487	1008.94
547.7	988.94
547.914	992.94
548.127	978.94
548.34	968.94
548.554	940.94
548.767	942.94
548.98	942.94
549.193	917.94
549.407	946.94
549.62	976.94
549.833	917.94
550.046	908.94
550.259	902.94
550.473	898.94
550.686	909.94
550.899	893.94
551.112	858.94
551.325	833.94
551.538	856.94
551.751	866.94
551.964	698.94
552.177	732.94
552.39	798.94
552.603	848.94
552.816	891.94
553.029	900.94
553.242	931.94
553.455	925.94
553.667	879.94
553.88	900.94
554.093	864.94
554.306	852.94
554.519	848.94
554.732	834.94
554.944	832.94
555.157	830.94
555.37	823.94
555.583	814.94
555.795	816.94
556.008	742.94
556.221	708.94
556.433	709.94
556.646	727.94
556.859	731.94
557.071	736.94
557.284	764.94
557.496	748.94
557.709	762.94
557.921	757.94
558.134	737.94
558.346	734.94
558.559	714.94
558.771	706.94
558.984	680.94
559.196	691.94
559.409	682.94
559.621	666.94
559.833	675.94
560.046	680.94
560.258	709.94
560.47	693.94
560.683	681.94
560.895	680.94
561.107	684.94
561.32	671.94
561.532	679.94
561.744	692.94
561.956	719.94
562.168	679.94
562.381	682.94
562.593	652.94
562.805	647.94
563.017	641.94
563.229	628.94
563.441	646.94
563.653	628.94
563.865	626.94
564.077	594.94
564.289	607.94
564.501	609.94
564.713	634.94
564.925	632.94
565.137	665.94
565.349	595.94
565.561	617.94
565.773	626.94
565.985	618.94
566.197	634.94
566.408	689.94
566.62	683.94
566.832	684.94
567.044	666.94
567.255	651.94
567.467	638.94
567.679	683.94
567.891	656.94
568.102	644.94
568.314	583.94
568.526	547.94
568.737	518.94
568.949	510.94
569.161	463.94
569.372	470.94
569.584	438.94
569.795	441.94
570.007	449.94
570.218	436.94
570.43	448.94
570.641	467.94
570.853	475.94
571.064	488.94
571.276	510.94
571.487	483.94
571.698	468.94
571.91	482.94
572.121	467.94
572.333	468.94
572.544	437.94
572.755	419.94
572.966	397.94
573.178	387.94
573.389	393.94
573.6	411.94
573.811	432.94
574.023	420.94
574.234	379.94
574.445	387.94
574.656	381.94
574.867	399.94
575.078	407.94
575.289	408.94
575.501	376.94
575.712	380.94
575.923	388.94
576.134	390.94
576.345	408.94
576.556	403.94
576.767	408.94
576.978	394.94
577.188	394.94
577.399	379.94
577.61	377.94
577.821	369.94
578.032	360.94
578.243	366.94
578.454	352.94
578.665	337.94
578.875	343.94
579.086	336.94
579.297	340.94
579.508	360.94
579.718	357.94
579.929	358.94
580.14	327.94
580.35	332.94
580.561	361.94
580.772	392.94
580.982	368.94
581.193	353.94
581.403	355.94
581.614	339.94
581.825	370.94
582.035	343.94
582.246	336.94
582.456	375.94
582.667	366.94
582.877	346.94
583.087	344.94
583.298	338.94
583.508	351.94
583.719	336.94
583.929	324.94
584.139	318.94
584.35	315.94
584.56	329.94
584.77	330.94
584.981	338.94
585.191	338.94
585.401	356.94
585.611	350.94
585.821	324.94
586.032	314.94
586.242	306.94
586.452	318.94
586.662	331.94
586.872	311.94
587.082	308.94
587.292	332.94
587.502	345.94
587.713	323.94
587.923	337.94
588.133	311.94
588.343	305.94
588.553	310.94
588.762	319.94
588.972	321.94
589.182	308.94
589.392	318.94
589.602	312.94
589.812	324.94
590.022	314.94
590.232	310.94
590.441	321.94
590.651	313.94
590.861	325.94
591.071	290.94
591.281	288.94
591.49	304.94
591.7	311.94
591.91	308.94
592.119	330.94
592.329	314.94
592.539	319.94
592.748	345.94
592.958	339.94
593.167	326.94
593.377	331.94
593.587	325.94
593.796	330.94
594.006	310.94
594.215	326.94
594.424	330.94
594.634	325.94
594.843	342.94
595.053	377.94
595.262	332.94
595.472	332.94
595.681	324.94
595.89	332.94
596.1	321.94
596.309	329.94
596.518	318.94
596.727	330.94
596.937	324.94
597.146	321.94
597.355	323.94
597.564	305.94
597.774	299.94
597.983	293.94
598.192	269.94
598.401	284.94
598.61	282.94
598.819	296.94
599.028	298.94
599.237	291.94
599.446	296.94
599.655	273.94
599.864	283.94
600.073	282.94
600.282	289.94
600.491	300.94
600.7	298.94
600.909	285.94
601.118	305.94
601.327	313.94
601.536	339.94
601.745	350.94
601.953	353.94
602.162	343.94
602.371	355.94
602.58	358.94
602.789	358.94
602.997	334.94
603.206	349.94
603.415	327.94
603.623	346.94
603.832	346.94
604.041	342.94
604.249	330.94
604.458	308.94
604.666	289.94
604.875	302.94
605.084	305.94
605.292	350.94
605.501	346.94
605.709	359.94
605.918	357.94
606.126	336.94
606.334	363.94
606.543	374.94
606.751	362.94
606.96	359.94
607.168	359.94
607.376	355.94
607.585	348.94
607.793	362.94
608.001	371.94
608.21	363.94
608.418	371.94
608.626	368.94
608.834	369.94
609.043	357.94
609.251	371.94
609.459	362.94
609.667	361.94
609.875	385.94
610.083	376.94
610.291	384.94
610.499	376.94
610.707	362.94
610.916	363.94
611.124	374.94
611.332	374.94
611.54	360.94
611.748	382.94
611.955	358.94
612.163	370.94
612.371	363.94
612.579	353.94
612.787	353.94
612.995	357.94
613.203	376.94
613.411	366.94
613.618	351.94
613.826	351.94
614.034	357.94
614.242	372.94
614.449	364.94
614.657	359.94
614.865	347.94
615.072	355.94
615.28	357.94
615.488	371.94
615.695	383.94
615.903	346.94
616.111	367.94
616.318	368.94
616.526	344.94
616.733	347.94
616.941	348.94
617.148	348.94
617.356	345.94
617.563	327.94
617.771	335.94
617.978	320.94
618.185	333.94
618.393	337.94
618.6	369.94
618.807	355.94
619.015	349.94
619.222	331.94
619.429	329.94
619.637	297.94
619.844	289.94
620.051	299.94
620.258	315.94
620.466	338.94
620.673	320.94
620.88	314.94
621.087	320.94
621.294	295.94
621.501	307.94
621.708	306.94
621.915	308.94
622.122	321.94
622.329	333.94
622.536	318.94
622.743	322.94
622.95	329.94
623.157	326.94
623.364	340.94
623.571	323.94
623.778	311.94
623.985	313.94
624.192	312.94
624.399	303.94
624.606	311.94
624.812	308.94
625.019	299.94
625.226	280.94
625.433	287.94
625.639	294.94
625.846	271.94
626.053	258.94
626.259	258.94
626.466	213.94
626.673	241.94
626.879	238.94
627.086	260.94
627.293	287.94
627.499	286.94
627.706	290.94
627.912	302.94
628.119	303.94
628.325	299.94
628.532	307.94
628.738	279.94
628.945	284.94
629.151	289.94
629.357	280.94
629.564	283.94
629.77	290.94
629.976	269.94
630.183	256.94
630.389	256.94
630.595	286.94
630.802	284.94
631.008	280.94
631.214	288.94
631.42	275.94
631.627	268.94
631.833	259.94
632.039	258.94
632.245	265.94
632.451	258.94
632.657	283.94
632.863	247.94
633.069	292.94
633.275	258.94
633.481	269.94
633.688	237.94
633.893	250.94
634.099	254.94
634.305	247.94
634.511	258.94
634.717	238.94
634.923	240.94
635.129	253.94
635.335	239.94
635.541	238.94
635.747	235.94
635.952	247.94
636.158	254.94
636.364	262.94
636.57	261.94
636.775	262.94
636.981	257.94
637.187	271.94
637.392	264.94
637.598	264.94
637.804	276.94
638.009	274.94
638.215	260.94
638.421	247.94
638.626	255.94
638.832	268.94
639.037	242.94
639.243	238.94
639.448	260.94
639.654	253.94
639.859	251.94
640.065	252.94
640.27	227.94
640.475	258.94
640.681	256.94
640.886	241.94
641.091	260.94
641.297	219.94
641.502	252.94
641.707	260.94
641.913	238.94
642.118	263.94
642.323	256.94
642.528	244.94
642.733	259.94
642.939	259.94
643.144	246.94
643.349	240.94
643.554	244.94
643.759	243.94
643.964	226.94
644.169	234.94
644.374	235.94
644.579	225.94
644.784	245.94
644.989	249.94
645.194	245.94
645.399	248.94
645.604	246.94
645.809	243.94
646.014	234.94
646.219	258.94
646.423	242.94
646.628	252.94
646.833	234.94
647.038	244.94
647.243	243.94
647.447	230.94
647.652	243.94
647.857	232.94
648.062	242.94
648.266	241.94
648.471	239.94
648.676	242.94
648.88	248.94
649.085	240.94
649.289	247.94
649.494	220.94
649.698	233.94
649.903	228.94
650.107	242.94
650.312	230.94
650.516	234.94
650.721	232.94
650.925	229.94
651.13	222.94
651.334	226.94
651.539	219.94
651.743	217.94
651.947	220.94
652.152	215.94
652.356	211.94
652.56	212.94
652.764	215.94
652.969	217.94
653.173	209.94
653.377	197.94
653.581	217.94
653.785	219.94
653.99	203.94
654.194	198.94
654.398	210.94
654.602	211.94
654.806	190.94
655.01	186.94
655.214	203.94
655.418	205.94
655.622	207.94
655.826	222.94
656.03	211.94
656.234	228.94
656.438	214.94
656.642	223.94
656.846	208.94
657.049	198.94
657.253	197.94
657.457	181.94
657.661	176.94
657.865	182.94
658.068	183.94
658.272	155.94
658.476	147.94
658.68	155.94
658.883	151.94
659.087	134.94
659.291	148.94
659.494	138.94
659.698	134.94
659.901	133.94
660.105	132.94
660.309	121.94
660.512	146.94
660.716	130.94
660.919	121.94
661.123	113.94
661.326	114.94
661.53	117.94
661.733	110.94
661.936	107.94
662.14	100.94
662.343	106.94
662.546	103.94
662.75	107.94
662.953	97.94
663.156	99.94
663.36	93.94
663.563	101.94
663.766	83.94
663.969	90.94
664.173	67.94
664.376	78.94
664.579	84.94
664.782	84.94
664.985	86.94
665.188	100.94
665.391	76.94
665.594	75.94
665.797	79.94
666	81.94
666.203	87.94
666.406	76.94
666.609	86.94
666.812	90.94
667.015	83.94
667.218	76.94
667.421	75.94
667.624	79.94
667.827	78.94
668.03	90.94
668.232	67.94
668.435	87.94
668.638	94.94
668.841	80.94
669.043	67.94
669.246	83.94
669.449	79.94
669.651	90.94
669.854	89.94
670.057	71.94
670.259	74.94
670.462	89.94
670.665	86.94
670.867	89.94
671.07	95.94
671.272	95.94
671.475	81.94
671.677	84.94
671.88	89.94
672.082	88.94
672.284	74.94
672.487	83.94
672.689	76.94
672.892	79.94
