Data from WStandard_LampEnergy10_LIBS07252019.E.O._I.C._HRD10591_15-53-34-928.txt Node
Date: Thu Jul 25 15:53:34 EDT 2019
User: cochatt
Spectrometer: HR+D1059
Trigger mode: 1
Integration Time (sec): 1.000000E-1
Scans to average: 1
Electric dark correction enabled: true
Nonlinearity correction enabled: false
Boxcar width: 0
XAxis mode: Wavelengths
Number of Pixels in Spectrum: 2048
>>>>>Begin Spectral Data<<<<<
223.165	-16.38
223.4	-16.38
223.635	-16.38
223.869	-3.38
224.104	-17.38
224.338	-22.38
224.573	-22.38
224.808	-18.38
225.042	-10.38
225.277	-0.38
225.511	-7.38
225.746	-1.38
225.98	5.62
226.215	1.62
226.449	11.62
226.683	32.62
226.918	40.62
227.152	27.62
227.387	48.62
227.621	34.62
227.856	55.62
228.09	49.62
228.324	53.62
228.559	43.62
228.793	74.62
229.027	137.62
229.262	136.62
229.496	148.62
229.73	149.62
229.964	169.62
230.199	167.62
230.433	169.62
230.667	172.62
230.901	186.62
231.136	176.62
231.37	163.62
231.604	159.62
231.838	187.62
232.072	179.62
232.306	151.62
232.541	174.62
232.775	219.62
233.009	200.62
233.243	197.62
233.477	200.62
233.711	208.62
233.945	193.62
234.179	189.62
234.413	213.62
234.647	215.62
234.881	208.62
235.115	195.62
235.349	189.62
235.583	195.62
235.817	196.62
236.051	202.62
236.285	194.62
236.519	200.62
236.753	224.62
236.987	215.62
237.221	226.62
237.455	239.62
237.689	231.62
237.922	217.62
238.156	216.62
238.39	222.62
238.624	212.62
238.858	233.62
239.091	241.62
239.325	256.62
239.559	268.62
239.793	287.62
240.027	298.62
240.26	276.62
240.494	245.62
240.728	228.62
240.961	225.62
241.195	228.62
241.429	250.62
241.662	244.62
241.896	221.62
242.13	257.62
242.363	246.62
242.597	280.62
242.83	263.62
243.064	263.62
243.298	296.62
243.531	274.62
243.765	273.62
243.998	255.62
244.232	258.62
244.465	241.62
244.699	264.62
244.932	292.62
245.166	304.62
245.399	276.62
245.633	261.62
245.866	264.62
246.099	281.62
246.333	294.62
246.566	288.62
246.8	330.62
247.033	311.62
247.266	316.62
247.5	318.62
247.733	314.62
247.966	322.62
248.2	360.62
248.433	353.62
248.666	353.62
248.899	406.62
249.133	417.62
249.366	444.62
249.599	382.62
249.832	356.62
250.066	372.62
250.299	374.62
250.532	338.62
250.765	284.62
250.998	340.62
251.231	376.62
251.465	355.62
251.698	324.62
251.931	343.62
252.164	350.62
252.397	349.62
252.63	349.62
252.863	302.62
253.096	334.62
253.329	346.62
253.562	339.62
253.795	362.62
254.028	362.62
254.261	320.62
254.494	337.62
254.727	327.62
254.96	350.62
255.193	363.62
255.426	387.62
255.659	413.62
255.892	436.62
256.124	388.62
256.357	376.62
256.59	407.62
256.823	391.62
257.056	411.62
257.289	488.62
257.521	466.62
257.754	457.62
257.987	438.62
258.22	466.62
258.452	442.62
258.685	388.62
258.918	376.62
259.151	388.62
259.383	373.62
259.616	332.62
259.849	383.62
260.081	410.62
260.314	431.62
260.547	464.62
260.779	458.62
261.012	422.62
261.244	390.62
261.477	385.62
261.71	386.62
261.942	390.62
262.175	393.62
262.407	395.62
262.64	375.62
262.872	373.62
263.105	375.62
263.337	378.62
263.57	368.62
263.802	359.62
264.035	353.62
264.267	344.62
264.499	320.62
264.732	358.62
264.964	384.62
265.197	378.62
265.429	430.62
265.661	450.62
265.894	482.62
266.126	475.62
266.358	454.62
266.591	440.62
266.823	465.62
267.055	443.62
267.287	444.62
267.52	445.62
267.752	424.62
267.984	443.62
268.216	409.62
268.448	454.62
268.681	435.62
268.913	426.62
269.145	398.62
269.377	401.62
269.609	412.62
269.841	490.62
270.073	561.62
270.306	629.62
270.538	604.62
270.77	520.62
271.002	477.62
271.234	483.62
271.466	459.62
271.698	515.62
271.93	565.62
272.162	554.62
272.394	520.62
272.626	515.62
272.858	459.62
273.09	397.62
273.322	399.62
273.553	402.62
273.785	402.62
274.017	409.62
274.249	421.62
274.481	434.62
274.713	408.62
274.945	417.62
275.176	400.62
275.408	412.62
275.64	381.62
275.872	390.62
276.104	436.62
276.335	498.62
276.567	518.62
276.799	502.62
277.031	477.62
277.262	464.62
277.494	469.62
277.726	507.62
277.957	501.62
278.189	461.62
278.421	426.62
278.652	416.62
278.884	409.62
279.115	423.62
279.347	427.62
279.579	417.62
279.81	421.62
280.042	485.62
280.273	501.62
280.505	490.62
280.736	496.62
280.968	476.62
281.199	436.62
281.431	417.62
281.662	410.62
281.894	408.62
282.125	432.62
282.356	440.62
282.588	439.62
282.819	469.62
283.051	456.62
283.282	496.62
283.513	448.62
283.745	436.62
283.976	421.62
284.207	412.62
284.439	441.62
284.67	432.62
284.901	450.62
285.132	449.62
285.364	462.62
285.595	454.62
285.826	447.62
286.057	430.62
286.288	417.62
286.52	441.62
286.751	487.62
286.982	490.62
287.213	469.62
287.444	433.62
287.675	424.62
287.906	442.62
288.138	471.62
288.369	480.62
288.6	446.62
288.831	437.62
289.062	431.62
289.293	429.62
289.524	443.62
289.755	468.62
289.986	438.62
290.217	435.62
290.448	439.62
290.679	459.62
290.91	452.62
291.141	459.62
291.371	475.62
291.602	471.62
291.833	468.62
292.064	493.62
292.295	479.62
292.526	485.62
292.757	467.62
292.987	475.62
293.218	488.62
293.449	516.62
293.68	553.62
293.91	582.62
294.141	543.62
294.372	547.62
294.603	551.62
294.833	562.62
295.064	493.62
295.295	474.62
295.525	464.62
295.756	442.62
295.987	425.62
296.217	441.62
296.448	437.62
296.679	459.62
296.909	457.62
297.14	454.62
297.37	471.62
297.601	481.62
297.831	515.62
298.062	492.62
298.292	485.62
298.523	486.62
298.753	485.62
298.984	493.62
299.214	466.62
299.445	493.62
299.675	511.62
299.905	485.62
300.136	500.62
300.366	476.62
300.597	451.62
300.827	467.62
301.057	495.62
301.288	493.62
301.518	510.62
301.748	512.62
301.979	539.62
302.209	541.62
302.439	560.62
302.669	585.62
302.9	533.62
303.13	475.62
303.36	486.62
303.59	516.62
303.82	509.62
304.051	502.62
304.281	514.62
304.511	548.62
304.741	556.62
304.971	596.62
305.201	620.62
305.431	549.62
305.661	458.62
305.891	442.62
306.121	458.62
306.352	475.62
306.582	483.62
306.812	537.62
307.042	568.62
307.272	563.62
307.502	573.62
307.731	613.62
307.961	611.62
308.191	583.62
308.421	510.62
308.651	505.62
308.881	471.62
309.111	480.62
309.341	493.62
309.571	480.62
309.8	486.62
310.03	473.62
310.26	474.62
310.49	480.62
310.72	508.62
310.949	522.62
311.179	514.62
311.409	508.62
311.639	512.62
311.868	487.62
312.098	508.62
312.328	498.62
312.557	497.62
312.787	516.62
313.017	499.62
313.246	520.62
313.476	514.62
313.706	527.62
313.935	520.62
314.165	555.62
314.394	534.62
314.624	576.62
314.853	607.62
315.083	629.62
315.312	613.62
315.542	578.62
315.771	535.62
316.001	550.62
316.23	574.62
316.46	546.62
316.689	538.62
316.919	517.62
317.148	501.62
317.377	515.62
317.607	560.62
317.836	632.62
318.065	620.62
318.295	602.62
318.524	568.62
318.753	565.62
318.983	564.62
319.212	570.62
319.441	549.62
319.67	544.62
319.9	555.62
320.129	585.62
320.358	621.62
320.587	621.62
320.816	608.62
321.046	588.62
321.275	570.62
321.504	587.62
321.733	631.62
321.962	593.62
322.191	566.62
322.42	534.62
322.649	552.62
322.878	541.62
323.108	552.62
323.337	572.62
323.566	573.62
323.795	571.62
324.024	553.62
324.253	570.62
324.482	544.62
324.71	530.62
324.939	530.62
325.168	530.62
325.397	553.62
325.626	576.62
325.855	562.62
326.084	543.62
326.313	560.62
326.542	556.62
326.77	585.62
326.999	576.62
327.228	544.62
327.457	516.62
327.686	534.62
327.914	528.62
328.143	538.62
328.372	557.62
328.6	537.62
328.829	535.62
329.058	533.62
329.287	538.62
329.515	545.62
329.744	569.62
329.972	588.62
330.201	604.62
330.43	580.62
330.658	578.62
330.887	581.62
331.115	596.62
331.344	594.62
331.572	595.62
331.801	589.62
332.03	580.62
332.258	602.62
332.486	600.62
332.715	596.62
332.943	593.62
333.172	582.62
333.4	590.62
333.629	606.62
333.857	638.62
334.085	728.62
334.314	771.62
334.542	804.62
334.771	730.62
334.999	677.62
335.227	645.62
335.455	642.62
335.684	595.62
335.912	629.62
336.14	658.62
336.369	624.62
336.597	604.62
336.825	597.62
337.053	621.62
337.281	659.62
337.51	680.62
337.738	684.62
337.966	662.62
338.194	605.62
338.422	586.62
338.65	591.62
338.878	555.62
339.106	547.62
339.334	571.62
339.562	584.62
339.79	577.62
340.018	596.62
340.246	624.62
340.474	612.62
340.702	613.62
340.93	614.62
341.158	613.62
341.386	594.62
341.614	592.62
341.842	580.62
342.07	589.62
342.298	619.62
342.526	616.62
342.754	594.62
342.981	593.62
343.209	580.62
343.437	564.62
343.665	600.62
343.893	627.62
344.12	642.62
344.348	649.62
344.576	600.62
344.804	592.62
345.031	606.62
345.259	595.62
345.487	580.62
345.714	561.62
345.942	538.62
346.17	578.62
346.397	566.62
346.625	561.62
346.853	561.62
347.08	543.62
347.308	553.62
347.535	554.62
347.763	568.62
347.99	567.62
348.218	548.62
348.445	542.62
348.673	544.62
348.9	584.62
349.128	599.62
349.355	607.62
349.583	606.62
349.81	566.62
350.037	530.62
350.265	517.62
350.492	528.62
350.72	554.62
350.947	571.62
351.174	557.62
351.402	551.62
351.629	534.62
351.856	520.62
352.083	520.62
352.311	521.62
352.538	527.62
352.765	577.62
352.992	580.62
353.22	548.62
353.447	554.62
353.674	551.62
353.901	577.62
354.128	544.62
354.355	541.62
354.583	585.62
354.81	571.62
355.037	575.62
355.264	571.62
355.491	564.62
355.718	555.62
355.945	554.62
356.172	538.62
356.399	550.62
356.626	535.62
356.853	569.62
357.08	656.62
357.307	671.62
357.534	636.62
357.761	589.62
357.988	540.62
358.215	551.62
358.441	557.62
358.668	525.62
358.895	576.62
359.122	616.62
359.349	621.62
359.576	602.62
359.802	581.62
360.029	534.62
360.256	545.62
360.483	564.62
360.709	584.62
360.936	604.62
361.163	615.62
361.39	679.62
361.616	704.62
361.843	714.62
362.07	627.62
362.296	583.62
362.523	571.62
362.749	570.62
362.976	588.62
363.203	557.62
363.429	554.62
363.656	546.62
363.882	593.62
364.109	621.62
364.335	664.62
364.562	619.62
364.788	584.62
365.015	570.62
365.241	548.62
365.468	567.62
365.694	591.62
365.92	617.62
366.147	588.62
366.373	547.62
366.599	555.62
366.826	572.62
367.052	554.62
367.278	564.62
367.505	559.62
367.731	587.62
367.957	605.62
368.184	627.62
368.41	651.62
368.636	662.62
368.862	674.62
369.089	633.62
369.315	626.62
369.541	629.62
369.767	597.62
369.993	588.62
370.219	574.62
370.445	598.62
370.672	642.62
370.898	651.62
371.124	635.62
371.35	645.62
371.576	618.62
371.802	636.62
372.028	635.62
372.254	610.62
372.48	582.62
372.706	590.62
372.932	613.62
373.158	597.62
373.384	616.62
373.61	656.62
373.835	646.62
374.061	612.62
374.287	630.62
374.513	610.62
374.739	621.62
374.965	622.62
375.191	637.62
375.416	650.62
375.642	674.62
375.868	674.62
376.094	667.62
376.319	673.62
376.545	622.62
376.771	661.62
376.997	688.62
377.222	669.62
377.448	662.62
377.674	653.62
377.899	668.62
378.125	713.62
378.35	655.62
378.576	640.62
378.802	586.62
379.027	633.62
379.253	641.62
379.478	626.62
379.704	629.62
379.929	628.62
380.155	653.62
380.38	639.62
380.606	655.62
380.831	677.62
381.057	712.62
381.282	699.62
381.507	658.62
381.733	735.62
381.958	730.62
382.184	696.62
382.409	660.62
382.634	702.62
382.86	675.62
383.085	660.62
383.31	708.62
383.535	756.62
383.761	786.62
383.986	762.62
384.211	724.62
384.436	723.62
384.662	761.62
384.887	766.62
385.112	724.62
385.337	720.62
385.562	721.62
385.787	728.62
386.013	761.62
386.238	734.62
386.463	791.62
386.688	822.62
386.913	838.62
387.138	816.62
387.363	788.62
387.588	762.62
387.813	776.62
388.038	770.62
388.263	792.62
388.488	767.62
388.713	729.62
388.938	725.62
389.163	706.62
389.387	726.62
389.612	749.62
389.837	745.62
390.062	750.62
390.287	754.62
390.512	728.62
390.736	730.62
390.961	731.62
391.186	721.62
391.411	721.62
391.636	732.62
391.86	759.62
392.085	747.62
392.31	750.62
392.534	740.62
392.759	770.62
392.984	773.62
393.208	766.62
393.433	772.62
393.658	805.62
393.882	800.62
394.107	770.62
394.331	760.62
394.556	754.62
394.78	766.62
395.005	803.62
395.229	835.62
395.454	852.62
395.678	880.62
395.903	840.62
396.127	815.62
396.352	821.62
396.576	835.62
396.801	850.62
397.025	823.62
397.249	817.62
397.474	795.62
397.698	829.62
397.922	844.62
398.147	898.62
398.371	908.62
398.595	892.62
398.82	840.62
399.044	866.62
399.268	930.62
399.492	965.62
399.717	979.62
399.941	985.62
400.165	967.62
400.389	976.62
400.613	968.62
400.837	1098.62
401.062	1181.62
401.286	1038.62
401.51	984.62
401.734	971.62
401.958	930.62
402.182	910.62
402.406	860.62
402.63	869.62
402.854	878.62
403.078	910.62
403.302	902.62
403.526	909.62
403.75	919.62
403.974	948.62
404.198	946.62
404.422	986.62
404.645	1021.62
404.869	959.62
405.093	908.62
405.317	897.62
405.541	914.62
405.765	928.62
405.988	942.62
406.212	935.62
406.436	950.62
406.66	1016.62
406.883	999.62
407.107	1110.62
407.331	1202.62
407.555	1268.62
407.778	1121.62
408.002	983.62
408.226	941.62
408.449	983.62
408.673	933.62
408.896	940.62
409.12	936.62
409.344	954.62
409.567	901.62
409.791	914.62
410.014	969.62
410.238	1028.62
410.461	1048.62
410.685	975.62
410.908	920.62
411.132	962.62
411.355	940.62
411.578	917.62
411.802	931.62
412.025	945.62
412.249	939.62
412.472	904.62
412.695	925.62
412.919	932.62
413.142	898.62
413.365	907.62
413.589	959.62
413.812	1012.62
414.035	982.62
414.258	913.62
414.482	896.62
414.705	932.62
414.928	898.62
415.151	918.62
415.374	923.62
415.597	939.62
415.821	946.62
416.044	940.62
416.267	933.62
416.49	904.62
416.713	892.62
416.936	930.62
417.159	1007.62
417.382	946.62
417.605	902.62
417.828	949.62
418.051	942.62
418.274	917.62
418.497	909.62
418.72	926.62
418.943	876.62
419.166	942.62
419.389	975.62
419.611	960.62
419.834	917.62
420.057	928.62
420.28	922.62
420.503	939.62
420.726	945.62
420.948	938.62
421.171	915.62
421.394	926.62
421.617	1007.62
421.839	994.62
422.062	955.62
422.285	916.62
422.507	920.62
422.73	893.62
422.953	900.62
423.175	888.62
423.398	921.62
423.621	901.62
423.843	951.62
424.066	992.62
424.288	1011.62
424.511	1038.62
424.733	999.62
424.956	928.62
425.178	917.62
425.401	917.62
425.623	926.62
425.846	906.62
426.068	952.62
426.291	956.62
426.513	960.62
426.735	931.62
426.958	1024.62
427.18	1072.62
427.402	982.62
427.625	1032.62
427.847	961.62
428.069	910.62
428.292	893.62
428.514	899.62
428.736	895.62
428.958	924.62
429.181	917.62
429.403	1066.62
429.625	1211.62
429.847	1024.62
430.069	936.62
430.292	1077.62
430.514	1031.62
430.736	980.62
430.958	958.62
431.18	931.62
431.402	899.62
431.624	846.62
431.846	764.62
432.068	746.62
432.29	761.62
432.512	790.62
432.734	878.62
432.956	915.62
433.178	944.62
433.4	948.62
433.622	917.62
433.844	893.62
434.066	848.62
434.287	796.62
434.509	761.62
434.731	825.62
434.953	903.62
435.175	946.62
435.397	887.62
435.618	894.62
435.84	819.62
436.062	811.62
436.284	879.62
436.505	926.62
436.727	950.62
436.949	944.62
437.17	937.62
437.392	887.62
437.614	867.62
437.835	804.62
438.057	791.62
438.278	855.62
438.5	878.62
438.721	890.62
438.943	926.62
439.165	917.62
439.386	909.62
439.608	946.62
439.829	946.62
440.05	936.62
440.272	936.62
440.493	939.62
440.715	989.62
440.936	1003.62
441.158	1065.62
441.379	1026.62
441.6	1042.62
441.822	1008.62
442.043	1013.62
442.264	1012.62
442.486	950.62
442.707	962.62
442.928	961.62
443.149	971.62
443.371	1001.62
443.592	1004.62
443.813	1061.62
444.034	992.62
444.255	1020.62
444.476	1034.62
444.698	1022.62
444.919	1041.62
445.14	1127.62
445.361	1096.62
445.582	1069.62
445.803	1072.62
446.024	1025.62
446.245	1052.62
446.466	1046.62
446.687	1025.62
446.908	1033.62
447.129	995.62
447.35	1016.62
447.571	986.62
447.792	958.62
448.013	956.62
448.234	968.62
448.455	973.62
448.675	1000.62
448.896	922.62
449.117	900.62
449.338	936.62
449.559	935.62
449.779	974.62
450	1044.62
450.221	1025.62
450.442	999.62
450.662	960.62
450.883	865.62
451.104	864.62
451.324	899.62
451.545	891.62
451.766	867.62
451.986	837.62
452.207	806.62
452.428	783.62
452.648	792.62
452.869	798.62
453.089	782.62
453.31	798.62
453.53	770.62
453.751	728.62
453.971	702.62
454.192	744.62
454.412	762.62
454.633	791.62
454.853	761.62
455.073	750.62
455.294	774.62
455.514	753.62
455.734	762.62
455.955	760.62
456.175	744.62
456.395	757.62
456.616	727.62
456.836	726.62
457.056	722.62
457.276	729.62
457.497	679.62
457.717	688.62
457.937	696.62
458.157	726.62
458.377	712.62
458.598	660.62
458.818	686.62
459.038	690.62
459.258	722.62
459.478	723.62
459.698	710.62
459.918	732.62
460.138	790.62
460.358	809.62
460.578	801.62
460.798	850.62
461.018	877.62
461.238	878.62
461.458	852.62
461.678	840.62
461.898	805.62
462.118	811.62
462.338	821.62
462.558	840.62
462.777	837.62
462.997	855.62
463.217	882.62
463.437	886.62
463.657	838.62
463.876	834.62
464.096	831.62
464.316	824.62
464.536	860.62
464.755	880.62
464.975	838.62
465.195	866.62
465.414	895.62
465.634	841.62
465.854	874.62
466.073	946.62
466.293	924.62
466.512	890.62
466.732	855.62
466.951	854.62
467.171	898.62
467.391	877.62
467.61	872.62
467.829	942.62
468.049	981.62
468.268	1017.62
468.488	953.62
468.707	893.62
468.927	896.62
469.146	886.62
469.365	913.62
469.585	923.62
469.804	913.62
470.023	934.62
470.243	936.62
470.462	938.62
470.681	936.62
470.901	941.62
471.12	946.62
471.339	921.62
471.558	926.62
471.777	907.62
471.997	897.62
472.216	872.62
472.435	787.62
472.654	758.62
472.873	785.62
473.092	803.62
473.311	818.62
473.53	808.62
473.749	850.62
473.968	821.62
474.187	851.62
474.406	867.62
474.625	868.62
474.844	883.62
475.063	854.62
475.282	853.62
475.501	804.62
475.72	837.62
475.939	882.62
476.158	872.62
476.377	867.62
476.596	830.62
476.814	794.62
477.033	830.62
477.252	847.62
477.471	903.62
477.69	910.62
477.908	949.62
478.127	975.62
478.346	993.62
478.564	974.62
478.783	977.62
479.002	988.62
479.22	1017.62
479.439	1006.62
479.658	1024.62
479.876	981.62
480.095	912.62
480.313	873.62
480.532	891.62
480.751	845.62
480.969	830.62
481.188	779.62
481.406	778.62
481.624	742.62
481.843	759.62
482.061	816.62
482.28	855.62
482.498	896.62
482.717	838.62
482.935	867.62
483.153	964.62
483.372	1037.62
483.59	990.62
483.808	997.62
484.027	924.62
484.245	972.62
484.463	1221.62
484.681	1286.62
484.9	1019.62
485.118	962.62
485.336	933.62
485.554	896.62
485.772	876.62
485.99	852.62
486.209	888.62
486.427	904.62
486.645	921.62
486.863	1004.62
487.081	1043.62
487.299	978.62
487.517	972.62
487.735	1082.62
487.953	1214.62
488.171	1158.62
488.389	1130.62
488.607	1092.62
488.825	1154.62
489.043	1038.62
489.261	975.62
489.479	1034.62
489.696	1057.62
489.914	1030.62
490.132	1052.62
490.35	1056.62
490.568	1181.62
490.786	1152.62
491.003	1191.62
491.221	1234.62
491.439	1273.62
491.657	1308.62
491.874	1383.62
492.092	1443.62
492.31	1500.62
492.527	1446.62
492.745	1337.62
492.963	1292.62
493.18	1317.62
493.398	1323.62
493.615	1333.62
493.833	1306.62
494.05	1235.62
494.268	1250.62
494.485	1236.62
494.703	1240.62
494.92	1222.62
495.138	1237.62
495.355	1248.62
495.573	1254.62
495.79	1289.62
496.008	1294.62
496.225	1244.62
496.442	1220.62
496.66	1245.62
496.877	1214.62
497.094	1227.62
497.312	1197.62
497.529	1206.62
497.746	1196.62
497.963	1247.62
498.181	1294.62
498.398	1250.62
498.615	1209.62
498.832	1177.62
499.049	1148.62
499.267	1178.62
499.484	1215.62
499.701	1324.62
499.918	1385.62
500.135	1443.62
500.352	1528.62
500.569	1557.62
500.786	1674.62
501.003	1534.62
501.22	1452.62
501.437	1374.62
501.654	1379.62
501.871	1316.62
502.088	1171.62
502.305	1164.62
502.522	1133.62
502.739	1074.62
502.956	1037.62
503.172	1042.62
503.389	1014.62
503.606	972.62
503.823	1003.62
504.04	996.62
504.256	1019.62
504.473	994.62
504.69	1000.62
504.907	970.62
505.123	975.62
505.34	1094.62
505.557	1367.62
505.773	1137.62
505.99	938.62
506.207	894.62
506.423	870.62
506.64	886.62
506.856	901.62
507.073	1025.62
507.289	1076.62
507.506	985.62
507.722	868.62
507.939	869.62
508.155	857.62
508.372	841.62
508.588	824.62
508.805	814.62
509.021	752.62
509.238	762.62
509.454	764.62
509.67	726.62
509.887	732.62
510.103	722.62
510.319	747.62
510.536	762.62
510.752	766.62
510.968	772.62
511.184	779.62
511.401	777.62
511.617	714.62
511.833	682.62
512.049	692.62
512.265	697.62
512.481	735.62
512.698	737.62
512.914	765.62
513.13	740.62
513.346	706.62
513.562	697.62
513.778	682.62
513.994	743.62
514.21	757.62
514.426	770.62
514.642	804.62
514.858	749.62
515.074	714.62
515.29	696.62
515.506	714.62
515.721	732.62
515.937	772.62
516.153	805.62
516.369	789.62
516.585	753.62
516.801	709.62
517.016	738.62
517.232	729.62
517.448	756.62
517.664	758.62
517.879	807.62
518.095	816.62
518.311	785.62
518.527	742.62
518.742	722.62
518.958	713.62
519.173	745.62
519.389	793.62
519.605	762.62
519.82	784.62
520.036	784.62
520.251	745.62
520.467	790.62
520.682	813.62
520.898	782.62
521.113	702.62
521.329	721.62
521.544	765.62
521.76	728.62
521.975	709.62
522.19	724.62
522.406	701.62
522.621	932.62
522.836	853.62
523.052	696.62
523.267	740.62
523.482	762.62
523.698	730.62
523.913	728.62
524.128	750.62
524.343	786.62
524.559	843.62
524.774	772.62
524.989	766.62
525.204	774.62
525.419	733.62
525.634	705.62
525.849	729.62
526.064	727.62
526.28	705.62
526.495	672.62
526.71	638.62
526.925	626.62
527.14	625.62
527.355	609.62
527.57	639.62
527.785	662.62
527.999	669.62
528.214	681.62
528.429	705.62
528.644	745.62
528.859	795.62
529.074	824.62
529.289	872.62
529.503	882.62
529.718	827.62
529.933	719.62
530.148	669.62
530.363	643.62
530.577	606.62
530.792	636.62
531.007	629.62
531.221	625.62
531.436	634.62
531.651	648.62
531.865	677.62
532.08	638.62
532.295	619.62
532.509	626.62
532.724	608.62
532.938	653.62
533.153	713.62
533.367	748.62
533.582	760.62
533.796	723.62
534.011	715.62
534.225	645.62
534.44	650.62
534.654	637.62
534.868	641.62
535.083	699.62
535.297	704.62
535.511	684.62
535.726	681.62
535.94	673.62
536.154	662.62
536.369	606.62
536.583	579.62
536.797	600.62
537.011	626.62
537.225	590.62
537.44	620.62
537.654	647.62
537.868	632.62
538.082	605.62
538.296	601.62
538.51	630.62
538.724	663.62
538.938	728.62
539.153	757.62
539.367	731.62
539.581	695.62
539.795	688.62
540.009	631.62
540.222	650.62
540.436	676.62
540.65	733.62
540.864	804.62
541.078	826.62
541.292	839.62
541.506	887.62
541.72	954.62
541.934	1022.62
542.147	1046.62
542.361	998.62
542.575	901.62
542.789	829.62
543.002	756.62
543.216	728.62
543.43	772.62
543.644	792.62
543.857	878.62
544.071	916.62
544.285	924.62
544.498	913.62
544.712	926.62
544.925	935.62
545.139	955.62
545.352	946.62
545.566	906.62
545.779	904.62
545.993	948.62
546.206	978.62
546.42	972.62
546.633	950.62
546.847	926.62
547.06	955.62
547.274	977.62
547.487	982.62
547.7	982.62
547.914	999.62
548.127	966.62
548.34	966.62
548.554	915.62
548.767	941.62
548.98	917.62
549.193	912.62
549.407	977.62
549.62	952.62
549.833	936.62
550.046	898.62
550.259	909.62
550.473	873.62
550.686	882.62
550.899	873.62
551.112	861.62
551.325	832.62
551.538	831.62
551.751	841.62
551.964	694.62
552.177	726.62
552.39	789.62
552.603	831.62
552.816	876.62
553.029	903.62
553.242	912.62
553.455	937.62
553.667	924.62
553.88	894.62
554.093	890.62
554.306	851.62
554.519	826.62
554.732	840.62
554.944	843.62
555.157	842.62
555.37	810.62
555.583	818.62
555.795	794.62
556.008	752.62
556.221	725.62
556.433	712.62
556.646	740.62
556.859	744.62
557.071	733.62
557.284	738.62
557.496	749.62
557.709	748.62
557.921	734.62
558.134	722.62
558.346	736.62
558.559	730.62
558.771	715.62
558.984	694.62
559.196	688.62
559.409	677.62
559.621	661.62
559.833	700.62
560.046	711.62
560.258	698.62
560.47	668.62
560.683	685.62
560.895	688.62
561.107	680.62
561.32	684.62
561.532	702.62
561.744	683.62
561.956	658.62
562.168	676.62
562.381	652.62
562.593	626.62
562.805	643.62
563.017	627.62
563.229	646.62
563.441	645.62
563.653	625.62
563.865	638.62
564.077	610.62
564.289	620.62
564.501	615.62
564.713	629.62
564.925	677.62
565.137	660.62
565.349	610.62
565.561	637.62
565.773	620.62
565.985	638.62
566.197	647.62
566.408	662.62
566.62	659.62
566.832	665.62
567.044	669.62
567.255	642.62
567.467	640.62
567.679	674.62
567.891	650.62
568.102	589.62
568.314	591.62
568.526	545.62
568.737	535.62
568.949	491.62
569.161	462.62
569.372	452.62
569.584	460.62
569.795	446.62
570.007	457.62
570.218	450.62
570.43	449.62
570.641	443.62
570.853	453.62
571.064	481.62
571.276	488.62
571.487	462.62
571.698	466.62
571.91	478.62
572.121	480.62
572.333	461.62
572.544	428.62
572.755	413.62
572.966	388.62
573.178	391.62
573.389	379.62
573.6	408.62
573.811	425.62
574.023	390.62
574.234	393.62
574.445	381.62
574.656	401.62
574.867	384.62
575.078	395.62
575.289	388.62
575.501	396.62
575.712	390.62
575.923	402.62
576.134	417.62
576.345	397.62
576.556	407.62
576.767	394.62
576.978	392.62
577.188	384.62
577.399	388.62
577.61	381.62
577.821	367.62
578.032	377.62
578.243	364.62
578.454	350.62
578.665	345.62
578.875	331.62
579.086	341.62
579.297	332.62
579.508	375.62
579.718	339.62
579.929	358.62
580.14	348.62
580.35	342.62
580.561	362.62
580.772	380.62
580.982	375.62
581.193	362.62
581.403	359.62
581.614	357.62
581.825	353.62
582.035	361.62
582.246	330.62
582.456	368.62
582.667	353.62
582.877	352.62
583.087	335.62
583.298	325.62
583.508	331.62
583.719	331.62
583.929	332.62
584.139	316.62
584.35	297.62
584.56	313.62
584.77	320.62
584.981	325.62
585.191	321.62
585.401	342.62
585.611	331.62
585.821	329.62
586.032	332.62
586.242	327.62
586.452	308.62
586.662	350.62
586.872	331.62
587.082	308.62
587.292	334.62
587.502	320.62
587.713	320.62
587.923	309.62
588.133	325.62
588.343	314.62
588.553	316.62
588.762	301.62
588.972	301.62
589.182	315.62
589.392	324.62
589.602	309.62
589.812	325.62
590.022	316.62
590.232	304.62
590.441	306.62
590.651	320.62
590.861	310.62
591.071	298.62
591.281	313.62
591.49	305.62
591.7	304.62
591.91	316.62
592.119	297.62
592.329	322.62
592.539	329.62
592.748	319.62
592.958	304.62
593.167	327.62
593.377	326.62
593.587	312.62
593.796	334.62
594.006	320.62
594.215	327.62
594.424	334.62
594.634	327.62
594.843	330.62
595.053	355.62
595.262	331.62
595.472	321.62
595.681	308.62
595.89	317.62
596.1	317.62
596.309	322.62
596.518	322.62
596.727	320.62
596.937	336.62
597.146	331.62
597.355	321.62
597.564	303.62
597.774	291.62
597.983	286.62
598.192	281.62
598.401	278.62
598.61	298.62
598.819	297.62
599.028	305.62
599.237	315.62
599.446	292.62
599.655	283.62
599.864	277.62
600.073	314.62
600.282	300.62
600.491	282.62
600.7	310.62
600.909	316.62
601.118	305.62
601.327	340.62
601.536	361.62
601.745	343.62
601.953	351.62
602.162	349.62
602.371	336.62
602.58	337.62
602.789	343.62
602.997	371.62
603.206	363.62
603.415	348.62
603.623	353.62
603.832	343.62
604.041	331.62
604.249	333.62
604.458	292.62
604.666	307.62
604.875	323.62
605.084	309.62
605.292	355.62
605.501	345.62
605.709	347.62
605.918	360.62
606.126	380.62
606.334	373.62
606.543	371.62
606.751	377.62
606.96	370.62
607.168	357.62
607.376	365.62
607.585	360.62
607.793	354.62
608.001	368.62
608.21	378.62
608.418	353.62
608.626	370.62
608.834	380.62
609.043	374.62
609.251	360.62
609.459	341.62
609.667	375.62
609.875	354.62
610.083	376.62
610.291	378.62
610.499	349.62
610.707	358.62
610.916	364.62
611.124	365.62
611.332	373.62
611.54	366.62
611.748	364.62
611.955	341.62
612.163	348.62
612.371	361.62
612.579	359.62
612.787	365.62
612.995	390.62
613.203	376.62
613.411	344.62
613.618	358.62
613.826	376.62
614.034	357.62
614.242	377.62
614.449	352.62
614.657	358.62
614.865	365.62
615.072	366.62
615.28	384.62
615.488	362.62
615.695	394.62
615.903	370.62
616.111	350.62
616.318	359.62
616.526	365.62
616.733	349.62
616.941	372.62
617.148	350.62
617.356	349.62
617.563	358.62
617.771	351.62
617.978	316.62
618.185	360.62
618.393	332.62
618.6	348.62
618.807	339.62
619.015	353.62
619.222	341.62
619.429	335.62
619.637	309.62
619.844	293.62
620.051	315.62
620.258	348.62
620.466	333.62
620.673	322.62
620.88	322.62
621.087	314.62
621.294	299.62
621.501	306.62
621.708	315.62
621.915	300.62
622.122	333.62
622.329	318.62
622.536	325.62
622.743	334.62
622.95	330.62
623.157	320.62
623.364	331.62
623.571	317.62
623.778	321.62
623.985	334.62
624.192	332.62
624.399	314.62
624.606	314.62
624.812	312.62
625.019	318.62
625.226	308.62
625.433	299.62
625.639	282.62
625.846	290.62
626.053	246.62
626.259	242.62
626.466	229.62
626.673	236.62
626.879	240.62
627.086	258.62
627.293	255.62
627.499	278.62
627.706	292.62
627.912	300.62
628.119	306.62
628.325	316.62
628.532	304.62
628.738	279.62
628.945	301.62
629.151	290.62
629.357	292.62
629.564	287.62
629.77	284.62
629.976	295.62
630.183	262.62
630.389	269.62
630.595	299.62
630.802	277.62
631.008	279.62
631.214	291.62
631.42	261.62
631.627	253.62
631.833	242.62
632.039	254.62
632.245	277.62
632.451	278.62
632.657	277.62
632.863	269.62
633.069	265.62
633.275	265.62
633.481	257.62
633.688	285.62
633.893	249.62
634.099	258.62
634.305	267.62
634.511	248.62
634.717	231.62
634.923	217.62
635.129	233.62
635.335	238.62
635.541	252.62
635.747	254.62
635.952	260.62
636.158	266.62
636.364	278.62
636.57	264.62
636.775	275.62
636.981	253.62
637.187	269.62
637.392	283.62
637.598	284.62
637.804	262.62
638.009	269.62
638.215	251.62
638.421	250.62
638.626	230.62
638.832	233.62
639.037	248.62
639.243	260.62
639.448	242.62
639.654	243.62
639.859	238.62
640.065	265.62
640.27	263.62
640.475	246.62
640.681	244.62
640.886	249.62
641.091	252.62
641.297	257.62
641.502	266.62
641.707	248.62
641.913	255.62
642.118	256.62
642.323	248.62
642.528	261.62
642.733	230.62
642.939	254.62
643.144	242.62
643.349	240.62
643.554	252.62
643.759	245.62
643.964	219.62
644.169	230.62
644.374	241.62
644.579	253.62
644.784	256.62
644.989	260.62
645.194	244.62
645.399	228.62
645.604	234.62
645.809	245.62
646.014	248.62
646.219	260.62
646.423	252.62
646.628	249.62
646.833	237.62
647.038	234.62
647.243	249.62
647.447	251.62
647.652	228.62
647.857	248.62
648.062	266.62
648.266	246.62
648.471	241.62
648.676	254.62
648.88	251.62
649.085	254.62
649.289	248.62
649.494	241.62
649.698	239.62
649.903	244.62
650.107	241.62
650.312	230.62
650.516	213.62
650.721	229.62
650.925	233.62
651.13	205.62
651.334	219.62
651.539	228.62
651.743	217.62
651.947	224.62
652.152	227.62
652.356	227.62
652.56	198.62
652.764	218.62
652.969	215.62
653.173	204.62
653.377	218.62
653.581	203.62
653.785	196.62
653.99	201.62
654.194	214.62
654.398	211.62
654.602	202.62
654.806	194.62
655.01	212.62
655.214	203.62
655.418	221.62
655.622	215.62
655.826	218.62
656.03	204.62
656.234	223.62
656.438	221.62
656.642	238.62
656.846	221.62
657.049	216.62
657.253	209.62
657.457	208.62
657.661	196.62
657.865	185.62
658.068	161.62
658.272	167.62
658.476	167.62
658.68	149.62
658.883	153.62
659.087	123.62
659.291	137.62
659.494	154.62
659.698	130.62
659.901	112.62
660.105	122.62
660.309	122.62
660.512	137.62
660.716	126.62
660.919	128.62
661.123	113.62
661.326	116.62
661.53	125.62
661.733	107.62
661.936	112.62
662.14	98.62
662.343	107.62
662.546	99.62
662.75	108.62
662.953	94.62
663.156	89.62
663.36	93.62
663.563	91.62
663.766	103.62
663.969	92.62
664.173	91.62
664.376	85.62
664.579	105.62
664.782	91.62
664.985	84.62
665.188	85.62
665.391	83.62
665.594	82.62
665.797	71.62
666	94.62
666.203	83.62
666.406	86.62
666.609	82.62
666.812	74.62
667.015	89.62
667.218	85.62
667.421	82.62
667.624	90.62
667.827	81.62
668.03	79.62
668.232	87.62
668.435	88.62
668.638	80.62
668.841	81.62
669.043	82.62
669.246	77.62
669.449	73.62
669.651	86.62
669.854	68.62
670.057	78.62
670.259	74.62
670.462	84.62
670.665	80.62
670.867	90.62
671.07	78.62
671.272	86.62
671.475	87.62
671.677	101.62
671.88	88.62
672.082	86.62
672.284	62.62
672.487	90.62
672.689	86.62
672.892	91.62
