Data from WStandard_LampEnergy10_LIBS07252019.E.O._I.C._HRD10591_15-54-51-928.txt Node
Date: Thu Jul 25 15:54:51 EDT 2019
User: cochatt
Spectrometer: HR+D1059
Trigger mode: 1
Integration Time (sec): 1.000000E-1
Scans to average: 1
Electric dark correction enabled: true
Nonlinearity correction enabled: false
Boxcar width: 0
XAxis mode: Wavelengths
Number of Pixels in Spectrum: 2048
>>>>>Begin Spectral Data<<<<<
223.165	-11.31
223.4	-11.31
223.635	-11.31
223.869	-24.31
224.104	-29.31
224.338	-25.31
224.573	-12.31
224.808	-22.31
225.042	-0.31
225.277	-4.31
225.511	5.69
225.746	16.69
225.98	19.69
226.215	20.69
226.449	10.69
226.683	17.69
226.918	27.69
227.152	10.69
227.387	34.69
227.621	50.69
227.856	49.69
228.09	44.69
228.324	51.69
228.559	49.69
228.793	74.69
229.027	132.69
229.262	149.69
229.496	148.69
229.73	148.69
229.964	153.69
230.199	157.69
230.433	170.69
230.667	178.69
230.901	185.69
231.136	174.69
231.37	184.69
231.604	167.69
231.838	164.69
232.072	165.69
232.306	184.69
232.541	168.69
232.775	186.69
233.009	205.69
233.243	210.69
233.477	195.69
233.711	178.69
233.945	196.69
234.179	203.69
234.413	214.69
234.647	211.69
234.881	193.69
235.115	192.69
235.349	204.69
235.583	203.69
235.817	195.69
236.051	196.69
236.285	201.69
236.519	203.69
236.753	224.69
236.987	247.69
237.221	209.69
237.455	248.69
237.689	224.69
237.922	219.69
238.156	211.69
238.39	205.69
238.624	211.69
238.858	245.69
239.091	254.69
239.325	255.69
239.559	293.69
239.793	309.69
240.027	316.69
240.26	282.69
240.494	248.69
240.728	233.69
240.961	244.69
241.195	239.69
241.429	251.69
241.662	247.69
241.896	244.69
242.13	250.69
242.363	267.69
242.597	281.69
242.83	261.69
243.064	276.69
243.298	280.69
243.531	264.69
243.765	289.69
243.998	292.69
244.232	256.69
244.465	249.69
244.699	247.69
244.932	274.69
245.166	297.69
245.399	291.69
245.633	271.69
245.866	278.69
246.099	292.69
246.333	299.69
246.566	299.69
246.8	305.69
247.033	326.69
247.266	309.69
247.5	305.69
247.733	319.69
247.966	345.69
248.2	361.69
248.433	339.69
248.666	358.69
248.899	361.69
249.133	437.69
249.366	461.69
249.599	411.69
249.832	367.69
250.066	376.69
250.299	373.69
250.532	329.69
250.765	312.69
250.998	349.69
251.231	352.69
251.465	351.69
251.698	352.69
251.931	335.69
252.164	352.69
252.397	356.69
252.63	346.69
252.863	327.69
253.096	341.69
253.329	341.69
253.562	368.69
253.795	383.69
254.028	356.69
254.261	343.69
254.494	323.69
254.727	321.69
254.96	334.69
255.193	397.69
255.426	419.69
255.659	456.69
255.892	444.69
256.124	393.69
256.357	395.69
256.59	398.69
256.823	406.69
257.056	414.69
257.289	473.69
257.521	495.69
257.754	463.69
257.987	459.69
258.22	479.69
258.452	455.69
258.685	384.69
258.918	380.69
259.151	385.69
259.383	373.69
259.616	347.69
259.849	362.69
260.081	396.69
260.314	444.69
260.547	451.69
260.779	473.69
261.012	443.69
261.244	401.69
261.477	382.69
261.71	421.69
261.942	407.69
262.175	382.69
262.407	405.69
262.64	375.69
262.872	359.69
263.105	389.69
263.337	372.69
263.57	385.69
263.802	355.69
264.035	343.69
264.267	337.69
264.499	336.69
264.732	368.69
264.964	379.69
265.197	392.69
265.429	412.69
265.661	456.69
265.894	495.69
266.126	486.69
266.358	445.69
266.591	476.69
266.823	496.69
267.055	470.69
267.287	437.69
267.52	441.69
267.752	442.69
267.984	457.69
268.216	450.69
268.448	485.69
268.681	465.69
268.913	433.69
269.145	417.69
269.377	416.69
269.609	451.69
269.841	529.69
270.073	555.69
270.306	630.69
270.538	599.69
270.77	552.69
271.002	500.69
271.234	474.69
271.466	469.69
271.698	536.69
271.93	589.69
272.162	594.69
272.394	543.69
272.626	514.69
272.858	450.69
273.09	398.69
273.322	413.69
273.553	401.69
273.785	404.69
274.017	431.69
274.249	448.69
274.481	436.69
274.713	433.69
274.945	405.69
275.176	413.69
275.408	403.69
275.64	397.69
275.872	390.69
276.104	449.69
276.335	481.69
276.567	541.69
276.799	546.69
277.031	483.69
277.262	465.69
277.494	471.69
277.726	533.69
277.957	522.69
278.189	457.69
278.421	433.69
278.652	424.69
278.884	445.69
279.115	419.69
279.347	440.69
279.579	435.69
279.81	432.69
280.042	508.69
280.273	492.69
280.505	497.69
280.736	485.69
280.968	471.69
281.199	450.69
281.431	426.69
281.662	435.69
281.894	433.69
282.125	436.69
282.356	449.69
282.588	447.69
282.819	441.69
283.051	488.69
283.282	521.69
283.513	499.69
283.745	437.69
283.976	428.69
284.207	419.69
284.439	417.69
284.67	440.69
284.901	472.69
285.132	455.69
285.364	445.69
285.595	461.69
285.826	464.69
286.057	449.69
286.288	442.69
286.52	483.69
286.751	504.69
286.982	471.69
287.213	463.69
287.444	428.69
287.675	451.69
287.906	484.69
288.138	496.69
288.369	469.69
288.6	456.69
288.831	436.69
289.062	435.69
289.293	442.69
289.524	463.69
289.755	484.69
289.986	451.69
290.217	445.69
290.448	442.69
290.679	432.69
290.91	455.69
291.141	481.69
291.371	481.69
291.602	473.69
291.833	487.69
292.064	489.69
292.295	495.69
292.526	500.69
292.757	484.69
292.987	475.69
293.218	473.69
293.449	525.69
293.68	561.69
293.91	562.69
294.141	568.69
294.372	541.69
294.603	561.69
294.833	572.69
295.064	531.69
295.295	513.69
295.525	460.69
295.756	451.69
295.987	437.69
296.217	444.69
296.448	465.69
296.679	469.69
296.909	474.69
297.14	476.69
297.37	491.69
297.601	534.69
297.831	535.69
298.062	521.69
298.292	492.69
298.523	460.69
298.753	479.69
298.984	478.69
299.214	480.69
299.445	496.69
299.675	503.69
299.905	481.69
300.136	482.69
300.366	481.69
300.597	460.69
300.827	452.69
301.057	490.69
301.288	510.69
301.518	489.69
301.748	528.69
301.979	545.69
302.209	563.69
302.439	591.69
302.669	577.69
302.9	546.69
303.13	519.69
303.36	499.69
303.59	521.69
303.82	498.69
304.051	503.69
304.281	510.69
304.511	570.69
304.741	562.69
304.971	610.69
305.201	634.69
305.431	548.69
305.661	467.69
305.891	452.69
306.121	456.69
306.352	488.69
306.582	515.69
306.812	551.69
307.042	548.69
307.272	580.69
307.502	594.69
307.731	634.69
307.961	641.69
308.191	577.69
308.421	554.69
308.651	505.69
308.881	472.69
309.111	519.69
309.341	489.69
309.571	499.69
309.8	504.69
310.03	492.69
310.26	507.69
310.49	517.69
310.72	498.69
310.949	510.69
311.179	515.69
311.409	519.69
311.639	531.69
311.868	507.69
312.098	534.69
312.328	511.69
312.557	504.69
312.787	511.69
313.017	529.69
313.246	512.69
313.476	515.69
313.706	502.69
313.935	520.69
314.165	546.69
314.394	555.69
314.624	610.69
314.853	625.69
315.083	607.69
315.312	641.69
315.542	576.69
315.771	545.69
316.001	562.69
316.23	579.69
316.46	571.69
316.689	548.69
316.919	515.69
317.148	508.69
317.377	567.69
317.607	584.69
317.836	645.69
318.065	632.69
318.295	604.69
318.524	579.69
318.753	577.69
318.983	577.69
319.212	572.69
319.441	526.69
319.67	544.69
319.9	580.69
320.129	599.69
320.358	602.69
320.587	631.69
320.816	603.69
321.046	592.69
321.275	581.69
321.504	598.69
321.733	644.69
321.962	604.69
322.191	553.69
322.42	563.69
322.649	526.69
322.878	559.69
323.108	565.69
323.337	564.69
323.566	567.69
323.795	583.69
324.024	572.69
324.253	566.69
324.482	567.69
324.71	541.69
324.939	525.69
325.168	522.69
325.397	549.69
325.626	597.69
325.855	569.69
326.084	554.69
326.313	567.69
326.542	579.69
326.77	578.69
326.999	567.69
327.228	564.69
327.457	528.69
327.686	535.69
327.914	539.69
328.143	555.69
328.372	545.69
328.6	553.69
328.829	541.69
329.058	533.69
329.287	526.69
329.515	557.69
329.744	564.69
329.972	610.69
330.201	617.69
330.43	612.69
330.658	571.69
330.887	594.69
331.115	599.69
331.344	581.69
331.572	577.69
331.801	603.69
332.03	589.69
332.258	585.69
332.486	593.69
332.715	625.69
332.943	588.69
333.172	614.69
333.4	608.69
333.629	602.69
333.857	671.69
334.085	741.69
334.314	833.69
334.542	828.69
334.771	746.69
334.999	681.69
335.227	645.69
335.455	623.69
335.684	650.69
335.912	651.69
336.14	651.69
336.369	605.69
336.597	594.69
336.825	608.69
337.053	639.69
337.281	671.69
337.51	695.69
337.738	693.69
337.966	639.69
338.194	614.69
338.422	609.69
338.65	592.69
338.878	586.69
339.106	569.69
339.334	556.69
339.562	573.69
339.79	598.69
340.018	609.69
340.246	601.69
340.474	611.69
340.702	619.69
340.93	605.69
341.158	590.69
341.386	610.69
341.614	599.69
341.842	599.69
342.07	626.69
342.298	608.69
342.526	581.69
342.754	602.69
342.981	589.69
343.209	582.69
343.437	581.69
343.665	597.69
343.893	620.69
344.12	637.69
344.348	643.69
344.576	605.69
344.804	617.69
345.031	612.69
345.259	599.69
345.487	583.69
345.714	579.69
345.942	544.69
346.17	567.69
346.397	569.69
346.625	574.69
346.853	563.69
347.08	532.69
347.308	567.69
347.535	571.69
347.763	557.69
347.99	556.69
348.218	564.69
348.445	569.69
348.673	583.69
348.9	591.69
349.128	610.69
349.355	616.69
349.583	593.69
349.81	579.69
350.037	522.69
350.265	531.69
350.492	570.69
350.72	571.69
350.947	585.69
351.174	592.69
351.402	546.69
351.629	521.69
351.856	543.69
352.083	527.69
352.311	551.69
352.538	546.69
352.765	588.69
352.992	577.69
353.22	551.69
353.447	566.69
353.674	565.69
353.901	556.69
354.128	560.69
354.355	556.69
354.583	571.69
354.81	586.69
355.037	560.69
355.264	580.69
355.491	592.69
355.718	568.69
355.945	554.69
356.172	538.69
356.399	539.69
356.626	580.69
356.853	605.69
357.08	645.69
357.307	675.69
357.534	635.69
357.761	576.69
357.988	545.69
358.215	536.69
358.441	524.69
358.668	527.69
358.895	566.69
359.122	600.69
359.349	633.69
359.576	600.69
359.802	572.69
360.029	537.69
360.256	530.69
360.483	557.69
360.709	584.69
360.936	607.69
361.163	644.69
361.39	667.69
361.616	729.69
361.843	703.69
362.07	659.69
362.296	563.69
362.523	581.69
362.749	561.69
362.976	567.69
363.203	584.69
363.429	567.69
363.656	568.69
363.882	602.69
364.109	661.69
364.335	661.69
364.562	640.69
364.788	586.69
365.015	579.69
365.241	561.69
365.468	567.69
365.694	601.69
365.92	631.69
366.147	582.69
366.373	543.69
366.599	571.69
366.826	569.69
367.052	554.69
367.278	576.69
367.505	581.69
367.731	574.69
367.957	620.69
368.184	641.69
368.41	671.69
368.636	656.69
368.862	663.69
369.089	675.69
369.315	637.69
369.541	628.69
369.767	590.69
369.993	596.69
370.219	586.69
370.445	608.69
370.672	658.69
370.898	643.69
371.124	659.69
371.35	631.69
371.576	634.69
371.802	661.69
372.028	644.69
372.254	617.69
372.48	593.69
372.706	573.69
372.932	605.69
373.158	619.69
373.384	635.69
373.61	664.69
373.835	648.69
374.061	628.69
374.287	633.69
374.513	613.69
374.739	651.69
374.965	624.69
375.191	668.69
375.416	657.69
375.642	659.69
375.868	698.69
376.094	702.69
376.319	652.69
376.545	643.69
376.771	661.69
376.997	695.69
377.222	672.69
377.448	672.69
377.674	657.69
377.899	684.69
378.125	708.69
378.35	680.69
378.576	650.69
378.802	605.69
379.027	627.69
379.253	632.69
379.478	630.69
379.704	648.69
379.929	631.69
380.155	652.69
380.38	645.69
380.606	674.69
380.831	667.69
381.057	699.69
381.282	699.69
381.507	716.69
381.733	748.69
381.958	741.69
382.184	692.69
382.409	688.69
382.634	667.69
382.86	663.69
383.085	692.69
383.31	719.69
383.535	789.69
383.761	797.69
383.986	759.69
384.211	705.69
384.436	741.69
384.662	758.69
384.887	748.69
385.112	730.69
385.337	746.69
385.562	737.69
385.787	716.69
386.013	741.69
386.238	757.69
386.463	752.69
386.688	841.69
386.913	879.69
387.138	828.69
387.363	787.69
387.588	772.69
387.813	731.69
388.038	787.69
388.263	800.69
388.488	748.69
388.713	724.69
388.938	717.69
389.163	715.69
389.387	743.69
389.612	732.69
389.837	773.69
390.062	772.69
390.287	773.69
390.512	742.69
390.736	738.69
390.961	742.69
391.186	733.69
391.411	724.69
391.636	740.69
391.86	781.69
392.085	754.69
392.31	736.69
392.534	751.69
392.759	757.69
392.984	763.69
393.208	764.69
393.433	792.69
393.658	826.69
393.882	823.69
394.107	778.69
394.331	750.69
394.556	759.69
394.78	770.69
395.005	819.69
395.229	824.69
395.454	894.69
395.678	872.69
395.903	823.69
396.127	812.69
396.352	808.69
396.576	860.69
396.801	872.69
397.025	851.69
397.249	825.69
397.474	809.69
397.698	831.69
397.922	882.69
398.147	929.69
398.371	895.69
398.595	895.69
398.82	879.69
399.044	899.69
399.268	907.69
399.492	974.69
399.717	972.69
399.941	988.69
400.165	1004.69
400.389	970.69
400.613	968.69
400.837	1115.69
401.062	1180.69
401.286	1040.69
401.51	994.69
401.734	985.69
401.958	943.69
402.182	891.69
402.406	866.69
402.63	887.69
402.854	866.69
403.078	911.69
403.302	892.69
403.526	919.69
403.75	909.69
403.974	931.69
404.198	952.69
404.422	1001.69
404.645	1007.69
404.869	973.69
405.093	900.69
405.317	896.69
405.541	914.69
405.765	933.69
405.988	938.69
406.212	943.69
406.436	936.69
406.66	998.69
406.883	1049.69
407.107	1172.69
407.331	1229.69
407.555	1266.69
407.778	1108.69
408.002	975.69
408.226	951.69
408.449	963.69
408.673	961.69
408.896	963.69
409.12	979.69
409.344	944.69
409.567	924.69
409.791	968.69
410.014	990.69
410.238	1027.69
410.461	1073.69
410.685	946.69
410.908	947.69
411.132	937.69
411.355	928.69
411.578	951.69
411.802	925.69
412.025	986.69
412.249	936.69
412.472	912.69
412.695	941.69
412.919	909.69
413.142	916.69
413.365	933.69
413.589	948.69
413.812	998.69
414.035	986.69
414.258	940.69
414.482	957.69
414.705	960.69
414.928	923.69
415.151	900.69
415.374	939.69
415.597	949.69
415.821	931.69
416.044	953.69
416.267	952.69
416.49	894.69
416.713	931.69
416.936	958.69
417.159	978.69
417.382	968.69
417.605	931.69
417.828	943.69
418.051	940.69
418.274	939.69
418.497	931.69
418.72	929.69
418.943	923.69
419.166	988.69
419.389	980.69
419.611	986.69
419.834	938.69
420.057	973.69
420.28	964.69
420.503	953.69
420.726	966.69
420.948	947.69
421.171	919.69
421.394	954.69
421.617	994.69
421.839	980.69
422.062	952.69
422.285	949.69
422.507	945.69
422.73	902.69
422.953	870.69
423.175	897.69
423.398	916.69
423.621	913.69
423.843	956.69
424.066	970.69
424.288	1026.69
424.511	1049.69
424.733	1009.69
424.956	924.69
425.178	947.69
425.401	926.69
425.623	963.69
425.846	949.69
426.068	967.69
426.291	991.69
426.513	978.69
426.735	970.69
426.958	1036.69
427.18	1054.69
427.402	971.69
427.625	988.69
427.847	965.69
428.069	921.69
428.292	916.69
428.514	917.69
428.736	908.69
428.958	909.69
429.181	961.69
429.403	1076.69
429.625	1228.69
429.847	1087.69
430.069	952.69
430.292	1059.69
430.514	987.69
430.736	963.69
430.958	973.69
431.18	940.69
431.402	889.69
431.624	843.69
431.846	797.69
432.068	757.69
432.29	762.69
432.512	796.69
432.734	882.69
432.956	929.69
433.178	972.69
433.4	965.69
433.622	980.69
433.844	880.69
434.066	841.69
434.287	789.69
434.509	789.69
434.731	823.69
434.953	904.69
435.175	931.69
435.397	914.69
435.618	891.69
435.84	850.69
436.062	848.69
436.284	892.69
436.505	938.69
436.727	940.69
436.949	908.69
437.17	887.69
437.392	903.69
437.614	860.69
437.835	816.69
438.057	807.69
438.278	831.69
438.5	867.69
438.721	890.69
438.943	889.69
439.165	915.69
439.386	933.69
439.608	953.69
439.829	963.69
440.05	985.69
440.272	985.69
440.493	964.69
440.715	979.69
440.936	1019.69
441.158	1072.69
441.379	1037.69
441.6	1031.69
441.822	1035.69
442.043	1012.69
442.264	989.69
442.486	961.69
442.707	963.69
442.928	948.69
443.149	968.69
443.371	979.69
443.592	1008.69
443.813	1028.69
444.034	993.69
444.255	1019.69
444.476	1023.69
444.698	1040.69
444.919	1036.69
445.14	1148.69
445.361	1113.69
445.582	1082.69
445.803	1091.69
446.024	1055.69
446.245	1090.69
446.466	1037.69
446.687	1024.69
446.908	1036.69
447.129	1023.69
447.35	1014.69
447.571	1003.69
447.792	962.69
448.013	924.69
448.234	935.69
448.455	986.69
448.675	972.69
448.896	937.69
449.117	886.69
449.338	923.69
449.559	954.69
449.779	989.69
450	1024.69
450.221	1047.69
450.442	1037.69
450.662	968.69
450.883	884.69
451.104	848.69
451.324	879.69
451.545	890.69
451.766	873.69
451.986	850.69
452.207	840.69
452.428	819.69
452.648	780.69
452.869	783.69
453.089	793.69
453.31	775.69
453.53	771.69
453.751	745.69
453.971	708.69
454.192	743.69
454.412	787.69
454.633	802.69
454.853	751.69
455.073	761.69
455.294	777.69
455.514	789.69
455.734	796.69
455.955	747.69
456.175	767.69
456.395	715.69
456.616	731.69
456.836	743.69
457.056	733.69
457.276	730.69
457.497	680.69
457.717	709.69
457.937	689.69
458.157	698.69
458.377	718.69
458.598	689.69
458.818	661.69
459.038	717.69
459.258	722.69
459.478	715.69
459.698	700.69
459.918	741.69
460.138	779.69
460.358	809.69
460.578	840.69
460.798	844.69
461.018	882.69
461.238	888.69
461.458	886.69
461.678	822.69
461.898	810.69
462.118	789.69
462.338	834.69
462.558	853.69
462.777	855.69
462.997	890.69
463.217	884.69
463.437	910.69
463.657	837.69
463.876	855.69
464.096	850.69
464.316	837.69
464.536	871.69
464.755	887.69
464.975	888.69
465.195	884.69
465.414	869.69
465.634	880.69
465.854	886.69
466.073	939.69
466.293	927.69
466.512	863.69
466.732	900.69
466.951	907.69
467.171	885.69
467.391	888.69
467.61	887.69
467.829	891.69
468.049	1004.69
468.268	1022.69
468.488	967.69
468.707	953.69
468.927	919.69
469.146	886.69
469.365	901.69
469.585	900.69
469.804	919.69
470.023	943.69
470.243	944.69
470.462	966.69
470.681	923.69
470.901	934.69
471.12	944.69
471.339	923.69
471.558	909.69
471.777	889.69
471.997	899.69
472.216	852.69
472.435	796.69
472.654	772.69
472.873	793.69
473.092	839.69
473.311	803.69
473.53	813.69
473.749	824.69
473.968	862.69
474.187	857.69
474.406	849.69
474.625	844.69
474.844	859.69
475.063	897.69
475.282	877.69
475.501	818.69
475.72	836.69
475.939	877.69
476.158	879.69
476.377	849.69
476.596	832.69
476.814	849.69
477.033	818.69
477.252	852.69
477.471	910.69
477.69	927.69
477.908	916.69
478.127	985.69
478.346	1009.69
478.564	1009.69
478.783	1021.69
479.002	1012.69
479.22	992.69
479.439	1027.69
479.658	1067.69
479.876	1005.69
480.095	915.69
480.313	891.69
480.532	884.69
480.751	881.69
480.969	841.69
481.188	797.69
481.406	793.69
481.624	746.69
481.843	780.69
482.061	813.69
482.28	871.69
482.498	879.69
482.717	854.69
482.935	889.69
483.153	963.69
483.372	1030.69
483.59	1024.69
483.808	991.69
484.027	938.69
484.245	984.69
484.463	1217.69
484.681	1298.69
484.9	1057.69
485.118	964.69
485.336	919.69
485.554	919.69
485.772	884.69
485.99	872.69
486.209	904.69
486.427	904.69
486.645	948.69
486.863	987.69
487.081	1058.69
487.299	1033.69
487.517	1000.69
487.735	1123.69
487.953	1204.69
488.171	1191.69
488.389	1139.69
488.607	1084.69
488.825	1140.69
489.043	1062.69
489.261	969.69
489.479	1037.69
489.696	1064.69
489.914	1050.69
490.132	1002.69
490.35	1089.69
490.568	1169.69
490.786	1188.69
491.003	1203.69
491.221	1263.69
491.439	1259.69
491.657	1291.69
491.874	1365.69
492.092	1470.69
492.31	1491.69
492.527	1445.69
492.745	1348.69
492.963	1323.69
493.18	1327.69
493.398	1359.69
493.615	1344.69
493.833	1301.69
494.05	1212.69
494.268	1236.69
494.485	1253.69
494.703	1232.69
494.92	1215.69
495.138	1221.69
495.355	1228.69
495.573	1271.69
495.79	1279.69
496.008	1302.69
496.225	1224.69
496.442	1222.69
496.66	1206.69
496.877	1213.69
497.094	1253.69
497.312	1249.69
497.529	1199.69
497.746	1177.69
497.963	1332.69
498.181	1315.69
498.398	1240.69
498.615	1225.69
498.832	1191.69
499.049	1151.69
499.267	1179.69
499.484	1284.69
499.701	1347.69
499.918	1379.69
500.135	1503.69
500.352	1563.69
500.569	1576.69
500.786	1728.69
501.003	1575.69
501.22	1419.69
501.437	1391.69
501.654	1422.69
501.871	1349.69
502.088	1223.69
502.305	1203.69
502.522	1155.69
502.739	1080.69
502.956	1065.69
503.172	1056.69
503.389	1030.69
503.606	1023.69
503.823	1001.69
504.04	1015.69
504.256	1023.69
504.473	990.69
504.69	1007.69
504.907	979.69
505.123	960.69
505.34	1068.69
505.557	1366.69
505.773	1116.69
505.99	948.69
506.207	905.69
506.423	895.69
506.64	889.69
506.856	891.69
507.073	1018.69
507.289	1066.69
507.506	999.69
507.722	873.69
507.939	871.69
508.155	868.69
508.372	865.69
508.588	813.69
508.805	802.69
509.021	784.69
509.238	774.69
509.454	783.69
509.67	771.69
509.887	726.69
510.103	723.69
510.319	710.69
510.536	759.69
510.752	762.69
510.968	767.69
511.184	813.69
511.401	772.69
511.617	712.69
511.833	713.69
512.049	706.69
512.265	722.69
512.481	718.69
512.698	746.69
512.914	777.69
513.13	734.69
513.346	720.69
513.562	687.69
513.778	701.69
513.994	738.69
514.21	753.69
514.426	777.69
514.642	831.69
514.858	787.69
515.074	726.69
515.29	737.69
515.506	736.69
515.721	728.69
515.937	761.69
516.153	810.69
516.369	771.69
516.585	740.69
516.801	731.69
517.016	716.69
517.232	755.69
517.448	806.69
517.664	782.69
517.879	784.69
518.095	832.69
518.311	791.69
518.527	765.69
518.742	748.69
518.958	756.69
519.173	765.69
519.389	788.69
519.605	811.69
519.82	818.69
520.036	814.69
520.251	789.69
520.467	795.69
520.682	806.69
520.898	816.69
521.113	721.69
521.329	725.69
521.544	781.69
521.76	728.69
521.975	718.69
522.19	726.69
522.406	720.69
522.621	932.69
522.836	874.69
523.052	740.69
523.267	733.69
523.482	801.69
523.698	732.69
523.913	746.69
524.128	771.69
524.343	801.69
524.559	829.69
524.774	789.69
524.989	778.69
525.204	777.69
525.419	735.69
525.634	738.69
525.849	727.69
526.064	707.69
526.28	707.69
526.495	674.69
526.71	648.69
526.925	664.69
527.14	624.69
527.355	653.69
527.57	637.69
527.785	691.69
527.999	657.69
528.214	685.69
528.429	681.69
528.644	754.69
528.859	779.69
529.074	820.69
529.289	897.69
529.503	868.69
529.718	793.69
529.933	739.69
530.148	667.69
530.363	672.69
530.577	649.69
530.792	621.69
531.007	631.69
531.221	634.69
531.436	639.69
531.651	663.69
531.865	664.69
532.08	639.69
532.295	613.69
532.509	611.69
532.724	634.69
532.938	656.69
533.153	732.69
533.367	720.69
533.582	733.69
533.796	704.69
534.011	719.69
534.225	663.69
534.44	630.69
534.654	641.69
534.868	646.69
535.083	669.69
535.297	694.69
535.511	661.69
535.726	689.69
535.94	665.69
536.154	668.69
536.369	648.69
536.583	612.69
536.797	593.69
537.011	598.69
537.225	574.69
537.44	613.69
537.654	658.69
537.868	631.69
538.082	593.69
538.296	603.69
538.51	643.69
538.724	664.69
538.938	713.69
539.153	748.69
539.367	722.69
539.581	688.69
539.795	684.69
540.009	654.69
540.222	646.69
540.436	653.69
540.65	724.69
540.864	815.69
541.078	823.69
541.292	842.69
541.506	892.69
541.72	981.69
541.934	1027.69
542.147	1045.69
542.361	1004.69
542.575	906.69
542.789	836.69
543.002	764.69
543.216	725.69
543.43	769.69
543.644	818.69
543.857	875.69
544.071	892.69
544.285	933.69
544.498	929.69
544.712	923.69
544.925	944.69
545.139	932.69
545.352	941.69
545.566	933.69
545.779	913.69
545.993	928.69
546.206	977.69
546.42	951.69
546.633	962.69
546.847	927.69
547.06	945.69
547.274	970.69
547.487	983.69
547.7	1018.69
547.914	977.69
548.127	963.69
548.34	943.69
548.554	947.69
548.767	939.69
548.98	926.69
549.193	927.69
549.407	957.69
549.62	972.69
549.833	909.69
550.046	907.69
550.259	890.69
550.473	883.69
550.686	868.69
550.899	874.69
551.112	866.69
551.325	814.69
551.538	831.69
551.751	860.69
551.964	702.69
552.177	737.69
552.39	790.69
552.603	858.69
552.816	876.69
553.029	896.69
553.242	901.69
553.455	913.69
553.667	909.69
553.88	897.69
554.093	889.69
554.306	868.69
554.519	858.69
554.732	827.69
554.944	853.69
555.157	832.69
555.37	789.69
555.583	795.69
555.795	748.69
556.008	732.69
556.221	710.69
556.433	719.69
556.646	743.69
556.859	753.69
557.071	732.69
557.284	745.69
557.496	758.69
557.709	757.69
557.921	724.69
558.134	727.69
558.346	740.69
558.559	716.69
558.771	729.69
558.984	677.69
559.196	675.69
559.409	665.69
559.621	659.69
559.833	649.69
560.046	671.69
560.258	676.69
560.47	678.69
560.683	677.69
560.895	682.69
561.107	676.69
561.32	698.69
561.532	659.69
561.744	665.69
561.956	699.69
562.168	652.69
562.381	649.69
562.593	636.69
562.805	664.69
563.017	645.69
563.229	643.69
563.441	642.69
563.653	632.69
563.865	612.69
564.077	609.69
564.289	605.69
564.501	606.69
564.713	641.69
564.925	659.69
565.137	660.69
565.349	618.69
565.561	633.69
565.773	611.69
565.985	621.69
566.197	653.69
566.408	688.69
566.62	708.69
566.832	703.69
567.044	675.69
567.255	651.69
567.467	672.69
567.679	663.69
567.891	647.69
568.102	608.69
568.314	593.69
568.526	539.69
568.737	506.69
568.949	482.69
569.161	447.69
569.372	450.69
569.584	460.69
569.795	456.69
570.007	464.69
570.218	423.69
570.43	433.69
570.641	467.69
570.853	479.69
571.064	477.69
571.276	477.69
571.487	459.69
571.698	472.69
571.91	470.69
572.121	463.69
572.333	448.69
572.544	435.69
572.755	408.69
572.966	392.69
573.178	416.69
573.389	400.69
573.6	403.69
573.811	440.69
574.023	403.69
574.234	405.69
574.445	410.69
574.656	388.69
574.867	398.69
575.078	392.69
575.289	403.69
575.501	397.69
575.712	400.69
575.923	373.69
576.134	396.69
576.345	401.69
576.556	396.69
576.767	398.69
576.978	405.69
577.188	383.69
577.399	366.69
577.61	371.69
577.821	373.69
578.032	369.69
578.243	390.69
578.454	372.69
578.665	371.69
578.875	352.69
579.086	337.69
579.297	348.69
579.508	360.69
579.718	356.69
579.929	360.69
580.14	339.69
580.35	335.69
580.561	356.69
580.772	389.69
580.982	373.69
581.193	359.69
581.403	362.69
581.614	344.69
581.825	352.69
582.035	345.69
582.246	346.69
582.456	344.69
582.667	362.69
582.877	341.69
583.087	341.69
583.298	337.69
583.508	318.69
583.719	323.69
583.929	328.69
584.139	341.69
584.35	314.69
584.56	324.69
584.77	347.69
584.981	351.69
585.191	328.69
585.401	339.69
585.611	341.69
585.821	331.69
586.032	306.69
586.242	324.69
586.452	309.69
586.662	302.69
586.872	346.69
587.082	319.69
587.292	313.69
587.502	304.69
587.713	329.69
587.923	321.69
588.133	315.69
588.343	339.69
588.553	319.69
588.762	338.69
588.972	295.69
589.182	313.69
589.392	315.69
589.602	308.69
589.812	323.69
590.022	326.69
590.232	307.69
590.441	314.69
590.651	321.69
590.861	311.69
591.071	295.69
591.281	297.69
591.49	296.69
591.7	317.69
591.91	306.69
592.119	307.69
592.329	319.69
592.539	319.69
592.748	317.69
592.958	329.69
593.167	358.69
593.377	331.69
593.587	330.69
593.796	317.69
594.006	339.69
594.215	341.69
594.424	357.69
594.634	341.69
594.843	341.69
595.053	349.69
595.262	353.69
595.472	322.69
595.681	324.69
595.89	309.69
596.1	321.69
596.309	318.69
596.518	320.69
596.727	339.69
596.937	313.69
597.146	311.69
597.355	291.69
597.564	314.69
597.774	296.69
597.983	295.69
598.192	296.69
598.401	266.69
598.61	296.69
598.819	281.69
599.028	291.69
599.237	312.69
599.446	286.69
599.655	284.69
599.864	288.69
600.073	281.69
600.282	300.69
600.491	288.69
600.7	308.69
600.909	313.69
601.118	307.69
601.327	317.69
601.536	353.69
601.745	349.69
601.953	331.69
602.162	348.69
602.371	346.69
602.58	345.69
602.789	342.69
602.997	369.69
603.206	362.69
603.415	357.69
603.623	360.69
603.832	333.69
604.041	334.69
604.249	309.69
604.458	299.69
604.666	300.69
604.875	314.69
605.084	307.69
605.292	309.69
605.501	345.69
605.709	351.69
605.918	363.69
606.126	360.69
606.334	372.69
606.543	359.69
606.751	353.69
606.96	359.69
607.168	362.69
607.376	342.69
607.585	356.69
607.793	375.69
608.001	346.69
608.21	339.69
608.418	371.69
608.626	361.69
608.834	378.69
609.043	367.69
609.251	364.69
609.459	348.69
609.667	376.69
609.875	387.69
610.083	389.69
610.291	385.69
610.499	370.69
610.707	389.69
610.916	352.69
611.124	376.69
611.332	339.69
611.54	353.69
611.748	350.69
611.955	372.69
612.163	369.69
612.371	352.69
612.579	362.69
612.787	355.69
612.995	359.69
613.203	364.69
613.411	355.69
613.618	351.69
613.826	354.69
614.034	353.69
614.242	358.69
614.449	359.69
614.657	374.69
614.865	352.69
615.072	367.69
615.28	367.69
615.488	349.69
615.695	381.69
615.903	351.69
616.111	365.69
616.318	353.69
616.526	344.69
616.733	372.69
616.941	353.69
617.148	360.69
617.356	338.69
617.563	341.69
617.771	335.69
617.978	331.69
618.185	345.69
618.393	328.69
618.6	331.69
618.807	351.69
619.015	355.69
619.222	341.69
619.429	350.69
619.637	301.69
619.844	305.69
620.051	306.69
620.258	325.69
620.466	345.69
620.673	309.69
620.88	320.69
621.087	345.69
621.294	311.69
621.501	295.69
621.708	297.69
621.915	315.69
622.122	299.69
622.329	340.69
622.536	316.69
622.743	327.69
622.95	333.69
623.157	326.69
623.364	318.69
623.571	333.69
623.778	337.69
623.985	313.69
624.192	320.69
624.399	299.69
624.606	303.69
624.812	322.69
625.019	293.69
625.226	309.69
625.433	270.69
625.639	297.69
625.846	270.69
626.053	264.69
626.259	253.69
626.466	243.69
626.673	235.69
626.879	236.69
627.086	265.69
627.293	263.69
627.499	303.69
627.706	305.69
627.912	303.69
628.119	321.69
628.325	311.69
628.532	285.69
628.738	307.69
628.945	299.69
629.151	282.69
629.357	286.69
629.564	275.69
629.77	290.69
629.976	288.69
630.183	262.69
630.389	257.69
630.595	279.69
630.802	289.69
631.008	265.69
631.214	294.69
631.42	264.69
631.627	253.69
631.833	260.69
632.039	263.69
632.245	274.69
632.451	275.69
632.657	259.69
632.863	292.69
633.069	287.69
633.275	256.69
633.481	245.69
633.688	245.69
633.893	248.69
634.099	274.69
634.305	252.69
634.511	244.69
634.717	233.69
634.923	223.69
635.129	233.69
635.335	228.69
635.541	216.69
635.747	248.69
635.952	257.69
636.158	267.69
636.364	261.69
636.57	246.69
636.775	264.69
636.981	257.69
637.187	265.69
637.392	265.69
637.598	253.69
637.804	268.69
638.009	268.69
638.215	252.69
638.421	247.69
638.626	273.69
638.832	251.69
639.037	236.69
639.243	233.69
639.448	255.69
639.654	239.69
639.859	247.69
640.065	252.69
640.27	250.69
640.475	247.69
640.681	240.69
640.886	270.69
641.091	255.69
641.297	262.69
641.502	239.69
641.707	258.69
641.913	241.69
642.118	245.69
642.323	242.69
642.528	243.69
642.733	249.69
642.939	246.69
643.144	242.69
643.349	243.69
643.554	229.69
643.759	255.69
643.964	248.69
644.169	239.69
644.374	239.69
644.579	239.69
644.784	232.69
644.989	227.69
645.194	243.69
645.399	244.69
645.604	233.69
645.809	242.69
646.014	217.69
646.219	228.69
646.423	248.69
646.628	237.69
646.833	227.69
647.038	247.69
647.243	238.69
647.447	251.69
647.652	233.69
647.857	234.69
648.062	259.69
648.266	239.69
648.471	241.69
648.676	243.69
648.88	242.69
649.085	248.69
649.289	255.69
649.494	249.69
649.698	231.69
649.903	223.69
650.107	241.69
650.312	226.69
650.516	217.69
650.721	228.69
650.925	220.69
651.13	232.69
651.334	218.69
651.539	209.69
651.743	225.69
651.947	228.69
652.152	224.69
652.356	211.69
652.56	220.69
652.764	213.69
652.969	219.69
653.173	203.69
653.377	222.69
653.581	218.69
653.785	194.69
653.99	204.69
654.194	198.69
654.398	207.69
654.602	195.69
654.806	223.69
655.01	207.69
655.214	196.69
655.418	205.69
655.622	198.69
655.826	216.69
656.03	212.69
656.234	216.69
656.438	231.69
656.642	229.69
656.846	224.69
657.049	219.69
657.253	188.69
657.457	186.69
657.661	172.69
657.865	176.69
658.068	171.69
658.272	160.69
658.476	158.69
658.68	152.69
658.883	153.69
659.087	130.69
659.291	125.69
659.494	140.69
659.698	127.69
659.901	113.69
660.105	124.69
660.309	123.69
660.512	113.69
660.716	117.69
660.919	103.69
661.123	100.69
661.326	111.69
661.53	107.69
661.733	97.69
661.936	108.69
662.14	106.69
662.343	91.69
662.546	95.69
662.75	86.69
662.953	100.69
663.156	92.69
663.36	90.69
663.563	75.69
663.766	95.69
663.969	77.69
664.173	81.69
664.376	90.69
664.579	77.69
664.782	92.69
664.985	84.69
665.188	79.69
665.391	94.69
665.594	77.69
665.797	82.69
666	89.69
666.203	83.69
666.406	83.69
666.609	93.69
666.812	71.69
667.015	83.69
667.218	80.69
667.421	76.69
667.624	76.69
667.827	104.69
668.03	96.69
668.232	93.69
668.435	87.69
668.638	78.69
668.841	76.69
669.043	90.69
669.246	72.69
669.449	87.69
669.651	87.69
669.854	79.69
670.057	68.69
670.259	71.69
670.462	85.69
670.665	71.69
670.867	77.69
671.07	89.69
671.272	91.69
671.475	91.69
671.677	69.69
671.88	94.69
672.082	87.69
672.284	78.69
672.487	95.69
672.689	89.69
672.892	77.69
