Data from WStandard_LampEnergy10_LIBS07252019.E.O._I.C._HRD10591_15-53-14-928.txt Node
Date: Thu Jul 25 15:53:14 EDT 2019
User: cochatt
Spectrometer: HR+D1059
Trigger mode: 1
Integration Time (sec): 1.000000E-1
Scans to average: 1
Electric dark correction enabled: true
Nonlinearity correction enabled: false
Boxcar width: 0
XAxis mode: Wavelengths
Number of Pixels in Spectrum: 2048
>>>>>Begin Spectral Data<<<<<
223.165	-14.94
223.4	-14.94
223.635	-14.94
223.869	-8.94
224.104	-6.94
224.338	-22.94
224.573	-33.94
224.808	-30.94
225.042	-20.94
225.277	-7.94
225.511	8.06
225.746	-2.94
225.98	25.06
226.215	24.06
226.449	20.06
226.683	2.06
226.918	34.06
227.152	37.06
227.387	46.06
227.621	37.06
227.856	22.06
228.09	51.06
228.324	56.06
228.559	42.06
228.793	75.06
229.027	129.06
229.262	137.06
229.496	144.06
229.73	153.06
229.964	171.06
230.199	160.06
230.433	168.06
230.667	175.06
230.901	178.06
231.136	170.06
231.37	170.06
231.604	167.06
231.838	173.06
232.072	162.06
232.306	177.06
232.541	190.06
232.775	214.06
233.009	187.06
233.243	186.06
233.477	186.06
233.711	218.06
233.945	224.06
234.179	201.06
234.413	214.06
234.647	217.06
234.881	214.06
235.115	196.06
235.349	200.06
235.583	205.06
235.817	200.06
236.051	180.06
236.285	197.06
236.519	220.06
236.753	222.06
236.987	230.06
237.221	217.06
237.455	244.06
237.689	231.06
237.922	212.06
238.156	217.06
238.39	210.06
238.624	226.06
238.858	251.06
239.091	262.06
239.325	263.06
239.559	309.06
239.793	286.06
240.027	314.06
240.26	291.06
240.494	239.06
240.728	230.06
240.961	256.06
241.195	247.06
241.429	276.06
241.662	250.06
241.896	240.06
242.13	256.06
242.363	271.06
242.597	299.06
242.83	290.06
243.064	276.06
243.298	286.06
243.531	286.06
243.765	278.06
243.998	286.06
244.232	268.06
244.465	262.06
244.699	260.06
244.932	281.06
245.166	279.06
245.399	292.06
245.633	295.06
245.866	279.06
246.099	291.06
246.333	281.06
246.566	300.06
246.8	313.06
247.033	337.06
247.266	329.06
247.5	323.06
247.733	331.06
247.966	336.06
248.2	358.06
248.433	352.06
248.666	371.06
248.899	396.06
249.133	427.06
249.366	456.06
249.599	393.06
249.832	362.06
250.066	382.06
250.299	378.06
250.532	374.06
250.765	330.06
250.998	326.06
251.231	355.06
251.465	349.06
251.698	356.06
251.931	347.06
252.164	363.06
252.397	369.06
252.63	352.06
252.863	336.06
253.096	336.06
253.329	334.06
253.562	346.06
253.795	365.06
254.028	360.06
254.261	339.06
254.494	343.06
254.727	331.06
254.96	358.06
255.193	385.06
255.426	414.06
255.659	486.06
255.892	461.06
256.124	378.06
256.357	402.06
256.59	425.06
256.823	396.06
257.056	444.06
257.289	499.06
257.521	504.06
257.754	487.06
257.987	450.06
258.22	479.06
258.452	470.06
258.685	389.06
258.918	401.06
259.151	393.06
259.383	393.06
259.616	343.06
259.849	363.06
260.081	407.06
260.314	443.06
260.547	478.06
260.779	465.06
261.012	463.06
261.244	415.06
261.477	402.06
261.71	401.06
261.942	406.06
262.175	395.06
262.407	418.06
262.64	390.06
262.872	374.06
263.105	352.06
263.337	376.06
263.57	392.06
263.802	377.06
264.035	364.06
264.267	357.06
264.499	338.06
264.732	359.06
264.964	372.06
265.197	410.06
265.429	432.06
265.661	465.06
265.894	499.06
266.126	498.06
266.358	485.06
266.591	471.06
266.823	515.06
267.055	474.06
267.287	454.06
267.52	455.06
267.752	433.06
267.984	479.06
268.216	475.06
268.448	479.06
268.681	453.06
268.913	430.06
269.145	404.06
269.377	422.06
269.609	464.06
269.841	535.06
270.073	585.06
270.306	635.06
270.538	648.06
270.77	548.06
271.002	472.06
271.234	467.06
271.466	471.06
271.698	547.06
271.93	621.06
272.162	612.06
272.394	563.06
272.626	511.06
272.858	447.06
273.09	424.06
273.322	421.06
273.553	407.06
273.785	415.06
274.017	430.06
274.249	435.06
274.481	452.06
274.713	415.06
274.945	419.06
275.176	419.06
275.408	423.06
275.64	397.06
275.872	418.06
276.104	459.06
276.335	483.06
276.567	542.06
276.799	534.06
277.031	480.06
277.262	495.06
277.494	506.06
277.726	532.06
277.957	511.06
278.189	474.06
278.421	456.06
278.652	430.06
278.884	438.06
279.115	433.06
279.347	434.06
279.579	455.06
279.81	450.06
280.042	495.06
280.273	514.06
280.505	518.06
280.736	525.06
280.968	494.06
281.199	439.06
281.431	397.06
281.662	419.06
281.894	436.06
282.125	435.06
282.356	458.06
282.588	465.06
282.819	477.06
283.051	479.06
283.282	517.06
283.513	503.06
283.745	440.06
283.976	446.06
284.207	438.06
284.439	439.06
284.67	433.06
284.901	435.06
285.132	472.06
285.364	458.06
285.595	464.06
285.826	462.06
286.057	460.06
286.288	461.06
286.52	471.06
286.751	494.06
286.982	490.06
287.213	471.06
287.444	424.06
287.675	445.06
287.906	469.06
288.138	474.06
288.369	489.06
288.6	458.06
288.831	458.06
289.062	446.06
289.293	450.06
289.524	456.06
289.755	467.06
289.986	473.06
290.217	471.06
290.448	459.06
290.679	468.06
290.91	476.06
291.141	458.06
291.371	481.06
291.602	489.06
291.833	496.06
292.064	506.06
292.295	501.06
292.526	511.06
292.757	521.06
292.987	496.06
293.218	490.06
293.449	547.06
293.68	571.06
293.91	591.06
294.141	543.06
294.372	531.06
294.603	578.06
294.833	577.06
295.064	556.06
295.295	495.06
295.525	493.06
295.756	439.06
295.987	452.06
296.217	463.06
296.448	476.06
296.679	464.06
296.909	470.06
297.14	468.06
297.37	492.06
297.601	533.06
297.831	538.06
298.062	515.06
298.292	488.06
298.523	479.06
298.753	489.06
298.984	456.06
299.214	486.06
299.445	498.06
299.675	491.06
299.905	506.06
300.136	468.06
300.366	496.06
300.597	457.06
300.827	452.06
301.057	500.06
301.288	491.06
301.518	506.06
301.748	521.06
301.979	560.06
302.209	554.06
302.439	595.06
302.669	611.06
302.9	555.06
303.13	502.06
303.36	503.06
303.59	520.06
303.82	529.06
304.051	533.06
304.281	528.06
304.511	554.06
304.741	578.06
304.971	604.06
305.201	623.06
305.431	580.06
305.661	494.06
305.891	463.06
306.121	454.06
306.352	476.06
306.582	498.06
306.812	554.06
307.042	590.06
307.272	592.06
307.502	610.06
307.731	658.06
307.961	634.06
308.191	580.06
308.421	518.06
308.651	504.06
308.881	497.06
309.111	505.06
309.341	481.06
309.571	496.06
309.8	506.06
310.03	498.06
310.26	496.06
310.49	494.06
310.72	506.06
310.949	533.06
311.179	526.06
311.409	498.06
311.639	523.06
311.868	524.06
312.098	507.06
312.328	517.06
312.557	513.06
312.787	494.06
313.017	522.06
313.246	503.06
313.476	521.06
313.706	558.06
313.935	533.06
314.165	542.06
314.394	587.06
314.624	602.06
314.853	615.06
315.083	639.06
315.312	612.06
315.542	597.06
315.771	553.06
316.001	539.06
316.23	573.06
316.46	572.06
316.689	578.06
316.919	516.06
317.148	534.06
317.377	546.06
317.607	613.06
317.836	644.06
318.065	654.06
318.295	635.06
318.524	594.06
318.753	561.06
318.983	562.06
319.212	582.06
319.441	584.06
319.67	564.06
319.9	570.06
320.129	617.06
320.358	649.06
320.587	655.06
320.816	648.06
321.046	603.06
321.275	599.06
321.504	587.06
321.733	600.06
321.962	595.06
322.191	568.06
322.42	563.06
322.649	538.06
322.878	539.06
323.108	579.06
323.337	610.06
323.566	598.06
323.795	583.06
324.024	599.06
324.253	576.06
324.482	579.06
324.71	553.06
324.939	532.06
325.168	548.06
325.397	576.06
325.626	595.06
325.855	592.06
326.084	558.06
326.313	583.06
326.542	581.06
326.77	577.06
326.999	582.06
327.228	575.06
327.457	536.06
327.686	524.06
327.914	547.06
328.143	602.06
328.372	572.06
328.6	571.06
328.829	558.06
329.058	538.06
329.287	551.06
329.515	583.06
329.744	599.06
329.972	614.06
330.201	632.06
330.43	606.06
330.658	586.06
330.887	601.06
331.115	612.06
331.344	596.06
331.572	587.06
331.801	602.06
332.03	578.06
332.258	596.06
332.486	623.06
332.715	598.06
332.943	597.06
333.172	593.06
333.4	626.06
333.629	625.06
333.857	679.06
334.085	724.06
334.314	832.06
334.542	850.06
334.771	768.06
334.999	703.06
335.227	646.06
335.455	624.06
335.684	642.06
335.912	640.06
336.14	656.06
336.369	631.06
336.597	587.06
336.825	610.06
337.053	632.06
337.281	674.06
337.51	690.06
337.738	708.06
337.966	633.06
338.194	627.06
338.422	588.06
338.65	593.06
338.878	582.06
339.106	570.06
339.334	559.06
339.562	587.06
339.79	607.06
340.018	645.06
340.246	634.06
340.474	620.06
340.702	618.06
340.93	604.06
341.158	625.06
341.386	609.06
341.614	623.06
341.842	613.06
342.07	612.06
342.298	613.06
342.526	591.06
342.754	588.06
342.981	585.06
343.209	605.06
343.437	574.06
343.665	608.06
343.893	618.06
344.12	674.06
344.348	635.06
344.576	583.06
344.804	606.06
345.031	600.06
345.259	603.06
345.487	603.06
345.714	544.06
345.942	571.06
346.17	562.06
346.397	560.06
346.625	551.06
346.853	532.06
347.08	518.06
347.308	554.06
347.535	572.06
347.763	577.06
347.99	560.06
348.218	546.06
348.445	557.06
348.673	565.06
348.9	601.06
349.128	632.06
349.355	634.06
349.583	607.06
349.81	569.06
350.037	539.06
350.265	523.06
350.492	562.06
350.72	560.06
350.947	578.06
351.174	584.06
351.402	543.06
351.629	535.06
351.856	516.06
352.083	546.06
352.311	546.06
352.538	565.06
352.765	588.06
352.992	603.06
353.22	543.06
353.447	536.06
353.674	562.06
353.901	583.06
354.128	564.06
354.355	543.06
354.583	609.06
354.81	597.06
355.037	569.06
355.264	573.06
355.491	583.06
355.718	575.06
355.945	567.06
356.172	547.06
356.399	541.06
356.626	558.06
356.853	598.06
357.08	638.06
357.307	694.06
357.534	650.06
357.761	587.06
357.988	535.06
358.215	549.06
358.441	563.06
358.668	563.06
358.895	566.06
359.122	609.06
359.349	640.06
359.576	606.06
359.802	576.06
360.029	566.06
360.256	539.06
360.483	569.06
360.709	598.06
360.936	594.06
361.163	618.06
361.39	699.06
361.616	740.06
361.843	714.06
362.07	617.06
362.296	594.06
362.523	582.06
362.749	585.06
362.976	586.06
363.203	605.06
363.429	585.06
363.656	583.06
363.882	624.06
364.109	649.06
364.335	687.06
364.562	610.06
364.788	596.06
365.015	596.06
365.241	554.06
365.468	588.06
365.694	594.06
365.92	629.06
366.147	602.06
366.373	562.06
366.599	581.06
366.826	565.06
367.052	579.06
367.278	587.06
367.505	588.06
367.731	605.06
367.957	603.06
368.184	626.06
368.41	681.06
368.636	660.06
368.862	670.06
369.089	664.06
369.315	635.06
369.541	626.06
369.767	596.06
369.993	593.06
370.219	616.06
370.445	633.06
370.672	669.06
370.898	667.06
371.124	652.06
371.35	642.06
371.576	671.06
371.802	656.06
372.028	649.06
372.254	633.06
372.48	601.06
372.706	582.06
372.932	594.06
373.158	613.06
373.384	636.06
373.61	655.06
373.835	650.06
374.061	640.06
374.287	663.06
374.513	632.06
374.739	620.06
374.965	658.06
375.191	638.06
375.416	657.06
375.642	688.06
375.868	723.06
376.094	748.06
376.319	683.06
376.545	648.06
376.771	666.06
376.997	706.06
377.222	677.06
377.448	699.06
377.674	678.06
377.899	696.06
378.125	717.06
378.35	690.06
378.576	653.06
378.802	609.06
379.027	618.06
379.253	641.06
379.478	652.06
379.704	658.06
379.929	652.06
380.155	656.06
380.38	661.06
380.606	662.06
380.831	674.06
381.057	699.06
381.282	712.06
381.507	697.06
381.733	731.06
381.958	719.06
382.184	691.06
382.409	665.06
382.634	698.06
382.86	678.06
383.085	689.06
383.31	718.06
383.535	780.06
383.761	827.06
383.986	790.06
384.211	758.06
384.436	744.06
384.662	791.06
384.887	789.06
385.112	719.06
385.337	732.06
385.562	734.06
385.787	753.06
386.013	786.06
386.238	771.06
386.463	765.06
386.688	856.06
386.913	847.06
387.138	823.06
387.363	773.06
387.588	791.06
387.813	777.06
388.038	800.06
388.263	794.06
388.488	812.06
388.713	731.06
388.938	726.06
389.163	728.06
389.387	755.06
389.612	770.06
389.837	782.06
390.062	743.06
390.287	792.06
390.512	768.06
390.736	724.06
390.961	768.06
391.186	743.06
391.411	764.06
391.636	772.06
391.86	751.06
392.085	765.06
392.31	755.06
392.534	757.06
392.759	798.06
392.984	808.06
393.208	798.06
393.433	792.06
393.658	822.06
393.882	798.06
394.107	793.06
394.331	779.06
394.556	782.06
394.78	811.06
395.005	803.06
395.229	855.06
395.454	883.06
395.678	860.06
395.903	855.06
396.127	816.06
396.352	839.06
396.576	830.06
396.801	850.06
397.025	853.06
397.249	858.06
397.474	834.06
397.698	826.06
397.922	870.06
398.147	896.06
398.371	921.06
398.595	939.06
398.82	867.06
399.044	891.06
399.268	900.06
399.492	985.06
399.717	978.06
399.941	1010.06
400.165	974.06
400.389	974.06
400.613	1001.06
400.837	1112.06
401.062	1198.06
401.286	1027.06
401.51	979.06
401.734	1009.06
401.958	961.06
402.182	926.06
402.406	881.06
402.63	886.06
402.854	888.06
403.078	904.06
403.302	933.06
403.526	943.06
403.75	908.06
403.974	944.06
404.198	962.06
404.422	1010.06
404.645	1057.06
404.869	979.06
405.093	908.06
405.317	890.06
405.541	952.06
405.765	953.06
405.988	977.06
406.212	971.06
406.436	992.06
406.66	1002.06
406.883	1028.06
407.107	1126.06
407.331	1240.06
407.555	1283.06
407.778	1119.06
408.002	991.06
408.226	990.06
408.449	976.06
408.673	930.06
408.896	970.06
409.12	982.06
409.344	971.06
409.567	928.06
409.791	976.06
410.014	974.06
410.238	1040.06
410.461	1088.06
410.685	995.06
410.908	968.06
411.132	983.06
411.355	933.06
411.578	934.06
411.802	949.06
412.025	946.06
412.249	925.06
412.472	909.06
412.695	950.06
412.919	919.06
413.142	945.06
413.365	939.06
413.589	969.06
413.812	1042.06
414.035	1007.06
414.258	964.06
414.482	926.06
414.705	957.06
414.928	910.06
415.151	904.06
415.374	928.06
415.597	966.06
415.821	958.06
416.044	951.06
416.267	949.06
416.49	917.06
416.713	934.06
416.936	945.06
417.159	1008.06
417.382	973.06
417.605	971.06
417.828	972.06
418.051	962.06
418.274	953.06
418.497	928.06
418.72	960.06
418.943	934.06
419.166	978.06
419.389	992.06
419.611	948.06
419.834	958.06
420.057	969.06
420.28	977.06
420.503	945.06
420.726	978.06
420.948	946.06
421.171	935.06
421.394	963.06
421.617	978.06
421.839	1001.06
422.062	983.06
422.285	955.06
422.507	950.06
422.73	906.06
422.953	913.06
423.175	914.06
423.398	931.06
423.621	907.06
423.843	954.06
424.066	1026.06
424.288	1064.06
424.511	1091.06
424.733	1026.06
424.956	960.06
425.178	968.06
425.401	943.06
425.623	993.06
425.846	942.06
426.068	983.06
426.291	988.06
426.513	990.06
426.735	986.06
426.958	1088.06
427.18	1074.06
427.402	1014.06
427.625	1005.06
427.847	1026.06
428.069	958.06
428.292	937.06
428.514	914.06
428.736	906.06
428.958	930.06
429.181	951.06
429.403	1109.06
429.625	1233.06
429.847	1055.06
430.069	956.06
430.292	1056.06
430.514	1043.06
430.736	977.06
430.958	1001.06
431.18	936.06
431.402	920.06
431.624	846.06
431.846	796.06
432.068	737.06
432.29	733.06
432.512	816.06
432.734	890.06
432.956	950.06
433.178	984.06
433.4	966.06
433.622	970.06
433.844	940.06
434.066	856.06
434.287	817.06
434.509	787.06
434.731	857.06
434.953	933.06
435.175	958.06
435.397	919.06
435.618	907.06
435.84	859.06
436.062	848.06
436.284	902.06
436.505	937.06
436.727	974.06
436.949	922.06
437.17	913.06
437.392	905.06
437.614	879.06
437.835	816.06
438.057	815.06
438.278	873.06
438.5	860.06
438.721	927.06
438.943	918.06
439.165	930.06
439.386	948.06
439.608	952.06
439.829	944.06
440.05	964.06
440.272	972.06
440.493	946.06
440.715	991.06
440.936	1013.06
441.158	1051.06
441.379	1076.06
441.6	1053.06
441.822	1013.06
442.043	1031.06
442.264	995.06
442.486	994.06
442.707	961.06
442.928	968.06
443.149	981.06
443.371	1032.06
443.592	1037.06
443.813	1030.06
444.034	1023.06
444.255	1022.06
444.476	1020.06
444.698	1024.06
444.919	1045.06
445.14	1148.06
445.361	1108.06
445.582	1090.06
445.803	1079.06
446.024	1048.06
446.245	1105.06
446.466	1058.06
446.687	1052.06
446.908	1064.06
447.129	1055.06
447.35	1042.06
447.571	1013.06
447.792	972.06
448.013	950.06
448.234	956.06
448.455	981.06
448.675	1003.06
448.896	948.06
449.117	922.06
449.338	942.06
449.559	943.06
449.779	981.06
450	1034.06
450.221	1055.06
450.442	1020.06
450.662	960.06
450.883	910.06
451.104	874.06
451.324	892.06
451.545	896.06
451.766	866.06
451.986	834.06
452.207	821.06
452.428	811.06
452.648	798.06
452.869	795.06
453.089	810.06
453.31	791.06
453.53	788.06
453.751	762.06
453.971	725.06
454.192	752.06
454.412	794.06
454.633	803.06
454.853	787.06
455.073	781.06
455.294	758.06
455.514	791.06
455.734	771.06
455.955	749.06
456.175	763.06
456.395	738.06
456.616	760.06
456.836	752.06
457.056	750.06
457.276	740.06
457.497	719.06
457.717	705.06
457.937	718.06
458.157	723.06
458.377	712.06
458.598	669.06
458.818	678.06
459.038	703.06
459.258	744.06
459.478	702.06
459.698	708.06
459.918	747.06
460.138	821.06
460.358	843.06
460.578	860.06
460.798	862.06
461.018	921.06
461.238	871.06
461.458	866.06
461.678	854.06
461.898	831.06
462.118	818.06
462.338	864.06
462.558	857.06
462.777	838.06
462.997	882.06
463.217	894.06
463.437	927.06
463.657	872.06
463.876	831.06
464.096	843.06
464.316	827.06
464.536	864.06
464.755	911.06
464.975	882.06
465.195	879.06
465.414	892.06
465.634	904.06
465.854	933.06
466.073	979.06
466.293	946.06
466.512	885.06
466.732	886.06
466.951	920.06
467.171	887.06
467.391	891.06
467.61	895.06
467.829	908.06
468.049	1020.06
468.268	1083.06
468.488	977.06
468.707	924.06
468.927	929.06
469.146	891.06
469.365	956.06
469.585	944.06
469.804	942.06
470.023	926.06
470.243	963.06
470.462	975.06
470.681	929.06
470.901	947.06
471.12	952.06
471.339	942.06
471.558	915.06
471.777	906.06
471.997	914.06
472.216	847.06
472.435	811.06
472.654	784.06
472.873	792.06
473.092	859.06
473.311	881.06
473.53	840.06
473.749	836.06
473.968	864.06
474.187	876.06
474.406	866.06
474.625	874.06
474.844	888.06
475.063	884.06
475.282	897.06
475.501	843.06
475.72	826.06
475.939	913.06
476.158	894.06
476.377	898.06
476.596	847.06
476.814	857.06
477.033	841.06
477.252	852.06
477.471	924.06
477.69	902.06
477.908	935.06
478.127	999.06
478.346	1020.06
478.564	1032.06
478.783	1007.06
479.002	1037.06
479.22	1045.06
479.439	1015.06
479.658	1068.06
479.876	988.06
480.095	915.06
480.313	898.06
480.532	928.06
480.751	894.06
480.969	861.06
481.188	805.06
481.406	779.06
481.624	793.06
481.843	798.06
482.061	814.06
482.28	875.06
482.498	885.06
482.717	848.06
482.935	910.06
483.153	998.06
483.372	1014.06
483.59	1050.06
483.808	980.06
484.027	965.06
484.245	1034.06
484.463	1231.06
484.681	1312.06
484.9	1060.06
485.118	1020.06
485.336	966.06
485.554	891.06
485.772	894.06
485.99	890.06
486.209	914.06
486.427	930.06
486.645	958.06
486.863	1048.06
487.081	1067.06
487.299	1014.06
487.517	1066.06
487.735	1146.06
487.953	1240.06
488.171	1188.06
488.389	1162.06
488.607	1096.06
488.825	1152.06
489.043	1067.06
489.261	1012.06
489.479	1049.06
489.696	1070.06
489.914	1074.06
490.132	1075.06
490.35	1110.06
490.568	1187.06
490.786	1225.06
491.003	1198.06
491.221	1289.06
491.439	1318.06
491.657	1313.06
491.874	1374.06
492.092	1466.06
492.31	1518.06
492.527	1494.06
492.745	1380.06
492.963	1326.06
493.18	1355.06
493.398	1391.06
493.615	1350.06
493.833	1298.06
494.05	1283.06
494.268	1234.06
494.485	1240.06
494.703	1266.06
494.92	1249.06
495.138	1268.06
495.355	1279.06
495.573	1281.06
495.79	1339.06
496.008	1310.06
496.225	1234.06
496.442	1255.06
496.66	1256.06
496.877	1244.06
497.094	1250.06
497.312	1227.06
497.529	1243.06
497.746	1209.06
497.963	1281.06
498.181	1328.06
498.398	1284.06
498.615	1224.06
498.832	1181.06
499.049	1182.06
499.267	1190.06
499.484	1259.06
499.701	1362.06
499.918	1399.06
500.135	1501.06
500.352	1564.06
500.569	1614.06
500.786	1742.06
501.003	1587.06
501.22	1474.06
501.437	1423.06
501.654	1420.06
501.871	1372.06
502.088	1226.06
502.305	1187.06
502.522	1164.06
502.739	1118.06
502.956	1112.06
503.172	1107.06
503.389	1038.06
503.606	1027.06
503.823	974.06
504.04	1031.06
504.256	1008.06
504.473	1035.06
504.69	1041.06
504.907	978.06
505.123	981.06
505.34	1113.06
505.557	1376.06
505.773	1129.06
505.99	958.06
506.207	900.06
506.423	906.06
506.64	908.06
506.856	922.06
507.073	1045.06
507.289	1098.06
507.506	1033.06
507.722	921.06
507.939	882.06
508.155	882.06
508.372	863.06
508.588	814.06
508.805	786.06
509.021	815.06
509.238	776.06
509.454	753.06
509.67	775.06
509.887	771.06
510.103	739.06
510.319	751.06
510.536	767.06
510.752	797.06
510.968	767.06
511.184	794.06
511.401	799.06
511.617	732.06
511.833	694.06
512.049	728.06
512.265	722.06
512.481	731.06
512.698	775.06
512.914	781.06
513.13	777.06
513.346	736.06
513.562	720.06
513.778	729.06
513.994	758.06
514.21	766.06
514.426	794.06
514.642	834.06
514.858	787.06
515.074	727.06
515.29	758.06
515.506	715.06
515.721	750.06
515.937	752.06
516.153	808.06
516.369	796.06
516.585	754.06
516.801	732.06
517.016	731.06
517.232	770.06
517.448	794.06
517.664	798.06
517.879	806.06
518.095	853.06
518.311	807.06
518.527	780.06
518.742	777.06
518.958	754.06
519.173	750.06
519.389	786.06
519.605	802.06
519.82	793.06
520.036	778.06
520.251	780.06
520.467	798.06
520.682	837.06
520.898	813.06
521.113	751.06
521.329	723.06
521.544	786.06
521.76	750.06
521.975	714.06
522.19	723.06
522.406	743.06
522.621	952.06
522.836	864.06
523.052	732.06
523.267	772.06
523.482	755.06
523.698	793.06
523.913	741.06
524.128	792.06
524.343	812.06
524.559	838.06
524.774	783.06
524.989	757.06
525.204	781.06
525.419	753.06
525.634	763.06
525.849	713.06
526.064	705.06
526.28	713.06
526.495	679.06
526.71	662.06
526.925	643.06
527.14	656.06
527.355	634.06
527.57	651.06
527.785	666.06
527.999	655.06
528.214	682.06
528.429	722.06
528.644	756.06
528.859	778.06
529.074	838.06
529.289	902.06
529.503	875.06
529.718	835.06
529.933	756.06
530.148	691.06
530.363	649.06
530.577	638.06
530.792	665.06
531.007	643.06
531.221	633.06
531.436	637.06
531.651	678.06
531.865	673.06
532.08	653.06
532.295	629.06
532.509	614.06
532.724	650.06
532.938	682.06
533.153	724.06
533.367	717.06
533.582	766.06
533.796	750.06
534.011	722.06
534.225	645.06
534.44	631.06
534.654	641.06
534.868	666.06
535.083	694.06
535.297	703.06
535.511	694.06
535.726	695.06
535.94	698.06
536.154	663.06
536.369	640.06
536.583	622.06
536.797	624.06
537.011	610.06
537.225	607.06
537.44	612.06
537.654	668.06
537.868	631.06
538.082	626.06
538.296	627.06
538.51	636.06
538.724	673.06
538.938	730.06
539.153	765.06
539.367	736.06
539.581	698.06
539.795	682.06
540.009	649.06
540.222	635.06
540.436	691.06
540.65	781.06
540.864	794.06
541.078	816.06
541.292	846.06
541.506	904.06
541.72	963.06
541.934	1040.06
542.147	1112.06
542.361	1013.06
542.575	951.06
542.789	854.06
543.002	790.06
543.216	758.06
543.43	801.06
543.644	823.06
543.857	874.06
544.071	953.06
544.285	961.06
544.498	968.06
544.712	949.06
544.925	979.06
545.139	972.06
545.352	950.06
545.566	930.06
545.779	928.06
545.993	951.06
546.206	986.06
546.42	954.06
546.633	929.06
546.847	956.06
547.06	947.06
547.274	955.06
547.487	1001.06
547.7	1057.06
547.914	970.06
548.127	963.06
548.34	965.06
548.554	940.06
548.767	965.06
548.98	950.06
549.193	943.06
549.407	970.06
549.62	970.06
549.833	929.06
550.046	922.06
550.259	936.06
550.473	907.06
550.686	897.06
550.899	873.06
551.112	852.06
551.325	849.06
551.538	850.06
551.751	885.06
551.964	732.06
552.177	755.06
552.39	822.06
552.603	889.06
552.816	890.06
553.029	891.06
553.242	948.06
553.455	923.06
553.667	927.06
553.88	922.06
554.093	874.06
554.306	878.06
554.519	850.06
554.732	847.06
554.944	819.06
555.157	857.06
555.37	837.06
555.583	791.06
555.795	782.06
556.008	772.06
556.221	712.06
556.433	742.06
556.646	764.06
556.859	743.06
557.071	745.06
557.284	764.06
557.496	776.06
557.709	777.06
557.921	763.06
558.134	742.06
558.346	726.06
558.559	749.06
558.771	721.06
558.984	691.06
559.196	698.06
559.409	676.06
559.621	694.06
559.833	674.06
560.046	710.06
560.258	682.06
560.47	688.06
560.683	700.06
560.895	663.06
561.107	688.06
561.32	683.06
561.532	680.06
561.744	704.06
561.956	705.06
562.168	658.06
562.381	656.06
562.593	658.06
562.805	659.06
563.017	629.06
563.229	655.06
563.441	663.06
563.653	631.06
563.865	602.06
564.077	652.06
564.289	631.06
564.501	636.06
564.713	634.06
564.925	618.06
565.137	674.06
565.349	619.06
565.561	617.06
565.773	612.06
565.985	613.06
566.197	652.06
566.408	702.06
566.62	708.06
566.832	713.06
567.044	706.06
567.255	655.06
567.467	647.06
567.679	698.06
567.891	652.06
568.102	614.06
568.314	592.06
568.526	546.06
568.737	513.06
568.949	496.06
569.161	471.06
569.372	457.06
569.584	465.06
569.795	459.06
570.007	477.06
570.218	435.06
570.43	445.06
570.641	480.06
570.853	484.06
571.064	494.06
571.276	492.06
571.487	491.06
571.698	501.06
571.91	472.06
572.121	458.06
572.333	438.06
572.544	443.06
572.755	428.06
572.966	384.06
573.178	396.06
573.389	411.06
573.6	424.06
573.811	446.06
574.023	426.06
574.234	408.06
574.445	396.06
574.656	414.06
574.867	412.06
575.078	414.06
575.289	426.06
575.501	419.06
575.712	397.06
575.923	403.06
576.134	401.06
576.345	419.06
576.556	416.06
576.767	405.06
576.978	402.06
577.188	396.06
577.399	373.06
577.61	378.06
577.821	378.06
578.032	376.06
578.243	374.06
578.454	381.06
578.665	366.06
578.875	351.06
579.086	344.06
579.297	340.06
579.508	367.06
579.718	356.06
579.929	339.06
580.14	329.06
580.35	336.06
580.561	368.06
580.772	419.06
580.982	389.06
581.193	352.06
581.403	369.06
581.614	350.06
581.825	350.06
582.035	355.06
582.246	360.06
582.456	371.06
582.667	341.06
582.877	342.06
583.087	342.06
583.298	338.06
583.508	333.06
583.719	324.06
583.929	339.06
584.139	328.06
584.35	310.06
584.56	325.06
584.77	313.06
584.981	340.06
585.191	341.06
585.401	358.06
585.611	332.06
585.821	327.06
586.032	315.06
586.242	292.06
586.452	311.06
586.662	316.06
586.872	302.06
587.082	314.06
587.292	323.06
587.502	345.06
587.713	312.06
587.923	322.06
588.133	336.06
588.343	308.06
588.553	325.06
588.762	331.06
588.972	309.06
589.182	304.06
589.392	305.06
589.602	328.06
589.812	340.06
590.022	322.06
590.232	311.06
590.441	316.06
590.651	305.06
590.861	308.06
591.071	306.06
591.281	322.06
591.49	296.06
591.7	316.06
591.91	311.06
592.119	332.06
592.329	302.06
592.539	328.06
592.748	318.06
592.958	315.06
593.167	328.06
593.377	334.06
593.587	338.06
593.796	329.06
594.006	314.06
594.215	320.06
594.424	329.06
594.634	346.06
594.843	353.06
595.053	361.06
595.262	351.06
595.472	336.06
595.681	315.06
595.89	319.06
596.1	311.06
596.309	316.06
596.518	342.06
596.727	322.06
596.937	335.06
597.146	318.06
597.355	297.06
597.564	318.06
597.774	308.06
597.983	296.06
598.192	289.06
598.401	289.06
598.61	274.06
598.819	283.06
599.028	293.06
599.237	315.06
599.446	297.06
599.655	279.06
599.864	296.06
600.073	287.06
600.282	287.06
600.491	299.06
600.7	290.06
600.909	297.06
601.118	328.06
601.327	336.06
601.536	338.06
601.745	340.06
601.953	340.06
602.162	350.06
602.371	356.06
602.58	362.06
602.789	359.06
602.997	340.06
603.206	354.06
603.415	347.06
603.623	366.06
603.832	361.06
604.041	342.06
604.249	309.06
604.458	307.06
604.666	300.06
604.875	297.06
605.084	328.06
605.292	343.06
605.501	347.06
605.709	344.06
605.918	358.06
606.126	355.06
606.334	378.06
606.543	343.06
606.751	358.06
606.96	363.06
607.168	368.06
607.376	355.06
607.585	351.06
607.793	380.06
608.001	371.06
608.21	363.06
608.418	374.06
608.626	380.06
608.834	387.06
609.043	367.06
609.251	368.06
609.459	372.06
609.667	378.06
609.875	377.06
610.083	384.06
610.291	382.06
610.499	370.06
610.707	355.06
610.916	368.06
611.124	378.06
611.332	381.06
611.54	367.06
611.748	378.06
611.955	374.06
612.163	361.06
612.371	358.06
612.579	355.06
612.787	359.06
612.995	358.06
613.203	355.06
613.411	363.06
613.618	353.06
613.826	354.06
614.034	362.06
614.242	349.06
614.449	370.06
614.657	358.06
614.865	386.06
615.072	377.06
615.28	363.06
615.488	358.06
615.695	351.06
615.903	365.06
616.111	376.06
616.318	347.06
616.526	366.06
616.733	370.06
616.941	369.06
617.148	348.06
617.356	353.06
617.563	345.06
617.771	329.06
617.978	335.06
618.185	330.06
618.393	354.06
618.6	359.06
618.807	351.06
619.015	358.06
619.222	337.06
619.429	333.06
619.637	315.06
619.844	289.06
620.051	295.06
620.258	343.06
620.466	327.06
620.673	320.06
620.88	314.06
621.087	326.06
621.294	295.06
621.501	310.06
621.708	310.06
621.915	310.06
622.122	321.06
622.329	336.06
622.536	302.06
622.743	338.06
622.95	310.06
623.157	325.06
623.364	312.06
623.571	325.06
623.778	326.06
623.985	336.06
624.192	323.06
624.399	321.06
624.606	311.06
624.812	319.06
625.019	317.06
625.226	296.06
625.433	286.06
625.639	293.06
625.846	276.06
626.053	255.06
626.259	257.06
626.466	250.06
626.673	238.06
626.879	237.06
627.086	274.06
627.293	297.06
627.499	291.06
627.706	297.06
627.912	284.06
628.119	299.06
628.325	304.06
628.532	312.06
628.738	314.06
628.945	295.06
629.151	291.06
629.357	280.06
629.564	292.06
629.77	285.06
629.976	259.06
630.183	262.06
630.389	253.06
630.595	274.06
630.802	280.06
631.008	280.06
631.214	283.06
631.42	276.06
631.627	268.06
631.833	273.06
632.039	261.06
632.245	270.06
632.451	283.06
632.657	262.06
632.863	262.06
633.069	278.06
633.275	279.06
633.481	256.06
633.688	259.06
633.893	260.06
634.099	247.06
634.305	267.06
634.511	260.06
634.717	239.06
634.923	228.06
635.129	225.06
635.335	217.06
635.541	238.06
635.747	228.06
635.952	278.06
636.158	271.06
636.364	266.06
636.57	272.06
636.775	260.06
636.981	263.06
637.187	257.06
637.392	266.06
637.598	264.06
637.804	273.06
638.009	283.06
638.215	244.06
638.421	234.06
638.626	265.06
638.832	244.06
639.037	250.06
639.243	234.06
639.448	267.06
639.654	258.06
639.859	239.06
640.065	258.06
640.27	234.06
640.475	259.06
640.681	255.06
640.886	257.06
641.091	250.06
641.297	251.06
641.502	247.06
641.707	254.06
641.913	271.06
642.118	243.06
642.323	247.06
642.528	256.06
642.733	236.06
642.939	236.06
643.144	241.06
643.349	238.06
643.554	241.06
643.759	256.06
643.964	233.06
644.169	248.06
644.374	236.06
644.579	235.06
644.784	260.06
644.989	246.06
645.194	254.06
645.399	252.06
645.604	241.06
645.809	234.06
646.014	243.06
646.219	234.06
646.423	243.06
646.628	246.06
646.833	271.06
647.038	232.06
647.243	249.06
647.447	250.06
647.652	260.06
647.857	243.06
648.062	242.06
648.266	246.06
648.471	261.06
648.676	240.06
648.88	225.06
649.085	242.06
649.289	235.06
649.494	234.06
649.698	236.06
649.903	240.06
650.107	213.06
650.312	214.06
650.516	240.06
650.721	227.06
650.925	233.06
651.13	221.06
651.334	226.06
651.539	215.06
651.743	224.06
651.947	227.06
652.152	208.06
652.356	217.06
652.56	206.06
652.764	211.06
652.969	209.06
653.173	210.06
653.377	216.06
653.581	197.06
653.785	203.06
653.99	200.06
654.194	218.06
654.398	215.06
654.602	201.06
654.806	212.06
655.01	198.06
655.214	191.06
655.418	192.06
655.622	193.06
655.826	207.06
656.03	224.06
656.234	217.06
656.438	224.06
656.642	223.06
656.846	216.06
657.049	192.06
657.253	192.06
657.457	188.06
657.661	167.06
657.865	167.06
658.068	167.06
658.272	155.06
658.476	157.06
658.68	151.06
658.883	147.06
659.087	126.06
659.291	150.06
659.494	134.06
659.698	133.06
659.901	115.06
660.105	118.06
660.309	115.06
660.512	107.06
660.716	110.06
660.919	121.06
661.123	133.06
661.326	107.06
661.53	106.06
661.733	95.06
661.936	103.06
662.14	96.06
662.343	101.06
662.546	86.06
662.75	90.06
662.953	85.06
663.156	89.06
663.36	85.06
663.563	91.06
663.766	85.06
663.969	81.06
664.173	88.06
664.376	86.06
664.579	83.06
664.782	99.06
664.985	84.06
665.188	77.06
665.391	87.06
665.594	75.06
665.797	71.06
666	90.06
666.203	91.06
666.406	92.06
666.609	85.06
666.812	86.06
667.015	91.06
667.218	97.06
667.421	78.06
667.624	69.06
667.827	90.06
668.03	90.06
668.232	84.06
668.435	73.06
668.638	88.06
668.841	75.06
669.043	77.06
669.246	89.06
669.449	91.06
669.651	86.06
669.854	103.06
670.057	91.06
670.259	75.06
670.462	89.06
670.665	80.06
670.867	84.06
671.07	69.06
671.272	78.06
671.475	98.06
671.677	93.06
671.88	87.06
672.082	84.06
672.284	80.06
672.487	71.06
672.689	68.06
672.892	79.06
