Data from WStandard_LampEnergy8_LIBS07252019.E.O._I.C._HRD10591_15-59-31-929.txt Node
Date: Thu Jul 25 15:59:31 EDT 2019
User: cochatt
Spectrometer: HR+D1059
Trigger mode: 1
Integration Time (sec): 1.000000E-1
Scans to average: 1
Electric dark correction enabled: true
Nonlinearity correction enabled: false
Boxcar width: 0
XAxis mode: Wavelengths
Number of Pixels in Spectrum: 2048
>>>>>Begin Spectral Data<<<<<
223.165	-3.12
223.4	-3.12
223.635	-3.12
223.869	-13.12
224.104	-27.12
224.338	-26.12
224.573	-16.12
224.808	-16.12
225.042	3.88
225.277	6.88
225.511	3.88
225.746	9.88
225.98	2.88
226.215	3.88
226.449	16.88
226.683	20.88
226.918	15.88
227.152	16.88
227.387	25.88
227.621	26.88
227.856	39.88
228.09	37.88
228.324	50.88
228.559	57.88
228.793	95.88
229.027	184.88
229.262	212.88
229.496	192.88
229.73	229.88
229.964	233.88
230.199	248.88
230.433	283.88
230.667	278.88
230.901	310.88
231.136	269.88
231.37	244.88
231.604	237.88
231.838	252.88
232.072	255.88
232.306	252.88
232.541	264.88
232.775	307.88
233.009	333.88
233.243	312.88
233.477	306.88
233.711	293.88
233.945	310.88
234.179	294.88
234.413	319.88
234.647	338.88
234.881	313.88
235.115	290.88
235.349	297.88
235.583	303.88
235.817	301.88
236.051	282.88
236.285	295.88
236.519	345.88
236.753	349.88
236.987	357.88
237.221	344.88
237.455	377.88
237.689	360.88
237.922	344.88
238.156	352.88
238.39	354.88
238.624	378.88
238.858	392.88
239.091	421.88
239.325	420.88
239.559	464.88
239.793	472.88
240.027	503.88
240.26	473.88
240.494	377.88
240.728	359.88
240.961	357.88
241.195	377.88
241.429	380.88
241.662	398.88
241.896	360.88
242.13	422.88
242.363	430.88
242.597	452.88
242.83	423.88
243.064	446.88
243.298	473.88
243.531	456.88
243.765	462.88
243.998	466.88
244.232	404.88
244.465	378.88
244.699	399.88
244.932	455.88
245.166	512.88
245.399	494.88
245.633	469.88
245.866	450.88
246.099	469.88
246.333	484.88
246.566	483.88
246.8	531.88
247.033	577.88
247.266	544.88
247.5	547.88
247.733	520.88
247.966	556.88
248.2	602.88
248.433	611.88
248.666	623.88
248.899	639.88
249.133	737.88
249.366	840.88
249.599	682.88
249.832	617.88
250.066	616.88
250.299	609.88
250.532	566.88
250.765	553.88
250.998	583.88
251.231	585.88
251.465	595.88
251.698	554.88
251.931	577.88
252.164	592.88
252.397	592.88
252.63	600.88
252.863	532.88
253.096	543.88
253.329	559.88
253.562	597.88
253.795	631.88
254.028	600.88
254.261	557.88
254.494	545.88
254.727	551.88
254.96	579.88
255.193	629.88
255.426	709.88
255.659	761.88
255.892	766.88
256.124	661.88
256.357	687.88
256.59	651.88
256.823	692.88
257.056	722.88
257.289	809.88
257.521	892.88
257.754	790.88
257.987	747.88
258.22	820.88
258.452	802.88
258.685	663.88
258.918	670.88
259.151	648.88
259.383	644.88
259.616	579.88
259.849	614.88
260.081	704.88
260.314	743.88
260.547	813.88
260.779	819.88
261.012	769.88
261.244	699.88
261.477	650.88
261.71	704.88
261.942	713.88
262.175	676.88
262.407	709.88
262.64	671.88
262.872	642.88
263.105	623.88
263.337	611.88
263.57	606.88
263.802	630.88
264.035	592.88
264.267	581.88
264.499	558.88
264.732	591.88
264.964	674.88
265.197	663.88
265.429	717.88
265.661	753.88
265.894	822.88
266.126	838.88
266.358	779.88
266.591	772.88
266.823	845.88
267.055	750.88
267.287	755.88
267.52	747.88
267.752	739.88
267.984	749.88
268.216	786.88
268.448	809.88
268.681	773.88
268.913	735.88
269.145	712.88
269.377	700.88
269.609	751.88
269.841	866.88
270.073	994.88
270.306	1094.88
270.538	1101.88
270.77	983.88
271.002	838.88
271.234	787.88
271.466	783.88
271.698	893.88
271.93	1046.88
272.162	1008.88
272.394	951.88
272.626	888.88
272.858	778.88
273.09	698.88
273.322	685.88
273.553	665.88
273.785	692.88
274.017	689.88
274.249	768.88
274.481	746.88
274.713	688.88
274.945	687.88
275.176	702.88
275.408	706.88
275.64	673.88
275.872	686.88
276.104	734.88
276.335	830.88
276.567	917.88
276.799	904.88
277.031	830.88
277.262	794.88
277.494	810.88
277.726	903.88
277.957	879.88
278.189	777.88
278.421	729.88
278.652	711.88
278.884	719.88
279.115	754.88
279.347	737.88
279.579	728.88
279.81	735.88
280.042	824.88
280.273	849.88
280.505	849.88
280.736	871.88
280.968	849.88
281.199	736.88
281.431	711.88
281.662	711.88
281.894	711.88
282.125	713.88
282.356	758.88
282.588	752.88
282.819	780.88
283.051	818.88
283.282	900.88
283.513	865.88
283.745	766.88
283.976	714.88
284.207	724.88
284.439	738.88
284.67	755.88
284.901	755.88
285.132	775.88
285.364	751.88
285.595	776.88
285.826	769.88
286.057	737.88
286.288	764.88
286.52	794.88
286.751	862.88
286.982	873.88
287.213	806.88
287.444	754.88
287.675	725.88
287.906	798.88
288.138	785.88
288.369	783.88
288.6	749.88
288.831	723.88
289.062	739.88
289.293	742.88
289.524	751.88
289.755	768.88
289.986	774.88
290.217	741.88
290.448	765.88
290.679	767.88
290.91	775.88
291.141	814.88
291.371	828.88
291.602	810.88
291.833	802.88
292.064	836.88
292.295	783.88
292.526	820.88
292.757	855.88
292.987	800.88
293.218	804.88
293.449	882.88
293.68	964.88
293.91	1015.88
294.141	966.88
294.372	932.88
294.603	925.88
294.833	974.88
295.064	920.88
295.295	827.88
295.525	790.88
295.756	743.88
295.987	705.88
296.217	739.88
296.448	760.88
296.679	761.88
296.909	770.88
297.14	777.88
297.37	792.88
297.601	867.88
297.831	885.88
298.062	868.88
298.292	797.88
298.523	782.88
298.753	764.88
298.984	790.88
299.214	816.88
299.445	847.88
299.675	863.88
299.905	838.88
300.136	806.88
300.366	786.88
300.597	756.88
300.827	778.88
301.057	825.88
301.288	849.88
301.518	853.88
301.748	861.88
301.979	920.88
302.209	904.88
302.439	954.88
302.669	990.88
302.9	956.88
303.13	849.88
303.36	840.88
303.59	852.88
303.82	818.88
304.051	853.88
304.281	871.88
304.511	882.88
304.741	925.88
304.971	1001.88
305.201	1050.88
305.431	983.88
305.661	825.88
305.891	748.88
306.121	759.88
306.352	800.88
306.582	846.88
306.812	885.88
307.042	953.88
307.272	963.88
307.502	972.88
307.731	1033.88
307.961	1048.88
308.191	989.88
308.421	863.88
308.651	843.88
308.881	821.88
309.111	812.88
309.341	792.88
309.571	830.88
309.8	808.88
310.03	798.88
310.26	811.88
310.49	790.88
310.72	830.88
310.949	905.88
311.179	886.88
311.409	860.88
311.639	869.88
311.868	828.88
312.098	857.88
312.328	824.88
312.557	849.88
312.787	874.88
313.017	877.88
313.246	860.88
313.476	871.88
313.706	878.88
313.935	892.88
314.165	906.88
314.394	904.88
314.624	984.88
314.853	1028.88
315.083	1059.88
315.312	1039.88
315.542	984.88
315.771	919.88
316.001	927.88
316.23	940.88
316.46	919.88
316.689	914.88
316.919	898.88
317.148	861.88
317.377	910.88
317.607	952.88
317.836	1075.88
318.065	1047.88
318.295	1045.88
318.524	953.88
318.753	931.88
318.983	953.88
319.212	902.88
319.441	922.88
319.67	929.88
319.9	921.88
320.129	957.88
320.358	982.88
320.587	1044.88
320.816	1030.88
321.046	990.88
321.275	952.88
321.504	1021.88
321.733	1083.88
321.962	994.88
322.191	927.88
322.42	915.88
322.649	916.88
322.878	930.88
323.108	950.88
323.337	966.88
323.566	947.88
323.795	949.88
324.024	960.88
324.253	947.88
324.482	935.88
324.71	900.88
324.939	871.88
325.168	895.88
325.397	960.88
325.626	928.88
325.855	950.88
326.084	910.88
326.313	933.88
326.542	938.88
326.77	928.88
326.999	944.88
327.228	927.88
327.457	853.88
327.686	886.88
327.914	898.88
328.143	896.88
328.372	920.88
328.6	914.88
328.829	913.88
329.058	905.88
329.287	917.88
329.515	917.88
329.744	964.88
329.972	999.88
330.201	1048.88
330.43	999.88
330.658	972.88
330.887	966.88
331.115	993.88
331.344	1010.88
331.572	963.88
331.801	963.88
332.03	964.88
332.258	958.88
332.486	1011.88
332.715	987.88
332.943	989.88
333.172	957.88
333.4	977.88
333.629	1017.88
333.857	1116.88
334.085	1251.88
334.314	1350.88
334.542	1425.88
334.771	1304.88
334.999	1141.88
335.227	1072.88
335.455	1052.88
335.684	1056.88
335.912	1091.88
336.14	1100.88
336.369	1033.88
336.597	1004.88
336.825	962.88
337.053	1057.88
337.281	1084.88
337.51	1152.88
337.738	1181.88
337.966	1090.88
338.194	1001.88
338.422	996.88
338.65	948.88
338.878	942.88
339.106	959.88
339.334	922.88
339.562	934.88
339.79	971.88
340.018	1030.88
340.246	1045.88
340.474	1027.88
340.702	1006.88
340.93	989.88
341.158	1033.88
341.386	976.88
341.614	990.88
341.842	977.88
342.07	990.88
342.298	981.88
342.526	1009.88
342.754	968.88
342.981	987.88
343.209	970.88
343.437	922.88
343.665	982.88
343.893	995.88
344.12	1049.88
344.348	1065.88
344.576	982.88
344.804	991.88
345.031	986.88
345.259	990.88
345.487	952.88
345.714	906.88
345.942	916.88
346.17	931.88
346.397	917.88
346.625	926.88
346.853	888.88
347.08	894.88
347.308	915.88
347.535	942.88
347.763	975.88
347.99	910.88
348.218	903.88
348.445	916.88
348.673	936.88
348.9	976.88
349.128	961.88
349.355	1010.88
349.583	960.88
349.81	908.88
350.037	864.88
350.265	851.88
350.492	847.88
350.72	908.88
350.947	929.88
351.174	940.88
351.402	898.88
351.629	876.88
351.856	841.88
352.083	835.88
352.311	866.88
352.538	922.88
352.765	942.88
352.992	934.88
353.22	896.88
353.447	872.88
353.674	906.88
353.901	923.88
354.128	890.88
354.355	901.88
354.583	941.88
354.81	965.88
355.037	964.88
355.264	944.88
355.491	926.88
355.718	930.88
355.945	893.88
356.172	888.88
356.399	895.88
356.626	911.88
356.853	913.88
357.08	1017.88
357.307	1119.88
357.534	1050.88
357.761	942.88
357.988	870.88
358.215	876.88
358.441	876.88
358.668	866.88
358.895	885.88
359.122	992.88
359.349	1046.88
359.576	983.88
359.802	926.88
360.029	890.88
360.256	882.88
360.483	888.88
360.709	937.88
360.936	946.88
361.163	1022.88
361.39	1098.88
361.616	1152.88
361.843	1129.88
362.07	1028.88
362.296	940.88
362.523	944.88
362.749	937.88
362.976	932.88
363.203	929.88
363.429	933.88
363.656	893.88
363.882	954.88
364.109	1034.88
364.335	1066.88
364.562	1025.88
364.788	980.88
365.015	918.88
365.241	901.88
365.468	934.88
365.694	1001.88
365.92	1031.88
366.147	910.88
366.373	896.88
366.599	889.88
366.826	905.88
367.052	887.88
367.278	893.88
367.505	944.88
367.731	951.88
367.957	965.88
368.184	1008.88
368.41	1054.88
368.636	1060.88
368.862	1053.88
369.089	1053.88
369.315	992.88
369.541	973.88
369.767	932.88
369.993	906.88
370.219	918.88
370.445	960.88
370.672	1032.88
370.898	1073.88
371.124	1030.88
371.35	989.88
371.576	1033.88
371.802	1038.88
372.028	988.88
372.254	969.88
372.48	938.88
372.706	943.88
372.932	960.88
373.158	929.88
373.384	949.88
373.61	993.88
373.835	1032.88
374.061	982.88
374.287	953.88
374.513	952.88
374.739	989.88
374.965	1020.88
375.191	980.88
375.416	1012.88
375.642	1031.88
375.868	1096.88
376.094	1089.88
376.319	1026.88
376.545	991.88
376.771	1060.88
376.997	1065.88
377.222	1057.88
377.448	1006.88
377.674	1051.88
377.899	1054.88
378.125	1095.88
378.35	1036.88
378.576	986.88
378.802	954.88
379.027	946.88
379.253	981.88
379.478	1002.88
379.704	978.88
379.929	979.88
380.155	986.88
380.38	991.88
380.606	997.88
380.831	982.88
381.057	1060.88
381.282	1070.88
381.507	1044.88
381.733	1088.88
381.958	1146.88
382.184	1023.88
382.409	1014.88
382.634	1032.88
382.86	1043.88
383.085	1027.88
383.31	1102.88
383.535	1172.88
383.761	1236.88
383.986	1175.88
384.211	1114.88
384.436	1118.88
384.662	1178.88
384.887	1200.88
385.112	1149.88
385.337	1147.88
385.562	1132.88
385.787	1113.88
386.013	1132.88
386.238	1176.88
386.463	1185.88
386.688	1241.88
386.913	1299.88
387.138	1244.88
387.363	1177.88
387.588	1168.88
387.813	1163.88
388.038	1186.88
388.263	1184.88
388.488	1176.88
388.713	1056.88
388.938	1088.88
389.163	1099.88
389.387	1124.88
389.612	1109.88
389.837	1145.88
390.062	1175.88
390.287	1152.88
390.512	1140.88
390.736	1115.88
390.961	1069.88
391.186	1061.88
391.411	1080.88
391.636	1105.88
391.86	1118.88
392.085	1152.88
392.31	1140.88
392.534	1130.88
392.759	1134.88
392.984	1110.88
393.208	1148.88
393.433	1169.88
393.658	1213.88
393.882	1208.88
394.107	1138.88
394.331	1117.88
394.556	1107.88
394.78	1156.88
395.005	1184.88
395.229	1246.88
395.454	1286.88
395.678	1278.88
395.903	1206.88
396.127	1194.88
396.352	1209.88
396.576	1260.88
396.801	1248.88
397.025	1232.88
397.249	1249.88
397.474	1229.88
397.698	1192.88
397.922	1288.88
398.147	1340.88
398.371	1350.88
398.595	1362.88
398.82	1297.88
399.044	1325.88
399.268	1360.88
399.492	1454.88
399.717	1494.88
399.941	1500.88
400.165	1452.88
400.389	1476.88
400.613	1450.88
400.837	1652.88
401.062	1817.88
401.286	1516.88
401.51	1438.88
401.734	1447.88
401.958	1393.88
402.182	1356.88
402.406	1256.88
402.63	1300.88
402.854	1296.88
403.078	1287.88
403.302	1314.88
403.526	1351.88
403.75	1369.88
403.974	1358.88
404.198	1380.88
404.422	1419.88
404.645	1478.88
404.869	1419.88
405.093	1306.88
405.317	1300.88
405.541	1342.88
405.765	1368.88
405.988	1309.88
406.212	1352.88
406.436	1383.88
406.66	1456.88
406.883	1476.88
407.107	1663.88
407.331	1778.88
407.555	1871.88
407.778	1674.88
408.002	1432.88
408.226	1374.88
408.449	1394.88
408.673	1356.88
408.896	1366.88
409.12	1398.88
409.344	1358.88
409.567	1355.88
409.791	1365.88
410.014	1381.88
410.238	1468.88
410.461	1474.88
410.685	1382.88
410.908	1335.88
411.132	1388.88
411.355	1338.88
411.578	1353.88
411.802	1333.88
412.025	1352.88
412.249	1318.88
412.472	1288.88
412.695	1294.88
412.919	1274.88
413.142	1257.88
413.365	1312.88
413.589	1376.88
413.812	1395.88
414.035	1420.88
414.258	1306.88
414.482	1306.88
414.705	1266.88
414.928	1320.88
415.151	1282.88
415.374	1285.88
415.597	1345.88
415.821	1312.88
416.044	1340.88
416.267	1336.88
416.49	1258.88
416.713	1260.88
416.936	1306.88
417.159	1361.88
417.382	1354.88
417.605	1290.88
417.828	1313.88
418.051	1333.88
418.274	1304.88
418.497	1260.88
418.72	1305.88
418.943	1309.88
419.166	1320.88
419.389	1382.88
419.611	1285.88
419.834	1271.88
420.057	1318.88
420.28	1265.88
420.503	1292.88
420.726	1322.88
420.948	1313.88
421.171	1233.88
421.394	1293.88
421.617	1346.88
421.839	1316.88
422.062	1316.88
422.285	1277.88
422.507	1255.88
422.73	1209.88
422.953	1215.88
423.175	1196.88
423.398	1264.88
423.621	1257.88
423.843	1269.88
424.066	1321.88
424.288	1393.88
424.511	1390.88
424.733	1346.88
424.956	1236.88
425.178	1234.88
425.401	1227.88
425.623	1286.88
425.846	1281.88
426.068	1316.88
426.291	1321.88
426.513	1297.88
426.735	1310.88
426.958	1376.88
427.18	1460.88
427.402	1337.88
427.625	1415.88
427.847	1359.88
428.069	1255.88
428.292	1237.88
428.514	1225.88
428.736	1228.88
428.958	1250.88
429.181	1282.88
429.403	1430.88
429.625	1758.88
429.847	1479.88
430.069	1312.88
430.292	1484.88
430.514	1435.88
430.736	1312.88
430.958	1356.88
431.18	1304.88
431.402	1212.88
431.624	1208.88
431.846	1138.88
432.068	1127.88
432.29	1166.88
432.512	1184.88
432.734	1229.88
432.956	1294.88
433.178	1309.88
433.4	1325.88
433.622	1274.88
433.844	1206.88
434.066	1204.88
434.287	1170.88
434.509	1202.88
434.731	1257.88
434.953	1328.88
435.175	1322.88
435.397	1232.88
435.618	1285.88
435.84	1246.88
436.062	1216.88
436.284	1224.88
436.505	1272.88
436.727	1336.88
436.949	1255.88
437.17	1218.88
437.392	1238.88
437.614	1188.88
437.835	1147.88
438.057	1244.88
438.278	1228.88
438.5	1234.88
438.721	1216.88
438.943	1231.88
439.165	1225.88
439.386	1236.88
439.608	1265.88
439.829	1225.88
440.05	1267.88
440.272	1246.88
440.493	1233.88
440.715	1247.88
440.936	1360.88
441.158	1432.88
441.379	1353.88
441.6	1382.88
441.822	1344.88
442.043	1315.88
442.264	1306.88
442.486	1249.88
442.707	1281.88
442.928	1230.88
443.149	1279.88
443.371	1362.88
443.592	1397.88
443.813	1353.88
444.034	1338.88
444.255	1350.88
444.476	1362.88
444.698	1414.88
444.919	1372.88
445.14	1520.88
445.361	1469.88
445.582	1454.88
445.803	1396.88
446.024	1397.88
446.245	1364.88
446.466	1360.88
446.687	1355.88
446.908	1318.88
447.129	1308.88
447.35	1300.88
447.571	1310.88
447.792	1212.88
448.013	1260.88
448.234	1282.88
448.455	1325.88
448.675	1294.88
448.896	1216.88
449.117	1212.88
449.338	1198.88
449.559	1253.88
449.779	1360.88
450	1390.88
450.221	1453.88
450.442	1412.88
450.662	1293.88
450.883	1160.88
451.104	1194.88
451.324	1208.88
451.545	1180.88
451.766	1174.88
451.986	1136.88
452.207	1117.88
452.428	1088.88
452.648	1064.88
452.869	1127.88
453.089	1125.88
453.31	1143.88
453.53	1142.88
453.751	1070.88
453.971	1042.88
454.192	1109.88
454.412	1140.88
454.633	1150.88
454.853	1102.88
455.073	1046.88
455.294	1054.88
455.514	1057.88
455.734	1090.88
455.955	1113.88
456.175	1073.88
456.395	1050.88
456.616	1095.88
456.836	1091.88
457.056	1065.88
457.276	1082.88
457.497	997.88
457.717	1022.88
457.937	1043.88
458.157	1036.88
458.377	1049.88
458.598	1030.88
458.818	1056.88
459.038	1110.88
459.258	1155.88
459.478	1148.88
459.698	1120.88
459.918	1149.88
460.138	1206.88
460.358	1264.88
460.578	1261.88
460.798	1288.88
461.018	1321.88
461.238	1314.88
461.458	1288.88
461.678	1233.88
461.898	1214.88
462.118	1188.88
462.338	1276.88
462.558	1238.88
462.777	1269.88
462.997	1298.88
463.217	1366.88
463.437	1361.88
463.657	1244.88
463.876	1243.88
464.096	1227.88
464.316	1267.88
464.536	1281.88
464.755	1321.88
464.975	1295.88
465.195	1253.88
465.414	1332.88
465.634	1289.88
465.854	1284.88
466.073	1376.88
466.293	1358.88
466.512	1204.88
466.732	1241.88
466.951	1257.88
467.171	1232.88
467.391	1205.88
467.61	1210.88
467.829	1216.88
468.049	1359.88
468.268	1430.88
468.488	1367.88
468.707	1252.88
468.927	1241.88
469.146	1193.88
469.365	1207.88
469.585	1234.88
469.804	1230.88
470.023	1221.88
470.243	1265.88
470.462	1226.88
470.681	1209.88
470.901	1203.88
471.12	1224.88
471.339	1203.88
471.558	1209.88
471.777	1207.88
471.997	1197.88
472.216	1155.88
472.435	1089.88
472.654	1141.88
472.873	1155.88
473.092	1253.88
473.311	1184.88
473.53	1132.88
473.749	1125.88
473.968	1156.88
474.187	1216.88
474.406	1232.88
474.625	1189.88
474.844	1185.88
475.063	1226.88
475.282	1207.88
475.501	1199.88
475.72	1203.88
475.939	1279.88
476.158	1239.88
476.377	1202.88
476.596	1220.88
476.814	1208.88
477.033	1224.88
477.252	1247.88
477.471	1310.88
477.69	1287.88
477.908	1286.88
478.127	1362.88
478.346	1447.88
478.564	1416.88
478.783	1416.88
479.002	1439.88
479.22	1405.88
479.439	1474.88
479.658	1585.88
479.876	1538.88
480.095	1377.88
480.313	1373.88
480.532	1303.88
480.751	1290.88
480.969	1283.88
481.188	1244.88
481.406	1242.88
481.624	1206.88
481.843	1248.88
482.061	1306.88
482.28	1344.88
482.498	1336.88
482.717	1301.88
482.935	1303.88
483.153	1344.88
483.372	1351.88
483.59	1345.88
483.808	1346.88
484.027	1365.88
484.245	1398.88
484.463	1714.88
484.681	1839.88
484.9	1464.88
485.118	1377.88
485.336	1362.88
485.554	1381.88
485.772	1364.88
485.99	1372.88
486.209	1382.88
486.427	1374.88
486.645	1401.88
486.863	1396.88
487.081	1449.88
487.299	1454.88
487.517	1424.88
487.735	1468.88
487.953	1488.88
488.171	1466.88
488.389	1448.88
488.607	1445.88
488.825	1588.88
489.043	1521.88
489.261	1399.88
489.479	1490.88
489.696	1478.88
489.914	1424.88
490.132	1421.88
490.35	1436.88
490.568	1564.88
490.786	1504.88
491.003	1460.88
491.221	1498.88
491.439	1584.88
491.657	1563.88
491.874	1606.88
492.092	1622.88
492.31	1683.88
492.527	1640.88
492.745	1632.88
492.963	1542.88
493.18	1626.88
493.398	1660.88
493.615	1672.88
493.833	1562.88
494.05	1539.88
494.268	1564.88
494.485	1610.88
494.703	1533.88
494.92	1551.88
495.138	1543.88
495.355	1519.88
495.573	1594.88
495.79	1652.88
496.008	1672.88
496.225	1583.88
496.442	1608.88
496.66	1565.88
496.877	1549.88
497.094	1655.88
497.312	1637.88
497.529	1622.88
497.746	1616.88
497.963	1836.88
498.181	1943.88
498.398	1877.88
498.615	1793.88
498.832	1751.88
499.049	1760.88
499.267	1762.88
499.484	1889.88
499.701	2005.88
499.918	2073.88
500.135	2180.88
500.352	2329.88
500.569	2318.88
500.786	2488.88
501.003	2284.88
501.22	2108.88
501.437	2065.88
501.654	2095.88
501.871	1922.88
502.088	1749.88
502.305	1784.88
502.522	1705.88
502.739	1592.88
502.956	1562.88
503.172	1518.88
503.389	1505.88
503.606	1502.88
503.823	1473.88
504.04	1478.88
504.256	1482.88
504.473	1492.88
504.69	1520.88
504.907	1452.88
505.123	1402.88
505.34	1543.88
505.557	2004.88
505.773	1618.88
505.99	1395.88
506.207	1312.88
506.423	1318.88
506.64	1298.88
506.856	1325.88
507.073	1509.88
507.289	1602.88
507.506	1492.88
507.722	1317.88
507.939	1235.88
508.155	1269.88
508.372	1242.88
508.588	1188.88
508.805	1148.88
509.021	1159.88
509.238	1182.88
509.454	1113.88
509.67	1160.88
509.887	1084.88
510.103	1144.88
510.319	1156.88
510.536	1212.88
510.752	1196.88
510.968	1229.88
511.184	1272.88
511.401	1228.88
511.617	1120.88
511.833	1102.88
512.049	1104.88
512.265	1072.88
512.481	1093.88
512.698	1153.88
512.914	1196.88
513.13	1140.88
513.346	1093.88
513.562	1093.88
513.778	1126.88
513.994	1150.88
514.21	1183.88
514.426	1189.88
514.642	1298.88
514.858	1210.88
515.074	1144.88
515.29	1110.88
515.506	1143.88
515.721	1154.88
515.937	1200.88
516.153	1300.88
516.369	1241.88
516.585	1170.88
516.801	1140.88
517.016	1146.88
517.232	1202.88
517.448	1207.88
517.664	1215.88
517.879	1230.88
518.095	1272.88
518.311	1216.88
518.527	1197.88
518.742	1151.88
518.958	1126.88
519.173	1145.88
519.389	1136.88
519.605	1181.88
519.82	1163.88
520.036	1176.88
520.251	1144.88
520.467	1183.88
520.682	1267.88
520.898	1260.88
521.113	1104.88
521.329	1118.88
521.544	1170.88
521.76	1146.88
521.975	1104.88
522.19	1088.88
522.406	1089.88
522.621	1356.88
522.836	1294.88
523.052	1086.88
523.267	1107.88
523.482	1090.88
523.698	1066.88
523.913	1057.88
524.128	1069.88
524.343	1129.88
524.559	1139.88
524.774	1088.88
524.989	1077.88
525.204	1070.88
525.419	1078.88
525.634	1042.88
525.849	1045.88
526.064	1078.88
526.28	1070.88
526.495	1025.88
526.71	983.88
526.925	1011.88
527.14	980.88
527.355	943.88
527.57	944.88
527.785	1019.88
527.999	980.88
528.214	989.88
528.429	997.88
528.644	1028.88
528.859	1024.88
529.074	1065.88
529.289	1126.88
529.503	1084.88
529.718	1086.88
529.933	1013.88
530.148	977.88
530.363	961.88
530.577	983.88
530.792	961.88
531.007	994.88
531.221	963.88
531.436	991.88
531.651	1025.88
531.865	1039.88
532.08	1008.88
532.295	932.88
532.509	949.88
532.724	964.88
532.938	1004.88
533.153	1043.88
533.367	1024.88
533.582	1024.88
533.796	1003.88
534.011	1011.88
534.225	975.88
534.44	946.88
534.654	982.88
534.868	985.88
535.083	998.88
535.297	1011.88
535.511	995.88
535.726	984.88
535.94	985.88
536.154	972.88
536.369	948.88
536.583	933.88
536.797	930.88
537.011	948.88
537.225	917.88
537.44	916.88
537.654	965.88
537.868	918.88
538.082	894.88
538.296	907.88
538.51	924.88
538.724	920.88
538.938	974.88
539.153	993.88
539.367	1009.88
539.581	995.88
539.795	1000.88
540.009	941.88
540.222	954.88
540.436	989.88
540.65	1074.88
540.864	1095.88
541.078	1057.88
541.292	1047.88
541.506	1047.88
541.72	1096.88
541.934	1144.88
542.147	1161.88
542.361	1166.88
542.575	1061.88
542.789	1001.88
543.002	969.88
543.216	967.88
543.43	991.88
543.644	1076.88
543.857	1114.88
544.071	1092.88
544.285	1129.88
544.498	1055.88
544.712	1086.88
544.925	1098.88
545.139	1110.88
545.352	1061.88
545.566	1045.88
545.779	1064.88
545.993	1087.88
546.206	1102.88
546.42	1068.88
546.633	1037.88
546.847	1080.88
547.06	1063.88
547.274	1050.88
547.487	1106.88
547.7	1084.88
547.914	1086.88
548.127	1079.88
548.34	1090.88
548.554	1069.88
548.767	1068.88
548.98	1047.88
549.193	1060.88
549.407	1108.88
549.62	1104.88
549.833	1054.88
550.046	1060.88
550.259	1062.88
550.473	1060.88
550.686	994.88
550.899	991.88
551.112	993.88
551.325	956.88
551.538	1057.88
551.751	1128.88
551.964	920.88
552.177	908.88
552.39	986.88
552.603	991.88
552.816	1018.88
553.029	1063.88
553.242	1084.88
553.455	1049.88
553.667	1040.88
553.88	1052.88
554.093	1009.88
554.306	1001.88
554.519	958.88
554.732	961.88
554.944	956.88
555.157	950.88
555.37	937.88
555.583	949.88
555.795	937.88
556.008	915.88
556.221	884.88
556.433	880.88
556.646	848.88
556.859	858.88
557.071	855.88
557.284	875.88
557.496	892.88
557.709	866.88
557.921	840.88
558.134	854.88
558.346	836.88
558.559	848.88
558.771	833.88
558.984	832.88
559.196	820.88
559.409	833.88
559.621	812.88
559.833	786.88
560.046	825.88
560.258	805.88
560.47	810.88
560.683	814.88
560.895	832.88
561.107	818.88
561.32	804.88
561.532	843.88
561.744	818.88
561.956	820.88
562.168	791.88
562.381	763.88
562.593	773.88
562.805	777.88
563.017	752.88
563.229	774.88
563.441	804.88
563.653	805.88
563.865	807.88
564.077	754.88
564.289	768.88
564.501	756.88
564.713	770.88
564.925	827.88
565.137	887.88
565.349	806.88
565.561	788.88
565.773	802.88
565.985	814.88
566.197	852.88
566.408	897.88
566.62	896.88
566.832	915.88
567.044	862.88
567.255	871.88
567.467	877.88
567.679	934.88
567.891	944.88
568.102	896.88
568.314	846.88
568.526	801.88
568.737	757.88
568.949	742.88
569.161	713.88
569.372	680.88
569.584	703.88
569.795	701.88
570.007	684.88
570.218	657.88
570.43	666.88
570.641	652.88
570.853	669.88
571.064	663.88
571.276	646.88
571.487	660.88
571.698	625.88
571.91	613.88
572.121	611.88
572.333	629.88
572.544	601.88
572.755	571.88
572.966	578.88
573.178	582.88
573.389	573.88
573.6	586.88
573.811	646.88
574.023	578.88
574.234	573.88
574.445	580.88
574.656	542.88
574.867	566.88
575.078	567.88
575.289	568.88
575.501	550.88
575.712	528.88
575.923	544.88
576.134	570.88
576.345	550.88
576.556	540.88
576.767	544.88
576.978	533.88
577.188	528.88
577.399	535.88
577.61	536.88
577.821	535.88
578.032	526.88
578.243	526.88
578.454	520.88
578.665	517.88
578.875	506.88
579.086	478.88
579.297	510.88
579.508	530.88
579.718	509.88
579.929	534.88
580.14	470.88
580.35	482.88
580.561	513.88
580.772	525.88
580.982	502.88
581.193	494.88
581.403	477.88
581.614	471.88
581.825	453.88
582.035	486.88
582.246	465.88
582.456	506.88
582.667	479.88
582.877	464.88
583.087	479.88
583.298	478.88
583.508	472.88
583.719	477.88
583.929	471.88
584.139	455.88
584.35	455.88
584.56	465.88
584.77	482.88
584.981	461.88
585.191	477.88
585.401	501.88
585.611	465.88
585.821	454.88
586.032	468.88
586.242	459.88
586.452	441.88
586.662	437.88
586.872	438.88
587.082	429.88
587.292	450.88
587.502	480.88
587.713	447.88
587.923	454.88
588.133	444.88
588.343	452.88
588.553	441.88
588.762	446.88
588.972	446.88
589.182	469.88
589.392	426.88
589.602	455.88
589.812	460.88
590.022	433.88
590.232	418.88
590.441	469.88
590.651	445.88
590.861	438.88
591.071	425.88
591.281	438.88
591.49	428.88
591.7	442.88
591.91	447.88
592.119	464.88
592.329	445.88
592.539	466.88
592.748	458.88
592.958	469.88
593.167	466.88
593.377	471.88
593.587	480.88
593.796	455.88
594.006	470.88
594.215	477.88
594.424	460.88
594.634	482.88
594.843	471.88
595.053	467.88
595.262	461.88
595.472	439.88
595.681	445.88
595.89	421.88
596.1	416.88
596.309	447.88
596.518	428.88
596.727	440.88
596.937	422.88
597.146	409.88
597.355	405.88
597.564	405.88
597.774	411.88
597.983	397.88
598.192	387.88
598.401	378.88
598.61	384.88
598.819	370.88
599.028	414.88
599.237	403.88
599.446	385.88
599.655	408.88
599.864	406.88
600.073	397.88
600.282	382.88
600.491	377.88
600.7	386.88
600.909	386.88
601.118	381.88
601.327	400.88
601.536	407.88
601.745	400.88
601.953	407.88
602.162	418.88
602.371	422.88
602.58	408.88
602.789	396.88
602.997	410.88
603.206	411.88
603.415	409.88
603.623	387.88
603.832	384.88
604.041	391.88
604.249	391.88
604.458	396.88
604.666	372.88
604.875	389.88
605.084	405.88
605.292	396.88
605.501	392.88
605.709	395.88
605.918	371.88
606.126	388.88
606.334	395.88
606.543	403.88
606.751	387.88
606.96	400.88
607.168	406.88
607.376	402.88
607.585	397.88
607.793	381.88
608.001	396.88
608.21	403.88
608.418	395.88
608.626	416.88
608.834	392.88
609.043	414.88
609.251	394.88
609.459	390.88
609.667	410.88
609.875	420.88
610.083	383.88
610.291	400.88
610.499	414.88
610.707	397.88
610.916	381.88
611.124	375.88
611.332	391.88
611.54	382.88
611.748	378.88
611.955	377.88
612.163	402.88
612.371	391.88
612.579	410.88
612.787	379.88
612.995	390.88
613.203	403.88
613.411	398.88
613.618	398.88
613.826	392.88
614.034	394.88
614.242	373.88
614.449	375.88
614.657	389.88
614.865	389.88
615.072	377.88
615.28	373.88
615.488	405.88
615.695	411.88
615.903	394.88
616.111	380.88
616.318	391.88
616.526	382.88
616.733	381.88
616.941	365.88
617.148	385.88
617.356	384.88
617.563	383.88
617.771	375.88
617.978	370.88
618.185	369.88
618.393	345.88
618.6	372.88
618.807	378.88
619.015	368.88
619.222	380.88
619.429	353.88
619.637	344.88
619.844	328.88
620.051	360.88
620.258	348.88
620.466	347.88
620.673	332.88
620.88	344.88
621.087	345.88
621.294	341.88
621.501	328.88
621.708	339.88
621.915	345.88
622.122	330.88
622.329	347.88
622.536	320.88
622.743	335.88
622.95	336.88
623.157	353.88
623.364	361.88
623.571	332.88
623.778	348.88
623.985	351.88
624.192	344.88
624.399	349.88
624.606	338.88
624.812	332.88
625.019	346.88
625.226	305.88
625.433	307.88
625.639	308.88
625.846	309.88
626.053	295.88
626.259	302.88
626.466	304.88
626.673	285.88
626.879	278.88
627.086	290.88
627.293	297.88
627.499	300.88
627.706	324.88
627.912	329.88
628.119	317.88
628.325	334.88
628.532	309.88
628.738	313.88
628.945	323.88
629.151	322.88
629.357	315.88
629.564	309.88
629.77	303.88
629.976	292.88
630.183	303.88
630.389	287.88
630.595	301.88
630.802	302.88
631.008	304.88
631.214	287.88
631.42	294.88
631.627	287.88
631.833	288.88
632.039	299.88
632.245	288.88
632.451	280.88
632.657	286.88
632.863	285.88
633.069	295.88
633.275	305.88
633.481	273.88
633.688	288.88
633.893	290.88
634.099	271.88
634.305	270.88
634.511	279.88
634.717	274.88
634.923	264.88
635.129	260.88
635.335	263.88
635.541	250.88
635.747	255.88
635.952	287.88
636.158	266.88
636.364	287.88
636.57	276.88
636.775	264.88
636.981	294.88
637.187	287.88
637.392	255.88
637.598	295.88
637.804	290.88
638.009	266.88
638.215	256.88
638.421	274.88
638.626	246.88
638.832	283.88
639.037	255.88
639.243	267.88
639.448	258.88
639.654	277.88
639.859	265.88
640.065	271.88
640.27	265.88
640.475	262.88
640.681	272.88
640.886	266.88
641.091	264.88
641.297	264.88
641.502	246.88
641.707	258.88
641.913	282.88
642.118	282.88
642.323	271.88
642.528	277.88
642.733	238.88
642.939	260.88
643.144	243.88
643.349	256.88
643.554	261.88
643.759	256.88
643.964	248.88
644.169	269.88
644.374	276.88
644.579	253.88
644.784	268.88
644.989	266.88
645.194	259.88
645.399	264.88
645.604	249.88
645.809	261.88
646.014	268.88
646.219	256.88
646.423	261.88
646.628	265.88
646.833	248.88
647.038	260.88
647.243	249.88
647.447	249.88
647.652	265.88
647.857	267.88
648.062	253.88
648.266	240.88
648.471	264.88
648.676	247.88
648.88	258.88
649.085	267.88
649.289	252.88
649.494	269.88
649.698	246.88
649.903	275.88
650.107	236.88
650.312	271.88
650.516	245.88
650.721	233.88
650.925	240.88
651.13	244.88
651.334	248.88
651.539	239.88
651.743	217.88
651.947	231.88
652.152	227.88
652.356	229.88
652.56	221.88
652.764	216.88
652.969	224.88
653.173	218.88
653.377	219.88
653.581	236.88
653.785	209.88
653.99	217.88
654.194	217.88
654.398	223.88
654.602	220.88
654.806	225.88
655.01	229.88
655.214	216.88
655.418	236.88
655.622	236.88
655.826	210.88
656.03	223.88
656.234	233.88
656.438	238.88
656.642	262.88
656.846	244.88
657.049	235.88
657.253	197.88
657.457	190.88
657.661	187.88
657.865	173.88
658.068	178.88
658.272	167.88
658.476	154.88
658.68	155.88
658.883	148.88
659.087	150.88
659.291	134.88
659.494	131.88
659.698	130.88
659.901	121.88
660.105	144.88
660.309	120.88
660.512	133.88
660.716	121.88
660.919	117.88
661.123	114.88
661.326	104.88
661.53	126.88
661.733	100.88
661.936	105.88
662.14	105.88
662.343	99.88
662.546	84.88
662.75	95.88
662.953	88.88
663.156	87.88
663.36	96.88
663.563	96.88
663.766	97.88
663.969	96.88
664.173	85.88
664.376	80.88
664.579	70.88
664.782	83.88
664.985	77.88
665.188	77.88
665.391	76.88
665.594	91.88
665.797	82.88
666	90.88
666.203	87.88
666.406	88.88
666.609	83.88
666.812	81.88
667.015	84.88
667.218	103.88
667.421	81.88
667.624	75.88
667.827	82.88
668.03	79.88
668.232	81.88
668.435	100.88
668.638	84.88
668.841	95.88
669.043	81.88
669.246	71.88
669.449	88.88
669.651	84.88
669.854	84.88
670.057	78.88
670.259	76.88
670.462	70.88
670.665	80.88
670.867	86.88
671.07	71.88
671.272	83.88
671.475	69.88
671.677	85.88
671.88	80.88
672.082	85.88
672.284	82.88
672.487	94.88
672.689	75.88
672.892	87.88
