Data from WStandard_LampEnergy8_LIBS07252019.E.O._I.C._HRD10591_15-59-07-929.txt Node
Date: Thu Jul 25 15:59:07 EDT 2019
User: cochatt
Spectrometer: HR+D1059
Trigger mode: 1
Integration Time (sec): 1.000000E-1
Scans to average: 1
Electric dark correction enabled: true
Nonlinearity correction enabled: false
Boxcar width: 0
XAxis mode: Wavelengths
Number of Pixels in Spectrum: 2048
>>>>>Begin Spectral Data<<<<<
223.165	-11.06
223.4	-11.06
223.635	-11.06
223.869	-14.06
224.104	-18.06
224.338	-9.06
224.573	-17.06
224.808	-12.06
225.042	-10.06
225.277	-19.06
225.511	-4.06
225.746	5.94
225.98	-1.06
226.215	1.94
226.449	30.94
226.683	22.94
226.918	17.94
227.152	35.94
227.387	43.94
227.621	51.94
227.856	55.94
228.09	37.94
228.324	43.94
228.559	66.94
228.793	98.94
229.027	207.94
229.262	207.94
229.496	229.94
229.73	207.94
229.964	238.94
230.199	248.94
230.433	247.94
230.667	277.94
230.901	296.94
231.136	268.94
231.37	256.94
231.604	275.94
231.838	266.94
232.072	285.94
232.306	273.94
232.541	275.94
232.775	322.94
233.009	330.94
233.243	309.94
233.477	301.94
233.711	310.94
233.945	318.94
234.179	318.94
234.413	338.94
234.647	341.94
234.881	313.94
235.115	296.94
235.349	298.94
235.583	322.94
235.817	304.94
236.051	290.94
236.285	324.94
236.519	330.94
236.753	375.94
236.987	363.94
237.221	353.94
237.455	398.94
237.689	385.94
237.922	362.94
238.156	356.94
238.39	359.94
238.624	386.94
238.858	418.94
239.091	406.94
239.325	412.94
239.559	477.94
239.793	502.94
240.027	521.94
240.26	484.94
240.494	400.94
240.728	400.94
240.961	386.94
241.195	394.94
241.429	420.94
241.662	442.94
241.896	411.94
242.13	407.94
242.363	442.94
242.597	468.94
242.83	445.94
243.064	447.94
243.298	519.94
243.531	485.94
243.765	481.94
243.998	486.94
244.232	436.94
244.465	415.94
244.699	423.94
244.932	469.94
245.166	520.94
245.399	484.94
245.633	459.94
245.866	485.94
246.099	481.94
246.333	499.94
246.566	477.94
246.8	525.94
247.033	578.94
247.266	558.94
247.5	553.94
247.733	550.94
247.966	589.94
248.2	615.94
248.433	614.94
248.666	628.94
248.899	691.94
249.133	787.94
249.366	838.94
249.599	707.94
249.832	640.94
250.066	639.94
250.299	649.94
250.532	591.94
250.765	540.94
250.998	561.94
251.231	617.94
251.465	619.94
251.698	592.94
251.931	597.94
252.164	628.94
252.397	647.94
252.63	606.94
252.863	569.94
253.096	571.94
253.329	601.94
253.562	602.94
253.795	636.94
254.028	625.94
254.261	603.94
254.494	575.94
254.727	558.94
254.96	609.94
255.193	659.94
255.426	718.94
255.659	825.94
255.892	806.94
256.124	698.94
256.357	677.94
256.59	713.94
256.823	709.94
257.056	706.94
257.289	866.94
257.521	918.94
257.754	808.94
257.987	779.94
258.22	870.94
258.452	834.94
258.685	675.94
258.918	671.94
259.151	711.94
259.383	664.94
259.616	605.94
259.849	620.94
260.081	691.94
260.314	775.94
260.547	844.94
260.779	850.94
261.012	792.94
261.244	703.94
261.477	684.94
261.71	720.94
261.942	717.94
262.175	701.94
262.407	727.94
262.64	676.94
262.872	633.94
263.105	622.94
263.337	659.94
263.57	669.94
263.802	634.94
264.035	617.94
264.267	597.94
264.499	595.94
264.732	622.94
264.964	685.94
265.197	666.94
265.429	711.94
265.661	836.94
265.894	901.94
266.126	885.94
266.358	775.94
266.591	867.94
266.823	894.94
267.055	813.94
267.287	804.94
267.52	774.94
267.752	749.94
267.984	777.94
268.216	854.94
268.448	819.94
268.681	787.94
268.913	743.94
269.145	725.94
269.377	705.94
269.609	777.94
269.841	910.94
270.073	1018.94
270.306	1113.94
270.538	1150.94
270.77	974.94
271.002	859.94
271.234	807.94
271.466	834.94
271.698	967.94
271.93	1084.94
272.162	1107.94
272.394	980.94
272.626	901.94
272.858	822.94
273.09	738.94
273.322	741.94
273.553	695.94
273.785	698.94
274.017	726.94
274.249	812.94
274.481	782.94
274.713	716.94
274.945	707.94
275.176	697.94
275.408	703.94
275.64	691.94
275.872	711.94
276.104	780.94
276.335	866.94
276.567	923.94
276.799	914.94
277.031	833.94
277.262	807.94
277.494	852.94
277.726	937.94
277.957	932.94
278.189	834.94
278.421	779.94
278.652	742.94
278.884	759.94
279.115	759.94
279.347	766.94
279.579	737.94
279.81	779.94
280.042	824.94
280.273	921.94
280.505	924.94
280.736	931.94
280.968	858.94
281.199	749.94
281.431	698.94
281.662	738.94
281.894	741.94
282.125	757.94
282.356	788.94
282.588	793.94
282.819	770.94
283.051	838.94
283.282	887.94
283.513	866.94
283.745	762.94
283.976	709.94
284.207	714.94
284.439	757.94
284.67	791.94
284.901	797.94
285.132	782.94
285.364	762.94
285.595	789.94
285.826	788.94
286.057	778.94
286.288	768.94
286.52	820.94
286.751	856.94
286.982	853.94
287.213	812.94
287.444	753.94
287.675	760.94
287.906	783.94
288.138	859.94
288.369	821.94
288.6	768.94
288.831	770.94
289.062	757.94
289.293	777.94
289.524	789.94
289.755	809.94
289.986	788.94
290.217	771.94
290.448	782.94
290.679	781.94
290.91	809.94
291.141	817.94
291.371	858.94
291.602	820.94
291.833	825.94
292.064	863.94
292.295	849.94
292.526	881.94
292.757	895.94
292.987	856.94
293.218	847.94
293.449	883.94
293.68	998.94
293.91	1044.94
294.141	945.94
294.372	920.94
294.603	969.94
294.833	994.94
295.064	933.94
295.295	843.94
295.525	817.94
295.756	771.94
295.987	729.94
296.217	726.94
296.448	779.94
296.679	779.94
296.909	790.94
297.14	793.94
297.37	811.94
297.601	852.94
297.831	887.94
298.062	894.94
298.292	808.94
298.523	804.94
298.753	795.94
298.984	819.94
299.214	839.94
299.445	856.94
299.675	856.94
299.905	851.94
300.136	833.94
300.366	811.94
300.597	749.94
300.827	789.94
301.057	836.94
301.288	873.94
301.518	865.94
301.748	878.94
301.979	940.94
302.209	933.94
302.439	1009.94
302.669	1016.94
302.9	942.94
303.13	874.94
303.36	890.94
303.59	885.94
303.82	876.94
304.051	872.94
304.281	887.94
304.511	899.94
304.741	966.94
304.971	1061.94
305.201	1094.94
305.431	971.94
305.661	852.94
305.891	757.94
306.121	792.94
306.352	833.94
306.582	884.94
306.812	939.94
307.042	982.94
307.272	981.94
307.502	997.94
307.731	1097.94
307.961	1115.94
308.191	1033.94
308.421	890.94
308.651	836.94
308.881	839.94
309.111	838.94
309.341	835.94
309.571	833.94
309.8	831.94
310.03	847.94
310.26	829.94
310.49	825.94
310.72	891.94
310.949	888.94
311.179	921.94
311.409	895.94
311.639	873.94
311.868	833.94
312.098	859.94
312.328	854.94
312.557	855.94
312.787	899.94
313.017	897.94
313.246	892.94
313.476	899.94
313.706	896.94
313.935	906.94
314.165	915.94
314.394	964.94
314.624	991.94
314.853	1058.94
315.083	1063.94
315.312	1076.94
315.542	986.94
315.771	888.94
316.001	958.94
316.23	970.94
316.46	981.94
316.689	972.94
316.919	896.94
317.148	867.94
317.377	907.94
317.607	973.94
317.836	1081.94
318.065	1096.94
318.295	1047.94
318.524	975.94
318.753	985.94
318.983	942.94
319.212	950.94
319.441	929.94
319.67	938.94
319.9	925.94
320.129	1018.94
320.358	1051.94
320.587	1086.94
320.816	1044.94
321.046	1019.94
321.275	1021.94
321.504	1011.94
321.733	1065.94
321.962	1017.94
322.191	950.94
322.42	953.94
322.649	932.94
322.878	913.94
323.108	949.94
323.337	992.94
323.566	982.94
323.795	987.94
324.024	956.94
324.253	969.94
324.482	969.94
324.71	923.94
324.939	909.94
325.168	921.94
325.397	949.94
325.626	980.94
325.855	975.94
326.084	952.94
326.313	960.94
326.542	973.94
326.77	1008.94
326.999	1021.94
327.228	946.94
327.457	906.94
327.686	900.94
327.914	911.94
328.143	942.94
328.372	963.94
328.6	934.94
328.829	942.94
329.058	928.94
329.287	951.94
329.515	968.94
329.744	994.94
329.972	1059.94
330.201	1048.94
330.43	1042.94
330.658	1047.94
330.887	989.94
331.115	999.94
331.344	982.94
331.572	999.94
331.801	1012.94
332.03	997.94
332.258	1035.94
332.486	1017.94
332.715	1012.94
332.943	1030.94
333.172	1009.94
333.4	1024.94
333.629	1064.94
333.857	1140.94
334.085	1276.94
334.314	1390.94
334.542	1467.94
334.771	1317.94
334.999	1168.94
335.227	1093.94
335.455	1069.94
335.684	1090.94
335.912	1110.94
336.14	1103.94
336.369	1086.94
336.597	1047.94
336.825	1024.94
337.053	1041.94
337.281	1123.94
337.51	1186.94
337.738	1211.94
337.966	1165.94
338.194	1042.94
338.422	995.94
338.65	997.94
338.878	974.94
339.106	955.94
339.334	930.94
339.562	942.94
339.79	970.94
340.018	1051.94
340.246	1083.94
340.474	1051.94
340.702	1045.94
340.93	1066.94
341.158	1066.94
341.386	1023.94
341.614	997.94
341.842	1011.94
342.07	1007.94
342.298	1029.94
342.526	1032.94
342.754	982.94
342.981	996.94
343.209	1002.94
343.437	983.94
343.665	1017.94
343.893	1043.94
344.12	1065.94
344.348	1083.94
344.576	1031.94
344.804	999.94
345.031	1014.94
345.259	962.94
345.487	942.94
345.714	939.94
345.942	926.94
346.17	946.94
346.397	965.94
346.625	969.94
346.853	897.94
347.08	934.94
347.308	923.94
347.535	968.94
347.763	994.94
347.99	943.94
348.218	916.94
348.445	927.94
348.673	972.94
348.9	983.94
349.128	994.94
349.355	1036.94
349.583	1015.94
349.81	957.94
350.037	881.94
350.265	908.94
350.492	895.94
350.72	923.94
350.947	961.94
351.174	966.94
351.402	895.94
351.629	871.94
351.856	873.94
352.083	895.94
352.311	895.94
352.538	926.94
352.765	964.94
352.992	959.94
353.22	954.94
353.447	923.94
353.674	916.94
353.901	931.94
354.128	906.94
354.355	921.94
354.583	975.94
354.81	974.94
355.037	942.94
355.264	957.94
355.491	930.94
355.718	962.94
355.945	933.94
356.172	891.94
356.399	920.94
356.626	923.94
356.853	958.94
357.08	1031.94
357.307	1143.94
357.534	1086.94
357.761	953.94
357.988	918.94
358.215	889.94
358.441	913.94
358.668	865.94
358.895	918.94
359.122	998.94
359.349	1074.94
359.576	1028.94
359.802	951.94
360.029	920.94
360.256	913.94
360.483	910.94
360.709	960.94
360.936	990.94
361.163	1051.94
361.39	1148.94
361.616	1179.94
361.843	1131.94
362.07	1067.94
362.296	950.94
362.523	925.94
362.749	931.94
362.976	958.94
363.203	988.94
363.429	954.94
363.656	921.94
363.882	964.94
364.109	1071.94
364.335	1109.94
364.562	1047.94
364.788	974.94
365.015	947.94
365.241	928.94
365.468	947.94
365.694	1003.94
365.92	1025.94
366.147	949.94
366.373	931.94
366.599	894.94
366.826	932.94
367.052	945.94
367.278	932.94
367.505	924.94
367.731	968.94
367.957	969.94
368.184	1024.94
368.41	1070.94
368.636	1107.94
368.862	1076.94
369.089	1101.94
369.315	1062.94
369.541	974.94
369.767	960.94
369.993	954.94
370.219	946.94
370.445	970.94
370.672	1042.94
370.898	1098.94
371.124	1079.94
371.35	1035.94
371.576	1047.94
371.802	1045.94
372.028	1017.94
372.254	963.94
372.48	947.94
372.706	969.94
372.932	955.94
373.158	981.94
373.384	998.94
373.61	1060.94
373.835	1058.94
374.061	1024.94
374.287	1007.94
374.513	1002.94
374.739	1004.94
374.965	1007.94
375.191	1007.94
375.416	1034.94
375.642	1047.94
375.868	1110.94
376.094	1139.94
376.319	1073.94
376.545	1014.94
376.771	1068.94
376.997	1093.94
377.222	1061.94
377.448	1034.94
377.674	1030.94
377.899	1047.94
378.125	1151.94
378.35	1119.94
378.576	1007.94
378.802	988.94
379.027	1016.94
379.253	996.94
379.478	1015.94
379.704	968.94
379.929	1014.94
380.155	997.94
380.38	1020.94
380.606	1032.94
380.831	1049.94
381.057	1081.94
381.282	1073.94
381.507	1067.94
381.733	1143.94
381.958	1190.94
382.184	1061.94
382.409	1034.94
382.634	1032.94
382.86	1055.94
383.085	1068.94
383.31	1110.94
383.535	1205.94
383.761	1238.94
383.986	1171.94
384.211	1127.94
384.436	1135.94
384.662	1230.94
384.887	1240.94
385.112	1139.94
385.337	1151.94
385.562	1135.94
385.787	1165.94
386.013	1183.94
386.238	1196.94
386.463	1163.94
386.688	1291.94
386.913	1318.94
387.138	1292.94
387.363	1187.94
387.588	1192.94
387.813	1179.94
388.038	1195.94
388.263	1236.94
388.488	1159.94
388.713	1099.94
388.938	1097.94
389.163	1101.94
389.387	1147.94
389.612	1134.94
389.837	1161.94
390.062	1185.94
390.287	1143.94
390.512	1171.94
390.736	1122.94
390.961	1110.94
391.186	1092.94
391.411	1110.94
391.636	1130.94
391.86	1174.94
392.085	1124.94
392.31	1108.94
392.534	1147.94
392.759	1159.94
392.984	1147.94
393.208	1139.94
393.433	1229.94
393.658	1205.94
393.882	1213.94
394.107	1176.94
394.331	1148.94
394.556	1150.94
394.78	1163.94
395.005	1210.94
395.229	1295.94
395.454	1352.94
395.678	1315.94
395.903	1233.94
396.127	1217.94
396.352	1245.94
396.576	1269.94
396.801	1265.94
397.025	1277.94
397.249	1271.94
397.474	1222.94
397.698	1271.94
397.922	1283.94
398.147	1333.94
398.371	1416.94
398.595	1381.94
398.82	1302.94
399.044	1337.94
399.268	1397.94
399.492	1465.94
399.717	1531.94
399.941	1549.94
400.165	1507.94
400.389	1448.94
400.613	1470.94
400.837	1683.94
401.062	1849.94
401.286	1568.94
401.51	1477.94
401.734	1513.94
401.958	1424.94
402.182	1350.94
402.406	1335.94
402.63	1305.94
402.854	1318.94
403.078	1339.94
403.302	1329.94
403.526	1377.94
403.75	1358.94
403.974	1398.94
404.198	1376.94
404.422	1468.94
404.645	1508.94
404.869	1470.94
405.093	1342.94
405.317	1308.94
405.541	1355.94
405.765	1381.94
405.988	1352.94
406.212	1367.94
406.436	1409.94
406.66	1491.94
406.883	1520.94
407.107	1721.94
407.331	1825.94
407.555	1940.94
407.778	1691.94
408.002	1431.94
408.226	1454.94
408.449	1401.94
408.673	1384.94
408.896	1384.94
409.12	1391.94
409.344	1424.94
409.567	1381.94
409.791	1369.94
410.014	1395.94
410.238	1475.94
410.461	1555.94
410.685	1404.94
410.908	1354.94
411.132	1360.94
411.355	1385.94
411.578	1303.94
411.802	1342.94
412.025	1379.94
412.249	1388.94
412.472	1303.94
412.695	1314.94
412.919	1305.94
413.142	1288.94
413.365	1334.94
413.589	1338.94
413.812	1442.94
414.035	1441.94
414.258	1357.94
414.482	1340.94
414.705	1320.94
414.928	1349.94
415.151	1325.94
415.374	1334.94
415.597	1356.94
415.821	1365.94
416.044	1368.94
416.267	1369.94
416.49	1274.94
416.713	1289.94
416.936	1338.94
417.159	1374.94
417.382	1391.94
417.605	1330.94
417.828	1373.94
418.051	1351.94
418.274	1331.94
418.497	1318.94
418.72	1285.94
418.943	1293.94
419.166	1363.94
419.389	1345.94
419.611	1316.94
419.834	1304.94
420.057	1325.94
420.28	1303.94
420.503	1308.94
420.726	1394.94
420.948	1335.94
421.171	1259.94
421.394	1331.94
421.617	1378.94
421.839	1343.94
422.062	1362.94
422.285	1293.94
422.507	1259.94
422.73	1263.94
422.953	1272.94
423.175	1242.94
423.398	1280.94
423.621	1268.94
423.843	1309.94
424.066	1342.94
424.288	1396.94
424.511	1430.94
424.733	1371.94
424.956	1285.94
425.178	1254.94
425.401	1301.94
425.623	1279.94
425.846	1295.94
426.068	1356.94
426.291	1366.94
426.513	1342.94
426.735	1354.94
426.958	1486.94
427.18	1524.94
427.402	1406.94
427.625	1430.94
427.847	1399.94
428.069	1301.94
428.292	1276.94
428.514	1249.94
428.736	1251.94
428.958	1275.94
429.181	1305.94
429.403	1531.94
429.625	1789.94
429.847	1477.94
430.069	1313.94
430.292	1498.94
430.514	1439.94
430.736	1344.94
430.958	1383.94
431.18	1298.94
431.402	1251.94
431.624	1217.94
431.846	1190.94
432.068	1149.94
432.29	1152.94
432.512	1189.94
432.734	1284.94
432.956	1308.94
433.178	1354.94
433.4	1341.94
433.622	1332.94
433.844	1282.94
434.066	1237.94
434.287	1197.94
434.509	1230.94
434.731	1283.94
434.953	1399.94
435.175	1333.94
435.397	1291.94
435.618	1267.94
435.84	1270.94
436.062	1284.94
436.284	1283.94
436.505	1293.94
436.727	1305.94
436.949	1307.94
437.17	1259.94
437.392	1230.94
437.614	1186.94
437.835	1208.94
438.057	1243.94
438.278	1303.94
438.5	1213.94
438.721	1244.94
438.943	1249.94
439.165	1266.94
439.386	1240.94
439.608	1268.94
439.829	1251.94
440.05	1265.94
440.272	1266.94
440.493	1250.94
440.715	1285.94
440.936	1389.94
441.158	1452.94
441.379	1434.94
441.6	1377.94
441.822	1419.94
442.043	1339.94
442.264	1326.94
442.486	1265.94
442.707	1264.94
442.928	1310.94
443.149	1322.94
443.371	1383.94
443.592	1430.94
443.813	1404.94
444.034	1351.94
444.255	1393.94
444.476	1397.94
444.698	1417.94
444.919	1410.94
445.14	1539.94
445.361	1493.94
445.582	1486.94
445.803	1445.94
446.024	1425.94
446.245	1403.94
446.466	1409.94
446.687	1325.94
446.908	1325.94
447.129	1330.94
447.35	1350.94
447.571	1345.94
447.792	1291.94
448.013	1271.94
448.234	1335.94
448.455	1357.94
448.675	1322.94
448.896	1255.94
449.117	1171.94
449.338	1239.94
449.559	1293.94
449.779	1353.94
450	1451.94
450.221	1501.94
450.442	1438.94
450.662	1276.94
450.883	1189.94
451.104	1149.94
451.324	1241.94
451.545	1233.94
451.766	1190.94
451.986	1126.94
452.207	1126.94
452.428	1119.94
452.648	1097.94
452.869	1131.94
453.089	1149.94
453.31	1175.94
453.53	1180.94
453.751	1127.94
453.971	1095.94
454.192	1124.94
454.412	1145.94
454.633	1129.94
454.853	1106.94
455.073	1073.94
455.294	1078.94
455.514	1085.94
455.734	1081.94
455.955	1089.94
456.175	1066.94
456.395	1073.94
456.616	1114.94
456.836	1104.94
457.056	1114.94
457.276	1096.94
457.497	1071.94
457.717	1033.94
457.937	1044.94
458.157	1080.94
458.377	1083.94
458.598	1058.94
458.818	1057.94
459.038	1127.94
459.258	1147.94
459.478	1134.94
459.698	1123.94
459.918	1165.94
460.138	1254.94
460.358	1256.94
460.578	1305.94
460.798	1341.94
461.018	1346.94
461.238	1325.94
461.458	1292.94
461.678	1303.94
461.898	1243.94
462.118	1199.94
462.338	1267.94
462.558	1228.94
462.777	1270.94
462.997	1341.94
463.217	1431.94
463.437	1373.94
463.657	1295.94
463.876	1280.94
464.096	1265.94
464.316	1304.94
464.536	1329.94
464.755	1314.94
464.975	1325.94
465.195	1279.94
465.414	1314.94
465.634	1346.94
465.854	1296.94
466.073	1406.94
466.293	1366.94
466.512	1201.94
466.732	1218.94
466.951	1258.94
467.171	1251.94
467.391	1213.94
467.61	1208.94
467.829	1230.94
468.049	1359.94
468.268	1462.94
468.488	1354.94
468.707	1256.94
468.927	1243.94
469.146	1205.94
469.365	1210.94
469.585	1255.94
469.804	1224.94
470.023	1246.94
470.243	1284.94
470.462	1252.94
470.681	1226.94
470.901	1230.94
471.12	1238.94
471.339	1265.94
471.558	1211.94
471.777	1187.94
471.997	1244.94
472.216	1223.94
472.435	1146.94
472.654	1155.94
472.873	1163.94
473.092	1245.94
473.311	1193.94
473.53	1142.94
473.749	1147.94
473.968	1191.94
474.187	1213.94
474.406	1230.94
474.625	1232.94
474.844	1234.94
475.063	1223.94
475.282	1226.94
475.501	1204.94
475.72	1237.94
475.939	1344.94
476.158	1251.94
476.377	1188.94
476.596	1247.94
476.814	1263.94
477.033	1233.94
477.252	1282.94
477.471	1327.94
477.69	1284.94
477.908	1306.94
478.127	1363.94
478.346	1458.94
478.564	1461.94
478.783	1453.94
479.002	1458.94
479.22	1422.94
479.439	1480.94
479.658	1598.94
479.876	1552.94
480.095	1380.94
480.313	1328.94
480.532	1333.94
480.751	1298.94
480.969	1324.94
481.188	1265.94
481.406	1270.94
481.624	1245.94
481.843	1279.94
482.061	1315.94
482.28	1358.94
482.498	1329.94
482.717	1350.94
482.935	1331.94
483.153	1396.94
483.372	1353.94
483.59	1364.94
483.808	1390.94
484.027	1399.94
484.245	1482.94
484.463	1750.94
484.681	1882.94
484.9	1489.94
485.118	1359.94
485.336	1380.94
485.554	1409.94
485.772	1385.94
485.99	1399.94
486.209	1433.94
486.427	1378.94
486.645	1429.94
486.863	1425.94
487.081	1480.94
487.299	1467.94
487.517	1491.94
487.735	1455.94
487.953	1517.94
488.171	1508.94
488.389	1486.94
488.607	1489.94
488.825	1644.94
489.043	1556.94
489.261	1430.94
489.479	1513.94
489.696	1491.94
489.914	1465.94
490.132	1441.94
490.35	1477.94
490.568	1538.94
490.786	1501.94
491.003	1497.94
491.221	1554.94
491.439	1605.94
491.657	1610.94
491.874	1626.94
492.092	1677.94
492.31	1726.94
492.527	1695.94
492.745	1641.94
492.963	1598.94
493.18	1630.94
493.398	1718.94
493.615	1701.94
493.833	1599.94
494.05	1557.94
494.268	1525.94
494.485	1619.94
494.703	1593.94
494.92	1576.94
495.138	1590.94
495.355	1574.94
495.573	1651.94
495.79	1703.94
496.008	1697.94
496.225	1655.94
496.442	1650.94
496.66	1615.94
496.877	1630.94
497.094	1652.94
497.312	1654.94
497.529	1644.94
497.746	1687.94
497.963	1906.94
498.181	2061.94
498.398	1917.94
498.615	1862.94
498.832	1801.94
499.049	1770.94
499.267	1774.94
499.484	1886.94
499.701	2060.94
499.918	2088.94
500.135	2262.94
500.352	2354.94
500.569	2364.94
500.786	2594.94
501.003	2359.94
501.22	2125.94
501.437	2068.94
501.654	2127.94
501.871	2023.94
502.088	1776.94
502.305	1788.94
502.522	1727.94
502.739	1594.94
502.956	1606.94
503.172	1551.94
503.389	1560.94
503.606	1512.94
503.823	1517.94
504.04	1496.94
504.256	1518.94
504.473	1527.94
504.69	1545.94
504.907	1480.94
505.123	1428.94
505.34	1577.94
505.557	2014.94
505.773	1638.94
505.99	1442.94
506.207	1363.94
506.423	1255.94
506.64	1282.94
506.856	1365.94
507.073	1541.94
507.289	1609.94
507.506	1532.94
507.722	1313.94
507.939	1270.94
508.155	1296.94
508.372	1233.94
508.588	1245.94
508.805	1186.94
509.021	1183.94
509.238	1166.94
509.454	1165.94
509.67	1168.94
509.887	1148.94
510.103	1132.94
510.319	1153.94
510.536	1201.94
510.752	1232.94
510.968	1237.94
511.184	1308.94
511.401	1207.94
511.617	1153.94
511.833	1115.94
512.049	1120.94
512.265	1109.94
512.481	1112.94
512.698	1161.94
512.914	1246.94
513.13	1193.94
513.346	1120.94
513.562	1077.94
513.778	1132.94
513.994	1204.94
514.21	1210.94
514.426	1230.94
514.642	1308.94
514.858	1256.94
515.074	1158.94
515.29	1137.94
515.506	1171.94
515.721	1188.94
515.937	1195.94
516.153	1309.94
516.369	1236.94
516.585	1221.94
516.801	1145.94
517.016	1159.94
517.232	1193.94
517.448	1202.94
517.664	1248.94
517.879	1249.94
518.095	1283.94
518.311	1231.94
518.527	1179.94
518.742	1166.94
518.958	1140.94
519.173	1162.94
519.389	1188.94
519.605	1205.94
519.82	1176.94
520.036	1203.94
520.251	1162.94
520.467	1169.94
520.682	1286.94
520.898	1293.94
521.113	1151.94
521.329	1127.94
521.544	1220.94
521.76	1149.94
521.975	1124.94
522.19	1085.94
522.406	1148.94
522.621	1399.94
522.836	1327.94
523.052	1111.94
523.267	1137.94
523.482	1121.94
523.698	1053.94
523.913	1085.94
524.128	1085.94
524.343	1162.94
524.559	1180.94
524.774	1096.94
524.989	1101.94
525.204	1107.94
525.419	1074.94
525.634	1096.94
525.849	1055.94
526.064	1057.94
526.28	1079.94
526.495	1033.94
526.71	1021.94
526.925	1002.94
527.14	990.94
527.355	983.94
527.57	991.94
527.785	1026.94
527.999	1003.94
528.214	1010.94
528.429	1025.94
528.644	1011.94
528.859	1085.94
529.074	1087.94
529.289	1116.94
529.503	1155.94
529.718	1097.94
529.933	1056.94
530.148	988.94
530.363	971.94
530.577	983.94
530.792	1032.94
531.007	1005.94
531.221	983.94
531.436	1005.94
531.651	1036.94
531.865	1079.94
532.08	1027.94
532.295	993.94
532.509	948.94
532.724	995.94
532.938	1027.94
533.153	1070.94
533.367	1073.94
533.582	1046.94
533.796	1020.94
534.011	1045.94
534.225	996.94
534.44	993.94
534.654	968.94
534.868	988.94
535.083	1029.94
535.297	1044.94
535.511	1047.94
535.726	1023.94
535.94	1000.94
536.154	992.94
536.369	982.94
536.583	957.94
536.797	978.94
537.011	976.94
537.225	950.94
537.44	949.94
537.654	987.94
537.868	948.94
538.082	915.94
538.296	942.94
538.51	968.94
538.724	957.94
538.938	963.94
539.153	1001.94
539.367	1015.94
539.581	957.94
539.795	1017.94
540.009	978.94
540.222	951.94
540.436	982.94
540.65	1081.94
540.864	1085.94
541.078	1089.94
541.292	1044.94
541.506	1086.94
541.72	1088.94
541.934	1150.94
542.147	1174.94
542.361	1130.94
542.575	1081.94
542.789	1028.94
543.002	982.94
543.216	969.94
543.43	1029.94
543.644	1061.94
543.857	1119.94
544.071	1129.94
544.285	1139.94
544.498	1086.94
544.712	1099.94
544.925	1104.94
545.139	1139.94
545.352	1093.94
545.566	1087.94
545.779	1107.94
545.993	1074.94
546.206	1108.94
546.42	1064.94
546.633	1063.94
546.847	1082.94
547.06	1090.94
547.274	1114.94
547.487	1124.94
547.7	1118.94
547.914	1098.94
548.127	1126.94
548.34	1112.94
548.554	1076.94
548.767	1096.94
548.98	1062.94
549.193	1080.94
549.407	1162.94
549.62	1123.94
549.833	1090.94
550.046	1040.94
550.259	1031.94
550.473	1037.94
550.686	1050.94
550.899	1019.94
551.112	998.94
551.325	995.94
551.538	1054.94
551.751	1172.94
551.964	966.94
552.177	938.94
552.39	983.94
552.603	1012.94
552.816	1043.94
553.029	1101.94
553.242	1087.94
553.455	1073.94
553.667	1030.94
553.88	1037.94
554.093	990.94
554.306	953.94
554.519	966.94
554.732	953.94
554.944	979.94
555.157	987.94
555.37	970.94
555.583	960.94
555.795	940.94
556.008	917.94
556.221	870.94
556.433	876.94
556.646	887.94
556.859	884.94
557.071	891.94
557.284	888.94
557.496	898.94
557.709	874.94
557.921	907.94
558.134	850.94
558.346	840.94
558.559	870.94
558.771	878.94
558.984	845.94
559.196	801.94
559.409	855.94
559.621	829.94
559.833	805.94
560.046	849.94
560.258	828.94
560.47	840.94
560.683	844.94
560.895	834.94
561.107	865.94
561.32	849.94
561.532	864.94
561.744	840.94
561.956	844.94
562.168	801.94
562.381	795.94
562.593	802.94
562.805	781.94
563.017	782.94
563.229	808.94
563.441	827.94
563.653	809.94
563.865	789.94
564.077	764.94
564.289	767.94
564.501	770.94
564.713	819.94
564.925	857.94
565.137	882.94
565.349	812.94
565.561	821.94
565.773	830.94
565.985	836.94
566.197	890.94
566.408	917.94
566.62	896.94
566.832	878.94
567.044	894.94
567.255	893.94
567.467	900.94
567.679	919.94
567.891	922.94
568.102	892.94
568.314	855.94
568.526	821.94
568.737	777.94
568.949	735.94
569.161	714.94
569.372	683.94
569.584	696.94
569.795	695.94
570.007	717.94
570.218	656.94
570.43	642.94
570.641	667.94
570.853	661.94
571.064	678.94
571.276	660.94
571.487	686.94
571.698	654.94
571.91	640.94
572.121	650.94
572.333	626.94
572.544	620.94
572.755	588.94
572.966	579.94
573.178	593.94
573.389	598.94
573.6	607.94
573.811	650.94
574.023	605.94
574.234	581.94
574.445	577.94
574.656	550.94
574.867	557.94
575.078	597.94
575.289	575.94
575.501	583.94
575.712	586.94
575.923	573.94
576.134	586.94
576.345	555.94
576.556	548.94
576.767	561.94
576.978	539.94
577.188	536.94
577.399	547.94
577.61	534.94
577.821	546.94
578.032	492.94
578.243	524.94
578.454	510.94
578.665	515.94
578.875	508.94
579.086	485.94
579.297	516.94
579.508	513.94
579.718	528.94
579.929	498.94
580.14	498.94
580.35	488.94
580.561	521.94
580.772	566.94
580.982	525.94
581.193	513.94
581.403	502.94
581.614	493.94
581.825	478.94
582.035	478.94
582.246	474.94
582.456	519.94
582.667	485.94
582.877	501.94
583.087	481.94
583.298	463.94
583.508	498.94
583.719	488.94
583.929	467.94
584.139	479.94
584.35	491.94
584.56	463.94
584.77	472.94
584.981	470.94
585.191	462.94
585.401	494.94
585.611	465.94
585.821	460.94
586.032	456.94
586.242	482.94
586.452	440.94
586.662	480.94
586.872	469.94
587.082	446.94
587.292	477.94
587.502	451.94
587.713	454.94
587.923	457.94
588.133	465.94
588.343	464.94
588.553	464.94
588.762	451.94
588.972	453.94
589.182	433.94
589.392	435.94
589.602	474.94
589.812	471.94
590.022	443.94
590.232	427.94
590.441	464.94
590.651	442.94
590.861	458.94
591.071	443.94
591.281	448.94
591.49	460.94
591.7	451.94
591.91	450.94
592.119	479.94
592.329	470.94
592.539	475.94
592.748	462.94
592.958	479.94
593.167	469.94
593.377	487.94
593.587	482.94
593.796	458.94
594.006	466.94
594.215	459.94
594.424	458.94
594.634	453.94
594.843	476.94
595.053	491.94
595.262	449.94
595.472	463.94
595.681	443.94
595.89	445.94
596.1	427.94
596.309	427.94
596.518	429.94
596.727	426.94
596.937	456.94
597.146	419.94
597.355	431.94
597.564	409.94
597.774	407.94
597.983	402.94
598.192	402.94
598.401	404.94
598.61	403.94
598.819	394.94
599.028	416.94
599.237	399.94
599.446	397.94
599.655	387.94
599.864	404.94
600.073	402.94
600.282	390.94
600.491	378.94
600.7	387.94
600.909	378.94
601.118	407.94
601.327	409.94
601.536	431.94
601.745	428.94
601.953	435.94
602.162	425.94
602.371	428.94
602.58	441.94
602.789	431.94
602.997	408.94
603.206	419.94
603.415	408.94
603.623	425.94
603.832	406.94
604.041	388.94
604.249	413.94
604.458	383.94
604.666	404.94
604.875	369.94
605.084	414.94
605.292	423.94
605.501	403.94
605.709	392.94
605.918	398.94
606.126	382.94
606.334	414.94
606.543	408.94
606.751	402.94
606.96	421.94
607.168	405.94
607.376	406.94
607.585	382.94
607.793	403.94
608.001	408.94
608.21	397.94
608.418	409.94
608.626	418.94
608.834	394.94
609.043	413.94
609.251	414.94
609.459	396.94
609.667	392.94
609.875	397.94
610.083	412.94
610.291	430.94
610.499	413.94
610.707	403.94
610.916	400.94
611.124	408.94
611.332	415.94
611.54	404.94
611.748	413.94
611.955	392.94
612.163	409.94
612.371	385.94
612.579	391.94
612.787	404.94
612.995	393.94
613.203	383.94
613.411	394.94
613.618	403.94
613.826	405.94
614.034	403.94
614.242	401.94
614.449	382.94
614.657	411.94
614.865	405.94
615.072	391.94
615.28	398.94
615.488	406.94
615.695	409.94
615.903	405.94
616.111	408.94
616.318	391.94
616.526	407.94
616.733	389.94
616.941	387.94
617.148	391.94
617.356	387.94
617.563	377.94
617.771	389.94
617.978	381.94
618.185	389.94
618.393	377.94
618.6	362.94
618.807	377.94
619.015	369.94
619.222	397.94
619.429	379.94
619.637	361.94
619.844	359.94
620.051	342.94
620.258	365.94
620.466	357.94
620.673	346.94
620.88	339.94
621.087	341.94
621.294	353.94
621.501	346.94
621.708	359.94
621.915	359.94
622.122	377.94
622.329	374.94
622.536	362.94
622.743	358.94
622.95	359.94
623.157	346.94
623.364	331.94
623.571	351.94
623.778	353.94
623.985	374.94
624.192	332.94
624.399	337.94
624.606	345.94
624.812	336.94
625.019	340.94
625.226	325.94
625.433	349.94
625.639	329.94
625.846	318.94
626.053	310.94
626.259	313.94
626.466	293.94
626.673	299.94
626.879	303.94
627.086	291.94
627.293	306.94
627.499	320.94
627.706	339.94
627.912	333.94
628.119	324.94
628.325	328.94
628.532	338.94
628.738	322.94
628.945	330.94
629.151	308.94
629.357	314.94
629.564	327.94
629.77	310.94
629.976	278.94
630.183	297.94
630.389	297.94
630.595	307.94
630.802	328.94
631.008	291.94
631.214	279.94
631.42	312.94
631.627	305.94
631.833	298.94
632.039	296.94
632.245	280.94
632.451	287.94
632.657	297.94
632.863	302.94
633.069	298.94
633.275	293.94
633.481	295.94
633.688	287.94
633.893	287.94
634.099	274.94
634.305	281.94
634.511	284.94
634.717	287.94
634.923	282.94
635.129	264.94
635.335	265.94
635.541	263.94
635.747	278.94
635.952	295.94
636.158	286.94
636.364	271.94
636.57	294.94
636.775	275.94
636.981	282.94
637.187	300.94
637.392	281.94
637.598	278.94
637.804	267.94
638.009	283.94
638.215	289.94
638.421	291.94
638.626	297.94
638.832	278.94
639.037	281.94
639.243	261.94
639.448	263.94
639.654	248.94
639.859	255.94
640.065	266.94
640.27	276.94
640.475	282.94
640.681	270.94
640.886	261.94
641.091	275.94
641.297	256.94
641.502	279.94
641.707	265.94
641.913	243.94
642.118	272.94
642.323	279.94
642.528	266.94
642.733	257.94
642.939	264.94
643.144	260.94
643.349	271.94
643.554	284.94
643.759	261.94
643.964	255.94
644.169	264.94
644.374	276.94
644.579	262.94
644.784	253.94
644.989	268.94
645.194	256.94
645.399	253.94
645.604	244.94
645.809	252.94
646.014	268.94
646.219	259.94
646.423	255.94
646.628	263.94
646.833	254.94
647.038	244.94
647.243	257.94
647.447	259.94
647.652	276.94
647.857	251.94
648.062	266.94
648.266	256.94
648.471	239.94
648.676	279.94
648.88	278.94
649.085	278.94
649.289	253.94
649.494	237.94
649.698	245.94
649.903	247.94
650.107	249.94
650.312	257.94
650.516	253.94
650.721	251.94
650.925	250.94
651.13	248.94
651.334	247.94
651.539	242.94
651.743	233.94
651.947	236.94
652.152	231.94
652.356	233.94
652.56	241.94
652.764	237.94
652.969	217.94
653.173	226.94
653.377	204.94
653.581	208.94
653.785	241.94
653.99	222.94
654.194	222.94
654.398	230.94
654.602	217.94
654.806	225.94
655.01	212.94
655.214	212.94
655.418	212.94
655.622	210.94
655.826	235.94
656.03	254.94
656.234	246.94
656.438	258.94
656.642	269.94
656.846	247.94
657.049	225.94
657.253	221.94
657.457	212.94
657.661	206.94
657.865	190.94
658.068	185.94
658.272	175.94
658.476	167.94
658.68	177.94
658.883	157.94
659.087	143.94
659.291	153.94
659.494	146.94
659.698	142.94
659.901	134.94
660.105	148.94
660.309	122.94
660.512	130.94
660.716	120.94
660.919	109.94
661.123	100.94
661.326	116.94
661.53	117.94
661.733	117.94
661.936	106.94
662.14	98.94
662.343	101.94
662.546	104.94
662.75	92.94
662.953	100.94
663.156	86.94
663.36	105.94
663.563	87.94
663.766	94.94
663.969	83.94
664.173	84.94
664.376	90.94
664.579	85.94
664.782	83.94
664.985	89.94
665.188	94.94
665.391	100.94
665.594	74.94
665.797	84.94
666	79.94
666.203	82.94
666.406	88.94
666.609	86.94
666.812	97.94
667.015	103.94
667.218	88.94
667.421	87.94
667.624	79.94
667.827	79.94
668.03	82.94
668.232	83.94
668.435	86.94
668.638	75.94
668.841	91.94
669.043	77.94
669.246	81.94
669.449	86.94
669.651	93.94
669.854	73.94
670.057	79.94
670.259	92.94
670.462	89.94
670.665	99.94
670.867	69.94
671.07	79.94
671.272	89.94
671.475	102.94
671.677	92.94
671.88	92.94
672.082	71.94
672.284	85.94
672.487	98.94
672.689	79.94
672.892	97.94
