Data from WStandard_LampEnergy5.5LIBS07252019.E.O._I.C._HRD10591_16-07-59-920.txt Node
Date: Thu Jul 25 16:07:59 EDT 2019
User: cochatt
Spectrometer: HR+D1059
Trigger mode: 1
Integration Time (sec): 1.000000E-1
Scans to average: 1
Electric dark correction enabled: true
Nonlinearity correction enabled: false
Boxcar width: 0
XAxis mode: Wavelengths
Number of Pixels in Spectrum: 2048
>>>>>Begin Spectral Data<<<<<
223.165	-2.12
223.4	-2.12
223.635	-2.12
223.869	-13.12
224.104	-18.12
224.338	-23.12
224.573	-23.12
224.808	-20.12
225.042	-4.12
225.277	-6.12
225.511	-13.12
225.746	0.88
225.98	-3.12
226.215	33.88
226.449	17.88
226.683	19.88
226.918	12.88
227.152	40.88
227.387	10.88
227.621	30.88
227.856	55.88
228.09	44.88
228.324	49.88
228.559	45.88
228.793	151.88
229.027	358.88
229.262	386.88
229.496	389.88
229.73	391.88
229.964	427.88
230.199	466.88
230.433	475.88
230.667	525.88
230.901	551.88
231.136	485.88
231.37	459.88
231.604	443.88
231.838	462.88
232.072	507.88
232.306	468.88
232.541	492.88
232.775	567.88
233.009	620.88
233.243	595.88
233.477	544.88
233.711	545.88
233.945	586.88
234.179	562.88
234.413	604.88
234.647	650.88
234.881	606.88
235.115	574.88
235.349	575.88
235.583	597.88
235.817	572.88
236.051	548.88
236.285	569.88
236.519	608.88
236.753	670.88
236.987	700.88
237.221	703.88
237.455	759.88
237.689	714.88
237.922	686.88
238.156	660.88
238.39	699.88
238.624	731.88
238.858	756.88
239.091	801.88
239.325	841.88
239.559	936.88
239.793	982.88
240.027	1076.88
240.26	1076.88
240.494	762.88
240.728	745.88
240.961	753.88
241.195	745.88
241.429	846.88
241.662	861.88
241.896	788.88
242.13	780.88
242.363	872.88
242.597	924.88
242.83	889.88
243.064	890.88
243.298	987.88
243.531	962.88
243.765	952.88
243.998	966.88
244.232	850.88
244.465	754.88
244.699	808.88
244.932	934.88
245.166	1074.88
245.399	1008.88
245.633	933.88
245.866	917.88
246.099	959.88
246.333	963.88
246.566	993.88
246.8	1061.88
247.033	1247.88
247.266	1114.88
247.5	1107.88
247.733	1072.88
247.966	1157.88
248.2	1287.88
248.433	1225.88
248.666	1248.88
248.899	1375.88
249.133	1583.88
249.366	1829.88
249.599	1434.88
249.832	1300.88
250.066	1298.88
250.299	1350.88
250.532	1258.88
250.765	1132.88
250.998	1198.88
251.231	1232.88
251.465	1296.88
251.698	1232.88
251.931	1184.88
252.164	1219.88
252.397	1303.88
252.63	1302.88
252.863	1117.88
253.096	1091.88
253.329	1151.88
253.562	1226.88
253.795	1329.88
254.028	1310.88
254.261	1211.88
254.494	1210.88
254.727	1132.88
254.96	1200.88
255.193	1302.88
255.426	1447.88
255.659	1666.88
255.892	1725.88
256.124	1445.88
256.357	1352.88
256.59	1471.88
256.823	1450.88
257.056	1459.88
257.289	1780.88
257.521	1937.88
257.754	1773.88
257.987	1624.88
258.22	1844.88
258.452	1811.88
258.685	1444.88
258.918	1395.88
259.151	1440.88
259.383	1393.88
259.616	1212.88
259.849	1265.88
260.081	1412.88
260.314	1578.88
260.547	1722.88
260.779	1779.88
261.012	1653.88
261.244	1488.88
261.477	1389.88
261.71	1464.88
261.942	1484.88
262.175	1406.88
262.407	1524.88
262.64	1481.88
262.872	1296.88
263.105	1279.88
263.337	1313.88
263.57	1330.88
263.802	1324.88
264.035	1256.88
264.267	1177.88
264.499	1164.88
264.732	1261.88
264.964	1350.88
265.197	1403.88
265.429	1434.88
265.661	1644.88
265.894	1783.88
266.126	1868.88
266.358	1664.88
266.591	1675.88
266.823	1860.88
267.055	1667.88
267.287	1622.88
267.52	1626.88
267.752	1602.88
267.984	1568.88
268.216	1679.88
268.448	1699.88
268.681	1670.88
268.913	1568.88
269.145	1472.88
269.377	1447.88
269.609	1576.88
269.841	1820.88
270.073	2089.88
270.306	2378.88
270.538	2497.88
270.77	2131.88
271.002	1768.88
271.234	1680.88
271.466	1680.88
271.698	1908.88
271.93	2309.88
272.162	2308.88
272.394	2036.88
272.626	1992.88
272.858	1760.88
273.09	1524.88
273.322	1508.88
273.553	1403.88
273.785	1463.88
274.017	1467.88
274.249	1637.88
274.481	1646.88
274.713	1498.88
274.945	1467.88
275.176	1469.88
275.408	1481.88
275.64	1419.88
275.872	1400.88
276.104	1476.88
276.335	1668.88
276.567	1954.88
276.799	2002.88
277.031	1741.88
277.262	1659.88
277.494	1709.88
277.726	1919.88
277.957	1866.88
278.189	1718.88
278.421	1568.88
278.652	1574.88
278.884	1522.88
279.115	1497.88
279.347	1566.88
279.579	1533.88
279.81	1480.88
280.042	1650.88
280.273	1816.88
280.505	1836.88
280.736	1898.88
280.968	1841.88
281.199	1565.88
281.431	1474.88
281.662	1476.88
281.894	1463.88
282.125	1542.88
282.356	1609.88
282.588	1609.88
282.819	1590.88
283.051	1701.88
283.282	1816.88
283.513	1804.88
283.745	1550.88
283.976	1465.88
284.207	1485.88
284.439	1500.88
284.67	1510.88
284.901	1582.88
285.132	1576.88
285.364	1562.88
285.595	1600.88
285.826	1594.88
286.057	1562.88
286.288	1536.88
286.52	1598.88
286.751	1720.88
286.982	1778.88
287.213	1641.88
287.444	1506.88
287.675	1480.88
287.906	1592.88
288.138	1685.88
288.369	1624.88
288.6	1586.88
288.831	1495.88
289.062	1526.88
289.293	1606.88
289.524	1523.88
289.755	1631.88
289.986	1594.88
290.217	1489.88
290.448	1463.88
290.679	1583.88
290.91	1590.88
291.141	1629.88
291.371	1687.88
291.602	1674.88
291.833	1654.88
292.064	1696.88
292.295	1680.88
292.526	1686.88
292.757	1826.88
292.987	1710.88
293.218	1592.88
293.449	1714.88
293.68	1905.88
293.91	2109.88
294.141	1962.88
294.372	1844.88
294.603	1854.88
294.833	1979.88
295.064	1850.88
295.295	1727.88
295.525	1638.88
295.756	1558.88
295.987	1448.88
296.217	1506.88
296.448	1524.88
296.679	1514.88
296.909	1584.88
297.14	1557.88
297.37	1538.88
297.601	1645.88
297.831	1777.88
298.062	1798.88
298.292	1650.88
298.523	1536.88
298.753	1546.88
298.984	1576.88
299.214	1580.88
299.445	1601.88
299.675	1660.88
299.905	1666.88
300.136	1626.88
300.366	1586.88
300.597	1517.88
300.827	1545.88
301.057	1611.88
301.288	1724.88
301.518	1636.88
301.748	1702.88
301.979	1793.88
302.209	1808.88
302.439	1950.88
302.669	2039.88
302.9	1908.88
303.13	1694.88
303.36	1692.88
303.59	1741.88
303.82	1695.88
304.051	1689.88
304.281	1713.88
304.511	1687.88
304.741	1789.88
304.971	1944.88
305.201	2124.88
305.431	2057.88
305.661	1640.88
305.891	1503.88
306.121	1472.88
306.352	1538.88
306.582	1630.88
306.812	1749.88
307.042	1854.88
307.272	1864.88
307.502	1894.88
307.731	2015.88
307.961	2221.88
308.191	2061.88
308.421	1805.88
308.651	1684.88
308.881	1626.88
309.111	1603.88
309.341	1607.88
309.571	1605.88
309.8	1585.88
310.03	1646.88
310.26	1613.88
310.49	1591.88
310.72	1618.88
310.949	1715.88
311.179	1757.88
311.409	1729.88
311.639	1681.88
311.868	1624.88
312.098	1674.88
312.328	1666.88
312.557	1627.88
312.787	1671.88
313.017	1692.88
313.246	1700.88
313.476	1675.88
313.706	1720.88
313.935	1697.88
314.165	1755.88
314.394	1814.88
314.624	1880.88
314.853	1978.88
315.083	1979.88
315.312	2154.88
315.542	2016.88
315.771	1759.88
316.001	1781.88
316.23	1878.88
316.46	1864.88
316.689	1849.88
316.919	1720.88
317.148	1687.88
317.377	1686.88
317.607	1809.88
317.836	1992.88
318.065	2108.88
318.295	2032.88
318.524	1934.88
318.753	1838.88
318.983	1822.88
319.212	1821.88
319.441	1754.88
319.67	1760.88
319.9	1797.88
320.129	1872.88
320.358	1900.88
320.587	2015.88
320.816	1981.88
321.046	1986.88
321.275	1857.88
321.504	1862.88
321.733	1993.88
321.962	1972.88
322.191	1789.88
322.42	1778.88
322.649	1756.88
322.878	1769.88
323.108	1838.88
323.337	1864.88
323.566	1835.88
323.795	1859.88
324.024	1856.88
324.253	1788.88
324.482	1813.88
324.71	1796.88
324.939	1659.88
325.168	1713.88
325.397	1781.88
325.626	1836.88
325.855	1859.88
326.084	1796.88
326.313	1796.88
326.542	1789.88
326.77	1856.88
326.999	1872.88
327.228	1753.88
327.457	1728.88
327.686	1675.88
327.914	1744.88
328.143	1776.88
328.372	1777.88
328.6	1802.88
328.829	1760.88
329.058	1730.88
329.287	1751.88
329.515	1808.88
329.744	1819.88
329.972	1878.88
330.201	1970.88
330.43	1958.88
330.658	1854.88
330.887	1924.88
331.115	1904.88
331.344	1928.88
331.572	1835.88
331.801	1882.88
332.03	1870.88
332.258	1868.88
332.486	1918.88
332.715	1933.88
332.943	1951.88
333.172	1913.88
333.4	1940.88
333.629	1945.88
333.857	2080.88
334.085	2285.88
334.314	2540.88
334.542	2821.88
334.771	2587.88
334.999	2290.88
335.227	2143.88
335.455	2053.88
335.684	2029.88
335.912	2037.88
336.14	2149.88
336.369	2092.88
336.597	1928.88
336.825	1937.88
337.053	1966.88
337.281	2074.88
337.51	2138.88
337.738	2256.88
337.966	2192.88
338.194	1955.88
338.422	1845.88
338.65	1921.88
338.878	1812.88
339.106	1838.88
339.334	1765.88
339.562	1789.88
339.79	1798.88
340.018	1897.88
340.246	2002.88
340.474	1986.88
340.702	1933.88
340.93	1928.88
341.158	1902.88
341.386	1858.88
341.614	1862.88
341.842	1841.88
342.07	1871.88
342.298	1930.88
342.526	1890.88
342.754	1802.88
342.981	1842.88
343.209	1847.88
343.437	1806.88
343.665	1872.88
343.893	1940.88
344.12	1990.88
344.348	1998.88
344.576	1967.88
344.804	1848.88
345.031	1864.88
345.259	1920.88
345.487	1802.88
345.714	1788.88
345.942	1705.88
346.17	1731.88
346.397	1797.88
346.625	1788.88
346.853	1665.88
347.08	1654.88
347.308	1680.88
347.535	1700.88
347.763	1808.88
347.99	1749.88
348.218	1673.88
348.445	1692.88
348.673	1706.88
348.9	1776.88
349.128	1828.88
349.355	1896.88
349.583	1820.88
349.81	1769.88
350.037	1659.88
350.265	1574.88
350.492	1648.88
350.72	1734.88
350.947	1701.88
351.174	1752.88
351.402	1720.88
351.629	1647.88
351.856	1601.88
352.083	1625.88
352.311	1592.88
352.538	1656.88
352.765	1736.88
352.992	1786.88
353.22	1756.88
353.447	1664.88
353.674	1718.88
353.901	1751.88
354.128	1693.88
354.355	1625.88
354.583	1725.88
354.81	1770.88
355.037	1772.88
355.264	1765.88
355.491	1752.88
355.718	1719.88
355.945	1681.88
356.172	1669.88
356.399	1684.88
356.626	1658.88
356.853	1700.88
357.08	1808.88
357.307	2024.88
357.534	2051.88
357.761	1816.88
357.988	1684.88
358.215	1622.88
358.441	1642.88
358.668	1640.88
358.895	1638.88
359.122	1723.88
359.349	1926.88
359.576	1893.88
359.802	1731.88
360.029	1667.88
360.256	1633.88
360.483	1678.88
360.709	1698.88
360.936	1823.88
361.163	1833.88
361.39	1986.88
361.616	2143.88
361.843	2088.88
362.07	1972.88
362.296	1705.88
362.523	1676.88
362.749	1687.88
362.976	1712.88
363.203	1716.88
363.429	1710.88
363.656	1636.88
363.882	1698.88
364.109	1848.88
364.335	2052.88
364.562	1904.88
364.788	1793.88
365.015	1736.88
365.241	1674.88
365.468	1728.88
365.694	1753.88
365.92	1872.88
366.147	1810.88
366.373	1627.88
366.599	1606.88
366.826	1658.88
367.052	1664.88
367.278	1695.88
367.505	1708.88
367.731	1721.88
367.957	1729.88
368.184	1793.88
368.41	1876.88
368.636	1896.88
368.862	1920.88
369.089	1932.88
369.315	1829.88
369.541	1780.88
369.767	1753.88
369.993	1692.88
370.219	1636.88
370.445	1710.88
370.672	1803.88
370.898	1894.88
371.124	1922.88
371.35	1826.88
371.576	1822.88
371.802	1893.88
372.028	1845.88
372.254	1748.88
372.48	1723.88
372.706	1713.88
372.932	1690.88
373.158	1740.88
373.384	1742.88
373.61	1816.88
373.835	1889.88
374.061	1802.88
374.287	1776.88
374.513	1813.88
374.739	1802.88
374.965	1830.88
375.191	1855.88
375.416	1842.88
375.642	1847.88
375.868	1949.88
376.094	2000.88
376.319	1893.88
376.545	1780.88
376.771	1814.88
376.997	1914.88
377.222	1934.88
377.448	1806.88
377.674	1855.88
377.899	1862.88
378.125	1937.88
378.35	2006.88
378.576	1799.88
378.802	1714.88
379.027	1742.88
379.253	1745.88
379.478	1792.88
379.704	1795.88
379.929	1820.88
380.155	1780.88
380.38	1802.88
380.606	1801.88
380.831	1791.88
381.057	1850.88
381.282	1917.88
381.507	1860.88
381.733	1964.88
381.958	2045.88
382.184	1879.88
382.409	1847.88
382.634	1876.88
382.86	1887.88
383.085	1873.88
383.31	1934.88
383.535	2023.88
383.761	2168.88
383.986	2104.88
384.211	2002.88
384.436	2013.88
384.662	2050.88
384.887	2138.88
385.112	2034.88
385.337	2110.88
385.562	2077.88
385.787	2064.88
386.013	2099.88
386.238	2128.88
386.463	2070.88
386.688	2227.88
386.913	2339.88
387.138	2309.88
387.363	2104.88
387.588	2098.88
387.813	2081.88
388.038	2112.88
388.263	2180.88
388.488	2138.88
388.713	1938.88
388.938	1939.88
389.163	1983.88
389.387	2024.88
389.612	1991.88
389.837	2028.88
390.062	2096.88
390.287	2103.88
390.512	2050.88
390.736	2004.88
390.961	1988.88
391.186	1930.88
391.411	1980.88
391.636	1989.88
391.86	2054.88
392.085	2044.88
392.31	2043.88
392.534	2018.88
392.759	2109.88
392.984	2024.88
393.208	2075.88
393.433	2104.88
393.658	2180.88
393.882	2206.88
394.107	2088.88
394.331	2015.88
394.556	2019.88
394.78	2033.88
395.005	2130.88
395.229	2183.88
395.454	2385.88
395.678	2410.88
395.903	2246.88
396.127	2134.88
396.352	2183.88
396.576	2231.88
396.801	2239.88
397.025	2215.88
397.249	2224.88
397.474	2168.88
397.698	2186.88
397.922	2255.88
398.147	2329.88
398.371	2424.88
398.595	2462.88
398.82	2305.88
399.044	2350.88
399.268	2501.88
399.492	2619.88
399.717	2752.88
399.941	2808.88
400.165	2672.88
400.389	2615.88
400.613	2576.88
400.837	2828.88
401.062	3273.88
401.286	2804.88
401.51	2538.88
401.734	2700.88
401.958	2613.88
402.182	2429.88
402.406	2357.88
402.63	2298.88
402.854	2290.88
403.078	2387.88
403.302	2366.88
403.526	2460.88
403.75	2456.88
403.974	2459.88
404.198	2429.88
404.422	2510.88
404.645	2647.88
404.869	2620.88
405.093	2418.88
405.317	2352.88
405.541	2423.88
405.765	2446.88
405.988	2421.88
406.212	2458.88
406.436	2536.88
406.66	2610.88
406.883	2608.88
407.107	2929.88
407.331	3141.88
407.555	3384.88
407.778	3200.88
408.002	2620.88
408.226	2576.88
408.449	2578.88
408.673	2433.88
408.896	2478.88
409.12	2571.88
409.344	2474.88
409.567	2400.88
409.791	2476.88
410.014	2445.88
410.238	2604.88
410.461	2790.88
410.685	2468.88
410.908	2369.88
411.132	2451.88
411.355	2401.88
411.578	2356.88
411.802	2356.88
412.025	2402.88
412.249	2386.88
412.472	2296.88
412.695	2298.88
412.919	2322.88
413.142	2256.88
413.365	2353.88
413.589	2415.88
413.812	2480.88
414.035	2607.88
414.258	2377.88
414.482	2343.88
414.705	2340.88
414.928	2272.88
415.151	2304.88
415.374	2354.88
415.597	2391.88
415.821	2318.88
416.044	2458.88
416.267	2439.88
416.49	2230.88
416.713	2260.88
416.936	2313.88
417.159	2424.88
417.382	2417.88
417.605	2289.88
417.828	2313.88
418.051	2368.88
418.274	2305.88
418.497	2249.88
418.72	2228.88
418.943	2258.88
419.166	2391.88
419.389	2503.88
419.611	2355.88
419.834	2286.88
420.057	2296.88
420.28	2222.88
420.503	2226.88
420.726	2314.88
420.948	2281.88
421.171	2188.88
421.394	2310.88
421.617	2318.88
421.839	2280.88
422.062	2260.88
422.285	2186.88
422.507	2215.88
422.73	2167.88
422.953	2126.88
423.175	2128.88
423.398	2213.88
423.621	2216.88
423.843	2262.88
424.066	2307.88
424.288	2304.88
424.511	2380.88
424.733	2326.88
424.956	2093.88
425.178	2115.88
425.401	2139.88
425.623	2177.88
425.846	2214.88
426.068	2273.88
426.291	2354.88
426.513	2233.88
426.735	2300.88
426.958	2364.88
427.18	2559.88
427.402	2343.88
427.625	2413.88
427.847	2454.88
428.069	2282.88
428.292	2199.88
428.514	2120.88
428.736	2122.88
428.958	2168.88
429.181	2200.88
429.403	2451.88
429.625	3088.88
429.847	2662.88
430.069	2248.88
430.292	2390.88
430.514	2537.88
430.736	2337.88
430.958	2425.88
431.18	2364.88
431.402	2174.88
431.624	2109.88
431.846	2207.88
432.068	2138.88
432.29	2154.88
432.512	2190.88
432.734	2208.88
432.956	2318.88
433.178	2320.88
433.4	2283.88
433.622	2341.88
433.844	2231.88
434.066	2156.88
434.287	2086.88
434.509	2196.88
434.731	2376.88
434.953	2484.88
435.175	2442.88
435.397	2287.88
435.618	2308.88
435.84	2311.88
436.062	2217.88
436.284	2275.88
436.505	2271.88
436.727	2328.88
436.949	2244.88
437.17	2174.88
437.392	2198.88
437.614	2175.88
437.835	2122.88
438.057	2267.88
438.278	2366.88
438.5	2195.88
438.721	2129.88
438.943	2138.88
439.165	2159.88
439.386	2105.88
439.608	2148.88
439.829	2145.88
440.05	2151.88
440.272	2114.88
440.493	2072.88
440.715	2125.88
440.936	2290.88
441.158	2601.88
441.379	2441.88
441.6	2393.88
441.822	2336.88
442.043	2300.88
442.264	2289.88
442.486	2148.88
442.707	2138.88
442.928	2172.88
443.149	2220.88
443.371	2381.88
443.592	2434.88
443.813	2348.88
444.034	2364.88
444.255	2383.88
444.476	2390.88
444.698	2518.88
444.919	2450.88
445.14	2486.88
445.361	2495.88
445.582	2601.88
445.803	2466.88
446.024	2362.88
446.245	2487.88
446.466	2362.88
446.687	2228.88
446.908	2275.88
447.129	2173.88
447.35	2184.88
447.571	2205.88
447.792	2112.88
448.013	2118.88
448.234	2119.88
448.455	2197.88
448.675	2275.88
448.896	2030.88
449.117	2022.88
449.338	2079.88
449.559	2220.88
449.779	2337.88
450	2560.88
450.221	2723.88
450.442	2654.88
450.662	2320.88
450.883	2062.88
451.104	1975.88
451.324	2064.88
451.545	2119.88
451.766	2090.88
451.986	1964.88
452.207	2035.88
452.428	1944.88
452.648	1942.88
452.869	1983.88
453.089	2096.88
453.31	2104.88
453.53	2157.88
453.751	2056.88
453.971	1985.88
454.192	2008.88
454.412	2147.88
454.633	2063.88
454.853	2003.88
455.073	1910.88
455.294	1888.88
455.514	1885.88
455.734	1885.88
455.955	1976.88
456.175	1916.88
456.395	1958.88
456.616	2004.88
456.836	2044.88
457.056	1950.88
457.276	1984.88
457.497	1949.88
457.717	1818.88
457.937	1865.88
458.157	1961.88
458.377	1922.88
458.598	1916.88
458.818	1939.88
459.038	2077.88
459.258	2184.88
459.478	2196.88
459.698	2128.88
459.918	2163.88
460.138	2230.88
460.358	2304.88
460.578	2313.88
460.798	2403.88
461.018	2528.88
461.238	2414.88
461.458	2312.88
461.678	2356.88
461.898	2262.88
462.118	2177.88
462.338	2276.88
462.558	2320.88
462.777	2322.88
462.997	2385.88
463.217	2559.88
463.437	2562.88
463.657	2395.88
463.876	2354.88
464.096	2328.88
464.316	2302.88
464.536	2427.88
464.755	2433.88
464.975	2477.88
465.195	2340.88
465.414	2448.88
465.634	2454.88
465.854	2276.88
466.073	2417.88
466.293	2378.88
466.512	2127.88
466.732	2100.88
466.951	2184.88
467.171	2201.88
467.391	2123.88
467.61	2009.88
467.829	2049.88
468.049	2174.88
468.268	2497.88
468.488	2330.88
468.707	2220.88
468.927	2196.88
469.146	2127.88
469.365	2068.88
469.585	2135.88
469.804	2068.88
470.023	2104.88
470.243	2115.88
470.462	2064.88
470.681	2078.88
470.901	2117.88
471.12	2139.88
471.339	2120.88
471.558	2050.88
471.777	2025.88
471.997	2092.88
472.216	2068.88
472.435	1998.88
472.654	2037.88
472.873	2118.88
473.092	2260.88
473.311	2180.88
473.53	2022.88
473.749	2007.88
473.968	2083.88
474.187	2192.88
474.406	2285.88
474.625	2135.88
474.844	2090.88
475.063	2128.88
475.282	2214.88
475.501	2151.88
475.72	2124.88
475.939	2225.88
476.158	2187.88
476.377	2124.88
476.596	2196.88
476.814	2211.88
477.033	2231.88
477.252	2336.88
477.471	2425.88
477.69	2208.88
477.908	2224.88
478.127	2355.88
478.346	2559.88
478.564	2606.88
478.783	2503.88
479.002	2576.88
479.22	2554.88
479.439	2554.88
479.658	2947.88
479.876	2979.88
480.095	2549.88
480.313	2488.88
480.532	2344.88
480.751	2386.88
480.969	2467.88
481.188	2400.88
481.406	2382.88
481.624	2344.88
481.843	2316.88
482.061	2389.88
482.28	2464.88
482.498	2452.88
482.717	2443.88
482.935	2311.88
483.153	2321.88
483.372	2358.88
483.59	2317.88
483.808	2356.88
484.027	2455.88
484.245	2562.88
484.463	2947.88
484.681	3361.88
484.9	2637.88
485.118	2415.88
485.336	2391.88
485.554	2496.88
485.772	2618.88
485.99	2576.88
486.209	2587.88
486.427	2542.88
486.645	2569.88
486.863	2440.88
487.081	2612.88
487.299	2645.88
487.517	2594.88
487.735	2485.88
487.953	2492.88
488.171	2416.88
488.389	2458.88
488.607	2446.88
488.825	2688.88
489.043	2704.88
489.261	2421.88
489.479	2604.88
489.696	2617.88
489.914	2634.88
490.132	2580.88
490.35	2473.88
490.568	2616.88
490.786	2475.88
491.003	2386.88
491.221	2513.88
491.439	2554.88
491.657	2522.88
491.874	2575.88
492.092	2549.88
492.31	2553.88
492.527	2550.88
492.745	2546.88
492.963	2499.88
493.18	2609.88
493.398	2789.88
493.615	2864.88
493.833	2637.88
494.05	2535.88
494.268	2562.88
494.485	2622.88
494.703	2608.88
494.92	2537.88
495.138	2513.88
495.355	2605.88
495.573	2648.88
495.79	2799.88
496.008	2888.88
496.225	2695.88
496.442	2681.88
496.66	2753.88
496.877	2702.88
497.094	2784.88
497.312	2801.88
497.529	2793.88
497.746	2840.88
497.963	3337.88
498.181	3767.88
498.398	3484.88
498.615	3371.88
498.832	3309.88
499.049	3305.88
499.267	3295.88
499.484	3476.88
499.701	3750.88
499.918	3805.88
500.135	4127.88
500.352	4425.88
500.569	4338.88
500.786	4590.88
501.003	4344.88
501.22	3994.88
501.437	3866.88
501.654	3859.88
501.871	3777.88
502.088	3271.88
502.305	3269.88
502.522	3176.88
502.739	2889.88
502.956	2801.88
503.172	2850.88
503.389	2750.88
503.606	2750.88
503.823	2791.88
504.04	2736.88
504.256	2745.88
504.473	2741.88
504.69	2838.88
504.907	2645.88
505.123	2544.88
505.34	2661.88
505.557	3446.88
505.773	2964.88
505.99	2538.88
506.207	2336.88
506.423	2304.88
506.64	2248.88
506.856	2323.88
507.073	2611.88
507.289	2855.88
507.506	2775.88
507.722	2338.88
507.939	2220.88
508.155	2262.88
508.372	2304.88
508.588	2210.88
508.805	2151.88
509.021	2136.88
509.238	2080.88
509.454	2104.88
509.67	2139.88
509.887	2094.88
510.103	2075.88
510.319	2118.88
510.536	2266.88
510.752	2257.88
510.968	2248.88
511.184	2466.88
511.401	2403.88
511.617	2126.88
511.833	2071.88
512.049	2036.88
512.265	2032.88
512.481	2058.88
512.698	2121.88
512.914	2292.88
513.13	2150.88
513.346	2054.88
513.562	2010.88
513.778	2072.88
513.994	2143.88
514.21	2258.88
514.426	2252.88
514.642	2533.88
514.858	2344.88
515.074	2130.88
515.29	2089.88
515.506	2151.88
515.721	2168.88
515.937	2186.88
516.153	2465.88
516.369	2398.88
516.585	2265.88
516.801	2162.88
517.016	2144.88
517.232	2217.88
517.448	2263.88
517.664	2308.88
517.879	2275.88
518.095	2356.88
518.311	2286.88
518.527	2194.88
518.742	2113.88
518.958	2050.88
519.173	2084.88
519.389	2122.88
519.605	2097.88
519.82	2109.88
520.036	2159.88
520.251	2094.88
520.467	2090.88
520.682	2210.88
520.898	2375.88
521.113	2076.88
521.329	2008.88
521.544	2178.88
521.76	2152.88
521.975	2021.88
522.19	1974.88
522.406	1979.88
522.621	2366.88
522.836	2380.88
523.052	1973.88
523.267	1962.88
523.482	1987.88
523.698	1892.88
523.913	1876.88
524.128	1904.88
524.343	2021.88
524.559	2073.88
524.774	1919.88
524.989	1884.88
525.204	1867.88
525.419	1852.88
525.634	1821.88
525.849	1813.88
526.064	1848.88
526.28	1921.88
526.495	1834.88
526.71	1802.88
526.925	1855.88
527.14	1826.88
527.355	1791.88
527.57	1777.88
527.785	1845.88
527.999	1782.88
528.214	1758.88
528.429	1702.88
528.644	1762.88
528.859	1800.88
529.074	1767.88
529.289	1746.88
529.503	1844.88
529.718	1817.88
529.933	1812.88
530.148	1708.88
530.363	1699.88
530.577	1777.88
530.792	1817.88
531.007	1838.88
531.221	1789.88
531.436	1834.88
531.651	1920.88
531.865	1948.88
532.08	1873.88
532.295	1792.88
532.509	1664.88
532.724	1749.88
532.938	1816.88
533.153	1957.88
533.367	1811.88
533.582	1821.88
533.796	1728.88
534.011	1752.88
534.225	1768.88
534.44	1777.88
534.654	1730.88
534.868	1710.88
535.083	1783.88
535.297	1840.88
535.511	1792.88
535.726	1709.88
535.94	1764.88
536.154	1718.88
536.369	1726.88
536.583	1692.88
536.797	1696.88
537.011	1748.88
537.225	1662.88
537.44	1636.88
537.654	1776.88
537.868	1651.88
538.082	1633.88
538.296	1585.88
538.51	1616.88
538.724	1648.88
538.938	1605.88
539.153	1678.88
539.367	1674.88
539.581	1678.88
539.795	1757.88
540.009	1702.88
540.222	1655.88
540.436	1695.88
540.65	1858.88
540.864	1876.88
541.078	1778.88
541.292	1661.88
541.506	1654.88
541.72	1692.88
541.934	1675.88
542.147	1732.88
542.361	1665.88
542.575	1600.88
542.789	1586.88
543.002	1532.88
543.216	1591.88
543.43	1710.88
543.644	1751.88
543.857	1830.88
544.071	1755.88
544.285	1695.88
544.498	1661.88
544.712	1616.88
544.925	1673.88
545.139	1695.88
545.352	1617.88
545.566	1544.88
545.779	1564.88
545.993	1584.88
546.206	1600.88
546.42	1565.88
546.633	1505.88
546.847	1544.88
547.06	1547.88
547.274	1583.88
547.487	1590.88
547.7	1549.88
547.914	1574.88
548.127	1588.88
548.34	1625.88
548.554	1593.88
548.767	1618.88
548.98	1593.88
549.193	1554.88
549.407	1653.88
549.62	1653.88
549.833	1544.88
550.046	1558.88
550.259	1557.88
550.473	1569.88
550.686	1528.88
550.899	1523.88
551.112	1526.88
551.325	1464.88
551.538	1592.88
551.751	1873.88
551.964	1486.88
552.177	1488.88
552.39	1545.88
552.603	1522.88
552.816	1543.88
553.029	1614.88
553.242	1653.88
553.455	1566.88
553.667	1541.88
553.88	1549.88
554.093	1518.88
554.306	1428.88
554.519	1479.88
554.732	1449.88
554.944	1452.88
555.157	1507.88
555.37	1441.88
555.583	1434.88
555.795	1395.88
556.008	1384.88
556.221	1400.88
556.433	1341.88
556.646	1343.88
556.859	1336.88
557.071	1340.88
557.284	1331.88
557.496	1344.88
557.709	1293.88
557.921	1289.88
558.134	1320.88
558.346	1320.88
558.559	1307.88
558.771	1268.88
558.984	1277.88
559.196	1281.88
559.409	1242.88
559.621	1252.88
559.833	1257.88
560.046	1330.88
560.258	1298.88
560.47	1289.88
560.683	1264.88
560.895	1278.88
561.107	1281.88
561.32	1315.88
561.532	1300.88
561.744	1263.88
561.956	1272.88
562.168	1246.88
562.381	1220.88
562.593	1218.88
562.805	1215.88
563.017	1220.88
563.229	1233.88
563.441	1300.88
563.653	1254.88
563.865	1269.88
564.077	1250.88
564.289	1220.88
564.501	1273.88
564.713	1298.88
564.925	1340.88
565.137	1428.88
565.349	1328.88
565.561	1334.88
565.773	1354.88
565.985	1352.88
566.197	1433.88
566.408	1492.88
566.62	1534.88
566.832	1536.88
567.044	1573.88
567.255	1532.88
567.467	1513.88
567.679	1620.88
567.891	1641.88
568.102	1585.88
568.314	1520.88
568.526	1430.88
568.737	1379.88
568.949	1332.88
569.161	1288.88
569.372	1242.88
569.584	1233.88
569.795	1226.88
570.007	1213.88
570.218	1154.88
570.43	1151.88
570.641	1160.88
570.853	1154.88
571.064	1141.88
571.276	1146.88
571.487	1102.88
571.698	1058.88
571.91	1066.88
572.121	1063.88
572.333	1055.88
572.544	1062.88
572.755	1013.88
572.966	994.88
573.178	1001.88
573.389	994.88
573.6	1041.88
573.811	1138.88
574.023	1047.88
574.234	994.88
574.445	974.88
574.656	946.88
574.867	957.88
575.078	947.88
575.289	973.88
575.501	949.88
575.712	970.88
575.923	942.88
576.134	994.88
576.345	915.88
576.556	928.88
576.767	904.88
576.978	872.88
577.188	905.88
577.399	904.88
577.61	910.88
577.821	900.88
578.032	872.88
578.243	896.88
578.454	887.88
578.665	869.88
578.875	848.88
579.086	825.88
579.297	849.88
579.508	885.88
579.718	878.88
579.929	893.88
580.14	832.88
580.35	809.88
580.561	877.88
580.772	933.88
580.982	882.88
581.193	841.88
581.403	825.88
581.614	808.88
581.825	810.88
582.035	856.88
582.246	821.88
582.456	848.88
582.667	835.88
582.877	803.88
583.087	789.88
583.298	801.88
583.508	820.88
583.719	813.88
583.929	802.88
584.139	822.88
584.35	764.88
584.56	751.88
584.77	801.88
584.981	790.88
585.191	800.88
585.401	836.88
585.611	818.88
585.821	790.88
586.032	765.88
586.242	751.88
586.452	770.88
586.662	769.88
586.872	773.88
587.082	751.88
587.292	804.88
587.502	790.88
587.713	797.88
587.923	785.88
588.133	768.88
588.343	784.88
588.553	782.88
588.762	769.88
588.972	778.88
589.182	784.88
589.392	778.88
589.602	770.88
589.812	781.88
590.022	723.88
590.232	717.88
590.441	760.88
590.651	778.88
590.861	760.88
591.071	712.88
591.281	739.88
591.49	740.88
591.7	723.88
591.91	725.88
592.119	733.88
592.329	791.88
592.539	806.88
592.748	774.88
592.958	797.88
593.167	780.88
593.377	800.88
593.587	793.88
593.796	799.88
594.006	796.88
594.215	793.88
594.424	816.88
594.634	773.88
594.843	795.88
595.053	823.88
595.262	755.88
595.472	727.88
595.681	751.88
595.89	737.88
596.1	706.88
596.309	739.88
596.518	700.88
596.727	726.88
596.937	716.88
597.146	680.88
597.355	650.88
597.564	695.88
597.774	647.88
597.983	660.88
598.192	650.88
598.401	658.88
598.61	676.88
598.819	651.88
599.028	688.88
599.237	664.88
599.446	623.88
599.655	625.88
599.864	590.88
600.073	649.88
600.282	636.88
600.491	622.88
600.7	629.88
600.909	609.88
601.118	594.88
601.327	618.88
601.536	638.88
601.745	622.88
601.953	613.88
602.162	630.88
602.371	603.88
602.58	598.88
602.789	612.88
602.997	610.88
603.206	617.88
603.415	612.88
603.623	602.88
603.832	587.88
604.041	606.88
604.249	579.88
604.458	577.88
604.666	602.88
604.875	585.88
605.084	597.88
605.292	613.88
605.501	568.88
605.709	595.88
605.918	544.88
606.126	577.88
606.334	561.88
606.543	551.88
606.751	571.88
606.96	563.88
607.168	588.88
607.376	574.88
607.585	568.88
607.793	552.88
608.001	580.88
608.21	550.88
608.418	580.88
608.626	567.88
608.834	560.88
609.043	562.88
609.251	529.88
609.459	552.88
609.667	560.88
609.875	554.88
610.083	585.88
610.291	585.88
610.499	567.88
610.707	563.88
610.916	546.88
611.124	537.88
611.332	540.88
611.54	553.88
611.748	542.88
611.955	528.88
612.163	536.88
612.371	526.88
612.579	527.88
612.787	512.88
612.995	541.88
613.203	515.88
613.411	523.88
613.618	540.88
613.826	531.88
614.034	528.88
614.242	528.88
614.449	528.88
614.657	527.88
614.865	521.88
615.072	530.88
615.28	542.88
615.488	509.88
615.695	564.88
615.903	546.88
616.111	510.88
616.318	545.88
616.526	510.88
616.733	518.88
616.941	526.88
617.148	534.88
617.356	525.88
617.563	526.88
617.771	528.88
617.978	525.88
618.185	511.88
618.393	512.88
618.6	531.88
618.807	519.88
619.015	514.88
619.222	510.88
619.429	501.88
619.637	473.88
619.844	520.88
620.051	480.88
620.258	476.88
620.466	473.88
620.673	453.88
620.88	454.88
621.087	477.88
621.294	470.88
621.501	486.88
621.708	461.88
621.915	471.88
622.122	483.88
622.329	488.88
622.536	481.88
622.743	473.88
622.95	465.88
623.157	453.88
623.364	478.88
623.571	472.88
623.778	470.88
623.985	463.88
624.192	472.88
624.399	458.88
624.606	458.88
624.812	444.88
625.019	461.88
625.226	466.88
625.433	455.88
625.639	448.88
625.846	413.88
626.053	456.88
626.259	414.88
626.466	419.88
626.673	430.88
626.879	408.88
627.086	424.88
627.293	412.88
627.499	423.88
627.706	420.88
627.912	424.88
628.119	432.88
628.325	430.88
628.532	423.88
628.738	422.88
628.945	436.88
629.151	432.88
629.357	425.88
629.564	415.88
629.77	414.88
629.976	394.88
630.183	396.88
630.389	432.88
630.595	392.88
630.802	401.88
631.008	405.88
631.214	363.88
631.42	390.88
631.627	384.88
631.833	386.88
632.039	395.88
632.245	389.88
632.451	377.88
632.657	396.88
632.863	385.88
633.069	387.88
633.275	360.88
633.481	377.88
633.688	364.88
633.893	378.88
634.099	358.88
634.305	372.88
634.511	367.88
634.717	366.88
634.923	361.88
635.129	351.88
635.335	358.88
635.541	383.88
635.747	359.88
635.952	380.88
636.158	364.88
636.364	375.88
636.57	362.88
636.775	366.88
636.981	369.88
637.187	358.88
637.392	354.88
637.598	348.88
637.804	352.88
638.009	373.88
638.215	346.88
638.421	332.88
638.626	329.88
638.832	342.88
639.037	332.88
639.243	338.88
639.448	329.88
639.654	349.88
639.859	338.88
640.065	328.88
640.27	345.88
640.475	347.88
640.681	353.88
640.886	343.88
641.091	343.88
641.297	323.88
641.502	324.88
641.707	345.88
641.913	346.88
642.118	320.88
642.323	336.88
642.528	316.88
642.733	304.88
642.939	320.88
643.144	324.88
643.349	320.88
643.554	327.88
643.759	332.88
643.964	320.88
644.169	319.88
644.374	292.88
644.579	307.88
644.784	322.88
644.989	312.88
645.194	329.88
645.399	323.88
645.604	306.88
645.809	316.88
646.014	303.88
646.219	330.88
646.423	302.88
646.628	338.88
646.833	328.88
647.038	287.88
647.243	292.88
647.447	314.88
647.652	315.88
647.857	324.88
648.062	316.88
648.266	318.88
648.471	331.88
648.676	320.88
648.88	334.88
649.085	323.88
649.289	310.88
649.494	323.88
649.698	337.88
649.903	289.88
650.107	319.88
650.312	292.88
650.516	296.88
650.721	284.88
650.925	314.88
651.13	281.88
651.334	290.88
651.539	274.88
651.743	278.88
651.947	273.88
652.152	280.88
652.356	266.88
652.56	259.88
652.764	271.88
652.969	274.88
653.173	247.88
653.377	258.88
653.581	238.88
653.785	258.88
653.99	249.88
654.194	252.88
654.398	244.88
654.602	235.88
654.806	236.88
655.01	247.88
655.214	244.88
655.418	253.88
655.622	254.88
655.826	223.88
656.03	252.88
656.234	281.88
656.438	269.88
656.642	271.88
656.846	255.88
657.049	246.88
657.253	240.88
657.457	214.88
657.661	200.88
657.865	194.88
658.068	174.88
658.272	173.88
658.476	165.88
658.68	169.88
658.883	169.88
659.087	137.88
659.291	143.88
659.494	126.88
659.698	141.88
659.901	131.88
660.105	119.88
660.309	120.88
660.512	106.88
660.716	126.88
660.919	120.88
661.123	105.88
661.326	93.88
661.53	109.88
661.733	93.88
661.936	115.88
662.14	97.88
662.343	95.88
662.546	94.88
662.75	80.88
662.953	88.88
663.156	93.88
663.36	80.88
663.563	84.88
663.766	76.88
663.969	101.88
664.173	81.88
664.376	77.88
664.579	75.88
664.782	80.88
664.985	83.88
665.188	82.88
665.391	85.88
665.594	78.88
665.797	87.88
666	83.88
666.203	91.88
666.406	80.88
666.609	85.88
666.812	89.88
667.015	95.88
667.218	95.88
667.421	76.88
667.624	76.88
667.827	81.88
668.03	80.88
668.232	79.88
668.435	87.88
668.638	68.88
668.841	62.88
669.043	85.88
669.246	78.88
669.449	78.88
669.651	79.88
669.854	80.88
670.057	79.88
670.259	74.88
670.462	74.88
670.665	86.88
670.867	79.88
671.07	80.88
671.272	77.88
671.475	85.88
671.677	94.88
671.88	81.88
672.082	98.88
672.284	88.88
672.487	77.88
672.689	74.88
672.892	72.88
