Data from WStandard_LampEnergy10_LIBS07252019.E.O._I.C._HRD10591_15-54-16-928.txt Node
Date: Thu Jul 25 15:54:16 EDT 2019
User: cochatt
Spectrometer: HR+D1059
Trigger mode: 1
Integration Time (sec): 1.000000E-1
Scans to average: 1
Electric dark correction enabled: true
Nonlinearity correction enabled: false
Boxcar width: 0
XAxis mode: Wavelengths
Number of Pixels in Spectrum: 2048
>>>>>Begin Spectral Data<<<<<
223.165	-6.75
223.4	-6.75
223.635	-6.75
223.869	-5.75
224.104	-19.75
224.338	-13.75
224.573	-14.75
224.808	-14.75
225.042	7.25
225.277	-9.75
225.511	-3.75
225.746	1.25
225.98	0.25
226.215	7.25
226.449	18.25
226.683	11.25
226.918	19.25
227.152	24.25
227.387	33.25
227.621	41.25
227.856	34.25
228.09	41.25
228.324	52.25
228.559	52.25
228.793	73.25
229.027	128.25
229.262	140.25
229.496	157.25
229.73	159.25
229.964	164.25
230.199	168.25
230.433	188.25
230.667	173.25
230.901	182.25
231.136	167.25
231.37	168.25
231.604	176.25
231.838	169.25
232.072	166.25
232.306	172.25
232.541	166.25
232.775	184.25
233.009	205.25
233.243	205.25
233.477	189.25
233.711	185.25
233.945	203.25
234.179	204.25
234.413	192.25
234.647	206.25
234.881	199.25
235.115	193.25
235.349	196.25
235.583	204.25
235.817	183.25
236.051	202.25
236.285	184.25
236.519	202.25
236.753	225.25
236.987	234.25
237.221	222.25
237.455	241.25
237.689	221.25
237.922	222.25
238.156	207.25
238.39	220.25
238.624	237.25
238.858	248.25
239.091	247.25
239.325	253.25
239.559	286.25
239.793	290.25
240.027	300.25
240.26	295.25
240.494	244.25
240.728	240.25
240.961	240.25
241.195	234.25
241.429	245.25
241.662	240.25
241.896	241.25
242.13	257.25
242.363	266.25
242.597	267.25
242.83	278.25
243.064	280.25
243.298	294.25
243.531	275.25
243.765	276.25
243.998	280.25
244.232	259.25
244.465	258.25
244.699	255.25
244.932	296.25
245.166	288.25
245.399	283.25
245.633	281.25
245.866	292.25
246.099	285.25
246.333	310.25
246.566	300.25
246.8	304.25
247.033	341.25
247.266	322.25
247.5	304.25
247.733	339.25
247.966	334.25
248.2	351.25
248.433	348.25
248.666	356.25
248.899	374.25
249.133	432.25
249.366	451.25
249.599	395.25
249.832	361.25
250.066	364.25
250.299	364.25
250.532	341.25
250.765	309.25
250.998	334.25
251.231	341.25
251.465	361.25
251.698	334.25
251.931	340.25
252.164	357.25
252.397	363.25
252.63	364.25
252.863	321.25
253.096	314.25
253.329	340.25
253.562	332.25
253.795	345.25
254.028	350.25
254.261	338.25
254.494	342.25
254.727	341.25
254.96	354.25
255.193	356.25
255.426	417.25
255.659	456.25
255.892	451.25
256.124	372.25
256.357	389.25
256.59	403.25
256.823	413.25
257.056	439.25
257.289	472.25
257.521	497.25
257.754	468.25
257.987	448.25
258.22	487.25
258.452	462.25
258.685	398.25
258.918	393.25
259.151	384.25
259.383	379.25
259.616	350.25
259.849	365.25
260.081	422.25
260.314	441.25
260.547	482.25
260.779	471.25
261.012	444.25
261.244	403.25
261.477	390.25
261.71	401.25
261.942	387.25
262.175	389.25
262.407	414.25
262.64	383.25
262.872	398.25
263.105	384.25
263.337	369.25
263.57	384.25
263.802	379.25
264.035	361.25
264.267	365.25
264.499	341.25
264.732	348.25
264.964	381.25
265.197	396.25
265.429	429.25
265.661	458.25
265.894	485.25
266.126	482.25
266.358	440.25
266.591	443.25
266.823	475.25
267.055	441.25
267.287	444.25
267.52	430.25
267.752	450.25
267.984	440.25
268.216	467.25
268.448	458.25
268.681	447.25
268.913	416.25
269.145	418.25
269.377	421.25
269.609	451.25
269.841	492.25
270.073	571.25
270.306	617.25
270.538	630.25
270.77	544.25
271.002	493.25
271.234	467.25
271.466	493.25
271.698	531.25
271.93	617.25
272.162	561.25
272.394	554.25
272.626	521.25
272.858	460.25
273.09	407.25
273.322	425.25
273.553	398.25
273.785	414.25
274.017	405.25
274.249	448.25
274.481	447.25
274.713	432.25
274.945	404.25
275.176	392.25
275.408	404.25
275.64	402.25
275.872	412.25
276.104	441.25
276.335	476.25
276.567	533.25
276.799	536.25
277.031	514.25
277.262	473.25
277.494	498.25
277.726	521.25
277.957	475.25
278.189	469.25
278.421	445.25
278.652	423.25
278.884	410.25
279.115	417.25
279.347	438.25
279.579	442.25
279.81	449.25
280.042	483.25
280.273	510.25
280.505	532.25
280.736	504.25
280.968	478.25
281.199	413.25
281.431	421.25
281.662	409.25
281.894	407.25
282.125	447.25
282.356	419.25
282.588	452.25
282.819	447.25
283.051	491.25
283.282	505.25
283.513	498.25
283.745	457.25
283.976	413.25
284.207	426.25
284.439	458.25
284.67	441.25
284.901	440.25
285.132	451.25
285.364	440.25
285.595	444.25
285.826	444.25
286.057	454.25
286.288	443.25
286.52	468.25
286.751	477.25
286.982	502.25
287.213	462.25
287.444	434.25
287.675	448.25
287.906	459.25
288.138	488.25
288.369	468.25
288.6	432.25
288.831	445.25
289.062	437.25
289.293	455.25
289.524	443.25
289.755	456.25
289.986	461.25
290.217	424.25
290.448	466.25
290.679	481.25
290.91	452.25
291.141	463.25
291.371	473.25
291.602	481.25
291.833	491.25
292.064	467.25
292.295	476.25
292.526	512.25
292.757	502.25
292.987	478.25
293.218	503.25
293.449	535.25
293.68	572.25
293.91	605.25
294.141	570.25
294.372	539.25
294.603	553.25
294.833	550.25
295.064	542.25
295.295	504.25
295.525	462.25
295.756	442.25
295.987	434.25
296.217	443.25
296.448	445.25
296.679	458.25
296.909	468.25
297.14	457.25
297.37	475.25
297.601	510.25
297.831	527.25
298.062	522.25
298.292	492.25
298.523	468.25
298.753	482.25
298.984	478.25
299.214	470.25
299.445	492.25
299.675	500.25
299.905	491.25
300.136	455.25
300.366	472.25
300.597	456.25
300.827	463.25
301.057	485.25
301.288	513.25
301.518	527.25
301.748	515.25
301.979	535.25
302.209	566.25
302.439	560.25
302.669	600.25
302.9	542.25
303.13	530.25
303.36	513.25
303.59	514.25
303.82	487.25
304.051	530.25
304.281	512.25
304.511	533.25
304.741	573.25
304.971	609.25
305.201	650.25
305.431	555.25
305.661	482.25
305.891	451.25
306.121	464.25
306.352	473.25
306.582	517.25
306.812	554.25
307.042	558.25
307.272	590.25
307.502	567.25
307.731	643.25
307.961	617.25
308.191	590.25
308.421	533.25
308.651	492.25
308.881	492.25
309.111	508.25
309.341	485.25
309.571	512.25
309.8	493.25
310.03	482.25
310.26	482.25
310.49	480.25
310.72	501.25
310.949	536.25
311.179	540.25
311.409	514.25
311.639	504.25
311.868	512.25
312.098	513.25
312.328	505.25
312.557	514.25
312.787	519.25
313.017	532.25
313.246	529.25
313.476	514.25
313.706	531.25
313.935	516.25
314.165	558.25
314.394	553.25
314.624	600.25
314.853	603.25
315.083	627.25
315.312	626.25
315.542	582.25
315.771	524.25
316.001	577.25
316.23	554.25
316.46	556.25
316.689	541.25
316.919	544.25
317.148	529.25
317.377	542.25
317.607	601.25
317.836	657.25
318.065	618.25
318.295	610.25
318.524	590.25
318.753	589.25
318.983	558.25
319.212	562.25
319.441	536.25
319.67	570.25
319.9	562.25
320.129	597.25
320.358	603.25
320.587	614.25
320.816	622.25
321.046	606.25
321.275	584.25
321.504	612.25
321.733	630.25
321.962	613.25
322.191	561.25
322.42	561.25
322.649	538.25
322.878	539.25
323.108	555.25
323.337	581.25
323.566	582.25
323.795	576.25
324.024	572.25
324.253	526.25
324.482	538.25
324.71	567.25
324.939	540.25
325.168	556.25
325.397	560.25
325.626	581.25
325.855	574.25
326.084	530.25
326.313	562.25
326.542	579.25
326.77	598.25
326.999	567.25
327.228	557.25
327.457	541.25
327.686	555.25
327.914	557.25
328.143	577.25
328.372	557.25
328.6	558.25
328.829	572.25
329.058	535.25
329.287	548.25
329.515	555.25
329.744	577.25
329.972	623.25
330.201	612.25
330.43	610.25
330.658	581.25
330.887	587.25
331.115	612.25
331.344	604.25
331.572	579.25
331.801	595.25
332.03	580.25
332.258	609.25
332.486	579.25
332.715	611.25
332.943	611.25
333.172	598.25
333.4	597.25
333.629	617.25
333.857	674.25
334.085	753.25
334.314	811.25
334.542	848.25
334.771	772.25
334.999	695.25
335.227	663.25
335.455	621.25
335.684	629.25
335.912	643.25
336.14	658.25
336.369	616.25
336.597	607.25
336.825	608.25
337.053	622.25
337.281	663.25
337.51	705.25
337.738	700.25
337.966	649.25
338.194	589.25
338.422	592.25
338.65	596.25
338.878	589.25
339.106	573.25
339.334	572.25
339.562	563.25
339.79	573.25
340.018	605.25
340.246	641.25
340.474	626.25
340.702	621.25
340.93	626.25
341.158	607.25
341.386	622.25
341.614	585.25
341.842	598.25
342.07	605.25
342.298	591.25
342.526	595.25
342.754	575.25
342.981	576.25
343.209	576.25
343.437	602.25
343.665	585.25
343.893	619.25
344.12	635.25
344.348	631.25
344.576	607.25
344.804	612.25
345.031	588.25
345.259	603.25
345.487	549.25
345.714	548.25
345.942	551.25
346.17	580.25
346.397	578.25
346.625	554.25
346.853	521.25
347.08	518.25
347.308	539.25
347.535	570.25
347.763	585.25
347.99	565.25
348.218	537.25
348.445	549.25
348.673	573.25
348.9	567.25
349.128	596.25
349.355	576.25
349.583	600.25
349.81	584.25
350.037	549.25
350.265	516.25
350.492	537.25
350.72	572.25
350.947	592.25
351.174	578.25
351.402	534.25
351.629	518.25
351.856	522.25
352.083	509.25
352.311	532.25
352.538	557.25
352.765	576.25
352.992	581.25
353.22	549.25
353.447	529.25
353.674	573.25
353.901	573.25
354.128	543.25
354.355	542.25
354.583	573.25
354.81	588.25
355.037	595.25
355.264	588.25
355.491	560.25
355.718	560.25
355.945	539.25
356.172	542.25
356.399	551.25
356.626	557.25
356.853	576.25
357.08	642.25
357.307	666.25
357.534	644.25
357.761	585.25
357.988	551.25
358.215	541.25
358.441	544.25
358.668	544.25
358.895	552.25
359.122	608.25
359.349	641.25
359.576	626.25
359.802	565.25
360.029	557.25
360.256	564.25
360.483	540.25
360.709	584.25
360.936	604.25
361.163	640.25
361.39	676.25
361.616	700.25
361.843	700.25
362.07	620.25
362.296	570.25
362.523	569.25
362.749	557.25
362.976	604.25
363.203	603.25
363.429	571.25
363.656	547.25
363.882	604.25
364.109	654.25
364.335	672.25
364.562	605.25
364.788	605.25
365.015	581.25
365.241	580.25
365.468	582.25
365.694	605.25
365.92	608.25
366.147	596.25
366.373	562.25
366.599	576.25
366.826	566.25
367.052	573.25
367.278	577.25
367.505	578.25
367.731	611.25
367.957	599.25
368.184	624.25
368.41	653.25
368.636	664.25
368.862	657.25
369.089	670.25
369.315	630.25
369.541	600.25
369.767	590.25
369.993	591.25
370.219	602.25
370.445	599.25
370.672	668.25
370.898	653.25
371.124	662.25
371.35	633.25
371.576	652.25
371.802	636.25
372.028	631.25
372.254	598.25
372.48	585.25
372.706	599.25
372.932	597.25
373.158	605.25
373.384	606.25
373.61	658.25
373.835	655.25
374.061	650.25
374.287	621.25
374.513	630.25
374.739	631.25
374.965	638.25
375.191	643.25
375.416	680.25
375.642	668.25
375.868	715.25
376.094	681.25
376.319	666.25
376.545	635.25
376.771	667.25
376.997	696.25
377.222	683.25
377.448	666.25
377.674	666.25
377.899	681.25
378.125	716.25
378.35	697.25
378.576	639.25
378.802	610.25
379.027	603.25
379.253	638.25
379.478	618.25
379.704	637.25
379.929	646.25
380.155	648.25
380.38	648.25
380.606	668.25
380.831	661.25
381.057	696.25
381.282	698.25
381.507	680.25
381.733	730.25
381.958	755.25
382.184	685.25
382.409	655.25
382.634	689.25
382.86	684.25
383.085	672.25
383.31	687.25
383.535	783.25
383.761	797.25
383.986	727.25
384.211	710.25
384.436	713.25
384.662	768.25
384.887	782.25
385.112	726.25
385.337	709.25
385.562	736.25
385.787	723.25
386.013	752.25
386.238	761.25
386.463	772.25
386.688	825.25
386.913	860.25
387.138	822.25
387.363	772.25
387.588	732.25
387.813	779.25
388.038	788.25
388.263	803.25
388.488	758.25
388.713	757.25
388.938	717.25
389.163	725.25
389.387	734.25
389.612	721.25
389.837	770.25
390.062	762.25
390.287	765.25
390.512	740.25
390.736	759.25
390.961	718.25
391.186	708.25
391.411	744.25
391.636	756.25
391.86	732.25
392.085	763.25
392.31	760.25
392.534	752.25
392.759	774.25
392.984	777.25
393.208	797.25
393.433	782.25
393.658	793.25
393.882	782.25
394.107	811.25
394.331	768.25
394.556	754.25
394.78	774.25
395.005	785.25
395.229	820.25
395.454	857.25
395.678	864.25
395.903	833.25
396.127	814.25
396.352	813.25
396.576	839.25
396.801	819.25
397.025	846.25
397.249	837.25
397.474	812.25
397.698	822.25
397.922	864.25
398.147	913.25
398.371	912.25
398.595	897.25
398.82	856.25
399.044	873.25
399.268	923.25
399.492	972.25
399.717	1003.25
399.941	1002.25
400.165	981.25
400.389	971.25
400.613	976.25
400.837	1136.25
401.062	1202.25
401.286	1027.25
401.51	970.25
401.734	991.25
401.958	947.25
402.182	884.25
402.406	868.25
402.63	866.25
402.854	888.25
403.078	884.25
403.302	870.25
403.526	920.25
403.75	909.25
403.974	936.25
404.198	963.25
404.422	957.25
404.645	993.25
404.869	964.25
405.093	912.25
405.317	894.25
405.541	924.25
405.765	937.25
405.988	910.25
406.212	961.25
406.436	961.25
406.66	1004.25
406.883	1023.25
407.107	1145.25
407.331	1170.25
407.555	1269.25
407.778	1119.25
408.002	973.25
408.226	968.25
408.449	977.25
408.673	932.25
408.896	965.25
409.12	965.25
409.344	929.25
409.567	919.25
409.791	955.25
410.014	969.25
410.238	1011.25
410.461	1038.25
410.685	954.25
410.908	946.25
411.132	971.25
411.355	946.25
411.578	936.25
411.802	924.25
412.025	918.25
412.249	931.25
412.472	925.25
412.695	905.25
412.919	922.25
413.142	892.25
413.365	925.25
413.589	970.25
413.812	1012.25
414.035	995.25
414.258	946.25
414.482	942.25
414.705	900.25
414.928	908.25
415.151	906.25
415.374	925.25
415.597	930.25
415.821	941.25
416.044	926.25
416.267	923.25
416.49	939.25
416.713	911.25
416.936	948.25
417.159	995.25
417.382	961.25
417.605	929.25
417.828	924.25
418.051	933.25
418.274	941.25
418.497	935.25
418.72	937.25
418.943	931.25
419.166	942.25
419.389	972.25
419.611	929.25
419.834	947.25
420.057	956.25
420.28	941.25
420.503	926.25
420.726	932.25
420.948	938.25
421.171	915.25
421.394	932.25
421.617	985.25
421.839	978.25
422.062	952.25
422.285	938.25
422.507	948.25
422.73	903.25
422.953	866.25
423.175	893.25
423.398	922.25
423.621	892.25
423.843	939.25
424.066	969.25
424.288	1027.25
424.511	1035.25
424.733	994.25
424.956	942.25
425.178	915.25
425.401	944.25
425.623	929.25
425.846	940.25
426.068	956.25
426.291	961.25
426.513	958.25
426.735	972.25
426.958	1053.25
427.18	1044.25
427.402	1009.25
427.625	994.25
427.847	981.25
428.069	907.25
428.292	916.25
428.514	908.25
428.736	906.25
428.958	888.25
429.181	921.25
429.403	1081.25
429.625	1213.25
429.847	1038.25
430.069	954.25
430.292	1052.25
430.514	1052.25
430.736	949.25
430.958	980.25
431.18	904.25
431.402	874.25
431.624	845.25
431.846	803.25
432.068	702.25
432.29	757.25
432.512	771.25
432.734	882.25
432.956	952.25
433.178	956.25
433.4	945.25
433.622	944.25
433.844	887.25
434.066	840.25
434.287	792.25
434.509	774.25
434.731	826.25
434.953	902.25
435.175	921.25
435.397	892.25
435.618	879.25
435.84	858.25
436.062	850.25
436.284	901.25
436.505	920.25
436.727	970.25
436.949	920.25
437.17	891.25
437.392	889.25
437.614	857.25
437.835	789.25
438.057	831.25
438.278	842.25
438.5	855.25
438.721	876.25
438.943	937.25
439.165	916.25
439.386	928.25
439.608	956.25
439.829	934.25
440.05	965.25
440.272	972.25
440.493	967.25
440.715	974.25
440.936	1008.25
441.158	1060.25
441.379	1038.25
441.6	1086.25
441.822	1029.25
442.043	1019.25
442.264	1013.25
442.486	969.25
442.707	982.25
442.928	961.25
443.149	985.25
443.371	999.25
443.592	1026.25
443.813	1007.25
444.034	1011.25
444.255	1028.25
444.476	1053.25
444.698	1000.25
444.919	1023.25
445.14	1124.25
445.361	1090.25
445.582	1069.25
445.803	1067.25
446.024	1048.25
446.245	1072.25
446.466	1059.25
446.687	1039.25
446.908	1067.25
447.129	1003.25
447.35	989.25
447.571	987.25
447.792	969.25
448.013	953.25
448.234	953.25
448.455	999.25
448.675	961.25
448.896	908.25
449.117	910.25
449.338	937.25
449.559	950.25
449.779	997.25
450	1024.25
450.221	1026.25
450.442	1011.25
450.662	919.25
450.883	878.25
451.104	880.25
451.324	880.25
451.545	883.25
451.766	858.25
451.986	835.25
452.207	848.25
452.428	800.25
452.648	788.25
452.869	794.25
453.089	801.25
453.31	785.25
453.53	771.25
453.751	750.25
453.971	709.25
454.192	740.25
454.412	770.25
454.633	776.25
454.853	779.25
455.073	786.25
455.294	786.25
455.514	759.25
455.734	759.25
455.955	748.25
456.175	762.25
456.395	722.25
456.616	741.25
456.836	729.25
457.056	728.25
457.276	744.25
457.497	705.25
457.717	706.25
457.937	682.25
458.157	712.25
458.377	714.25
458.598	687.25
458.818	652.25
459.038	683.25
459.258	708.25
459.478	705.25
459.698	686.25
459.918	729.25
460.138	791.25
460.358	828.25
460.578	837.25
460.798	842.25
461.018	884.25
461.238	880.25
461.458	829.25
461.678	817.25
461.898	825.25
462.118	803.25
462.338	843.25
462.558	840.25
462.777	822.25
462.997	855.25
463.217	900.25
463.437	878.25
463.657	846.25
463.876	834.25
464.096	812.25
464.316	840.25
464.536	860.25
464.755	882.25
464.975	858.25
465.195	860.25
465.414	878.25
465.634	867.25
465.854	904.25
466.073	969.25
466.293	929.25
466.512	838.25
466.732	877.25
466.951	905.25
467.171	920.25
467.391	898.25
467.61	881.25
467.829	913.25
468.049	961.25
468.268	1043.25
468.488	990.25
468.707	927.25
468.927	884.25
469.146	902.25
469.365	916.25
469.585	922.25
469.804	907.25
470.023	924.25
470.243	980.25
470.462	940.25
470.681	912.25
470.901	917.25
471.12	960.25
471.339	944.25
471.558	930.25
471.777	912.25
471.997	900.25
472.216	845.25
472.435	763.25
472.654	764.25
472.873	790.25
473.092	825.25
473.311	838.25
473.53	840.25
473.749	821.25
473.968	840.25
474.187	842.25
474.406	845.25
474.625	872.25
474.844	874.25
475.063	870.25
475.282	860.25
475.501	820.25
475.72	839.25
475.939	884.25
476.158	864.25
476.377	870.25
476.596	845.25
476.814	834.25
477.033	811.25
477.252	803.25
477.471	907.25
477.69	896.25
477.908	930.25
478.127	993.25
478.346	1005.25
478.564	993.25
478.783	980.25
479.002	1011.25
479.22	983.25
479.439	1013.25
479.658	1037.25
479.876	992.25
480.095	906.25
480.313	885.25
480.532	870.25
480.751	887.25
480.969	848.25
481.188	774.25
481.406	774.25
481.624	762.25
481.843	793.25
482.061	813.25
482.28	877.25
482.498	926.25
482.717	848.25
482.935	875.25
483.153	982.25
483.372	1020.25
483.59	1021.25
483.808	962.25
484.027	964.25
484.245	986.25
484.463	1227.25
484.681	1317.25
484.9	1032.25
485.118	960.25
485.336	911.25
485.554	902.25
485.772	872.25
485.99	885.25
486.209	892.25
486.427	898.25
486.645	909.25
486.863	1024.25
487.081	1043.25
487.299	1010.25
487.517	1021.25
487.735	1111.25
487.953	1204.25
488.171	1147.25
488.389	1114.25
488.607	1064.25
488.825	1126.25
489.043	1068.25
489.261	985.25
489.479	1038.25
489.696	1054.25
489.914	1029.25
490.132	1038.25
490.35	1075.25
490.568	1147.25
490.786	1155.25
491.003	1210.25
491.221	1237.25
491.439	1249.25
491.657	1323.25
491.874	1366.25
492.092	1448.25
492.31	1513.25
492.527	1451.25
492.745	1346.25
492.963	1323.25
493.18	1336.25
493.398	1342.25
493.615	1333.25
493.833	1290.25
494.05	1249.25
494.268	1226.25
494.485	1218.25
494.703	1217.25
494.92	1217.25
495.138	1215.25
495.355	1249.25
495.573	1277.25
495.79	1262.25
496.008	1283.25
496.225	1248.25
496.442	1228.25
496.66	1210.25
496.877	1222.25
497.094	1241.25
497.312	1234.25
497.529	1213.25
497.746	1181.25
497.963	1270.25
498.181	1292.25
498.398	1266.25
498.615	1221.25
498.832	1163.25
499.049	1198.25
499.267	1179.25
499.484	1259.25
499.701	1318.25
499.918	1370.25
500.135	1463.25
500.352	1566.25
500.569	1560.25
500.786	1708.25
501.003	1565.25
501.22	1420.25
501.437	1413.25
501.654	1422.25
501.871	1345.25
502.088	1168.25
502.305	1162.25
502.522	1149.25
502.739	1111.25
502.956	1073.25
503.172	1049.25
503.389	1002.25
503.606	997.25
503.823	1004.25
504.04	982.25
504.256	977.25
504.473	1016.25
504.69	1015.25
504.907	979.25
505.123	961.25
505.34	1073.25
505.557	1347.25
505.773	1118.25
505.99	977.25
506.207	916.25
506.423	911.25
506.64	889.25
506.856	893.25
507.073	1018.25
507.289	1061.25
507.506	1034.25
507.722	890.25
507.939	848.25
508.155	848.25
508.372	862.25
508.588	838.25
508.805	798.25
509.021	802.25
509.238	780.25
509.454	767.25
509.67	763.25
509.887	737.25
510.103	716.25
510.319	749.25
510.536	777.25
510.752	770.25
510.968	782.25
511.184	788.25
511.401	741.25
511.617	717.25
511.833	724.25
512.049	712.25
512.265	714.25
512.481	722.25
512.698	742.25
512.914	770.25
513.13	718.25
513.346	688.25
513.562	700.25
513.778	699.25
513.994	755.25
514.21	760.25
514.426	779.25
514.642	792.25
514.858	742.25
515.074	702.25
515.29	718.25
515.506	764.25
515.721	728.25
515.937	746.25
516.153	787.25
516.369	766.25
516.585	739.25
516.801	713.25
517.016	715.25
517.232	770.25
517.448	772.25
517.664	788.25
517.879	802.25
518.095	813.25
518.311	787.25
518.527	749.25
518.742	763.25
518.958	749.25
519.173	759.25
519.389	775.25
519.605	795.25
519.82	782.25
520.036	780.25
520.251	741.25
520.467	761.25
520.682	813.25
520.898	801.25
521.113	757.25
521.329	726.25
521.544	752.25
521.76	726.25
521.975	718.25
522.19	725.25
522.406	730.25
522.621	925.25
522.836	853.25
523.052	724.25
523.267	749.25
523.482	748.25
523.698	745.25
523.913	732.25
524.128	740.25
524.343	817.25
524.559	811.25
524.774	803.25
524.989	760.25
525.204	754.25
525.419	716.25
525.634	737.25
525.849	736.25
526.064	710.25
526.28	697.25
526.495	680.25
526.71	646.25
526.925	647.25
527.14	645.25
527.355	629.25
527.57	631.25
527.785	646.25
527.999	662.25
528.214	677.25
528.429	685.25
528.644	742.25
528.859	752.25
529.074	818.25
529.289	874.25
529.503	856.25
529.718	790.25
529.933	729.25
530.148	654.25
530.363	634.25
530.577	637.25
530.792	619.25
531.007	622.25
531.221	620.25
531.436	631.25
531.651	667.25
531.865	672.25
532.08	641.25
532.295	638.25
532.509	634.25
532.724	633.25
532.938	654.25
533.153	700.25
533.367	685.25
533.582	742.25
533.796	723.25
534.011	712.25
534.225	681.25
534.44	648.25
534.654	652.25
534.868	644.25
535.083	672.25
535.297	696.25
535.511	684.25
535.726	678.25
535.94	672.25
536.154	654.25
536.369	640.25
536.583	618.25
536.797	598.25
537.011	613.25
537.225	608.25
537.44	596.25
537.654	644.25
537.868	614.25
538.082	609.25
538.296	608.25
538.51	642.25
538.724	676.25
538.938	696.25
539.153	744.25
539.367	730.25
539.581	705.25
539.795	673.25
540.009	645.25
540.222	642.25
540.436	686.25
540.65	754.25
540.864	799.25
541.078	807.25
541.292	818.25
541.506	889.25
541.72	976.25
541.934	1035.25
542.147	1058.25
542.361	997.25
542.575	912.25
542.789	832.25
543.002	766.25
543.216	765.25
543.43	742.25
543.644	827.25
543.857	876.25
544.071	924.25
544.285	933.25
544.498	925.25
544.712	916.25
544.925	922.25
545.139	952.25
545.352	924.25
545.566	915.25
545.779	927.25
545.993	980.25
546.206	970.25
546.42	978.25
546.633	933.25
546.847	932.25
547.06	930.25
547.274	968.25
547.487	991.25
547.7	963.25
547.914	970.25
548.127	970.25
548.34	950.25
548.554	915.25
548.767	910.25
548.98	929.25
549.193	925.25
549.407	948.25
549.62	923.25
549.833	944.25
550.046	930.25
550.259	907.25
550.473	892.25
550.686	855.25
550.899	857.25
551.112	872.25
551.325	835.25
551.538	834.25
551.751	858.25
551.964	713.25
552.177	722.25
552.39	808.25
552.603	842.25
552.816	863.25
553.029	914.25
553.242	894.25
553.455	913.25
553.667	916.25
553.88	922.25
554.093	891.25
554.306	853.25
554.519	819.25
554.732	816.25
554.944	847.25
555.157	832.25
555.37	837.25
555.583	814.25
555.795	750.25
556.008	760.25
556.221	724.25
556.433	702.25
556.646	726.25
556.859	715.25
557.071	722.25
557.284	718.25
557.496	755.25
557.709	764.25
557.921	762.25
558.134	773.25
558.346	732.25
558.559	728.25
558.771	709.25
558.984	696.25
559.196	672.25
559.409	692.25
559.621	661.25
559.833	674.25
560.046	669.25
560.258	691.25
560.47	664.25
560.683	690.25
560.895	669.25
561.107	674.25
561.32	678.25
561.532	676.25
561.744	697.25
561.956	666.25
562.168	648.25
562.381	641.25
562.593	642.25
562.805	637.25
563.017	635.25
563.229	643.25
563.441	628.25
563.653	627.25
563.865	613.25
564.077	641.25
564.289	640.25
564.501	614.25
564.713	634.25
564.925	642.25
565.137	661.25
565.349	611.25
565.561	610.25
565.773	595.25
565.985	619.25
566.197	632.25
566.408	668.25
566.62	651.25
566.832	668.25
567.044	696.25
567.255	661.25
567.467	676.25
567.679	673.25
567.891	655.25
568.102	617.25
568.314	576.25
568.526	542.25
568.737	488.25
568.949	463.25
569.161	477.25
569.372	458.25
569.584	448.25
569.795	455.25
570.007	442.25
570.218	437.25
570.43	430.25
570.641	460.25
570.853	447.25
571.064	481.25
571.276	492.25
571.487	507.25
571.698	472.25
571.91	463.25
572.121	466.25
572.333	454.25
572.544	421.25
572.755	425.25
572.966	397.25
573.178	393.25
573.389	392.25
573.6	411.25
573.811	417.25
574.023	394.25
574.234	394.25
574.445	390.25
574.656	392.25
574.867	392.25
575.078	417.25
575.289	422.25
575.501	387.25
575.712	380.25
575.923	393.25
576.134	400.25
576.345	408.25
576.556	390.25
576.767	403.25
576.978	406.25
577.188	381.25
577.399	370.25
577.61	384.25
577.821	384.25
578.032	374.25
578.243	368.25
578.454	371.25
578.665	366.25
578.875	336.25
579.086	349.25
579.297	350.25
579.508	362.25
579.718	341.25
579.929	346.25
580.14	333.25
580.35	344.25
580.561	361.25
580.772	392.25
580.982	372.25
581.193	370.25
581.403	353.25
581.614	344.25
581.825	340.25
582.035	345.25
582.246	344.25
582.456	343.25
582.667	344.25
582.877	349.25
583.087	345.25
583.298	328.25
583.508	330.25
583.719	326.25
583.929	312.25
584.139	335.25
584.35	304.25
584.56	333.25
584.77	326.25
584.981	315.25
585.191	312.25
585.401	345.25
585.611	328.25
585.821	322.25
586.032	342.25
586.242	311.25
586.452	321.25
586.662	316.25
586.872	328.25
587.082	306.25
587.292	325.25
587.502	349.25
587.713	340.25
587.923	315.25
588.133	306.25
588.343	309.25
588.553	306.25
588.762	298.25
588.972	312.25
589.182	339.25
589.392	326.25
589.602	324.25
589.812	296.25
590.022	324.25
590.232	300.25
590.441	308.25
590.651	330.25
590.861	304.25
591.071	312.25
591.281	321.25
591.49	325.25
591.7	311.25
591.91	316.25
592.119	304.25
592.329	310.25
592.539	322.25
592.748	324.25
592.958	319.25
593.167	344.25
593.377	333.25
593.587	348.25
593.796	337.25
594.006	306.25
594.215	358.25
594.424	342.25
594.634	347.25
594.843	360.25
595.053	342.25
595.262	310.25
595.472	344.25
595.681	327.25
595.89	317.25
596.1	308.25
596.309	344.25
596.518	339.25
596.727	351.25
596.937	335.25
597.146	320.25
597.355	301.25
597.564	336.25
597.774	286.25
597.983	276.25
598.192	282.25
598.401	286.25
598.61	286.25
598.819	284.25
599.028	298.25
599.237	288.25
599.446	294.25
599.655	290.25
599.864	291.25
600.073	277.25
600.282	303.25
600.491	292.25
600.7	311.25
600.909	288.25
601.118	295.25
601.327	324.25
601.536	355.25
601.745	355.25
601.953	328.25
602.162	362.25
602.371	352.25
602.58	370.25
602.789	357.25
602.997	355.25
603.206	348.25
603.415	355.25
603.623	364.25
603.832	329.25
604.041	323.25
604.249	314.25
604.458	298.25
604.666	288.25
604.875	301.25
605.084	337.25
605.292	330.25
605.501	359.25
605.709	364.25
605.918	370.25
606.126	362.25
606.334	365.25
606.543	372.25
606.751	358.25
606.96	375.25
607.168	347.25
607.376	356.25
607.585	347.25
607.793	358.25
608.001	362.25
608.21	363.25
608.418	341.25
608.626	360.25
608.834	362.25
609.043	378.25
609.251	370.25
609.459	356.25
609.667	376.25
609.875	372.25
610.083	378.25
610.291	371.25
610.499	361.25
610.707	359.25
610.916	372.25
611.124	365.25
611.332	358.25
611.54	369.25
611.748	368.25
611.955	361.25
612.163	366.25
612.371	365.25
612.579	380.25
612.787	356.25
612.995	373.25
613.203	371.25
613.411	357.25
613.618	360.25
613.826	364.25
614.034	364.25
614.242	364.25
614.449	345.25
614.657	372.25
614.865	356.25
615.072	345.25
615.28	347.25
615.488	341.25
615.695	341.25
615.903	350.25
616.111	371.25
616.318	354.25
616.526	354.25
616.733	345.25
616.941	354.25
617.148	363.25
617.356	352.25
617.563	350.25
617.771	333.25
617.978	340.25
618.185	355.25
618.393	344.25
618.6	317.25
618.807	340.25
619.015	355.25
619.222	336.25
619.429	337.25
619.637	316.25
619.844	301.25
620.051	295.25
620.258	323.25
620.466	320.25
620.673	338.25
620.88	343.25
621.087	326.25
621.294	297.25
621.501	283.25
621.708	296.25
621.915	318.25
622.122	316.25
622.329	336.25
622.536	357.25
622.743	342.25
622.95	329.25
623.157	308.25
623.364	334.25
623.571	329.25
623.778	328.25
623.985	319.25
624.192	320.25
624.399	312.25
624.606	317.25
624.812	312.25
625.019	301.25
625.226	283.25
625.433	294.25
625.639	290.25
625.846	246.25
626.053	238.25
626.259	252.25
626.466	243.25
626.673	222.25
626.879	251.25
627.086	238.25
627.293	281.25
627.499	278.25
627.706	295.25
627.912	306.25
628.119	309.25
628.325	311.25
628.532	304.25
628.738	285.25
628.945	288.25
629.151	282.25
629.357	293.25
629.564	276.25
629.77	287.25
629.976	292.25
630.183	248.25
630.389	288.25
630.595	281.25
630.802	295.25
631.008	283.25
631.214	279.25
631.42	273.25
631.627	276.25
631.833	249.25
632.039	260.25
632.245	278.25
632.451	267.25
632.657	268.25
632.863	280.25
633.069	288.25
633.275	257.25
633.481	252.25
633.688	244.25
633.893	277.25
634.099	245.25
634.305	244.25
634.511	242.25
634.717	244.25
634.923	227.25
635.129	237.25
635.335	242.25
635.541	235.25
635.747	241.25
635.952	254.25
636.158	269.25
636.364	264.25
636.57	266.25
636.775	264.25
636.981	261.25
637.187	256.25
637.392	266.25
637.598	260.25
637.804	264.25
638.009	257.25
638.215	245.25
638.421	265.25
638.626	268.25
638.832	248.25
639.037	240.25
639.243	254.25
639.448	235.25
639.654	242.25
639.859	242.25
640.065	245.25
640.27	248.25
640.475	256.25
640.681	253.25
640.886	246.25
641.091	245.25
641.297	258.25
641.502	246.25
641.707	274.25
641.913	251.25
642.118	252.25
642.323	233.25
642.528	238.25
642.733	244.25
642.939	259.25
643.144	258.25
643.349	245.25
643.554	248.25
643.759	234.25
643.964	235.25
644.169	222.25
644.374	227.25
644.579	230.25
644.784	256.25
644.989	265.25
645.194	242.25
645.399	248.25
645.604	235.25
645.809	264.25
646.014	250.25
646.219	243.25
646.423	234.25
646.628	228.25
646.833	247.25
647.038	261.25
647.243	253.25
647.447	235.25
647.652	255.25
647.857	232.25
648.062	244.25
648.266	268.25
648.471	255.25
648.676	243.25
648.88	239.25
649.085	250.25
649.289	238.25
649.494	252.25
649.698	235.25
649.903	232.25
650.107	228.25
650.312	256.25
650.516	213.25
650.721	214.25
650.925	226.25
651.13	220.25
651.334	230.25
651.539	232.25
651.743	221.25
651.947	226.25
652.152	222.25
652.356	198.25
652.56	201.25
652.764	205.25
652.969	227.25
653.173	212.25
653.377	203.25
653.581	194.25
653.785	208.25
653.99	214.25
654.194	206.25
654.398	195.25
654.602	211.25
654.806	208.25
655.01	216.25
655.214	204.25
655.418	220.25
655.622	199.25
655.826	202.25
656.03	229.25
656.234	228.25
656.438	226.25
656.642	227.25
656.846	208.25
657.049	216.25
657.253	200.25
657.457	179.25
657.661	189.25
657.865	160.25
658.068	173.25
658.272	166.25
658.476	174.25
658.68	139.25
658.883	159.25
659.087	153.25
659.291	141.25
659.494	148.25
659.698	139.25
659.901	128.25
660.105	126.25
660.309	139.25
660.512	130.25
660.716	114.25
660.919	119.25
661.123	121.25
661.326	120.25
661.53	108.25
661.733	111.25
661.936	104.25
662.14	93.25
662.343	108.25
662.546	86.25
662.75	101.25
662.953	101.25
663.156	97.25
663.36	90.25
663.563	101.25
663.766	88.25
663.969	92.25
664.173	83.25
664.376	73.25
664.579	86.25
664.782	86.25
664.985	77.25
665.188	78.25
665.391	95.25
665.594	70.25
665.797	85.25
666	75.25
666.203	88.25
666.406	83.25
666.609	89.25
666.812	109.25
667.015	76.25
667.218	87.25
667.421	84.25
667.624	78.25
667.827	91.25
668.03	83.25
668.232	83.25
668.435	96.25
668.638	69.25
668.841	84.25
669.043	76.25
669.246	70.25
669.449	77.25
669.651	92.25
669.854	90.25
670.057	93.25
670.259	89.25
670.462	102.25
670.665	87.25
670.867	80.25
671.07	98.25
671.272	77.25
671.475	100.25
671.677	84.25
671.88	88.25
672.082	90.25
672.284	86.25
672.487	85.25
672.689	73.25
672.892	73.25
