Data from WStandard_LampEnergy10_LIBS07252019.E.O._I.C._HRD10591_15-53-58-928.txt Node
Date: Thu Jul 25 15:53:58 EDT 2019
User: cochatt
Spectrometer: HR+D1059
Trigger mode: 1
Integration Time (sec): 1.000000E-1
Scans to average: 1
Electric dark correction enabled: true
Nonlinearity correction enabled: false
Boxcar width: 0
XAxis mode: Wavelengths
Number of Pixels in Spectrum: 2048
>>>>>Begin Spectral Data<<<<<
223.165	-15.44
223.4	-15.44
223.635	-15.44
223.869	-12.44
224.104	-12.44
224.338	-6.44
224.573	-14.44
224.808	-13.44
225.042	3.56
225.277	-8.44
225.511	-8.44
225.746	-5.44
225.98	0.56
226.215	8.56
226.449	-4.44
226.683	25.56
226.918	20.56
227.152	42.56
227.387	36.56
227.621	31.56
227.856	47.56
228.09	32.56
228.324	65.56
228.559	63.56
228.793	76.56
229.027	145.56
229.262	139.56
229.496	147.56
229.73	142.56
229.964	157.56
230.199	179.56
230.433	182.56
230.667	171.56
230.901	185.56
231.136	187.56
231.37	189.56
231.604	189.56
231.838	165.56
232.072	163.56
232.306	191.56
232.541	177.56
232.775	187.56
233.009	209.56
233.243	203.56
233.477	189.56
233.711	210.56
233.945	204.56
234.179	197.56
234.413	214.56
234.647	212.56
234.881	198.56
235.115	202.56
235.349	185.56
235.583	200.56
235.817	192.56
236.051	182.56
236.285	190.56
236.519	229.56
236.753	235.56
236.987	236.56
237.221	227.56
237.455	239.56
237.689	221.56
237.922	243.56
238.156	225.56
238.39	227.56
238.624	242.56
238.858	243.56
239.091	280.56
239.325	258.56
239.559	281.56
239.793	307.56
240.027	332.56
240.26	299.56
240.494	247.56
240.728	250.56
240.961	253.56
241.195	255.56
241.429	257.56
241.662	271.56
241.896	251.56
242.13	255.56
242.363	292.56
242.597	296.56
242.83	280.56
243.064	283.56
243.298	305.56
243.531	280.56
243.765	282.56
243.998	280.56
244.232	263.56
244.465	265.56
244.699	260.56
244.932	281.56
245.166	303.56
245.399	323.56
245.633	285.56
245.866	278.56
246.099	301.56
246.333	305.56
246.566	316.56
246.8	338.56
247.033	353.56
247.266	313.56
247.5	328.56
247.733	336.56
247.966	347.56
248.2	372.56
248.433	374.56
248.666	391.56
248.899	406.56
249.133	441.56
249.366	478.56
249.599	408.56
249.832	365.56
250.066	373.56
250.299	373.56
250.532	391.56
250.765	352.56
250.998	337.56
251.231	371.56
251.465	375.56
251.698	362.56
251.931	336.56
252.164	344.56
252.397	359.56
252.63	382.56
252.863	327.56
253.096	330.56
253.329	345.56
253.562	371.56
253.795	383.56
254.028	373.56
254.261	370.56
254.494	346.56
254.727	359.56
254.96	359.56
255.193	383.56
255.426	427.56
255.659	456.56
255.892	483.56
256.124	408.56
256.357	403.56
256.59	413.56
256.823	424.56
257.056	428.56
257.289	507.56
257.521	531.56
257.754	479.56
257.987	470.56
258.22	497.56
258.452	455.56
258.685	427.56
258.918	401.56
259.151	415.56
259.383	394.56
259.616	372.56
259.849	385.56
260.081	427.56
260.314	466.56
260.547	494.56
260.779	476.56
261.012	458.56
261.244	419.56
261.477	407.56
261.71	421.56
261.942	390.56
262.175	403.56
262.407	402.56
262.64	385.56
262.872	387.56
263.105	369.56
263.337	385.56
263.57	379.56
263.802	379.56
264.035	372.56
264.267	349.56
264.499	347.56
264.732	364.56
264.964	390.56
265.197	413.56
265.429	429.56
265.661	475.56
265.894	513.56
266.126	520.56
266.358	474.56
266.591	495.56
266.823	497.56
267.055	481.56
267.287	470.56
267.52	468.56
267.752	463.56
267.984	472.56
268.216	467.56
268.448	460.56
268.681	465.56
268.913	440.56
269.145	409.56
269.377	421.56
269.609	460.56
269.841	549.56
270.073	604.56
270.306	635.56
270.538	658.56
270.77	564.56
271.002	503.56
271.234	482.56
271.466	499.56
271.698	555.56
271.93	647.56
272.162	589.56
272.394	557.56
272.626	529.56
272.858	467.56
273.09	419.56
273.322	416.56
273.553	412.56
273.785	405.56
274.017	440.56
274.249	469.56
274.481	450.56
274.713	419.56
274.945	423.56
275.176	438.56
275.408	412.56
275.64	424.56
275.872	420.56
276.104	458.56
276.335	510.56
276.567	535.56
276.799	546.56
277.031	508.56
277.262	504.56
277.494	534.56
277.726	567.56
277.957	529.56
278.189	469.56
278.421	466.56
278.652	448.56
278.884	442.56
279.115	445.56
279.347	456.56
279.579	446.56
279.81	454.56
280.042	497.56
280.273	507.56
280.505	512.56
280.736	529.56
280.968	499.56
281.199	453.56
281.431	425.56
281.662	434.56
281.894	451.56
282.125	434.56
282.356	465.56
282.588	474.56
282.819	465.56
283.051	504.56
283.282	523.56
283.513	511.56
283.745	453.56
283.976	435.56
284.207	440.56
284.439	425.56
284.67	456.56
284.901	482.56
285.132	468.56
285.364	473.56
285.595	470.56
285.826	459.56
286.057	452.56
286.288	479.56
286.52	470.56
286.751	523.56
286.982	509.56
287.213	454.56
287.444	451.56
287.675	471.56
287.906	472.56
288.138	489.56
288.369	481.56
288.6	441.56
288.831	440.56
289.062	454.56
289.293	459.56
289.524	479.56
289.755	467.56
289.986	459.56
290.217	442.56
290.448	453.56
290.679	486.56
290.91	502.56
291.141	503.56
291.371	512.56
291.602	497.56
291.833	471.56
292.064	491.56
292.295	507.56
292.526	497.56
292.757	522.56
292.987	497.56
293.218	497.56
293.449	547.56
293.68	602.56
293.91	609.56
294.141	569.56
294.372	552.56
294.603	572.56
294.833	584.56
295.064	547.56
295.295	489.56
295.525	472.56
295.756	458.56
295.987	451.56
296.217	465.56
296.448	486.56
296.679	483.56
296.909	473.56
297.14	471.56
297.37	485.56
297.601	521.56
297.831	543.56
298.062	516.56
298.292	498.56
298.523	471.56
298.753	475.56
298.984	494.56
299.214	495.56
299.445	507.56
299.675	532.56
299.905	495.56
300.136	477.56
300.366	482.56
300.597	458.56
300.827	485.56
301.057	513.56
301.288	527.56
301.518	541.56
301.748	541.56
301.979	563.56
302.209	563.56
302.439	610.56
302.669	600.56
302.9	554.56
303.13	535.56
303.36	525.56
303.59	548.56
303.82	526.56
304.051	528.56
304.281	534.56
304.511	531.56
304.741	586.56
304.971	610.56
305.201	633.56
305.431	579.56
305.661	485.56
305.891	457.56
306.121	450.56
306.352	502.56
306.582	531.56
306.812	553.56
307.042	583.56
307.272	589.56
307.502	604.56
307.731	664.56
307.961	641.56
308.191	599.56
308.421	533.56
308.651	515.56
308.881	529.56
309.111	485.56
309.341	481.56
309.571	479.56
309.8	513.56
310.03	508.56
310.26	510.56
310.49	497.56
310.72	519.56
310.949	547.56
311.179	560.56
311.409	537.56
311.639	531.56
311.868	503.56
312.098	518.56
312.328	520.56
312.557	523.56
312.787	533.56
313.017	556.56
313.246	527.56
313.476	535.56
313.706	530.56
313.935	528.56
314.165	555.56
314.394	569.56
314.624	607.56
314.853	632.56
315.083	645.56
315.312	644.56
315.542	600.56
315.771	578.56
316.001	592.56
316.23	579.56
316.46	585.56
316.689	569.56
316.919	547.56
317.148	521.56
317.377	563.56
317.607	608.56
317.836	653.56
318.065	667.56
318.295	623.56
318.524	620.56
318.753	577.56
318.983	578.56
319.212	574.56
319.441	556.56
319.67	552.56
319.9	551.56
320.129	633.56
320.358	610.56
320.587	643.56
320.816	620.56
321.046	617.56
321.275	596.56
321.504	633.56
321.733	654.56
321.962	606.56
322.191	568.56
322.42	553.56
322.649	563.56
322.878	557.56
323.108	584.56
323.337	568.56
323.566	583.56
323.795	562.56
324.024	579.56
324.253	567.56
324.482	574.56
324.71	550.56
324.939	538.56
325.168	556.56
325.397	575.56
325.626	603.56
325.855	593.56
326.084	587.56
326.313	586.56
326.542	599.56
326.77	591.56
326.999	595.56
327.228	573.56
327.457	530.56
327.686	547.56
327.914	562.56
328.143	563.56
328.372	565.56
328.6	564.56
328.829	547.56
329.058	551.56
329.287	552.56
329.515	595.56
329.744	588.56
329.972	618.56
330.201	633.56
330.43	637.56
330.658	619.56
330.887	596.56
331.115	587.56
331.344	618.56
331.572	608.56
331.801	637.56
332.03	627.56
332.258	623.56
332.486	639.56
332.715	604.56
332.943	588.56
333.172	578.56
333.4	599.56
333.629	642.56
333.857	674.56
334.085	796.56
334.314	852.56
334.542	858.56
334.771	787.56
334.999	706.56
335.227	671.56
335.455	629.56
335.684	661.56
335.912	675.56
336.14	702.56
336.369	646.56
336.597	615.56
336.825	639.56
337.053	649.56
337.281	685.56
337.51	706.56
337.738	740.56
337.966	685.56
338.194	650.56
338.422	618.56
338.65	619.56
338.878	615.56
339.106	608.56
339.334	593.56
339.562	565.56
339.79	580.56
340.018	617.56
340.246	645.56
340.474	644.56
340.702	630.56
340.93	601.56
341.158	636.56
341.386	630.56
341.614	649.56
341.842	604.56
342.07	607.56
342.298	623.56
342.526	596.56
342.754	624.56
342.981	613.56
343.209	612.56
343.437	604.56
343.665	620.56
343.893	643.56
344.12	640.56
344.348	640.56
344.576	649.56
344.804	623.56
345.031	597.56
345.259	601.56
345.487	569.56
345.714	565.56
345.942	551.56
346.17	563.56
346.397	591.56
346.625	581.56
346.853	545.56
347.08	548.56
347.308	535.56
347.535	574.56
347.763	605.56
347.99	584.56
348.218	552.56
348.445	574.56
348.673	582.56
348.9	617.56
349.128	623.56
349.355	636.56
349.583	608.56
349.81	590.56
350.037	536.56
350.265	535.56
350.492	549.56
350.72	575.56
350.947	573.56
351.174	587.56
351.402	567.56
351.629	544.56
351.856	522.56
352.083	551.56
352.311	535.56
352.538	577.56
352.765	596.56
352.992	592.56
353.22	569.56
353.447	545.56
353.674	566.56
353.901	579.56
354.128	565.56
354.355	581.56
354.583	593.56
354.81	598.56
355.037	577.56
355.264	596.56
355.491	576.56
355.718	579.56
355.945	583.56
356.172	561.56
356.399	529.56
356.626	571.56
356.853	608.56
357.08	662.56
357.307	721.56
357.534	654.56
357.761	593.56
357.988	548.56
358.215	529.56
358.441	564.56
358.668	537.56
358.895	565.56
359.122	640.56
359.349	680.56
359.576	599.56
359.802	581.56
360.029	552.56
360.256	551.56
360.483	567.56
360.709	605.56
360.936	614.56
361.163	673.56
361.39	709.56
361.616	746.56
361.843	709.56
362.07	672.56
362.296	601.56
362.523	572.56
362.749	581.56
362.976	585.56
363.203	577.56
363.429	593.56
363.656	574.56
363.882	613.56
364.109	656.56
364.335	693.56
364.562	637.56
364.788	636.56
365.015	588.56
365.241	572.56
365.468	599.56
365.694	600.56
365.92	628.56
366.147	598.56
366.373	575.56
366.599	560.56
366.826	567.56
367.052	586.56
367.278	603.56
367.505	611.56
367.731	624.56
367.957	620.56
368.184	652.56
368.41	682.56
368.636	683.56
368.862	701.56
369.089	683.56
369.315	663.56
369.541	598.56
369.767	613.56
369.993	605.56
370.219	619.56
370.445	656.56
370.672	685.56
370.898	669.56
371.124	664.56
371.35	657.56
371.576	681.56
371.802	670.56
372.028	659.56
372.254	614.56
372.48	607.56
372.706	601.56
372.932	613.56
373.158	637.56
373.384	629.56
373.61	655.56
373.835	646.56
374.061	649.56
374.287	629.56
374.513	635.56
374.739	666.56
374.965	666.56
375.191	660.56
375.416	691.56
375.642	666.56
375.868	704.56
376.094	720.56
376.319	699.56
376.545	659.56
376.771	692.56
376.997	712.56
377.222	706.56
377.448	671.56
377.674	695.56
377.899	691.56
378.125	724.56
378.35	697.56
378.576	667.56
378.802	633.56
379.027	616.56
379.253	662.56
379.478	664.56
379.704	645.56
379.929	657.56
380.155	673.56
380.38	672.56
380.606	676.56
380.831	689.56
381.057	728.56
381.282	732.56
381.507	711.56
381.733	747.56
381.958	753.56
382.184	717.56
382.409	706.56
382.634	690.56
382.86	671.56
383.085	689.56
383.31	722.56
383.535	779.56
383.761	819.56
383.986	764.56
384.211	739.56
384.436	768.56
384.662	777.56
384.887	771.56
385.112	735.56
385.337	764.56
385.562	771.56
385.787	769.56
386.013	780.56
386.238	781.56
386.463	771.56
386.688	849.56
386.913	878.56
387.138	831.56
387.363	780.56
387.588	774.56
387.813	760.56
388.038	797.56
388.263	808.56
388.488	787.56
388.713	716.56
388.938	735.56
389.163	738.56
389.387	775.56
389.612	739.56
389.837	800.56
390.062	783.56
390.287	772.56
390.512	763.56
390.736	731.56
390.961	765.56
391.186	729.56
391.411	761.56
391.636	755.56
391.86	777.56
392.085	762.56
392.31	759.56
392.534	777.56
392.759	789.56
392.984	777.56
393.208	801.56
393.433	812.56
393.658	841.56
393.882	832.56
394.107	775.56
394.331	753.56
394.556	749.56
394.78	796.56
395.005	821.56
395.229	859.56
395.454	892.56
395.678	888.56
395.903	833.56
396.127	850.56
396.352	819.56
396.576	861.56
396.801	871.56
397.025	848.56
397.249	856.56
397.474	848.56
397.698	843.56
397.922	883.56
398.147	898.56
398.371	926.56
398.595	916.56
398.82	901.56
399.044	904.56
399.268	908.56
399.492	997.56
399.717	1005.56
399.941	993.56
400.165	1003.56
400.389	973.56
400.613	1007.56
400.837	1151.56
401.062	1217.56
401.286	1048.56
401.51	1001.56
401.734	1015.56
401.958	969.56
402.182	921.56
402.406	913.56
402.63	895.56
402.854	899.56
403.078	911.56
403.302	916.56
403.526	936.56
403.75	953.56
403.974	939.56
404.198	946.56
404.422	998.56
404.645	1037.56
404.869	987.56
405.093	924.56
405.317	930.56
405.541	962.56
405.765	953.56
405.988	965.56
406.212	973.56
406.436	960.56
406.66	1033.56
406.883	1045.56
407.107	1184.56
407.331	1267.56
407.555	1320.56
407.778	1144.56
408.002	995.56
408.226	968.56
408.449	974.56
408.673	970.56
408.896	962.56
409.12	978.56
409.344	991.56
409.567	947.56
409.791	973.56
410.014	979.56
410.238	1038.56
410.461	1094.56
410.685	977.56
410.908	955.56
411.132	1002.56
411.355	963.56
411.578	938.56
411.802	949.56
412.025	976.56
412.249	974.56
412.472	928.56
412.695	926.56
412.919	933.56
413.142	908.56
413.365	935.56
413.589	963.56
413.812	1003.56
414.035	996.56
414.258	978.56
414.482	921.56
414.705	913.56
414.928	908.56
415.151	925.56
415.374	934.56
415.597	940.56
415.821	957.56
416.044	953.56
416.267	987.56
416.49	918.56
416.713	931.56
416.936	963.56
417.159	998.56
417.382	1001.56
417.605	932.56
417.828	972.56
418.051	964.56
418.274	952.56
418.497	967.56
418.72	940.56
418.943	1010.56
419.166	938.56
419.389	979.56
419.611	960.56
419.834	929.56
420.057	969.56
420.28	969.56
420.503	967.56
420.726	980.56
420.948	978.56
421.171	932.56
421.394	953.56
421.617	980.56
421.839	1009.56
422.062	994.56
422.285	954.56
422.507	942.56
422.73	928.56
422.953	907.56
423.175	921.56
423.398	927.56
423.621	939.56
423.843	955.56
424.066	1022.56
424.288	1056.56
424.511	1071.56
424.733	1023.56
424.956	936.56
425.178	923.56
425.401	947.56
425.623	949.56
425.846	950.56
426.068	989.56
426.291	999.56
426.513	951.56
426.735	985.56
426.958	1082.56
427.18	1095.56
427.402	1015.56
427.625	1065.56
427.847	1025.56
428.069	940.56
428.292	952.56
428.514	943.56
428.736	913.56
428.958	919.56
429.181	949.56
429.403	1110.56
429.625	1247.56
429.847	1060.56
430.069	969.56
430.292	1068.56
430.514	1057.56
430.736	1026.56
430.958	1003.56
431.18	979.56
431.402	923.56
431.624	874.56
431.846	804.56
432.068	776.56
432.29	786.56
432.512	818.56
432.734	898.56
432.956	943.56
433.178	980.56
433.4	984.56
433.622	961.56
433.844	936.56
434.066	873.56
434.287	838.56
434.509	770.56
434.731	850.56
434.953	965.56
435.175	940.56
435.397	915.56
435.618	897.56
435.84	872.56
436.062	859.56
436.284	916.56
436.505	950.56
436.727	973.56
436.949	941.56
437.17	915.56
437.392	899.56
437.614	883.56
437.835	808.56
438.057	859.56
438.278	872.56
438.5	888.56
438.721	919.56
438.943	929.56
439.165	917.56
439.386	950.56
439.608	952.56
439.829	969.56
440.05	971.56
440.272	959.56
440.493	976.56
440.715	1000.56
440.936	1032.56
441.158	1075.56
441.379	1082.56
441.6	1053.56
441.822	1064.56
442.043	1004.56
442.264	993.56
442.486	959.56
442.707	938.56
442.928	977.56
443.149	1008.56
443.371	1029.56
443.592	1058.56
443.813	1063.56
444.034	1011.56
444.255	1004.56
444.476	1011.56
444.698	1060.56
444.919	1045.56
445.14	1140.56
445.361	1099.56
445.582	1115.56
445.803	1073.56
446.024	1083.56
446.245	1083.56
446.466	1060.56
446.687	1063.56
446.908	1083.56
447.129	1045.56
447.35	1023.56
447.571	993.56
447.792	993.56
448.013	970.56
448.234	961.56
448.455	1013.56
448.675	1004.56
448.896	951.56
449.117	908.56
449.338	964.56
449.559	963.56
449.779	965.56
450	1052.56
450.221	1059.56
450.442	1059.56
450.662	969.56
450.883	896.56
451.104	895.56
451.324	902.56
451.545	889.56
451.766	890.56
451.986	843.56
452.207	844.56
452.428	837.56
452.648	804.56
452.869	802.56
453.089	830.56
453.31	799.56
453.53	781.56
453.751	745.56
453.971	693.56
454.192	739.56
454.412	783.56
454.633	809.56
454.853	821.56
455.073	788.56
455.294	775.56
455.514	798.56
455.734	771.56
455.955	796.56
456.175	764.56
456.395	736.56
456.616	772.56
456.836	769.56
457.056	747.56
457.276	724.56
457.497	701.56
457.717	714.56
457.937	724.56
458.157	746.56
458.377	700.56
458.598	676.56
458.818	691.56
459.038	719.56
459.258	747.56
459.478	744.56
459.698	720.56
459.918	728.56
460.138	828.56
460.358	851.56
460.578	867.56
460.798	888.56
461.018	883.56
461.238	868.56
461.458	875.56
461.678	852.56
461.898	842.56
462.118	815.56
462.338	843.56
462.558	854.56
462.777	850.56
462.997	895.56
463.217	909.56
463.437	913.56
463.657	885.56
463.876	833.56
464.096	842.56
464.316	838.56
464.536	912.56
464.755	925.56
464.975	903.56
465.195	886.56
465.414	914.56
465.634	897.56
465.854	889.56
466.073	977.56
466.293	949.56
466.512	874.56
466.732	899.56
466.951	915.56
467.171	906.56
467.391	896.56
467.61	904.56
467.829	929.56
468.049	1014.56
468.268	1085.56
468.488	1003.56
468.707	954.56
468.927	921.56
469.146	911.56
469.365	925.56
469.585	926.56
469.804	908.56
470.023	969.56
470.243	965.56
470.462	936.56
470.681	928.56
470.901	950.56
471.12	923.56
471.339	932.56
471.558	951.56
471.777	932.56
471.997	889.56
472.216	867.56
472.435	819.56
472.654	782.56
472.873	810.56
473.092	840.56
473.311	850.56
473.53	844.56
473.749	827.56
473.968	840.56
474.187	851.56
474.406	907.56
474.625	881.56
474.844	881.56
475.063	911.56
475.282	884.56
475.501	838.56
475.72	867.56
475.939	933.56
476.158	897.56
476.377	870.56
476.596	877.56
476.814	843.56
477.033	833.56
477.252	888.56
477.471	926.56
477.69	957.56
477.908	940.56
478.127	1009.56
478.346	1031.56
478.564	1014.56
478.783	1003.56
479.002	1048.56
479.22	1026.56
479.439	1045.56
479.658	1115.56
479.876	1046.56
480.095	932.56
480.313	888.56
480.532	902.56
480.751	899.56
480.969	852.56
481.188	813.56
481.406	812.56
481.624	781.56
481.843	809.56
482.061	839.56
482.28	887.56
482.498	907.56
482.717	889.56
482.935	904.56
483.153	981.56
483.372	1013.56
483.59	1025.56
483.808	1016.56
484.027	981.56
484.245	1008.56
484.463	1239.56
484.681	1326.56
484.9	1035.56
485.118	990.56
485.336	953.56
485.554	940.56
485.772	921.56
485.99	900.56
486.209	932.56
486.427	924.56
486.645	951.56
486.863	1013.56
487.081	1058.56
487.299	1048.56
487.517	1028.56
487.735	1137.56
487.953	1171.56
488.171	1191.56
488.389	1148.56
488.607	1119.56
488.825	1183.56
489.043	1086.56
489.261	1003.56
489.479	1087.56
489.696	1056.56
489.914	1052.56
490.132	1048.56
490.35	1085.56
490.568	1189.56
490.786	1193.56
491.003	1213.56
491.221	1283.56
491.439	1340.56
491.657	1338.56
491.874	1425.56
492.092	1459.56
492.31	1544.56
492.527	1471.56
492.745	1409.56
492.963	1337.56
493.18	1331.56
493.398	1378.56
493.615	1369.56
493.833	1288.56
494.05	1283.56
494.268	1257.56
494.485	1272.56
494.703	1264.56
494.92	1221.56
495.138	1248.56
495.355	1251.56
495.573	1267.56
495.79	1310.56
496.008	1303.56
496.225	1300.56
496.442	1256.56
496.66	1269.56
496.877	1264.56
497.094	1241.56
497.312	1267.56
497.529	1224.56
497.746	1212.56
497.963	1299.56
498.181	1329.56
498.398	1292.56
498.615	1219.56
498.832	1210.56
499.049	1164.56
499.267	1195.56
499.484	1291.56
499.701	1386.56
499.918	1416.56
500.135	1500.56
500.352	1603.56
500.569	1609.56
500.786	1735.56
501.003	1599.56
501.22	1483.56
501.437	1448.56
501.654	1481.56
501.871	1363.56
502.088	1247.56
502.305	1204.56
502.522	1167.56
502.739	1122.56
502.956	1085.56
503.172	1092.56
503.389	1055.56
503.606	1014.56
503.823	993.56
504.04	1031.56
504.256	1028.56
504.473	1023.56
504.69	1038.56
504.907	991.56
505.123	972.56
505.34	1097.56
505.557	1397.56
505.773	1164.56
505.99	973.56
506.207	946.56
506.423	935.56
506.64	930.56
506.856	944.56
507.073	1073.56
507.289	1107.56
507.506	1049.56
507.722	887.56
507.939	898.56
508.155	896.56
508.372	851.56
508.588	834.56
508.805	819.56
509.021	787.56
509.238	777.56
509.454	796.56
509.67	766.56
509.887	736.56
510.103	735.56
510.319	745.56
510.536	782.56
510.752	796.56
510.968	792.56
511.184	775.56
511.401	798.56
511.617	724.56
511.833	721.56
512.049	732.56
512.265	708.56
512.481	737.56
512.698	755.56
512.914	777.56
513.13	788.56
513.346	746.56
513.562	713.56
513.778	716.56
513.994	777.56
514.21	762.56
514.426	776.56
514.642	825.56
514.858	785.56
515.074	739.56
515.29	716.56
515.506	759.56
515.721	753.56
515.937	757.56
516.153	825.56
516.369	768.56
516.585	772.56
516.801	760.56
517.016	749.56
517.232	787.56
517.448	805.56
517.664	831.56
517.879	808.56
518.095	846.56
518.311	777.56
518.527	763.56
518.742	742.56
518.958	740.56
519.173	783.56
519.389	803.56
519.605	804.56
519.82	805.56
520.036	812.56
520.251	748.56
520.467	793.56
520.682	837.56
520.898	821.56
521.113	729.56
521.329	733.56
521.544	796.56
521.76	769.56
521.975	746.56
522.19	727.56
522.406	747.56
522.621	947.56
522.836	899.56
523.052	745.56
523.267	791.56
523.482	791.56
523.698	756.56
523.913	753.56
524.128	797.56
524.343	835.56
524.559	843.56
524.774	795.56
524.989	812.56
525.204	763.56
525.419	760.56
525.634	773.56
525.849	749.56
526.064	731.56
526.28	736.56
526.495	658.56
526.71	657.56
526.925	641.56
527.14	647.56
527.355	629.56
527.57	635.56
527.785	679.56
527.999	655.56
528.214	664.56
528.429	692.56
528.644	743.56
528.859	804.56
529.074	856.56
529.289	924.56
529.503	884.56
529.718	823.56
529.933	721.56
530.148	662.56
530.363	649.56
530.577	662.56
530.792	658.56
531.007	648.56
531.221	636.56
531.436	640.56
531.651	653.56
531.865	683.56
532.08	663.56
532.295	653.56
532.509	621.56
532.724	642.56
532.938	647.56
533.153	729.56
533.367	719.56
533.582	745.56
533.796	757.56
534.011	722.56
534.225	671.56
534.44	650.56
534.654	665.56
534.868	646.56
535.083	703.56
535.297	698.56
535.511	690.56
535.726	724.56
535.94	707.56
536.154	679.56
536.369	635.56
536.583	616.56
536.797	623.56
537.011	637.56
537.225	616.56
537.44	615.56
537.654	640.56
537.868	607.56
538.082	632.56
538.296	638.56
538.51	649.56
538.724	678.56
538.938	707.56
539.153	748.56
539.367	740.56
539.581	726.56
539.795	697.56
540.009	659.56
540.222	634.56
540.436	682.56
540.65	790.56
540.864	831.56
541.078	827.56
541.292	868.56
541.506	911.56
541.72	927.56
541.934	1011.56
542.147	1063.56
542.361	1009.56
542.575	930.56
542.789	870.56
543.002	795.56
543.216	760.56
543.43	781.56
543.644	840.56
543.857	882.56
544.071	917.56
544.285	963.56
544.498	951.56
544.712	954.56
544.925	948.56
545.139	985.56
545.352	940.56
545.566	959.56
545.779	973.56
545.993	970.56
546.206	980.56
546.42	943.56
546.633	966.56
546.847	953.56
547.06	966.56
547.274	977.56
547.487	1027.56
547.7	1037.56
547.914	997.56
548.127	982.56
548.34	999.56
548.554	973.56
548.767	956.56
548.98	943.56
549.193	936.56
549.407	983.56
549.62	963.56
549.833	927.56
550.046	912.56
550.259	907.56
550.473	876.56
550.686	899.56
550.899	874.56
551.112	839.56
551.325	817.56
551.538	851.56
551.751	883.56
551.964	708.56
552.177	739.56
552.39	818.56
552.603	853.56
552.816	868.56
553.029	925.56
553.242	956.56
553.455	930.56
553.667	918.56
553.88	899.56
554.093	884.56
554.306	863.56
554.519	870.56
554.732	870.56
554.944	831.56
555.157	834.56
555.37	831.56
555.583	817.56
555.795	820.56
556.008	762.56
556.221	722.56
556.433	740.56
556.646	749.56
556.859	762.56
557.071	742.56
557.284	752.56
557.496	746.56
557.709	777.56
557.921	758.56
558.134	751.56
558.346	735.56
558.559	728.56
558.771	712.56
558.984	677.56
559.196	683.56
559.409	671.56
559.621	678.56
559.833	680.56
560.046	691.56
560.258	691.56
560.47	685.56
560.683	706.56
560.895	701.56
561.107	677.56
561.32	695.56
561.532	691.56
561.744	682.56
561.956	686.56
562.168	664.56
562.381	645.56
562.593	654.56
562.805	651.56
563.017	636.56
563.229	661.56
563.441	657.56
563.653	637.56
563.865	619.56
564.077	625.56
564.289	615.56
564.501	651.56
564.713	639.56
564.925	665.56
565.137	671.56
565.349	645.56
565.561	617.56
565.773	649.56
565.985	634.56
566.197	662.56
566.408	685.56
566.62	673.56
566.832	667.56
567.044	660.56
567.255	668.56
567.467	684.56
567.679	684.56
567.891	665.56
568.102	616.56
568.314	591.56
568.526	557.56
568.737	526.56
568.949	488.56
569.161	476.56
569.372	474.56
569.584	461.56
569.795	471.56
570.007	456.56
570.218	441.56
570.43	457.56
570.641	476.56
570.853	480.56
571.064	488.56
571.276	480.56
571.487	506.56
571.698	473.56
571.91	459.56
572.121	468.56
572.333	449.56
572.544	439.56
572.755	434.56
572.966	415.56
573.178	407.56
573.389	396.56
573.6	412.56
573.811	450.56
574.023	409.56
574.234	419.56
574.445	402.56
574.656	390.56
574.867	401.56
575.078	395.56
575.289	405.56
575.501	409.56
575.712	400.56
575.923	411.56
576.134	401.56
576.345	415.56
576.556	413.56
576.767	386.56
576.978	385.56
577.188	391.56
577.399	359.56
577.61	377.56
577.821	382.56
578.032	391.56
578.243	394.56
578.454	359.56
578.665	360.56
578.875	352.56
579.086	368.56
579.297	346.56
579.508	352.56
579.718	347.56
579.929	348.56
580.14	337.56
580.35	341.56
580.561	368.56
580.772	379.56
580.982	390.56
581.193	351.56
581.403	346.56
581.614	347.56
581.825	337.56
582.035	350.56
582.246	348.56
582.456	371.56
582.667	369.56
582.877	348.56
583.087	351.56
583.298	352.56
583.508	339.56
583.719	327.56
583.929	336.56
584.139	311.56
584.35	297.56
584.56	337.56
584.77	330.56
584.981	328.56
585.191	333.56
585.401	352.56
585.611	337.56
585.821	334.56
586.032	323.56
586.242	314.56
586.452	314.56
586.662	327.56
586.872	322.56
587.082	316.56
587.292	329.56
587.502	319.56
587.713	319.56
587.923	308.56
588.133	323.56
588.343	307.56
588.553	327.56
588.762	340.56
588.972	325.56
589.182	340.56
589.392	320.56
589.602	322.56
589.812	335.56
590.022	305.56
590.232	314.56
590.441	317.56
590.651	329.56
590.861	310.56
591.071	295.56
591.281	330.56
591.49	312.56
591.7	322.56
591.91	308.56
592.119	292.56
592.329	323.56
592.539	331.56
592.748	316.56
592.958	324.56
593.167	328.56
593.377	319.56
593.587	318.56
593.796	334.56
594.006	332.56
594.215	323.56
594.424	328.56
594.634	346.56
594.843	341.56
595.053	337.56
595.262	333.56
595.472	323.56
595.681	325.56
595.89	303.56
596.1	311.56
596.309	307.56
596.518	340.56
596.727	349.56
596.937	328.56
597.146	323.56
597.355	319.56
597.564	298.56
597.774	293.56
597.983	300.56
598.192	284.56
598.401	277.56
598.61	300.56
598.819	292.56
599.028	296.56
599.237	298.56
599.446	287.56
599.655	284.56
599.864	297.56
600.073	305.56
600.282	293.56
600.491	284.56
600.7	306.56
600.909	301.56
601.118	321.56
601.327	323.56
601.536	344.56
601.745	352.56
601.953	347.56
602.162	365.56
602.371	359.56
602.58	371.56
602.789	356.56
602.997	358.56
603.206	367.56
603.415	341.56
603.623	348.56
603.832	362.56
604.041	350.56
604.249	302.56
604.458	312.56
604.666	318.56
604.875	304.56
605.084	317.56
605.292	325.56
605.501	367.56
605.709	359.56
605.918	365.56
606.126	353.56
606.334	364.56
606.543	371.56
606.751	345.56
606.96	370.56
607.168	359.56
607.376	344.56
607.585	354.56
607.793	352.56
608.001	365.56
608.21	371.56
608.418	373.56
608.626	365.56
608.834	375.56
609.043	355.56
609.251	365.56
609.459	353.56
609.667	365.56
609.875	375.56
610.083	387.56
610.291	387.56
610.499	377.56
610.707	358.56
610.916	359.56
611.124	372.56
611.332	369.56
611.54	378.56
611.748	361.56
611.955	361.56
612.163	369.56
612.371	371.56
612.579	355.56
612.787	349.56
612.995	373.56
613.203	364.56
613.411	340.56
613.618	338.56
613.826	342.56
614.034	379.56
614.242	357.56
614.449	370.56
614.657	376.56
614.865	356.56
615.072	352.56
615.28	352.56
615.488	345.56
615.695	391.56
615.903	380.56
616.111	363.56
616.318	360.56
616.526	355.56
616.733	361.56
616.941	371.56
617.148	351.56
617.356	357.56
617.563	349.56
617.771	342.56
617.978	343.56
618.185	336.56
618.393	348.56
618.6	349.56
618.807	356.56
619.015	355.56
619.222	354.56
619.429	329.56
619.637	331.56
619.844	316.56
620.051	315.56
620.258	322.56
620.466	317.56
620.673	341.56
620.88	323.56
621.087	337.56
621.294	310.56
621.501	279.56
621.708	298.56
621.915	316.56
622.122	341.56
622.329	327.56
622.536	337.56
622.743	332.56
622.95	311.56
623.157	327.56
623.364	312.56
623.571	342.56
623.778	337.56
623.985	328.56
624.192	327.56
624.399	324.56
624.606	316.56
624.812	295.56
625.019	304.56
625.226	307.56
625.433	297.56
625.639	298.56
625.846	282.56
626.053	241.56
626.259	264.56
626.466	253.56
626.673	247.56
626.879	237.56
627.086	277.56
627.293	277.56
627.499	286.56
627.706	303.56
627.912	300.56
628.119	311.56
628.325	307.56
628.532	310.56
628.738	296.56
628.945	310.56
629.151	289.56
629.357	300.56
629.564	279.56
629.77	291.56
629.976	284.56
630.183	262.56
630.389	264.56
630.595	278.56
630.802	278.56
631.008	282.56
631.214	293.56
631.42	273.56
631.627	282.56
631.833	257.56
632.039	271.56
632.245	281.56
632.451	261.56
632.657	262.56
632.863	259.56
633.069	248.56
633.275	250.56
633.481	245.56
633.688	267.56
633.893	247.56
634.099	245.56
634.305	249.56
634.511	273.56
634.717	234.56
634.923	236.56
635.129	220.56
635.335	229.56
635.541	230.56
635.747	246.56
635.952	249.56
636.158	264.56
636.364	269.56
636.57	261.56
636.775	260.56
636.981	262.56
637.187	267.56
637.392	288.56
637.598	272.56
637.804	265.56
638.009	255.56
638.215	268.56
638.421	246.56
638.626	247.56
638.832	261.56
639.037	253.56
639.243	247.56
639.448	236.56
639.654	246.56
639.859	249.56
640.065	257.56
640.27	251.56
640.475	255.56
640.681	256.56
640.886	268.56
641.091	252.56
641.297	253.56
641.502	245.56
641.707	264.56
641.913	274.56
642.118	246.56
642.323	255.56
642.528	245.56
642.733	236.56
642.939	248.56
643.144	243.56
643.349	235.56
643.554	240.56
643.759	239.56
643.964	268.56
644.169	243.56
644.374	235.56
644.579	242.56
644.784	249.56
644.989	269.56
645.194	236.56
645.399	238.56
645.604	244.56
645.809	248.56
646.014	256.56
646.219	245.56
646.423	260.56
646.628	232.56
646.833	244.56
647.038	252.56
647.243	268.56
647.447	240.56
647.652	243.56
647.857	244.56
648.062	241.56
648.266	251.56
648.471	243.56
648.676	242.56
648.88	255.56
649.085	247.56
649.289	242.56
649.494	244.56
649.698	242.56
649.903	248.56
650.107	241.56
650.312	237.56
650.516	224.56
650.721	239.56
650.925	229.56
651.13	226.56
651.334	221.56
651.539	230.56
651.743	241.56
651.947	220.56
652.152	227.56
652.356	212.56
652.56	225.56
652.764	207.56
652.969	226.56
653.173	206.56
653.377	200.56
653.581	209.56
653.785	192.56
653.99	188.56
654.194	217.56
654.398	208.56
654.602	219.56
654.806	209.56
655.01	217.56
655.214	195.56
655.418	204.56
655.622	203.56
655.826	218.56
656.03	217.56
656.234	213.56
656.438	215.56
656.642	237.56
656.846	225.56
657.049	220.56
657.253	193.56
657.457	186.56
657.661	169.56
657.865	169.56
658.068	159.56
658.272	163.56
658.476	156.56
658.68	149.56
658.883	155.56
659.087	147.56
659.291	141.56
659.494	138.56
659.698	143.56
659.901	140.56
660.105	129.56
660.309	130.56
660.512	114.56
660.716	118.56
660.919	111.56
661.123	113.56
661.326	90.56
661.53	104.56
661.733	121.56
661.936	113.56
662.14	114.56
662.343	102.56
662.546	102.56
662.75	108.56
662.953	75.56
663.156	81.56
663.36	100.56
663.563	91.56
663.766	92.56
663.969	82.56
664.173	91.56
664.376	82.56
664.579	81.56
664.782	87.56
664.985	92.56
665.188	84.56
665.391	88.56
665.594	75.56
665.797	86.56
666	92.56
666.203	84.56
666.406	81.56
666.609	81.56
666.812	87.56
667.015	99.56
667.218	107.56
667.421	82.56
667.624	78.56
667.827	77.56
668.03	69.56
668.232	87.56
668.435	81.56
668.638	88.56
668.841	87.56
669.043	76.56
669.246	71.56
669.449	76.56
669.651	76.56
669.854	82.56
670.057	69.56
670.259	67.56
670.462	90.56
670.665	86.56
670.867	86.56
671.07	91.56
671.272	77.56
671.475	79.56
671.677	84.56
671.88	80.56
672.082	81.56
672.284	85.56
672.487	93.56
672.689	82.56
672.892	87.56
