Data from WStandard_LampEnergy10_LIBS07252019.E.O._I.C._HRD10591_15-52-57-928.txt Node
Date: Thu Jul 25 15:52:57 EDT 2019
User: cochatt
Spectrometer: HR+D1059
Trigger mode: 1
Integration Time (sec): 1.000000E-1
Scans to average: 1
Electric dark correction enabled: true
Nonlinearity correction enabled: false
Boxcar width: 0
XAxis mode: Wavelengths
Number of Pixels in Spectrum: 2048
>>>>>Begin Spectral Data<<<<<
223.165	-21.94
223.4	-21.94
223.635	-21.94
223.869	-19.94
224.104	-15.94
224.338	-2.94
224.573	4.06
224.808	-9.94
225.042	-9.94
225.277	-11.94
225.511	-2.94
225.746	-2.94
225.98	3.06
226.215	-3.94
226.449	10.06
226.683	26.06
226.918	35.06
227.152	24.06
227.387	40.06
227.621	17.06
227.856	40.06
228.09	51.06
228.324	52.06
228.559	69.06
228.793	81.06
229.027	139.06
229.262	148.06
229.496	140.06
229.73	153.06
229.964	170.06
230.199	171.06
230.433	176.06
230.667	188.06
230.901	189.06
231.136	192.06
231.37	185.06
231.604	173.06
231.838	176.06
232.072	184.06
232.306	180.06
232.541	196.06
232.775	204.06
233.009	199.06
233.243	214.06
233.477	199.06
233.711	208.06
233.945	196.06
234.179	216.06
234.413	224.06
234.647	219.06
234.881	218.06
235.115	206.06
235.349	203.06
235.583	192.06
235.817	197.06
236.051	191.06
236.285	193.06
236.519	203.06
236.753	229.06
236.987	225.06
237.221	208.06
237.455	225.06
237.689	246.06
237.922	220.06
238.156	237.06
238.39	226.06
238.624	247.06
238.858	247.06
239.091	268.06
239.325	270.06
239.559	304.06
239.793	324.06
240.027	321.06
240.26	306.06
240.494	248.06
240.728	241.06
240.961	246.06
241.195	258.06
241.429	256.06
241.662	252.06
241.896	271.06
242.13	249.06
242.363	283.06
242.597	276.06
242.83	271.06
243.064	270.06
243.298	293.06
243.531	295.06
243.765	301.06
243.998	291.06
244.232	256.06
244.465	254.06
244.699	274.06
244.932	293.06
245.166	328.06
245.399	312.06
245.633	268.06
245.866	276.06
246.099	300.06
246.333	308.06
246.566	315.06
246.8	312.06
247.033	370.06
247.266	326.06
247.5	321.06
247.733	328.06
247.966	352.06
248.2	364.06
248.433	365.06
248.666	395.06
248.899	419.06
249.133	445.06
249.366	478.06
249.599	394.06
249.832	363.06
250.066	363.06
250.299	388.06
250.532	374.06
250.765	345.06
250.998	349.06
251.231	375.06
251.465	362.06
251.698	358.06
251.931	340.06
252.164	353.06
252.397	389.06
252.63	369.06
252.863	344.06
253.096	346.06
253.329	360.06
253.562	357.06
253.795	384.06
254.028	359.06
254.261	344.06
254.494	340.06
254.727	323.06
254.96	360.06
255.193	385.06
255.426	434.06
255.659	477.06
255.892	444.06
256.124	402.06
256.357	409.06
256.59	425.06
256.823	432.06
257.056	428.06
257.289	475.06
257.521	506.06
257.754	477.06
257.987	454.06
258.22	498.06
258.452	477.06
258.685	408.06
258.918	396.06
259.151	385.06
259.383	369.06
259.616	359.06
259.849	388.06
260.081	419.06
260.314	466.06
260.547	477.06
260.779	489.06
261.012	476.06
261.244	417.06
261.477	405.06
261.71	412.06
261.942	414.06
262.175	406.06
262.407	414.06
262.64	384.06
262.872	364.06
263.105	372.06
263.337	359.06
263.57	392.06
263.802	389.06
264.035	358.06
264.267	343.06
264.499	344.06
264.732	380.06
264.964	390.06
265.197	389.06
265.429	428.06
265.661	466.06
265.894	484.06
266.126	510.06
266.358	460.06
266.591	488.06
266.823	538.06
267.055	474.06
267.287	476.06
267.52	466.06
267.752	467.06
267.984	471.06
268.216	481.06
268.448	487.06
268.681	450.06
268.913	441.06
269.145	427.06
269.377	432.06
269.609	462.06
269.841	517.06
270.073	585.06
270.306	646.06
270.538	640.06
270.77	549.06
271.002	481.06
271.234	497.06
271.466	498.06
271.698	554.06
271.93	626.06
272.162	611.06
272.394	583.06
272.626	529.06
272.858	484.06
273.09	418.06
273.322	410.06
273.553	403.06
273.785	419.06
274.017	448.06
274.249	438.06
274.481	462.06
274.713	428.06
274.945	443.06
275.176	417.06
275.408	413.06
275.64	400.06
275.872	418.06
276.104	466.06
276.335	510.06
276.567	548.06
276.799	548.06
277.031	485.06
277.262	476.06
277.494	531.06
277.726	526.06
277.957	520.06
278.189	479.06
278.421	462.06
278.652	434.06
278.884	446.06
279.115	464.06
279.347	463.06
279.579	459.06
279.81	440.06
280.042	482.06
280.273	532.06
280.505	525.06
280.736	523.06
280.968	488.06
281.199	433.06
281.431	429.06
281.662	415.06
281.894	436.06
282.125	452.06
282.356	470.06
282.588	454.06
282.819	461.06
283.051	512.06
283.282	517.06
283.513	521.06
283.745	438.06
283.976	432.06
284.207	451.06
284.439	452.06
284.67	467.06
284.901	469.06
285.132	466.06
285.364	455.06
285.595	458.06
285.826	456.06
286.057	461.06
286.288	446.06
286.52	492.06
286.751	519.06
286.982	516.06
287.213	475.06
287.444	438.06
287.675	447.06
287.906	470.06
288.138	473.06
288.369	476.06
288.6	465.06
288.831	441.06
289.062	471.06
289.293	450.06
289.524	473.06
289.755	458.06
289.986	485.06
290.217	467.06
290.448	454.06
290.679	464.06
290.91	465.06
291.141	474.06
291.371	484.06
291.602	511.06
291.833	485.06
292.064	502.06
292.295	513.06
292.526	512.06
292.757	500.06
292.987	512.06
293.218	489.06
293.449	546.06
293.68	586.06
293.91	621.06
294.141	581.06
294.372	535.06
294.603	579.06
294.833	588.06
295.064	574.06
295.295	480.06
295.525	508.06
295.756	470.06
295.987	468.06
296.217	485.06
296.448	466.06
296.679	458.06
296.909	482.06
297.14	466.06
297.37	489.06
297.601	525.06
297.831	552.06
298.062	533.06
298.292	500.06
298.523	481.06
298.753	495.06
298.984	477.06
299.214	493.06
299.445	520.06
299.675	527.06
299.905	490.06
300.136	489.06
300.366	483.06
300.597	473.06
300.827	510.06
301.057	499.06
301.288	512.06
301.518	520.06
301.748	517.06
301.979	560.06
302.209	564.06
302.439	625.06
302.669	606.06
302.9	570.06
303.13	536.06
303.36	536.06
303.59	509.06
303.82	506.06
304.051	546.06
304.281	539.06
304.511	553.06
304.741	565.06
304.971	630.06
305.201	654.06
305.431	588.06
305.661	512.06
305.891	465.06
306.121	464.06
306.352	493.06
306.582	513.06
306.812	554.06
307.042	596.06
307.272	585.06
307.502	596.06
307.731	655.06
307.961	660.06
308.191	588.06
308.421	527.06
308.651	498.06
308.881	517.06
309.111	496.06
309.341	477.06
309.571	524.06
309.8	507.06
310.03	506.06
310.26	500.06
310.49	519.06
310.72	539.06
310.949	564.06
311.179	530.06
311.409	537.06
311.639	527.06
311.868	547.06
312.098	516.06
312.328	506.06
312.557	520.06
312.787	537.06
313.017	530.06
313.246	530.06
313.476	523.06
313.706	560.06
313.935	554.06
314.165	556.06
314.394	567.06
314.624	608.06
314.853	630.06
315.083	656.06
315.312	650.06
315.542	588.06
315.771	561.06
316.001	553.06
316.23	581.06
316.46	574.06
316.689	571.06
316.919	550.06
317.148	513.06
317.377	553.06
317.607	599.06
317.836	659.06
318.065	656.06
318.295	621.06
318.524	580.06
318.753	580.06
318.983	593.06
319.212	579.06
319.441	545.06
319.67	581.06
319.9	582.06
320.129	619.06
320.358	664.06
320.587	657.06
320.816	651.06
321.046	618.06
321.275	582.06
321.504	628.06
321.733	660.06
321.962	604.06
322.191	549.06
322.42	562.06
322.649	552.06
322.878	555.06
323.108	578.06
323.337	582.06
323.566	584.06
323.795	600.06
324.024	575.06
324.253	589.06
324.482	583.06
324.71	553.06
324.939	536.06
325.168	561.06
325.397	588.06
325.626	609.06
325.855	581.06
326.084	557.06
326.313	577.06
326.542	573.06
326.77	598.06
326.999	602.06
327.228	552.06
327.457	569.06
327.686	557.06
327.914	560.06
328.143	571.06
328.372	556.06
328.6	582.06
328.829	588.06
329.058	555.06
329.287	597.06
329.515	570.06
329.744	585.06
329.972	602.06
330.201	634.06
330.43	619.06
330.658	600.06
330.887	596.06
331.115	622.06
331.344	623.06
331.572	602.06
331.801	602.06
332.03	616.06
332.258	605.06
332.486	611.06
332.715	611.06
332.943	598.06
333.172	608.06
333.4	592.06
333.629	621.06
333.857	651.06
334.085	770.06
334.314	830.06
334.542	830.06
334.771	792.06
334.999	725.06
335.227	635.06
335.455	637.06
335.684	655.06
335.912	665.06
336.14	672.06
336.369	658.06
336.597	636.06
336.825	600.06
337.053	669.06
337.281	668.06
337.51	681.06
337.738	725.06
337.966	663.06
338.194	630.06
338.422	617.06
338.65	588.06
338.878	593.06
339.106	581.06
339.334	569.06
339.562	568.06
339.79	606.06
340.018	626.06
340.246	645.06
340.474	652.06
340.702	637.06
340.93	603.06
341.158	632.06
341.386	600.06
341.614	609.06
341.842	614.06
342.07	616.06
342.298	619.06
342.526	629.06
342.754	590.06
342.981	596.06
343.209	589.06
343.437	594.06
343.665	599.06
343.893	649.06
344.12	655.06
344.348	644.06
344.576	625.06
344.804	607.06
345.031	591.06
345.259	609.06
345.487	593.06
345.714	571.06
345.942	545.06
346.17	587.06
346.397	576.06
346.625	586.06
346.853	544.06
347.08	556.06
347.308	565.06
347.535	560.06
347.763	592.06
347.99	567.06
348.218	587.06
348.445	570.06
348.673	580.06
348.9	582.06
349.128	621.06
349.355	614.06
349.583	595.06
349.81	580.06
350.037	534.06
350.265	524.06
350.492	549.06
350.72	556.06
350.947	589.06
351.174	579.06
351.402	562.06
351.629	537.06
351.856	537.06
352.083	536.06
352.311	549.06
352.538	552.06
352.765	597.06
352.992	588.06
353.22	589.06
353.447	544.06
353.674	570.06
353.901	588.06
354.128	566.06
354.355	560.06
354.583	615.06
354.81	606.06
355.037	576.06
355.264	576.06
355.491	574.06
355.718	561.06
355.945	564.06
356.172	576.06
356.399	559.06
356.626	567.06
356.853	600.06
357.08	654.06
357.307	704.06
357.534	667.06
357.761	578.06
357.988	565.06
358.215	546.06
358.441	546.06
358.668	545.06
358.895	562.06
359.122	606.06
359.349	643.06
359.576	624.06
359.802	566.06
360.029	554.06
360.256	556.06
360.483	563.06
360.709	627.06
360.936	636.06
361.163	654.06
361.39	697.06
361.616	730.06
361.843	691.06
362.07	654.06
362.296	571.06
362.523	574.06
362.749	598.06
362.976	601.06
363.203	594.06
363.429	571.06
363.656	565.06
363.882	608.06
364.109	678.06
364.335	683.06
364.562	635.06
364.788	622.06
365.015	553.06
365.241	585.06
365.468	587.06
365.694	612.06
365.92	612.06
366.147	616.06
366.373	578.06
366.599	577.06
366.826	553.06
367.052	569.06
367.278	575.06
367.505	594.06
367.731	630.06
367.957	592.06
368.184	632.06
368.41	673.06
368.636	689.06
368.862	706.06
369.089	681.06
369.315	650.06
369.541	619.06
369.767	612.06
369.993	588.06
370.219	613.06
370.445	606.06
370.672	653.06
370.898	710.06
371.124	640.06
371.35	637.06
371.576	677.06
371.802	661.06
372.028	670.06
372.254	627.06
372.48	621.06
372.706	591.06
372.932	598.06
373.158	601.06
373.384	645.06
373.61	660.06
373.835	677.06
374.061	647.06
374.287	644.06
374.513	628.06
374.739	636.06
374.965	640.06
375.191	652.06
375.416	657.06
375.642	701.06
375.868	710.06
376.094	760.06
376.319	692.06
376.545	665.06
376.771	686.06
376.997	722.06
377.222	693.06
377.448	654.06
377.674	676.06
377.899	682.06
378.125	708.06
378.35	692.06
378.576	634.06
378.802	613.06
379.027	629.06
379.253	665.06
379.478	636.06
379.704	640.06
379.929	660.06
380.155	650.06
380.38	651.06
380.606	663.06
380.831	679.06
381.057	700.06
381.282	705.06
381.507	681.06
381.733	754.06
381.958	744.06
382.184	698.06
382.409	696.06
382.634	666.06
382.86	706.06
383.085	691.06
383.31	733.06
383.535	793.06
383.761	817.06
383.986	754.06
384.211	715.06
384.436	729.06
384.662	780.06
384.887	797.06
385.112	736.06
385.337	761.06
385.562	761.06
385.787	745.06
386.013	765.06
386.238	779.06
386.463	805.06
386.688	850.06
386.913	857.06
387.138	817.06
387.363	788.06
387.588	768.06
387.813	757.06
388.038	811.06
388.263	820.06
388.488	759.06
388.713	743.06
388.938	723.06
389.163	737.06
389.387	764.06
389.612	748.06
389.837	787.06
390.062	782.06
390.287	752.06
390.512	761.06
390.736	753.06
390.961	760.06
391.186	736.06
391.411	768.06
391.636	775.06
391.86	769.06
392.085	775.06
392.31	763.06
392.534	792.06
392.759	803.06
392.984	798.06
393.208	807.06
393.433	802.06
393.658	846.06
393.882	821.06
394.107	824.06
394.331	789.06
394.556	798.06
394.78	761.06
395.005	819.06
395.229	844.06
395.454	904.06
395.678	917.06
395.903	822.06
396.127	823.06
396.352	849.06
396.576	865.06
396.801	847.06
397.025	848.06
397.249	864.06
397.474	852.06
397.698	845.06
397.922	859.06
398.147	893.06
398.371	929.06
398.595	927.06
398.82	860.06
399.044	930.06
399.268	931.06
399.492	976.06
399.717	1027.06
399.941	986.06
400.165	1014.06
400.389	1005.06
400.613	999.06
400.837	1139.06
401.062	1210.06
401.286	1030.06
401.51	993.06
401.734	999.06
401.958	964.06
402.182	905.06
402.406	907.06
402.63	880.06
402.854	892.06
403.078	917.06
403.302	905.06
403.526	898.06
403.75	941.06
403.974	948.06
404.198	964.06
404.422	966.06
404.645	1026.06
404.869	988.06
405.093	898.06
405.317	914.06
405.541	912.06
405.765	950.06
405.988	931.06
406.212	999.06
406.436	957.06
406.66	1037.06
406.883	1044.06
407.107	1168.06
407.331	1243.06
407.555	1301.06
407.778	1138.06
408.002	994.06
408.226	970.06
408.449	958.06
408.673	952.06
408.896	976.06
409.12	997.06
409.344	971.06
409.567	947.06
409.791	963.06
410.014	986.06
410.238	1049.06
410.461	1085.06
410.685	993.06
410.908	949.06
411.132	949.06
411.355	934.06
411.578	928.06
411.802	919.06
412.025	978.06
412.249	960.06
412.472	926.06
412.695	926.06
412.919	913.06
413.142	944.06
413.365	948.06
413.589	994.06
413.812	1010.06
414.035	1009.06
414.258	966.06
414.482	923.06
414.705	932.06
414.928	914.06
415.151	924.06
415.374	970.06
415.597	970.06
415.821	966.06
416.044	961.06
416.267	995.06
416.49	915.06
416.713	921.06
416.936	986.06
417.159	988.06
417.382	973.06
417.605	924.06
417.828	963.06
418.051	940.06
418.274	960.06
418.497	944.06
418.72	943.06
418.943	955.06
419.166	979.06
419.389	1007.06
419.611	957.06
419.834	970.06
420.057	966.06
420.28	972.06
420.503	939.06
420.726	973.06
420.948	956.06
421.171	940.06
421.394	965.06
421.617	1006.06
421.839	1045.06
422.062	1026.06
422.285	937.06
422.507	919.06
422.73	916.06
422.953	923.06
423.175	942.06
423.398	932.06
423.621	938.06
423.843	988.06
424.066	962.06
424.288	1036.06
424.511	1051.06
424.733	1020.06
424.956	958.06
425.178	932.06
425.401	932.06
425.623	965.06
425.846	953.06
426.068	964.06
426.291	1003.06
426.513	985.06
426.735	973.06
426.958	1060.06
427.18	1102.06
427.402	1010.06
427.625	1069.06
427.847	1019.06
428.069	923.06
428.292	924.06
428.514	923.06
428.736	917.06
428.958	926.06
429.181	928.06
429.403	1072.06
429.625	1229.06
429.847	1046.06
430.069	955.06
430.292	1079.06
430.514	1044.06
430.736	1002.06
430.958	987.06
431.18	946.06
431.402	897.06
431.624	877.06
431.846	793.06
432.068	749.06
432.29	756.06
432.512	816.06
432.734	880.06
432.956	950.06
433.178	974.06
433.4	958.06
433.622	964.06
433.844	925.06
434.066	845.06
434.287	793.06
434.509	775.06
434.731	813.06
434.953	921.06
435.175	961.06
435.397	922.06
435.618	906.06
435.84	852.06
436.062	863.06
436.284	905.06
436.505	925.06
436.727	958.06
436.949	920.06
437.17	956.06
437.392	905.06
437.614	887.06
437.835	834.06
438.057	810.06
438.278	824.06
438.5	883.06
438.721	906.06
438.943	934.06
439.165	938.06
439.386	947.06
439.608	972.06
439.829	971.06
440.05	1012.06
440.272	984.06
440.493	962.06
440.715	1014.06
440.936	1040.06
441.158	1075.06
441.379	1068.06
441.6	1045.06
441.822	1052.06
442.043	1028.06
442.264	1014.06
442.486	963.06
442.707	974.06
442.928	939.06
443.149	1004.06
443.371	1023.06
443.592	1043.06
443.813	1046.06
444.034	1053.06
444.255	1021.06
444.476	1053.06
444.698	1068.06
444.919	1058.06
445.14	1181.06
445.361	1076.06
445.582	1084.06
445.803	1062.06
446.024	1052.06
446.245	1095.06
446.466	1040.06
446.687	1060.06
446.908	1078.06
447.129	1044.06
447.35	1047.06
447.571	1042.06
447.792	980.06
448.013	971.06
448.234	1008.06
448.455	980.06
448.675	993.06
448.896	934.06
449.117	920.06
449.338	949.06
449.559	954.06
449.779	984.06
450	1029.06
450.221	1082.06
450.442	1047.06
450.662	979.06
450.883	918.06
451.104	886.06
451.324	881.06
451.545	900.06
451.766	876.06
451.986	845.06
452.207	847.06
452.428	806.06
452.648	820.06
452.869	821.06
453.089	812.06
453.31	793.06
453.53	755.06
453.751	764.06
453.971	726.06
454.192	772.06
454.412	790.06
454.633	805.06
454.853	775.06
455.073	782.06
455.294	796.06
455.514	770.06
455.734	779.06
455.955	758.06
456.175	776.06
456.395	733.06
456.616	745.06
456.836	754.06
457.056	748.06
457.276	750.06
457.497	739.06
457.717	702.06
457.937	717.06
458.157	725.06
458.377	705.06
458.598	690.06
458.818	671.06
459.038	728.06
459.258	717.06
459.478	730.06
459.698	724.06
459.918	745.06
460.138	835.06
460.358	828.06
460.578	856.06
460.798	876.06
461.018	906.06
461.238	891.06
461.458	897.06
461.678	839.06
461.898	835.06
462.118	809.06
462.338	857.06
462.558	846.06
462.777	869.06
462.997	885.06
463.217	904.06
463.437	902.06
463.657	857.06
463.876	837.06
464.096	820.06
464.316	844.06
464.536	873.06
464.755	908.06
464.975	898.06
465.195	856.06
465.414	917.06
465.634	898.06
465.854	917.06
466.073	963.06
466.293	956.06
466.512	873.06
466.732	883.06
466.951	924.06
467.171	927.06
467.391	874.06
467.61	901.06
467.829	918.06
468.049	1005.06
468.268	1065.06
468.488	974.06
468.707	921.06
468.927	942.06
469.146	905.06
469.365	922.06
469.585	940.06
469.804	909.06
470.023	944.06
470.243	950.06
470.462	955.06
470.681	948.06
470.901	938.06
471.12	916.06
471.339	963.06
471.558	912.06
471.777	912.06
471.997	931.06
472.216	890.06
472.435	809.06
472.654	800.06
472.873	794.06
473.092	864.06
473.311	849.06
473.53	839.06
473.749	854.06
473.968	857.06
474.187	835.06
474.406	867.06
474.625	892.06
474.844	911.06
475.063	888.06
475.282	862.06
475.501	824.06
475.72	834.06
475.939	904.06
476.158	898.06
476.377	911.06
476.596	866.06
476.814	853.06
477.033	833.06
477.252	845.06
477.471	922.06
477.69	922.06
477.908	970.06
478.127	1011.06
478.346	1050.06
478.564	1021.06
478.783	990.06
479.002	1042.06
479.22	1024.06
479.439	1038.06
479.658	1068.06
479.876	986.06
480.095	909.06
480.313	898.06
480.532	880.06
480.751	888.06
480.969	832.06
481.188	800.06
481.406	777.06
481.624	757.06
481.843	812.06
482.061	828.06
482.28	876.06
482.498	906.06
482.717	890.06
482.935	906.06
483.153	995.06
483.372	1042.06
483.59	1023.06
483.808	985.06
484.027	976.06
484.245	1030.06
484.463	1212.06
484.681	1322.06
484.9	1048.06
485.118	963.06
485.336	921.06
485.554	888.06
485.772	918.06
485.99	896.06
486.209	921.06
486.427	918.06
486.645	961.06
486.863	1022.06
487.081	1071.06
487.299	1045.06
487.517	1030.06
487.735	1089.06
487.953	1200.06
488.171	1235.06
488.389	1155.06
488.607	1124.06
488.825	1180.06
489.043	1090.06
489.261	992.06
489.479	1030.06
489.696	1066.06
489.914	1082.06
490.132	1043.06
490.35	1119.06
490.568	1212.06
490.786	1195.06
491.003	1187.06
491.221	1266.06
491.439	1308.06
491.657	1322.06
491.874	1373.06
492.092	1485.06
492.31	1526.06
492.527	1469.06
492.745	1395.06
492.963	1370.06
493.18	1353.06
493.398	1402.06
493.615	1392.06
493.833	1302.06
494.05	1284.06
494.268	1240.06
494.485	1277.06
494.703	1297.06
494.92	1253.06
495.138	1228.06
495.355	1280.06
495.573	1307.06
495.79	1300.06
496.008	1332.06
496.225	1251.06
496.442	1243.06
496.66	1263.06
496.877	1240.06
497.094	1240.06
497.312	1265.06
497.529	1205.06
497.746	1213.06
497.963	1297.06
498.181	1351.06
498.398	1272.06
498.615	1242.06
498.832	1184.06
499.049	1166.06
499.267	1170.06
499.484	1280.06
499.701	1378.06
499.918	1400.06
500.135	1516.06
500.352	1598.06
500.569	1595.06
500.786	1720.06
501.003	1592.06
501.22	1446.06
501.437	1435.06
501.654	1458.06
501.871	1354.06
502.088	1225.06
502.305	1180.06
502.522	1160.06
502.739	1113.06
502.956	1095.06
503.172	1056.06
503.389	1053.06
503.606	1025.06
503.823	1008.06
504.04	1004.06
504.256	1036.06
504.473	1024.06
504.69	1034.06
504.907	985.06
505.123	973.06
505.34	1100.06
505.557	1384.06
505.773	1142.06
505.99	955.06
506.207	927.06
506.423	909.06
506.64	898.06
506.856	932.06
507.073	1026.06
507.289	1096.06
507.506	1044.06
507.722	907.06
507.939	892.06
508.155	852.06
508.372	869.06
508.588	821.06
508.805	817.06
509.021	780.06
509.238	790.06
509.454	768.06
509.67	759.06
509.887	769.06
510.103	745.06
510.319	748.06
510.536	786.06
510.752	776.06
510.968	741.06
511.184	809.06
511.401	796.06
511.617	718.06
511.833	711.06
512.049	726.06
512.265	709.06
512.481	731.06
512.698	770.06
512.914	786.06
513.13	762.06
513.346	752.06
513.562	704.06
513.778	754.06
513.994	787.06
514.21	777.06
514.426	778.06
514.642	845.06
514.858	769.06
515.074	740.06
515.29	722.06
515.506	744.06
515.721	745.06
515.937	758.06
516.153	836.06
516.369	776.06
516.585	765.06
516.801	707.06
517.016	748.06
517.232	756.06
517.448	779.06
517.664	788.06
517.879	802.06
518.095	834.06
518.311	798.06
518.527	792.06
518.742	756.06
518.958	749.06
519.173	772.06
519.389	789.06
519.605	788.06
519.82	804.06
520.036	821.06
520.251	751.06
520.467	797.06
520.682	813.06
520.898	773.06
521.113	724.06
521.329	741.06
521.544	782.06
521.76	743.06
521.975	724.06
522.19	697.06
522.406	735.06
522.621	917.06
522.836	899.06
523.052	758.06
523.267	754.06
523.482	753.06
523.698	756.06
523.913	746.06
524.128	784.06
524.343	826.06
524.559	828.06
524.774	794.06
524.989	796.06
525.204	784.06
525.419	741.06
525.634	754.06
525.849	753.06
526.064	741.06
526.28	725.06
526.495	654.06
526.71	661.06
526.925	648.06
527.14	646.06
527.355	632.06
527.57	627.06
527.785	652.06
527.999	666.06
528.214	685.06
528.429	686.06
528.644	772.06
528.859	809.06
529.074	835.06
529.289	899.06
529.503	896.06
529.718	789.06
529.933	731.06
530.148	684.06
530.363	645.06
530.577	652.06
530.792	638.06
531.007	649.06
531.221	640.06
531.436	635.06
531.651	630.06
531.865	691.06
532.08	661.06
532.295	625.06
532.509	631.06
532.724	649.06
532.938	649.06
533.153	726.06
533.367	748.06
533.582	778.06
533.796	762.06
534.011	730.06
534.225	666.06
534.44	636.06
534.654	676.06
534.868	650.06
535.083	693.06
535.297	697.06
535.511	685.06
535.726	680.06
535.94	669.06
536.154	680.06
536.369	637.06
536.583	606.06
536.797	610.06
537.011	640.06
537.225	632.06
537.44	615.06
537.654	660.06
537.868	610.06
538.082	609.06
538.296	615.06
538.51	634.06
538.724	696.06
538.938	741.06
539.153	746.06
539.367	727.06
539.581	730.06
539.795	716.06
540.009	646.06
540.222	629.06
540.436	712.06
540.65	758.06
540.864	814.06
541.078	828.06
541.292	849.06
541.506	902.06
541.72	985.06
541.934	1057.06
542.147	1106.06
542.361	1046.06
542.575	944.06
542.789	864.06
543.002	769.06
543.216	734.06
543.43	757.06
543.644	818.06
543.857	874.06
544.071	938.06
544.285	934.06
544.498	941.06
544.712	970.06
544.925	960.06
545.139	964.06
545.352	944.06
545.566	933.06
545.779	960.06
545.993	956.06
546.206	993.06
546.42	944.06
546.633	977.06
546.847	950.06
547.06	941.06
547.274	994.06
547.487	1003.06
547.7	1027.06
547.914	971.06
548.127	980.06
548.34	951.06
548.554	973.06
548.767	977.06
548.98	977.06
549.193	914.06
549.407	983.06
549.62	980.06
549.833	937.06
550.046	901.06
550.259	908.06
550.473	924.06
550.686	904.06
550.899	890.06
551.112	854.06
551.325	833.06
551.538	873.06
551.751	888.06
551.964	739.06
552.177	754.06
552.39	791.06
552.603	873.06
552.816	881.06
553.029	937.06
553.242	961.06
553.455	925.06
553.667	931.06
553.88	910.06
554.093	907.06
554.306	870.06
554.519	840.06
554.732	847.06
554.944	864.06
555.157	839.06
555.37	814.06
555.583	828.06
555.795	804.06
556.008	745.06
556.221	739.06
556.433	711.06
556.646	744.06
556.859	764.06
557.071	741.06
557.284	752.06
557.496	756.06
557.709	780.06
557.921	759.06
558.134	742.06
558.346	737.06
558.559	759.06
558.771	732.06
558.984	712.06
559.196	696.06
559.409	716.06
559.621	678.06
559.833	680.06
560.046	694.06
560.258	698.06
560.47	677.06
560.683	688.06
560.895	674.06
561.107	717.06
561.32	693.06
561.532	682.06
561.744	667.06
561.956	696.06
562.168	662.06
562.381	654.06
562.593	662.06
562.805	654.06
563.017	632.06
563.229	664.06
563.441	665.06
563.653	630.06
563.865	615.06
564.077	634.06
564.289	630.06
564.501	620.06
564.713	648.06
564.925	664.06
565.137	666.06
565.349	650.06
565.561	632.06
565.773	630.06
565.985	648.06
566.197	677.06
566.408	702.06
566.62	708.06
566.832	670.06
567.044	687.06
567.255	666.06
567.467	664.06
567.679	650.06
567.891	663.06
568.102	620.06
568.314	566.06
568.526	555.06
568.737	552.06
568.949	501.06
569.161	475.06
569.372	436.06
569.584	467.06
569.795	452.06
570.007	471.06
570.218	452.06
570.43	469.06
570.641	462.06
570.853	481.06
571.064	490.06
571.276	489.06
571.487	462.06
571.698	480.06
571.91	472.06
572.121	462.06
572.333	472.06
572.544	432.06
572.755	416.06
572.966	416.06
573.178	399.06
573.389	394.06
573.6	405.06
573.811	450.06
574.023	392.06
574.234	384.06
574.445	411.06
574.656	399.06
574.867	384.06
575.078	426.06
575.289	403.06
575.501	388.06
575.712	398.06
575.923	403.06
576.134	418.06
576.345	424.06
576.556	421.06
576.767	394.06
576.978	382.06
577.188	396.06
577.399	378.06
577.61	377.06
577.821	369.06
578.032	361.06
578.243	370.06
578.454	377.06
578.665	349.06
578.875	354.06
579.086	333.06
579.297	352.06
579.508	361.06
579.718	374.06
579.929	357.06
580.14	328.06
580.35	345.06
580.561	356.06
580.772	396.06
580.982	392.06
581.193	346.06
581.403	342.06
581.614	344.06
581.825	353.06
582.035	352.06
582.246	345.06
582.456	346.06
582.667	344.06
582.877	338.06
583.087	354.06
583.298	349.06
583.508	345.06
583.719	335.06
583.929	325.06
584.139	329.06
584.35	306.06
584.56	312.06
584.77	349.06
584.981	328.06
585.191	336.06
585.401	339.06
585.611	332.06
585.821	324.06
586.032	330.06
586.242	317.06
586.452	324.06
586.662	322.06
586.872	337.06
587.082	327.06
587.292	320.06
587.502	332.06
587.713	316.06
587.923	322.06
588.133	346.06
588.343	333.06
588.553	330.06
588.762	305.06
588.972	299.06
589.182	298.06
589.392	317.06
589.602	311.06
589.812	315.06
590.022	303.06
590.232	328.06
590.441	323.06
590.651	324.06
590.861	313.06
591.071	299.06
591.281	301.06
591.49	307.06
591.7	324.06
591.91	320.06
592.119	318.06
592.329	329.06
592.539	326.06
592.748	327.06
592.958	340.06
593.167	341.06
593.377	312.06
593.587	325.06
593.796	356.06
594.006	325.06
594.215	317.06
594.424	350.06
594.634	346.06
594.843	340.06
595.053	363.06
595.262	348.06
595.472	316.06
595.681	328.06
595.89	319.06
596.1	314.06
596.309	328.06
596.518	317.06
596.727	320.06
596.937	333.06
597.146	324.06
597.355	317.06
597.564	312.06
597.774	310.06
597.983	299.06
598.192	267.06
598.401	281.06
598.61	270.06
598.819	292.06
599.028	294.06
599.237	303.06
599.446	297.06
599.655	301.06
599.864	306.06
600.073	272.06
600.282	293.06
600.491	304.06
600.7	298.06
600.909	283.06
601.118	313.06
601.327	320.06
601.536	349.06
601.745	346.06
601.953	346.06
602.162	357.06
602.371	358.06
602.58	356.06
602.789	340.06
602.997	372.06
603.206	355.06
603.415	358.06
603.623	348.06
603.832	351.06
604.041	352.06
604.249	328.06
604.458	319.06
604.666	323.06
604.875	314.06
605.084	343.06
605.292	352.06
605.501	364.06
605.709	364.06
605.918	372.06
606.126	368.06
606.334	366.06
606.543	376.06
606.751	378.06
606.96	356.06
607.168	346.06
607.376	347.06
607.585	358.06
607.793	378.06
608.001	364.06
608.21	358.06
608.418	355.06
608.626	374.06
608.834	368.06
609.043	354.06
609.251	363.06
609.459	357.06
609.667	393.06
609.875	391.06
610.083	385.06
610.291	376.06
610.499	386.06
610.707	382.06
610.916	353.06
611.124	380.06
611.332	374.06
611.54	354.06
611.748	387.06
611.955	380.06
612.163	346.06
612.371	366.06
612.579	349.06
612.787	378.06
612.995	376.06
613.203	391.06
613.411	383.06
613.618	363.06
613.826	361.06
614.034	377.06
614.242	364.06
614.449	367.06
614.657	348.06
614.865	360.06
615.072	368.06
615.28	365.06
615.488	370.06
615.695	384.06
615.903	356.06
616.111	368.06
616.318	362.06
616.526	377.06
616.733	384.06
616.941	347.06
617.148	360.06
617.356	363.06
617.563	352.06
617.771	341.06
617.978	332.06
618.185	360.06
618.393	363.06
618.6	355.06
618.807	355.06
619.015	357.06
619.222	357.06
619.429	338.06
619.637	316.06
619.844	291.06
620.051	312.06
620.258	330.06
620.466	321.06
620.673	324.06
620.88	320.06
621.087	321.06
621.294	330.06
621.501	306.06
621.708	309.06
621.915	300.06
622.122	338.06
622.329	325.06
622.536	341.06
622.743	344.06
622.95	326.06
623.157	306.06
623.364	318.06
623.571	334.06
623.778	334.06
623.985	332.06
624.192	334.06
624.399	325.06
624.606	315.06
624.812	320.06
625.019	300.06
625.226	302.06
625.433	273.06
625.639	280.06
625.846	272.06
626.053	267.06
626.259	247.06
626.466	270.06
626.673	259.06
626.879	235.06
627.086	252.06
627.293	286.06
627.499	296.06
627.706	296.06
627.912	300.06
628.119	311.06
628.325	302.06
628.532	301.06
628.738	294.06
628.945	276.06
629.151	283.06
629.357	311.06
629.564	292.06
629.77	292.06
629.976	270.06
630.183	274.06
630.389	283.06
630.595	288.06
630.802	284.06
631.008	292.06
631.214	280.06
631.42	259.06
631.627	272.06
631.833	283.06
632.039	269.06
632.245	264.06
632.451	272.06
632.657	267.06
632.863	264.06
633.069	257.06
633.275	252.06
633.481	259.06
633.688	259.06
633.893	260.06
634.099	249.06
634.305	229.06
634.511	245.06
634.717	247.06
634.923	248.06
635.129	233.06
635.335	241.06
635.541	246.06
635.747	249.06
635.952	264.06
636.158	262.06
636.364	291.06
636.57	278.06
636.775	278.06
636.981	281.06
637.187	266.06
637.392	270.06
637.598	264.06
637.804	270.06
638.009	270.06
638.215	270.06
638.421	269.06
638.626	257.06
638.832	247.06
639.037	258.06
639.243	248.06
639.448	228.06
639.654	240.06
639.859	241.06
640.065	235.06
640.27	254.06
640.475	241.06
640.681	238.06
640.886	250.06
641.091	266.06
641.297	244.06
641.502	248.06
641.707	244.06
641.913	250.06
642.118	277.06
642.323	246.06
642.528	251.06
642.733	248.06
642.939	254.06
643.144	245.06
643.349	252.06
643.554	257.06
643.759	249.06
643.964	246.06
644.169	247.06
644.374	243.06
644.579	244.06
644.784	241.06
644.989	237.06
645.194	241.06
645.399	233.06
645.604	248.06
645.809	250.06
646.014	254.06
646.219	244.06
646.423	234.06
646.628	239.06
646.833	250.06
647.038	225.06
647.243	242.06
647.447	241.06
647.652	249.06
647.857	242.06
648.062	254.06
648.266	235.06
648.471	234.06
648.676	217.06
648.88	233.06
649.085	221.06
649.289	228.06
649.494	251.06
649.698	250.06
649.903	218.06
650.107	238.06
650.312	229.06
650.516	219.06
650.721	243.06
650.925	246.06
651.13	231.06
651.334	218.06
651.539	206.06
651.743	235.06
651.947	216.06
652.152	216.06
652.356	224.06
652.56	220.06
652.764	218.06
652.969	224.06
653.173	222.06
653.377	217.06
653.581	206.06
653.785	191.06
653.99	206.06
654.194	208.06
654.398	211.06
654.602	212.06
654.806	176.06
655.01	200.06
655.214	203.06
655.418	187.06
655.622	205.06
655.826	218.06
656.03	222.06
656.234	244.06
656.438	230.06
656.642	224.06
656.846	205.06
657.049	194.06
657.253	189.06
657.457	182.06
657.661	198.06
657.865	164.06
658.068	166.06
658.272	169.06
658.476	158.06
658.68	146.06
658.883	148.06
659.087	138.06
659.291	150.06
659.494	136.06
659.698	140.06
659.901	136.06
660.105	129.06
660.309	121.06
660.512	126.06
660.716	122.06
660.919	125.06
661.123	115.06
661.326	122.06
661.53	101.06
661.733	113.06
661.936	102.06
662.14	100.06
662.343	95.06
662.546	96.06
662.75	90.06
662.953	84.06
663.156	101.06
663.36	105.06
663.563	102.06
663.766	89.06
663.969	92.06
664.173	87.06
664.376	88.06
664.579	74.06
664.782	95.06
664.985	89.06
665.188	82.06
665.391	78.06
665.594	83.06
665.797	90.06
666	76.06
666.203	96.06
666.406	84.06
666.609	83.06
666.812	84.06
667.015	77.06
667.218	80.06
667.421	89.06
667.624	95.06
667.827	88.06
668.03	78.06
668.232	82.06
668.435	70.06
668.638	77.06
668.841	81.06
669.043	69.06
669.246	93.06
669.449	76.06
669.651	92.06
669.854	99.06
670.057	88.06
670.259	77.06
670.462	67.06
670.665	83.06
670.867	62.06
671.07	77.06
671.272	87.06
671.475	92.06
671.677	87.06
671.88	84.06
672.082	86.06
672.284	84.06
672.487	75.06
672.689	81.06
672.892	93.06
