Data from WStandard_LampEnergy5.5LIBS07252019.E.O._I.C._HRD10591_16-07-46-919.txt Node
Date: Thu Jul 25 16:07:46 EDT 2019
User: cochatt
Spectrometer: HR+D1059
Trigger mode: 1
Integration Time (sec): 1.000000E-1
Scans to average: 1
Electric dark correction enabled: true
Nonlinearity correction enabled: false
Boxcar width: 0
XAxis mode: Wavelengths
Number of Pixels in Spectrum: 2048
>>>>>Begin Spectral Data<<<<<
223.165	-9.44
223.4	-9.44
223.635	-9.44
223.869	-28.44
224.104	-13.44
224.338	-23.44
224.573	-28.44
224.808	-16.44
225.042	0.56
225.277	-7.44
225.511	15.56
225.746	9.56
225.98	6.56
226.215	1.56
226.449	22.56
226.683	9.56
226.918	37.56
227.152	23.56
227.387	34.56
227.621	46.56
227.856	37.56
228.09	50.56
228.324	56.56
228.559	62.56
228.793	143.56
229.027	359.56
229.262	378.56
229.496	410.56
229.73	381.56
229.964	440.56
230.199	470.56
230.433	444.56
230.667	517.56
230.901	554.56
231.136	489.56
231.37	462.56
231.604	474.56
231.838	462.56
232.072	458.56
232.306	458.56
232.541	481.56
232.775	558.56
233.009	621.56
233.243	615.56
233.477	544.56
233.711	558.56
233.945	584.56
234.179	561.56
234.413	586.56
234.647	642.56
234.881	608.56
235.115	558.56
235.349	573.56
235.583	564.56
235.817	567.56
236.051	529.56
236.285	540.56
236.519	592.56
236.753	669.56
236.987	687.56
237.221	673.56
237.455	737.56
237.689	726.56
237.922	681.56
238.156	697.56
238.39	675.56
238.624	735.56
238.858	762.56
239.091	786.56
239.325	799.56
239.559	934.56
239.793	974.56
240.027	1086.56
240.26	1045.56
240.494	777.56
240.728	734.56
240.961	738.56
241.195	760.56
241.429	840.56
241.662	841.56
241.896	759.56
242.13	786.56
242.363	880.56
242.597	915.56
242.83	875.56
243.064	883.56
243.298	985.56
243.531	934.56
243.765	929.56
243.998	937.56
244.232	820.56
244.465	773.56
244.699	805.56
244.932	912.56
245.166	1058.56
245.399	1028.56
245.633	908.56
245.866	906.56
246.099	957.56
246.333	987.56
246.566	943.56
246.8	1055.56
247.033	1185.56
247.266	1096.56
247.5	1094.56
247.733	1046.56
247.966	1099.56
248.2	1252.56
248.433	1190.56
248.666	1222.56
248.899	1348.56
249.133	1548.56
249.366	1770.56
249.599	1439.56
249.832	1261.56
250.066	1304.56
250.299	1311.56
250.532	1226.56
250.765	1092.56
250.998	1160.56
251.231	1179.56
251.465	1253.56
251.698	1177.56
251.931	1175.56
252.164	1223.56
252.397	1281.56
252.63	1270.56
252.863	1096.56
253.096	1054.56
253.329	1174.56
253.562	1191.56
253.795	1315.56
254.028	1308.56
254.261	1192.56
254.494	1173.56
254.727	1163.56
254.96	1159.56
255.193	1234.56
255.426	1430.56
255.659	1625.56
255.892	1696.56
256.124	1395.56
256.357	1330.56
256.59	1443.56
256.823	1447.56
257.056	1408.56
257.289	1757.56
257.521	1943.56
257.754	1754.56
257.987	1623.56
258.22	1800.56
258.452	1750.56
258.685	1414.56
258.918	1386.56
259.151	1404.56
259.383	1326.56
259.616	1215.56
259.849	1232.56
260.081	1412.56
260.314	1569.56
260.547	1728.56
260.779	1736.56
261.012	1648.56
261.244	1456.56
261.477	1372.56
261.71	1432.56
261.942	1416.56
262.175	1381.56
262.407	1468.56
262.64	1392.56
262.872	1302.56
263.105	1257.56
263.337	1317.56
263.57	1306.56
263.802	1331.56
264.035	1227.56
264.267	1129.56
264.499	1145.56
264.732	1208.56
264.964	1354.56
265.197	1378.56
265.429	1407.56
265.661	1588.56
265.894	1794.56
266.126	1807.56
266.358	1621.56
266.591	1675.56
266.823	1842.56
267.055	1652.56
267.287	1619.56
267.52	1585.56
267.752	1569.56
267.984	1582.56
268.216	1641.56
268.448	1658.56
268.681	1677.56
268.913	1520.56
269.145	1451.56
269.377	1380.56
269.609	1517.56
269.841	1747.56
270.073	2065.56
270.306	2252.56
270.538	2489.56
270.77	2054.56
271.002	1719.56
271.234	1680.56
271.466	1641.56
271.698	1858.56
271.93	2248.56
272.162	2270.56
272.394	2017.56
272.626	1939.56
272.858	1729.56
273.09	1465.56
273.322	1467.56
273.553	1382.56
273.785	1428.56
274.017	1456.56
274.249	1565.56
274.481	1604.56
274.713	1459.56
274.945	1446.56
275.176	1454.56
275.408	1422.56
275.64	1371.56
275.872	1360.56
276.104	1428.56
276.335	1625.56
276.567	1896.56
276.799	1935.56
277.031	1733.56
277.262	1624.56
277.494	1686.56
277.726	1859.56
277.957	1867.56
278.189	1692.56
278.421	1572.56
278.652	1488.56
278.884	1481.56
279.115	1474.56
279.347	1516.56
279.579	1495.56
279.81	1495.56
280.042	1677.56
280.273	1790.56
280.505	1829.56
280.736	1848.56
280.968	1735.56
281.199	1536.56
281.431	1440.56
281.662	1455.56
281.894	1430.56
282.125	1475.56
282.356	1535.56
282.588	1572.56
282.819	1548.56
283.051	1644.56
283.282	1808.56
283.513	1756.56
283.745	1535.56
283.976	1388.56
284.207	1424.56
284.439	1465.56
284.67	1527.56
284.901	1556.56
285.132	1601.56
285.364	1544.56
285.595	1565.56
285.826	1501.56
286.057	1488.56
286.288	1502.56
286.52	1538.56
286.751	1682.56
286.982	1771.56
287.213	1641.56
287.444	1479.56
287.675	1458.56
287.906	1520.56
288.138	1638.56
288.369	1585.56
288.6	1510.56
288.831	1477.56
289.062	1464.56
289.293	1518.56
289.524	1525.56
289.755	1557.56
289.986	1609.56
290.217	1480.56
290.448	1493.56
290.679	1561.56
290.91	1522.56
291.141	1553.56
291.371	1638.56
291.602	1594.56
291.833	1606.56
292.064	1692.56
292.295	1650.56
292.526	1650.56
292.757	1766.56
292.987	1659.56
293.218	1545.56
293.449	1665.56
293.68	1912.56
293.91	2049.56
294.141	1926.56
294.372	1801.56
294.603	1846.56
294.833	1923.56
295.064	1780.56
295.295	1629.56
295.525	1561.56
295.756	1501.56
295.987	1380.56
296.217	1400.56
296.448	1492.56
296.679	1509.56
296.909	1507.56
297.14	1474.56
297.37	1471.56
297.601	1575.56
297.831	1708.56
298.062	1724.56
298.292	1592.56
298.523	1506.56
298.753	1473.56
298.984	1552.56
299.214	1537.56
299.445	1580.56
299.675	1633.56
299.905	1605.56
300.136	1576.56
300.366	1558.56
300.597	1465.56
300.827	1485.56
301.057	1517.56
301.288	1605.56
301.518	1600.56
301.748	1632.56
301.979	1736.56
302.209	1733.56
302.439	1900.56
302.669	1964.56
302.9	1858.56
303.13	1659.56
303.36	1666.56
303.59	1737.56
303.82	1640.56
304.051	1633.56
304.281	1666.56
304.511	1644.56
304.741	1718.56
304.971	1929.56
305.201	2109.56
305.431	1951.56
305.661	1600.56
305.891	1470.56
306.121	1446.56
306.352	1509.56
306.582	1549.56
306.812	1694.56
307.042	1843.56
307.272	1829.56
307.502	1852.56
307.731	2001.56
307.961	2186.56
308.191	2060.56
308.421	1714.56
308.651	1605.56
308.881	1572.56
309.111	1618.56
309.341	1536.56
309.571	1542.56
309.8	1597.56
310.03	1580.56
310.26	1559.56
310.49	1551.56
310.72	1600.56
310.949	1692.56
311.179	1690.56
311.409	1710.56
311.639	1641.56
311.868	1588.56
312.098	1604.56
312.328	1607.56
312.557	1577.56
312.787	1623.56
313.017	1643.56
313.246	1694.56
313.476	1636.56
313.706	1688.56
313.935	1696.56
314.165	1695.56
314.394	1732.56
314.624	1858.56
314.853	1940.56
315.083	1992.56
315.312	2109.56
315.542	1958.56
315.771	1702.56
316.001	1705.56
316.23	1789.56
316.46	1796.56
316.689	1774.56
316.919	1710.56
317.148	1616.56
317.377	1639.56
317.607	1709.56
317.836	1965.56
318.065	2055.56
318.295	1950.56
318.524	1870.56
318.753	1804.56
318.983	1792.56
319.212	1738.56
319.441	1722.56
319.67	1694.56
319.9	1733.56
320.129	1849.56
320.358	1916.56
320.587	1959.56
320.816	1967.56
321.046	1912.56
321.275	1773.56
321.504	1806.56
321.733	1937.56
321.962	1951.56
322.191	1729.56
322.42	1760.56
322.649	1705.56
322.878	1702.56
323.108	1748.56
323.337	1813.56
323.566	1799.56
323.795	1810.56
324.024	1802.56
324.253	1764.56
324.482	1761.56
324.71	1696.56
324.939	1649.56
325.168	1619.56
325.397	1710.56
325.626	1767.56
325.855	1772.56
326.084	1720.56
326.313	1716.56
326.542	1740.56
326.77	1806.56
326.999	1822.56
327.228	1728.56
327.457	1639.56
327.686	1615.56
327.914	1667.56
328.143	1743.56
328.372	1746.56
328.6	1759.56
328.829	1733.56
329.058	1677.56
329.287	1656.56
329.515	1729.56
329.744	1751.56
329.972	1857.56
330.201	1909.56
330.43	1908.56
330.658	1811.56
330.887	1816.56
331.115	1793.56
331.344	1852.56
331.572	1766.56
331.801	1814.56
332.03	1823.56
332.258	1818.56
332.486	1847.56
332.715	1852.56
332.943	1883.56
333.172	1790.56
333.4	1861.56
333.629	1873.56
333.857	1992.56
334.085	2182.56
334.314	2467.56
334.542	2780.56
334.771	2527.56
334.999	2208.56
335.227	2094.56
335.455	1955.56
335.684	1959.56
335.912	1984.56
336.14	2029.56
336.369	1966.56
336.597	1900.56
336.825	1831.56
337.053	1873.56
337.281	2028.56
337.51	2129.56
337.738	2213.56
337.966	2109.56
338.194	1895.56
338.422	1827.56
338.65	1827.56
338.878	1802.56
339.106	1756.56
339.334	1723.56
339.562	1687.56
339.79	1729.56
340.018	1837.56
340.246	1914.56
340.474	1925.56
340.702	1847.56
340.93	1916.56
341.158	1892.56
341.386	1812.56
341.614	1786.56
341.842	1800.56
342.07	1819.56
342.298	1796.56
342.526	1825.56
342.754	1798.56
342.981	1788.56
343.209	1745.56
343.437	1746.56
343.665	1791.56
343.893	1817.56
344.12	1960.56
344.348	1934.56
344.576	1877.56
344.804	1806.56
345.031	1826.56
345.259	1822.56
345.487	1747.56
345.714	1694.56
345.942	1657.56
346.17	1672.56
346.397	1700.56
346.625	1766.56
346.853	1630.56
347.08	1570.56
347.308	1617.56
347.535	1663.56
347.763	1722.56
347.99	1692.56
348.218	1628.56
348.445	1626.56
348.673	1683.56
348.9	1738.56
349.128	1757.56
349.355	1809.56
349.583	1788.56
349.81	1676.56
350.037	1558.56
350.265	1577.56
350.492	1620.56
350.72	1616.56
350.947	1670.56
351.174	1693.56
351.402	1635.56
351.629	1567.56
351.856	1557.56
352.083	1534.56
352.311	1566.56
352.538	1603.56
352.765	1665.56
352.992	1730.56
353.22	1630.56
353.447	1602.56
353.674	1605.56
353.901	1652.56
354.128	1621.56
354.355	1574.56
354.583	1683.56
354.81	1692.56
355.037	1730.56
355.264	1704.56
355.491	1631.56
355.718	1670.56
355.945	1672.56
356.172	1654.56
356.399	1603.56
356.626	1621.56
356.853	1647.56
357.08	1789.56
357.307	1982.56
357.534	1986.56
357.761	1734.56
357.988	1641.56
358.215	1546.56
358.441	1587.56
358.668	1580.56
358.895	1604.56
359.122	1660.56
359.349	1863.56
359.576	1839.56
359.802	1664.56
360.029	1609.56
360.256	1580.56
360.483	1644.56
360.709	1612.56
360.936	1719.56
361.163	1732.56
361.39	1902.56
361.616	2081.56
361.843	2036.56
362.07	1919.56
362.296	1711.56
362.523	1616.56
362.749	1631.56
362.976	1683.56
363.203	1725.56
363.429	1651.56
363.656	1596.56
363.882	1634.56
364.109	1800.56
364.335	1964.56
364.562	1847.56
364.788	1750.56
365.015	1662.56
365.241	1592.56
365.468	1664.56
365.694	1714.56
365.92	1841.56
366.147	1731.56
366.373	1638.56
366.599	1583.56
366.826	1582.56
367.052	1609.56
367.278	1620.56
367.505	1644.56
367.731	1645.56
367.957	1675.56
368.184	1720.56
368.41	1858.56
368.636	1858.56
368.862	1822.56
369.089	1848.56
369.315	1796.56
369.541	1720.56
369.767	1696.56
369.993	1626.56
370.219	1627.56
370.445	1660.56
370.672	1752.56
370.898	1863.56
371.124	1835.56
371.35	1726.56
371.576	1774.56
371.802	1873.56
372.028	1797.56
372.254	1728.56
372.48	1680.56
372.706	1639.56
372.932	1664.56
373.158	1633.56
373.384	1664.56
373.61	1749.56
373.835	1831.56
374.061	1754.56
374.287	1709.56
374.513	1716.56
374.739	1729.56
374.965	1760.56
375.191	1785.56
375.416	1788.56
375.642	1782.56
375.868	1863.56
376.094	1914.56
376.319	1858.56
376.545	1704.56
376.771	1737.56
376.997	1850.56
377.222	1825.56
377.448	1772.56
377.674	1846.56
377.899	1753.56
378.125	1903.56
378.35	1934.56
378.576	1740.56
378.802	1629.56
379.027	1659.56
379.253	1688.56
379.478	1699.56
379.704	1699.56
379.929	1674.56
380.155	1724.56
380.38	1763.56
380.606	1729.56
380.831	1721.56
381.057	1779.56
381.282	1827.56
381.507	1768.56
381.733	1907.56
381.958	2001.56
382.184	1846.56
382.409	1729.56
382.634	1781.56
382.86	1793.56
383.085	1811.56
383.31	1853.56
383.535	1999.56
383.761	2073.56
383.986	2031.56
384.211	1949.56
384.436	1892.56
384.662	1980.56
384.887	2120.56
385.112	2014.56
385.337	2011.56
385.562	1952.56
385.787	1989.56
386.013	2001.56
386.238	2036.56
386.463	1996.56
386.688	2103.56
386.913	2263.56
387.138	2172.56
387.363	2015.56
387.588	2058.56
387.813	2005.56
388.038	2050.56
388.263	2129.56
388.488	2039.56
388.713	1912.56
388.938	1887.56
389.163	1882.56
389.387	1973.56
389.612	1944.56
389.837	1971.56
390.062	1992.56
390.287	2026.56
390.512	1997.56
390.736	1961.56
390.961	1911.56
391.186	1877.56
391.411	1883.56
391.636	1943.56
391.86	1976.56
392.085	1994.56
392.31	1914.56
392.534	1924.56
392.759	1993.56
392.984	2020.56
393.208	1958.56
393.433	1997.56
393.658	2102.56
393.882	2125.56
394.107	2018.56
394.331	1990.56
394.556	1928.56
394.78	1903.56
395.005	2074.56
395.229	2118.56
395.454	2267.56
395.678	2305.56
395.903	2157.56
396.127	2113.56
396.352	2107.56
396.576	2177.56
396.801	2160.56
397.025	2139.56
397.249	2158.56
397.474	2123.56
397.698	2101.56
397.922	2148.56
398.147	2247.56
398.371	2350.56
398.595	2373.56
398.82	2247.56
399.044	2275.56
399.268	2338.56
399.492	2534.56
399.717	2649.56
399.941	2617.56
400.165	2565.56
400.389	2536.56
400.613	2528.56
400.837	2728.56
401.062	3133.56
401.286	2716.56
401.51	2435.56
401.734	2601.56
401.958	2520.56
402.182	2381.56
402.406	2241.56
402.63	2201.56
402.854	2250.56
403.078	2258.56
403.302	2303.56
403.526	2334.56
403.75	2335.56
403.974	2384.56
404.198	2302.56
404.422	2413.56
404.645	2532.56
404.869	2528.56
405.093	2300.56
405.317	2261.56
405.541	2360.56
405.765	2364.56
405.988	2339.56
406.212	2393.56
406.436	2402.56
406.66	2482.56
406.883	2516.56
407.107	2832.56
407.331	3061.56
407.555	3273.56
407.778	3066.56
408.002	2527.56
408.226	2451.56
408.449	2435.56
408.673	2386.56
408.896	2414.56
409.12	2488.56
409.344	2371.56
409.567	2333.56
409.791	2365.56
410.014	2434.56
410.238	2468.56
410.461	2674.56
410.685	2401.56
410.908	2272.56
411.132	2337.56
411.355	2321.56
411.578	2239.56
411.802	2264.56
412.025	2333.56
412.249	2312.56
412.472	2230.56
412.695	2191.56
412.919	2204.56
413.142	2196.56
413.365	2218.56
413.589	2292.56
413.812	2384.56
414.035	2502.56
414.258	2300.56
414.482	2273.56
414.705	2271.56
414.928	2218.56
415.151	2196.56
415.374	2221.56
415.597	2271.56
415.821	2275.56
416.044	2378.56
416.267	2380.56
416.49	2178.56
416.713	2160.56
416.936	2240.56
417.159	2313.56
417.382	2337.56
417.605	2164.56
417.828	2238.56
418.051	2263.56
418.274	2237.56
418.497	2149.56
418.72	2110.56
418.943	2119.56
419.166	2281.56
419.389	2413.56
419.611	2285.56
419.834	2181.56
420.057	2240.56
420.28	2150.56
420.503	2149.56
420.726	2234.56
420.948	2195.56
421.171	2133.56
421.394	2141.56
421.617	2213.56
421.839	2159.56
422.062	2176.56
422.285	2125.56
422.507	2143.56
422.73	2103.56
422.953	2056.56
423.175	2053.56
423.398	2092.56
423.621	2112.56
423.843	2126.56
424.066	2181.56
424.288	2246.56
424.511	2279.56
424.733	2247.56
424.956	2068.56
425.178	2035.56
425.401	2070.56
425.623	2062.56
425.846	2074.56
426.068	2160.56
426.291	2264.56
426.513	2197.56
426.735	2209.56
426.958	2308.56
427.18	2468.56
427.402	2276.56
427.625	2292.56
427.847	2336.56
428.069	2180.56
428.292	2114.56
428.514	2014.56
428.736	2055.56
428.958	2064.56
429.181	2070.56
429.403	2355.56
429.625	2915.56
429.847	2592.56
430.069	2151.56
430.292	2307.56
430.514	2437.56
430.736	2204.56
430.958	2294.56
431.18	2258.56
431.402	2087.56
431.624	2064.56
431.846	2084.56
432.068	2024.56
432.29	2039.56
432.512	2081.56
432.734	2133.56
432.956	2133.56
433.178	2275.56
433.4	2195.56
433.622	2240.56
433.844	2106.56
434.066	2067.56
434.287	2083.56
434.509	2129.56
434.731	2254.56
434.953	2390.56
435.175	2344.56
435.397	2182.56
435.618	2181.56
435.84	2199.56
436.062	2168.56
436.284	2146.56
436.505	2218.56
436.727	2230.56
436.949	2178.56
437.17	2077.56
437.392	2129.56
437.614	2119.56
437.835	2019.56
438.057	2172.56
438.278	2264.56
438.5	2157.56
438.721	2063.56
438.943	2049.56
439.165	2058.56
439.386	2020.56
439.608	2030.56
439.829	2028.56
440.05	2099.56
440.272	2065.56
440.493	1992.56
440.715	2091.56
440.936	2204.56
441.158	2433.56
441.379	2387.56
441.6	2309.56
441.822	2263.56
442.043	2246.56
442.264	2162.56
442.486	2053.56
442.707	2073.56
442.928	2064.56
443.149	2128.56
443.371	2263.56
443.592	2350.56
443.813	2250.56
444.034	2271.56
444.255	2277.56
444.476	2321.56
444.698	2392.56
444.919	2300.56
445.14	2367.56
445.361	2426.56
445.582	2493.56
445.803	2372.56
446.024	2286.56
446.245	2360.56
446.466	2316.56
446.687	2222.56
446.908	2136.56
447.129	2122.56
447.35	2169.56
447.571	2153.56
447.792	2057.56
448.013	2025.56
448.234	2056.56
448.455	2165.56
448.675	2210.56
448.896	2048.56
449.117	1933.56
449.338	2019.56
449.559	2099.56
449.779	2245.56
450	2478.56
450.221	2681.56
450.442	2599.56
450.662	2242.56
450.883	1999.56
451.104	1952.56
451.324	1991.56
451.545	2086.56
451.766	2035.56
451.986	1936.56
452.207	1913.56
452.428	1863.56
452.648	1865.56
452.869	1948.56
453.089	2046.56
453.31	2052.56
453.53	2083.56
453.751	1988.56
453.971	1913.56
454.192	1913.56
454.412	2089.56
454.633	2005.56
454.853	1982.56
455.073	1841.56
455.294	1801.56
455.514	1784.56
455.734	1833.56
455.955	1860.56
456.175	1855.56
456.395	1856.56
456.616	1948.56
456.836	1958.56
457.056	1929.56
457.276	1961.56
457.497	1863.56
457.717	1783.56
457.937	1824.56
458.157	1873.56
458.377	1880.56
458.598	1861.56
458.818	1872.56
459.038	2017.56
459.258	2133.56
459.478	2163.56
459.698	2033.56
459.918	2056.56
460.138	2213.56
460.358	2249.56
460.578	2238.56
460.798	2302.56
461.018	2446.56
461.238	2340.56
461.458	2236.56
461.678	2244.56
461.898	2177.56
462.118	2106.56
462.338	2212.56
462.558	2256.56
462.777	2230.56
462.997	2326.56
463.217	2477.56
463.437	2462.56
463.657	2268.56
463.876	2268.56
464.096	2240.56
464.316	2240.56
464.536	2337.56
464.755	2336.56
464.975	2378.56
465.195	2277.56
465.414	2383.56
465.634	2377.56
465.854	2212.56
466.073	2370.56
466.293	2333.56
466.512	2059.56
466.732	2021.56
466.951	2097.56
467.171	2118.56
467.391	2034.56
467.61	1991.56
467.829	1987.56
468.049	2167.56
468.268	2428.56
468.488	2287.56
468.707	2132.56
468.927	2100.56
469.146	2012.56
469.365	1990.56
469.585	2059.56
469.804	1986.56
470.023	2012.56
470.243	2103.56
470.462	2021.56
470.681	2001.56
470.901	2045.56
471.12	2061.56
471.339	2000.56
471.558	1984.56
471.777	1968.56
471.997	1965.56
472.216	1997.56
472.435	1920.56
472.654	1950.56
472.873	2074.56
473.092	2193.56
473.311	2072.56
473.53	1916.56
473.749	1912.56
473.968	1992.56
474.187	2108.56
474.406	2218.56
474.625	2117.56
474.844	2064.56
475.063	2001.56
475.282	2077.56
475.501	2081.56
475.72	2107.56
475.939	2168.56
476.158	2153.56
476.377	2042.56
476.596	2046.56
476.814	2144.56
477.033	2146.56
477.252	2250.56
477.471	2300.56
477.69	2127.56
477.908	2127.56
478.127	2261.56
478.346	2519.56
478.564	2452.56
478.783	2403.56
479.002	2493.56
479.22	2380.56
479.439	2529.56
479.658	2805.56
479.876	2806.56
480.095	2481.56
480.313	2373.56
480.532	2256.56
480.751	2277.56
480.969	2302.56
481.188	2341.56
481.406	2280.56
481.624	2258.56
481.843	2235.56
482.061	2321.56
482.28	2336.56
482.498	2375.56
482.717	2376.56
482.935	2285.56
483.153	2254.56
483.372	2278.56
483.59	2239.56
483.808	2312.56
484.027	2301.56
484.245	2436.56
484.463	2822.56
484.681	3271.56
484.9	2546.56
485.118	2350.56
485.336	2292.56
485.554	2341.56
485.772	2448.56
485.99	2401.56
486.209	2496.56
486.427	2494.56
486.645	2437.56
486.863	2407.56
487.081	2460.56
487.299	2529.56
487.517	2506.56
487.735	2424.56
487.953	2373.56
488.171	2346.56
488.389	2334.56
488.607	2338.56
488.825	2572.56
489.043	2692.56
489.261	2409.56
489.479	2518.56
489.696	2608.56
489.914	2524.56
490.132	2400.56
490.35	2390.56
490.568	2535.56
490.786	2415.56
491.003	2297.56
491.221	2383.56
491.439	2467.56
491.657	2458.56
491.874	2448.56
492.092	2457.56
492.31	2525.56
492.527	2430.56
492.745	2435.56
492.963	2403.56
493.18	2527.56
493.398	2688.56
493.615	2771.56
493.833	2534.56
494.05	2431.56
494.268	2465.56
494.485	2541.56
494.703	2492.56
494.92	2428.56
495.138	2451.56
495.355	2419.56
495.573	2591.56
495.79	2739.56
496.008	2777.56
496.225	2571.56
496.442	2580.56
496.66	2626.56
496.877	2542.56
497.094	2693.56
497.312	2735.56
497.529	2680.56
497.746	2766.56
497.963	3199.56
498.181	3606.56
498.398	3358.56
498.615	3311.56
498.832	3162.56
499.049	3118.56
499.267	3110.56
499.484	3379.56
499.701	3648.56
499.918	3653.56
500.135	3942.56
500.352	4247.56
500.569	4146.56
500.786	4408.56
501.003	4157.56
501.22	3772.56
501.437	3680.56
501.654	3653.56
501.871	3558.56
502.088	3130.56
502.305	3176.56
502.522	3034.56
502.739	2832.56
502.956	2724.56
503.172	2749.56
503.389	2608.56
503.606	2640.56
503.823	2630.56
504.04	2640.56
504.256	2652.56
504.473	2606.56
504.69	2759.56
504.907	2616.56
505.123	2453.56
505.34	2579.56
505.557	3279.56
505.773	2850.56
505.99	2440.56
506.207	2270.56
506.423	2231.56
506.64	2224.56
506.856	2210.56
507.073	2499.56
507.289	2788.56
507.506	2641.56
507.722	2236.56
507.939	2137.56
508.155	2165.56
508.372	2175.56
508.588	2133.56
508.805	2060.56
509.021	2020.56
509.238	2063.56
509.454	2040.56
509.67	2083.56
509.887	1999.56
510.103	2002.56
510.319	2062.56
510.536	2149.56
510.752	2237.56
510.968	2217.56
511.184	2332.56
511.401	2325.56
511.617	1988.56
511.833	1994.56
512.049	1952.56
512.265	1990.56
512.481	1945.56
512.698	2040.56
512.914	2191.56
513.13	2119.56
513.346	2003.56
513.562	1967.56
513.778	1998.56
513.994	2060.56
514.21	2157.56
514.426	2164.56
514.642	2423.56
514.858	2284.56
515.074	2078.56
515.29	2003.56
515.506	2077.56
515.721	2112.56
515.937	2098.56
516.153	2395.56
516.369	2321.56
516.585	2202.56
516.801	2056.56
517.016	2041.56
517.232	2149.56
517.448	2180.56
517.664	2176.56
517.879	2198.56
518.095	2272.56
518.311	2214.56
518.527	2119.56
518.742	2061.56
518.958	1992.56
519.173	2000.56
519.389	2006.56
519.605	2038.56
519.82	2037.56
520.036	2093.56
520.251	2016.56
520.467	2012.56
520.682	2186.56
520.898	2253.56
521.113	1993.56
521.329	1967.56
521.544	2151.56
521.76	2049.56
521.975	1935.56
522.19	1893.56
522.406	1860.56
522.621	2253.56
522.836	2332.56
523.052	1867.56
523.267	1881.56
523.482	1911.56
523.698	1821.56
523.913	1766.56
524.128	1804.56
524.343	1958.56
524.559	1992.56
524.774	1840.56
524.989	1849.56
525.204	1814.56
525.419	1802.56
525.634	1778.56
525.849	1837.56
526.064	1823.56
526.28	1810.56
526.495	1769.56
526.71	1741.56
526.925	1774.56
527.14	1721.56
527.355	1736.56
527.57	1716.56
527.785	1780.56
527.999	1744.56
528.214	1670.56
528.429	1672.56
528.644	1662.56
528.859	1721.56
529.074	1718.56
529.289	1727.56
529.503	1735.56
529.718	1782.56
529.933	1743.56
530.148	1697.56
530.363	1656.56
530.577	1720.56
530.792	1742.56
531.007	1720.56
531.221	1725.56
531.436	1740.56
531.651	1800.56
531.865	1862.56
532.08	1768.56
532.295	1686.56
532.509	1660.56
532.724	1663.56
532.938	1739.56
533.153	1862.56
533.367	1758.56
533.582	1742.56
533.796	1686.56
534.011	1707.56
534.225	1738.56
534.44	1715.56
534.654	1683.56
534.868	1680.56
535.083	1727.56
535.297	1780.56
535.511	1712.56
535.726	1714.56
535.94	1694.56
536.154	1673.56
536.369	1676.56
536.583	1654.56
536.797	1615.56
537.011	1682.56
537.225	1639.56
537.44	1592.56
537.654	1681.56
537.868	1585.56
538.082	1560.56
538.296	1528.56
538.51	1564.56
538.724	1556.56
538.938	1568.56
539.153	1630.56
539.367	1606.56
539.581	1624.56
539.795	1669.56
540.009	1664.56
540.222	1637.56
540.436	1656.56
540.65	1801.56
540.864	1801.56
541.078	1732.56
541.292	1600.56
541.506	1605.56
541.72	1593.56
541.934	1613.56
542.147	1649.56
542.361	1588.56
542.575	1559.56
542.789	1524.56
543.002	1497.56
543.216	1530.56
543.43	1636.56
543.644	1684.56
543.857	1714.56
544.071	1675.56
544.285	1636.56
544.498	1595.56
544.712	1597.56
544.925	1621.56
545.139	1669.56
545.352	1554.56
545.566	1537.56
545.779	1506.56
545.993	1546.56
546.206	1549.56
546.42	1517.56
546.633	1460.56
546.847	1474.56
547.06	1516.56
547.274	1518.56
547.487	1503.56
547.7	1481.56
547.914	1505.56
548.127	1551.56
548.34	1516.56
548.554	1536.56
548.767	1509.56
548.98	1532.56
549.193	1534.56
549.407	1566.56
549.62	1604.56
549.833	1543.56
550.046	1482.56
550.259	1503.56
550.473	1511.56
550.686	1481.56
550.899	1456.56
551.112	1430.56
551.325	1442.56
551.538	1532.56
551.751	1808.56
551.964	1454.56
552.177	1420.56
552.39	1424.56
552.603	1480.56
552.816	1488.56
553.029	1561.56
553.242	1597.56
553.455	1546.56
553.667	1497.56
553.88	1470.56
554.093	1499.56
554.306	1446.56
554.519	1399.56
554.732	1372.56
554.944	1406.56
555.157	1439.56
555.37	1421.56
555.583	1428.56
555.795	1373.56
556.008	1335.56
556.221	1295.56
556.433	1315.56
556.646	1337.56
556.859	1294.56
557.071	1304.56
557.284	1290.56
557.496	1297.56
557.709	1264.56
557.921	1263.56
558.134	1256.56
558.346	1268.56
558.559	1232.56
558.771	1237.56
558.984	1230.56
559.196	1188.56
559.409	1163.56
559.621	1206.56
559.833	1218.56
560.046	1272.56
560.258	1267.56
560.47	1227.56
560.683	1247.56
560.895	1225.56
561.107	1272.56
561.32	1272.56
561.532	1270.56
561.744	1254.56
561.956	1247.56
562.168	1184.56
562.381	1201.56
562.593	1189.56
562.805	1201.56
563.017	1163.56
563.229	1198.56
563.441	1251.56
563.653	1204.56
563.865	1192.56
564.077	1175.56
564.289	1209.56
564.501	1216.56
564.713	1238.56
564.925	1294.56
565.137	1402.56
565.349	1298.56
565.561	1278.56
565.773	1312.56
565.985	1296.56
566.197	1372.56
566.408	1478.56
566.62	1485.56
566.832	1487.56
567.044	1469.56
567.255	1446.56
567.467	1452.56
567.679	1488.56
567.891	1530.56
568.102	1506.56
568.314	1476.56
568.526	1394.56
568.737	1328.56
568.949	1277.56
569.161	1209.56
569.372	1165.56
569.584	1190.56
569.795	1200.56
570.007	1178.56
570.218	1126.56
570.43	1115.56
570.641	1112.56
570.853	1118.56
571.064	1092.56
571.276	1073.56
571.487	1048.56
571.698	1028.56
571.91	1054.56
572.121	1034.56
572.333	1040.56
572.544	1005.56
572.755	975.56
572.966	954.56
573.178	958.56
573.389	982.56
573.6	1025.56
573.811	1084.56
574.023	1008.56
574.234	956.56
574.445	942.56
574.656	930.56
574.867	884.56
575.078	917.56
575.289	912.56
575.501	910.56
575.712	927.56
575.923	927.56
576.134	952.56
576.345	888.56
576.556	896.56
576.767	866.56
576.978	886.56
577.188	876.56
577.399	870.56
577.61	876.56
577.821	845.56
578.032	836.56
578.243	861.56
578.454	848.56
578.665	837.56
578.875	815.56
579.086	801.56
579.297	820.56
579.508	874.56
579.718	854.56
579.929	817.56
580.14	787.56
580.35	810.56
580.561	838.56
580.772	925.56
580.982	843.56
581.193	812.56
581.403	787.56
581.614	807.56
581.825	789.56
582.035	781.56
582.246	764.56
582.456	807.56
582.667	806.56
582.877	783.56
583.087	776.56
583.298	774.56
583.508	775.56
583.719	798.56
583.929	780.56
584.139	784.56
584.35	712.56
584.56	743.56
584.77	760.56
584.981	782.56
585.191	770.56
585.401	782.56
585.611	768.56
585.821	733.56
586.032	766.56
586.242	740.56
586.452	742.56
586.662	737.56
586.872	728.56
587.082	740.56
587.292	779.56
587.502	776.56
587.713	804.56
587.923	756.56
588.133	742.56
588.343	779.56
588.553	728.56
588.762	751.56
588.972	694.56
589.182	764.56
589.392	734.56
589.602	732.56
589.812	744.56
590.022	712.56
590.232	711.56
590.441	749.56
590.651	739.56
590.861	735.56
591.071	719.56
591.281	711.56
591.49	703.56
591.7	713.56
591.91	757.56
592.119	720.56
592.329	716.56
592.539	736.56
592.748	745.56
592.958	745.56
593.167	772.56
593.377	786.56
593.587	783.56
593.796	769.56
594.006	778.56
594.215	768.56
594.424	741.56
594.634	724.56
594.843	741.56
595.053	777.56
595.262	733.56
595.472	700.56
595.681	718.56
595.89	716.56
596.1	696.56
596.309	677.56
596.518	674.56
596.727	698.56
596.937	676.56
597.146	654.56
597.355	656.56
597.564	633.56
597.774	649.56
597.983	642.56
598.192	651.56
598.401	614.56
598.61	629.56
598.819	642.56
599.028	647.56
599.237	623.56
599.446	634.56
599.655	624.56
599.864	587.56
600.073	597.56
600.282	602.56
600.491	584.56
600.7	602.56
600.909	587.56
601.118	583.56
601.327	604.56
601.536	625.56
601.745	596.56
601.953	581.56
602.162	586.56
602.371	607.56
602.58	592.56
602.789	598.56
602.997	608.56
603.206	597.56
603.415	605.56
603.623	579.56
603.832	593.56
604.041	571.56
604.249	561.56
604.458	556.56
604.666	583.56
604.875	583.56
605.084	588.56
605.292	569.56
605.501	566.56
605.709	545.56
605.918	544.56
606.126	535.56
606.334	543.56
606.543	553.56
606.751	568.56
606.96	581.56
607.168	549.56
607.376	546.56
607.585	537.56
607.793	560.56
608.001	546.56
608.21	551.56
608.418	533.56
608.626	549.56
608.834	555.56
609.043	552.56
609.251	533.56
609.459	531.56
609.667	527.56
609.875	518.56
610.083	558.56
610.291	548.56
610.499	550.56
610.707	528.56
610.916	516.56
611.124	534.56
611.332	513.56
611.54	532.56
611.748	513.56
611.955	523.56
612.163	510.56
612.371	517.56
612.579	505.56
612.787	521.56
612.995	524.56
613.203	503.56
613.411	512.56
613.618	510.56
613.826	545.56
614.034	533.56
614.242	511.56
614.449	526.56
614.657	519.56
614.865	515.56
615.072	516.56
615.28	493.56
615.488	518.56
615.695	551.56
615.903	510.56
616.111	509.56
616.318	504.56
616.526	522.56
616.733	526.56
616.941	515.56
617.148	493.56
617.356	474.56
617.563	510.56
617.771	492.56
617.978	488.56
618.185	496.56
618.393	478.56
618.6	495.56
618.807	501.56
619.015	505.56
619.222	500.56
619.429	494.56
619.637	483.56
619.844	487.56
620.051	484.56
620.258	449.56
620.466	461.56
620.673	472.56
620.88	464.56
621.087	456.56
621.294	446.56
621.501	472.56
621.708	464.56
621.915	463.56
622.122	462.56
622.329	464.56
622.536	465.56
622.743	451.56
622.95	448.56
623.157	461.56
623.364	462.56
623.571	429.56
623.778	448.56
623.985	459.56
624.192	457.56
624.399	448.56
624.606	460.56
624.812	419.56
625.019	437.56
625.226	457.56
625.433	420.56
625.639	407.56
625.846	422.56
626.053	423.56
626.259	425.56
626.466	389.56
626.673	413.56
626.879	413.56
627.086	399.56
627.293	415.56
627.499	412.56
627.706	413.56
627.912	418.56
628.119	412.56
628.325	408.56
628.532	407.56
628.738	406.56
628.945	401.56
629.151	408.56
629.357	399.56
629.564	418.56
629.77	393.56
629.976	394.56
630.183	379.56
630.389	387.56
630.595	391.56
630.802	392.56
631.008	382.56
631.214	376.56
631.42	380.56
631.627	373.56
631.833	386.56
632.039	383.56
632.245	362.56
632.451	374.56
632.657	372.56
632.863	370.56
633.069	386.56
633.275	361.56
633.481	347.56
633.688	359.56
633.893	356.56
634.099	361.56
634.305	356.56
634.511	357.56
634.717	339.56
634.923	349.56
635.129	340.56
635.335	354.56
635.541	344.56
635.747	358.56
635.952	356.56
636.158	358.56
636.364	372.56
636.57	351.56
636.775	346.56
636.981	356.56
637.187	349.56
637.392	358.56
637.598	330.56
637.804	354.56
638.009	335.56
638.215	324.56
638.421	335.56
638.626	342.56
638.832	344.56
639.037	351.56
639.243	325.56
639.448	336.56
639.654	346.56
639.859	319.56
640.065	310.56
640.27	359.56
640.475	343.56
640.681	339.56
640.886	333.56
641.091	314.56
641.297	344.56
641.502	308.56
641.707	314.56
641.913	341.56
642.118	323.56
642.323	332.56
642.528	313.56
642.733	318.56
642.939	315.56
643.144	304.56
643.349	321.56
643.554	324.56
643.759	297.56
643.964	311.56
644.169	328.56
644.374	294.56
644.579	316.56
644.784	317.56
644.989	299.56
645.194	313.56
645.399	301.56
645.604	311.56
645.809	300.56
646.014	320.56
646.219	300.56
646.423	309.56
646.628	309.56
646.833	296.56
647.038	296.56
647.243	319.56
647.447	316.56
647.652	327.56
647.857	305.56
648.062	304.56
648.266	316.56
648.471	329.56
648.676	320.56
648.88	326.56
649.085	315.56
649.289	318.56
649.494	300.56
649.698	294.56
649.903	307.56
650.107	313.56
650.312	304.56
650.516	279.56
650.721	288.56
650.925	274.56
651.13	284.56
651.334	297.56
651.539	284.56
651.743	279.56
651.947	264.56
652.152	268.56
652.356	255.56
652.56	252.56
652.764	270.56
652.969	241.56
653.173	242.56
653.377	257.56
653.581	232.56
653.785	241.56
653.99	250.56
654.194	231.56
654.398	243.56
654.602	231.56
654.806	243.56
655.01	244.56
655.214	234.56
655.418	244.56
655.622	256.56
655.826	246.56
656.03	262.56
656.234	262.56
656.438	271.56
656.642	267.56
656.846	236.56
657.049	241.56
657.253	213.56
657.457	228.56
657.661	190.56
657.865	170.56
658.068	168.56
658.272	169.56
658.476	151.56
658.68	163.56
658.883	145.56
659.087	153.56
659.291	126.56
659.494	131.56
659.698	111.56
659.901	120.56
660.105	117.56
660.309	103.56
660.512	118.56
660.716	123.56
660.919	117.56
661.123	102.56
661.326	121.56
661.53	104.56
661.733	103.56
661.936	105.56
662.14	93.56
662.343	78.56
662.546	85.56
662.75	83.56
662.953	92.56
663.156	93.56
663.36	71.56
663.563	91.56
663.766	97.56
663.969	80.56
664.173	70.56
664.376	74.56
664.579	87.56
664.782	87.56
664.985	86.56
665.188	82.56
665.391	78.56
665.594	85.56
665.797	87.56
666	68.56
666.203	88.56
666.406	78.56
666.609	64.56
666.812	79.56
667.015	69.56
667.218	70.56
667.421	84.56
667.624	73.56
667.827	77.56
668.03	68.56
668.232	89.56
668.435	80.56
668.638	87.56
668.841	91.56
669.043	87.56
669.246	100.56
669.449	87.56
669.651	68.56
669.854	68.56
670.057	83.56
670.259	71.56
670.462	80.56
670.665	88.56
670.867	93.56
671.07	78.56
671.272	78.56
671.475	81.56
671.677	77.56
671.88	76.56
672.082	66.56
672.284	98.56
672.487	79.56
672.689	75.56
672.892	73.56
