Data from WStandard_LampEnergy10_LIBS07252019.E.O._I.C._HRD10591_15-55-18-928.txt Node
Date: Thu Jul 25 15:55:18 EDT 2019
User: cochatt
Spectrometer: HR+D1059
Trigger mode: 1
Integration Time (sec): 1.000000E-1
Scans to average: 1
Electric dark correction enabled: true
Nonlinearity correction enabled: false
Boxcar width: 0
XAxis mode: Wavelengths
Number of Pixels in Spectrum: 2048
>>>>>Begin Spectral Data<<<<<
223.165	-12.38
223.4	-12.38
223.635	-12.38
223.869	-9.38
224.104	-40.38
224.338	0.62
224.573	-10.38
224.808	-17.38
225.042	-17.38
225.277	-1.38
225.511	-3.38
225.746	7.62
225.98	2.62
226.215	10.62
226.449	23.62
226.683	24.62
226.918	14.62
227.152	27.62
227.387	34.62
227.621	42.62
227.856	50.62
228.09	43.62
228.324	48.62
228.559	40.62
228.793	79.62
229.027	134.62
229.262	136.62
229.496	143.62
229.73	149.62
229.964	152.62
230.199	157.62
230.433	149.62
230.667	170.62
230.901	190.62
231.136	168.62
231.37	160.62
231.604	175.62
231.838	169.62
232.072	183.62
232.306	178.62
232.541	186.62
232.775	206.62
233.009	209.62
233.243	188.62
233.477	178.62
233.711	189.62
233.945	186.62
234.179	200.62
234.413	198.62
234.647	211.62
234.881	218.62
235.115	190.62
235.349	186.62
235.583	187.62
235.817	201.62
236.051	184.62
236.285	196.62
236.519	198.62
236.753	219.62
236.987	225.62
237.221	217.62
237.455	243.62
237.689	213.62
237.922	225.62
238.156	215.62
238.39	235.62
238.624	219.62
238.858	230.62
239.091	248.62
239.325	253.62
239.559	273.62
239.793	269.62
240.027	289.62
240.26	281.62
240.494	224.62
240.728	217.62
240.961	243.62
241.195	229.62
241.429	237.62
241.662	260.62
241.896	243.62
242.13	237.62
242.363	255.62
242.597	281.62
242.83	248.62
243.064	267.62
243.298	273.62
243.531	260.62
243.765	270.62
243.998	267.62
244.232	231.62
244.465	248.62
244.699	267.62
244.932	274.62
245.166	285.62
245.399	289.62
245.633	275.62
245.866	276.62
246.099	284.62
246.333	287.62
246.566	291.62
246.8	299.62
247.033	325.62
247.266	310.62
247.5	293.62
247.733	311.62
247.966	319.62
248.2	354.62
248.433	335.62
248.666	341.62
248.899	385.62
249.133	404.62
249.366	435.62
249.599	370.62
249.832	332.62
250.066	356.62
250.299	352.62
250.532	339.62
250.765	321.62
250.998	331.62
251.231	345.62
251.465	352.62
251.698	341.62
251.931	352.62
252.164	326.62
252.397	346.62
252.63	340.62
252.863	328.62
253.096	320.62
253.329	341.62
253.562	361.62
253.795	368.62
254.028	373.62
254.261	337.62
254.494	323.62
254.727	337.62
254.96	345.62
255.193	354.62
255.426	396.62
255.659	431.62
255.892	437.62
256.124	371.62
256.357	392.62
256.59	411.62
256.823	416.62
257.056	424.62
257.289	480.62
257.521	507.62
257.754	467.62
257.987	435.62
258.22	465.62
258.452	442.62
258.685	385.62
258.918	381.62
259.151	377.62
259.383	353.62
259.616	333.62
259.849	359.62
260.081	395.62
260.314	439.62
260.547	469.62
260.779	441.62
261.012	409.62
261.244	385.62
261.477	383.62
261.71	385.62
261.942	378.62
262.175	365.62
262.407	413.62
262.64	376.62
262.872	358.62
263.105	343.62
263.337	371.62
263.57	360.62
263.802	361.62
264.035	347.62
264.267	331.62
264.499	328.62
264.732	342.62
264.964	379.62
265.197	397.62
265.429	404.62
265.661	431.62
265.894	466.62
266.126	511.62
266.358	441.62
266.591	475.62
266.823	480.62
267.055	443.62
267.287	442.62
267.52	417.62
267.752	429.62
267.984	438.62
268.216	474.62
268.448	439.62
268.681	433.62
268.913	411.62
269.145	411.62
269.377	422.62
269.609	438.62
269.841	537.62
270.073	553.62
270.306	601.62
270.538	593.62
270.77	496.62
271.002	456.62
271.234	465.62
271.466	465.62
271.698	523.62
271.93	569.62
272.162	580.62
272.394	541.62
272.626	497.62
272.858	435.62
273.09	407.62
273.322	399.62
273.553	398.62
273.785	398.62
274.017	402.62
274.249	438.62
274.481	438.62
274.713	403.62
274.945	404.62
275.176	396.62
275.408	398.62
275.64	380.62
275.872	387.62
276.104	435.62
276.335	479.62
276.567	525.62
276.799	511.62
277.031	485.62
277.262	480.62
277.494	486.62
277.726	531.62
277.957	473.62
278.189	446.62
278.421	455.62
278.652	413.62
278.884	407.62
279.115	417.62
279.347	434.62
279.579	408.62
279.81	425.62
280.042	473.62
280.273	478.62
280.505	491.62
280.736	475.62
280.968	452.62
281.199	419.62
281.431	391.62
281.662	417.62
281.894	431.62
282.125	413.62
282.356	442.62
282.588	438.62
282.819	460.62
283.051	473.62
283.282	511.62
283.513	501.62
283.745	455.62
283.976	409.62
284.207	433.62
284.439	457.62
284.67	460.62
284.901	448.62
285.132	462.62
285.364	436.62
285.595	460.62
285.826	429.62
286.057	431.62
286.288	422.62
286.52	442.62
286.751	482.62
286.982	490.62
287.213	442.62
287.444	418.62
287.675	431.62
287.906	441.62
288.138	468.62
288.369	442.62
288.6	445.62
288.831	452.62
289.062	447.62
289.293	456.62
289.524	445.62
289.755	451.62
289.986	461.62
290.217	432.62
290.448	424.62
290.679	449.62
290.91	467.62
291.141	462.62
291.371	489.62
291.602	468.62
291.833	440.62
292.064	473.62
292.295	470.62
292.526	487.62
292.757	487.62
292.987	485.62
293.218	491.62
293.449	516.62
293.68	531.62
293.91	575.62
294.141	520.62
294.372	518.62
294.603	542.62
294.833	544.62
295.064	529.62
295.295	475.62
295.525	451.62
295.756	450.62
295.987	437.62
296.217	426.62
296.448	456.62
296.679	440.62
296.909	457.62
297.14	448.62
297.37	465.62
297.601	522.62
297.831	507.62
298.062	502.62
298.292	478.62
298.523	452.62
298.753	455.62
298.984	473.62
299.214	482.62
299.445	484.62
299.675	494.62
299.905	501.62
300.136	460.62
300.366	443.62
300.597	448.62
300.827	457.62
301.057	471.62
301.288	501.62
301.518	503.62
301.748	518.62
301.979	524.62
302.209	541.62
302.439	558.62
302.669	584.62
302.9	533.62
303.13	515.62
303.36	511.62
303.59	531.62
303.82	514.62
304.051	512.62
304.281	494.62
304.511	490.62
304.741	557.62
304.971	605.62
305.201	618.62
305.431	551.62
305.661	468.62
305.891	455.62
306.121	449.62
306.352	479.62
306.582	507.62
306.812	522.62
307.042	569.62
307.272	554.62
307.502	587.62
307.731	625.62
307.961	601.62
308.191	571.62
308.421	525.62
308.651	511.62
308.881	498.62
309.111	495.62
309.341	488.62
309.571	487.62
309.8	474.62
310.03	470.62
310.26	479.62
310.49	490.62
310.72	507.62
310.949	537.62
311.179	517.62
311.409	501.62
311.639	479.62
311.868	495.62
312.098	504.62
312.328	510.62
312.557	486.62
312.787	513.62
313.017	518.62
313.246	526.62
313.476	522.62
313.706	518.62
313.935	519.62
314.165	534.62
314.394	566.62
314.624	560.62
314.853	598.62
315.083	618.62
315.312	604.62
315.542	566.62
315.771	520.62
316.001	529.62
316.23	589.62
316.46	560.62
316.689	538.62
316.919	513.62
317.148	519.62
317.377	549.62
317.607	581.62
317.836	613.62
318.065	613.62
318.295	601.62
318.524	558.62
318.753	549.62
318.983	555.62
319.212	545.62
319.441	543.62
319.67	555.62
319.9	541.62
320.129	579.62
320.358	607.62
320.587	614.62
320.816	610.62
321.046	578.62
321.275	580.62
321.504	595.62
321.733	597.62
321.962	595.62
322.191	556.62
322.42	560.62
322.649	535.62
322.878	533.62
323.108	564.62
323.337	568.62
323.566	575.62
323.795	558.62
324.024	566.62
324.253	552.62
324.482	545.62
324.71	527.62
324.939	524.62
325.168	531.62
325.397	547.62
325.626	546.62
325.855	563.62
326.084	544.62
326.313	580.62
326.542	551.62
326.77	577.62
326.999	549.62
327.228	529.62
327.457	543.62
327.686	505.62
327.914	537.62
328.143	550.62
328.372	543.62
328.6	559.62
328.829	538.62
329.058	533.62
329.287	544.62
329.515	558.62
329.744	582.62
329.972	592.62
330.201	627.62
330.43	590.62
330.658	581.62
330.887	574.62
331.115	628.62
331.344	585.62
331.572	581.62
331.801	588.62
332.03	597.62
332.258	608.62
332.486	612.62
332.715	588.62
332.943	579.62
333.172	569.62
333.4	583.62
333.629	593.62
333.857	643.62
334.085	723.62
334.314	821.62
334.542	804.62
334.771	724.62
334.999	661.62
335.227	631.62
335.455	609.62
335.684	624.62
335.912	639.62
336.14	664.62
336.369	606.62
336.597	581.62
336.825	604.62
337.053	641.62
337.281	655.62
337.51	699.62
337.738	673.62
337.966	653.62
338.194	591.62
338.422	584.62
338.65	579.62
338.878	584.62
339.106	580.62
339.334	573.62
339.562	565.62
339.79	597.62
340.018	609.62
340.246	611.62
340.474	615.62
340.702	615.62
340.93	595.62
341.158	605.62
341.386	584.62
341.614	583.62
341.842	593.62
342.07	585.62
342.298	595.62
342.526	575.62
342.754	581.62
342.981	584.62
343.209	565.62
343.437	565.62
343.665	598.62
343.893	602.62
344.12	629.62
344.348	610.62
344.576	583.62
344.804	604.62
345.031	581.62
345.259	592.62
345.487	566.62
345.714	559.62
345.942	549.62
346.17	585.62
346.397	574.62
346.625	570.62
346.853	529.62
347.08	538.62
347.308	541.62
347.535	535.62
347.763	578.62
347.99	565.62
348.218	540.62
348.445	544.62
348.673	535.62
348.9	584.62
349.128	601.62
349.355	604.62
349.583	570.62
349.81	563.62
350.037	534.62
350.265	519.62
350.492	534.62
350.72	546.62
350.947	556.62
351.174	549.62
351.402	536.62
351.629	520.62
351.856	507.62
352.083	514.62
352.311	528.62
352.538	544.62
352.765	569.62
352.992	569.62
353.22	546.62
353.447	535.62
353.674	564.62
353.901	557.62
354.128	541.62
354.355	563.62
354.583	575.62
354.81	582.62
355.037	571.62
355.264	555.62
355.491	555.62
355.718	585.62
355.945	561.62
356.172	545.62
356.399	541.62
356.626	524.62
356.853	584.62
357.08	642.62
357.307	679.62
357.534	638.62
357.761	567.62
357.988	545.62
358.215	525.62
358.441	539.62
358.668	542.62
358.895	557.62
359.122	583.62
359.349	620.62
359.576	579.62
359.802	541.62
360.029	565.62
360.256	517.62
360.483	548.62
360.709	563.62
360.936	599.62
361.163	612.62
361.39	681.62
361.616	695.62
361.843	681.62
362.07	626.62
362.296	561.62
362.523	576.62
362.749	572.62
362.976	567.62
363.203	588.62
363.429	542.62
363.656	555.62
363.882	608.62
364.109	647.62
364.335	669.62
364.562	617.62
364.788	585.62
365.015	574.62
365.241	567.62
365.468	571.62
365.694	575.62
365.92	614.62
366.147	577.62
366.373	559.62
366.599	533.62
366.826	559.62
367.052	558.62
367.278	569.62
367.505	582.62
367.731	587.62
367.957	577.62
368.184	619.62
368.41	641.62
368.636	647.62
368.862	641.62
369.089	618.62
369.315	617.62
369.541	609.62
369.767	589.62
369.993	572.62
370.219	567.62
370.445	606.62
370.672	656.62
370.898	658.62
371.124	627.62
371.35	639.62
371.576	641.62
371.802	663.62
372.028	609.62
372.254	593.62
372.48	613.62
372.706	603.62
372.932	600.62
373.158	592.62
373.384	624.62
373.61	631.62
373.835	617.62
374.061	602.62
374.287	627.62
374.513	633.62
374.739	631.62
374.965	621.62
375.191	643.62
375.416	659.62
375.642	651.62
375.868	681.62
376.094	690.62
376.319	665.62
376.545	621.62
376.771	665.62
376.997	673.62
377.222	680.62
377.448	645.62
377.674	654.62
377.899	677.62
378.125	697.62
378.35	678.62
378.576	612.62
378.802	617.62
379.027	617.62
379.253	633.62
379.478	616.62
379.704	643.62
379.929	655.62
380.155	627.62
380.38	648.62
380.606	654.62
380.831	674.62
381.057	685.62
381.282	673.62
381.507	680.62
381.733	724.62
381.958	713.62
382.184	663.62
382.409	687.62
382.634	689.62
382.86	651.62
383.085	669.62
383.31	708.62
383.535	751.62
383.761	779.62
383.986	779.62
384.211	710.62
384.436	709.62
384.662	774.62
384.887	767.62
385.112	705.62
385.337	705.62
385.562	708.62
385.787	742.62
386.013	764.62
386.238	730.62
386.463	747.62
386.688	819.62
386.913	839.62
387.138	816.62
387.363	783.62
387.588	758.62
387.813	759.62
388.038	791.62
388.263	767.62
388.488	749.62
388.713	710.62
388.938	709.62
389.163	718.62
389.387	746.62
389.612	729.62
389.837	744.62
390.062	734.62
390.287	728.62
390.512	706.62
390.736	714.62
390.961	719.62
391.186	729.62
391.411	720.62
391.636	733.62
391.86	725.62
392.085	724.62
392.31	739.62
392.534	749.62
392.759	758.62
392.984	746.62
393.208	787.62
393.433	780.62
393.658	823.62
393.882	815.62
394.107	773.62
394.331	768.62
394.556	778.62
394.78	766.62
395.005	807.62
395.229	835.62
395.454	864.62
395.678	846.62
395.903	789.62
396.127	786.62
396.352	821.62
396.576	797.62
396.801	836.62
397.025	826.62
397.249	810.62
397.474	792.62
397.698	802.62
397.922	845.62
398.147	870.62
398.371	886.62
398.595	870.62
398.82	852.62
399.044	856.62
399.268	900.62
399.492	948.62
399.717	961.62
399.941	975.62
400.165	943.62
400.389	941.62
400.613	974.62
400.837	1121.62
401.062	1191.62
401.286	994.62
401.51	962.62
401.734	965.62
401.958	919.62
402.182	864.62
402.406	858.62
402.63	839.62
402.854	869.62
403.078	895.62
403.302	902.62
403.526	932.62
403.75	901.62
403.974	932.62
404.198	920.62
404.422	955.62
404.645	998.62
404.869	921.62
405.093	889.62
405.317	893.62
405.541	883.62
405.765	915.62
405.988	923.62
406.212	949.62
406.436	964.62
406.66	968.62
406.883	1023.62
407.107	1138.62
407.331	1217.62
407.555	1253.62
407.778	1098.62
408.002	961.62
408.226	941.62
408.449	945.62
408.673	926.62
408.896	962.62
409.12	936.62
409.344	934.62
409.567	906.62
409.791	894.62
410.014	961.62
410.238	1035.62
410.461	1009.62
410.685	940.62
410.908	915.62
411.132	944.62
411.355	913.62
411.578	892.62
411.802	943.62
412.025	937.62
412.249	906.62
412.472	901.62
412.695	898.62
412.919	911.62
413.142	922.62
413.365	915.62
413.589	951.62
413.812	989.62
414.035	988.62
414.258	906.62
414.482	921.62
414.705	890.62
414.928	904.62
415.151	914.62
415.374	930.62
415.597	945.62
415.821	947.62
416.044	976.62
416.267	893.62
416.49	886.62
416.713	904.62
416.936	931.62
417.159	968.62
417.382	969.62
417.605	897.62
417.828	932.62
418.051	949.62
418.274	897.62
418.497	893.62
418.72	902.62
418.943	899.62
419.166	934.62
419.389	946.62
419.611	929.62
419.834	922.62
420.057	943.62
420.28	943.62
420.503	901.62
420.726	947.62
420.948	929.62
421.171	901.62
421.394	948.62
421.617	952.62
421.839	967.62
422.062	955.62
422.285	917.62
422.507	916.62
422.73	893.62
422.953	854.62
423.175	857.62
423.398	899.62
423.621	893.62
423.843	923.62
424.066	974.62
424.288	1009.62
424.511	1038.62
424.733	992.62
424.956	918.62
425.178	915.62
425.401	919.62
425.623	912.62
425.846	941.62
426.068	943.62
426.291	942.62
426.513	952.62
426.735	955.62
426.958	1026.62
427.18	1041.62
427.402	961.62
427.625	1015.62
427.847	959.62
428.069	901.62
428.292	887.62
428.514	891.62
428.736	874.62
428.958	887.62
429.181	931.62
429.403	1051.62
429.625	1208.62
429.847	1025.62
430.069	953.62
430.292	1063.62
430.514	1007.62
430.736	973.62
430.958	974.62
431.18	910.62
431.402	880.62
431.624	827.62
431.846	768.62
432.068	731.62
432.29	727.62
432.512	785.62
432.734	880.62
432.956	911.62
433.178	936.62
433.4	960.62
433.622	957.62
433.844	882.62
434.066	836.62
434.287	777.62
434.509	773.62
434.731	824.62
434.953	895.62
435.175	901.62
435.397	861.62
435.618	885.62
435.84	850.62
436.062	849.62
436.284	893.62
436.505	891.62
436.727	923.62
436.949	870.62
437.17	874.62
437.392	902.62
437.614	839.62
437.835	779.62
438.057	781.62
438.278	845.62
438.5	855.62
438.721	901.62
438.943	891.62
439.165	924.62
439.386	907.62
439.608	959.62
439.829	943.62
440.05	955.62
440.272	955.62
440.493	938.62
440.715	943.62
440.936	989.62
441.158	1052.62
441.379	1033.62
441.6	1021.62
441.822	1010.62
442.043	1012.62
442.264	973.62
442.486	928.62
442.707	972.62
442.928	934.62
443.149	973.62
443.371	992.62
443.592	1017.62
443.813	1006.62
444.034	984.62
444.255	973.62
444.476	1023.62
444.698	1011.62
444.919	1003.62
445.14	1152.62
445.361	1083.62
445.582	1062.62
445.803	1019.62
446.024	1027.62
446.245	1054.62
446.466	1027.62
446.687	1041.62
446.908	1050.62
447.129	1006.62
447.35	1017.62
447.571	993.62
447.792	964.62
448.013	930.62
448.234	979.62
448.455	974.62
448.675	977.62
448.896	911.62
449.117	886.62
449.338	903.62
449.559	917.62
449.779	938.62
450	1017.62
450.221	1033.62
450.442	999.62
450.662	929.62
450.883	870.62
451.104	865.62
451.324	864.62
451.545	872.62
451.766	863.62
451.986	806.62
452.207	803.62
452.428	802.62
452.648	759.62
452.869	773.62
453.089	780.62
453.31	746.62
453.53	743.62
453.751	711.62
453.971	685.62
454.192	713.62
454.412	769.62
454.633	776.62
454.853	762.62
455.073	769.62
455.294	771.62
455.514	764.62
455.734	751.62
455.955	752.62
456.175	733.62
456.395	714.62
456.616	723.62
456.836	731.62
457.056	731.62
457.276	725.62
457.497	693.62
457.717	671.62
457.937	738.62
458.157	702.62
458.377	675.62
458.598	690.62
458.818	678.62
459.038	681.62
459.258	709.62
459.478	701.62
459.698	731.62
459.918	741.62
460.138	788.62
460.358	834.62
460.578	810.62
460.798	847.62
461.018	874.62
461.238	863.62
461.458	830.62
461.678	817.62
461.898	806.62
462.118	821.62
462.338	854.62
462.558	858.62
462.777	837.62
462.997	844.62
463.217	902.62
463.437	877.62
463.657	817.62
463.876	821.62
464.096	804.62
464.316	817.62
464.536	831.62
464.755	854.62
464.975	848.62
465.195	833.62
465.414	866.62
465.634	856.62
465.854	865.62
466.073	948.62
466.293	921.62
466.512	892.62
466.732	883.62
466.951	884.62
467.171	887.62
467.391	887.62
467.61	870.62
467.829	867.62
468.049	964.62
468.268	1031.62
468.488	930.62
468.707	895.62
468.927	875.62
469.146	903.62
469.365	911.62
469.585	937.62
469.804	913.62
470.023	899.62
470.243	936.62
470.462	904.62
470.681	907.62
470.901	890.62
471.12	931.62
471.339	906.62
471.558	910.62
471.777	898.62
471.997	895.62
472.216	843.62
472.435	785.62
472.654	752.62
472.873	790.62
473.092	823.62
473.311	812.62
473.53	815.62
473.749	806.62
473.968	845.62
474.187	815.62
474.406	839.62
474.625	834.62
474.844	868.62
475.063	855.62
475.282	863.62
475.501	795.62
475.72	831.62
475.939	917.62
476.158	867.62
476.377	868.62
476.596	832.62
476.814	821.62
477.033	806.62
477.252	838.62
477.471	892.62
477.69	935.62
477.908	939.62
478.127	964.62
478.346	1007.62
478.564	989.62
478.783	965.62
479.002	993.62
479.22	1002.62
479.439	1014.62
479.658	1020.62
479.876	1021.62
480.095	885.62
480.313	855.62
480.532	897.62
480.751	854.62
480.969	833.62
481.188	757.62
481.406	778.62
481.624	768.62
481.843	792.62
482.061	839.62
482.28	850.62
482.498	856.62
482.717	826.62
482.935	886.62
483.153	971.62
483.372	1016.62
483.59	1002.62
483.808	965.62
484.027	943.62
484.245	1000.62
484.463	1171.62
484.681	1286.62
484.9	1027.62
485.118	959.62
485.336	880.62
485.554	885.62
485.772	888.62
485.99	876.62
486.209	859.62
486.427	889.62
486.645	934.62
486.863	996.62
487.081	1024.62
487.299	994.62
487.517	1030.62
487.735	1083.62
487.953	1186.62
488.171	1161.62
488.389	1130.62
488.607	1073.62
488.825	1134.62
489.043	1021.62
489.261	980.62
489.479	1007.62
489.696	1049.62
489.914	995.62
490.132	1007.62
490.35	1086.62
490.568	1169.62
490.786	1172.62
491.003	1149.62
491.221	1210.62
491.439	1273.62
491.657	1284.62
491.874	1325.62
492.092	1421.62
492.31	1489.62
492.527	1440.62
492.745	1342.62
492.963	1285.62
493.18	1272.62
493.398	1333.62
493.615	1280.62
493.833	1263.62
494.05	1205.62
494.268	1206.62
494.485	1243.62
494.703	1234.62
494.92	1219.62
495.138	1224.62
495.355	1204.62
495.573	1240.62
495.79	1270.62
496.008	1260.62
496.225	1213.62
496.442	1191.62
496.66	1244.62
496.877	1207.62
497.094	1236.62
497.312	1211.62
497.529	1193.62
497.746	1175.62
497.963	1227.62
498.181	1303.62
498.398	1241.62
498.615	1190.62
498.832	1119.62
499.049	1105.62
499.267	1151.62
499.484	1239.62
499.701	1333.62
499.918	1346.62
500.135	1457.62
500.352	1527.62
500.569	1526.62
500.786	1704.62
501.003	1513.62
501.22	1441.62
501.437	1375.62
501.654	1414.62
501.871	1325.62
502.088	1201.62
502.305	1198.62
502.522	1134.62
502.739	1085.62
502.956	1041.62
503.172	1068.62
503.389	997.62
503.606	989.62
503.823	961.62
504.04	989.62
504.256	1004.62
504.473	995.62
504.69	1025.62
504.907	941.62
505.123	966.62
505.34	1078.62
505.557	1366.62
505.773	1090.62
505.99	948.62
506.207	874.62
506.423	842.62
506.64	852.62
506.856	890.62
507.073	1021.62
507.289	1071.62
507.506	1001.62
507.722	874.62
507.939	841.62
508.155	858.62
508.372	836.62
508.588	792.62
508.805	802.62
509.021	780.62
509.238	758.62
509.454	756.62
509.67	754.62
509.887	723.62
510.103	720.62
510.319	709.62
510.536	765.62
510.752	775.62
510.968	749.62
511.184	780.62
511.401	746.62
511.617	679.62
511.833	709.62
512.049	686.62
512.265	713.62
512.481	715.62
512.698	741.62
512.914	760.62
513.13	757.62
513.346	706.62
513.562	689.62
513.778	697.62
513.994	749.62
514.21	739.62
514.426	749.62
514.642	775.62
514.858	763.62
515.074	728.62
515.29	689.62
515.506	721.62
515.721	731.62
515.937	750.62
516.153	772.62
516.369	786.62
516.585	742.62
516.801	718.62
517.016	728.62
517.232	723.62
517.448	754.62
517.664	774.62
517.879	769.62
518.095	817.62
518.311	775.62
518.527	759.62
518.742	767.62
518.958	719.62
519.173	762.62
519.389	778.62
519.605	746.62
519.82	797.62
520.036	793.62
520.251	766.62
520.467	783.62
520.682	804.62
520.898	791.62
521.113	714.62
521.329	687.62
521.544	734.62
521.76	715.62
521.975	714.62
522.19	702.62
522.406	745.62
522.621	933.62
522.836	849.62
523.052	720.62
523.267	741.62
523.482	775.62
523.698	737.62
523.913	730.62
524.128	752.62
524.343	831.62
524.559	814.62
524.774	801.62
524.989	760.62
525.204	760.62
525.419	707.62
525.634	725.62
525.849	717.62
526.064	729.62
526.28	697.62
526.495	670.62
526.71	641.62
526.925	635.62
527.14	615.62
527.355	607.62
527.57	618.62
527.785	672.62
527.999	681.62
528.214	680.62
528.429	697.62
528.644	717.62
528.859	799.62
529.074	834.62
529.289	864.62
529.503	853.62
529.718	819.62
529.933	731.62
530.148	655.62
530.363	638.62
530.577	639.62
530.792	626.62
531.007	616.62
531.221	635.62
531.436	630.62
531.651	641.62
531.865	665.62
532.08	628.62
532.295	639.62
532.509	600.62
532.724	593.62
532.938	640.62
533.153	689.62
533.367	695.62
533.582	736.62
533.796	735.62
534.011	706.62
534.225	662.62
534.44	641.62
534.654	633.62
534.868	660.62
535.083	701.62
535.297	683.62
535.511	652.62
535.726	674.62
535.94	671.62
536.154	625.62
536.369	614.62
536.583	615.62
536.797	622.62
537.011	610.62
537.225	615.62
537.44	610.62
537.654	658.62
537.868	612.62
538.082	605.62
538.296	590.62
538.51	609.62
538.724	651.62
538.938	676.62
539.153	725.62
539.367	741.62
539.581	698.62
539.795	647.62
540.009	629.62
540.222	616.62
540.436	659.62
540.65	738.62
540.864	792.62
541.078	809.62
541.292	848.62
541.506	877.62
541.72	943.62
541.934	1000.62
542.147	1080.62
542.361	966.62
542.575	900.62
542.789	821.62
543.002	769.62
543.216	730.62
543.43	767.62
543.644	777.62
543.857	868.62
544.071	917.62
544.285	909.62
544.498	910.62
544.712	904.62
544.925	916.62
545.139	932.62
545.352	931.62
545.566	905.62
545.779	932.62
545.993	941.62
546.206	959.62
546.42	928.62
546.633	928.62
546.847	926.62
547.06	944.62
547.274	943.62
547.487	977.62
547.7	982.62
547.914	938.62
548.127	931.62
548.34	943.62
548.554	911.62
548.767	912.62
548.98	903.62
549.193	898.62
549.407	942.62
549.62	918.62
549.833	877.62
550.046	864.62
550.259	846.62
550.473	867.62
550.686	851.62
550.899	832.62
551.112	837.62
551.325	815.62
551.538	821.62
551.751	861.62
551.964	681.62
552.177	719.62
552.39	780.62
552.603	806.62
552.816	843.62
553.029	889.62
553.242	907.62
553.455	889.62
553.667	892.62
553.88	897.62
554.093	873.62
554.306	833.62
554.519	843.62
554.732	808.62
554.944	792.62
555.157	830.62
555.37	816.62
555.583	789.62
555.795	757.62
556.008	736.62
556.221	714.62
556.433	720.62
556.646	723.62
556.859	727.62
557.071	759.62
557.284	767.62
557.496	741.62
557.709	727.62
557.921	721.62
558.134	698.62
558.346	735.62
558.559	737.62
558.771	685.62
558.984	687.62
559.196	679.62
559.409	659.62
559.621	671.62
559.833	655.62
560.046	678.62
560.258	647.62
560.47	649.62
560.683	683.62
560.895	669.62
561.107	676.62
561.32	656.62
561.532	696.62
561.744	664.62
561.956	659.62
562.168	643.62
562.381	635.62
562.593	621.62
562.805	639.62
563.017	641.62
563.229	627.62
563.441	635.62
563.653	617.62
563.865	609.62
564.077	615.62
564.289	602.62
564.501	591.62
564.713	612.62
564.925	642.62
565.137	674.62
565.349	611.62
565.561	597.62
565.773	601.62
565.985	624.62
566.197	647.62
566.408	677.62
566.62	667.62
566.832	672.62
567.044	674.62
567.255	644.62
567.467	646.62
567.679	625.62
567.891	642.62
568.102	593.62
568.314	577.62
568.526	517.62
568.737	509.62
568.949	471.62
569.161	459.62
569.372	437.62
569.584	440.62
569.795	472.62
570.007	459.62
570.218	432.62
570.43	436.62
570.641	452.62
570.853	458.62
571.064	474.62
571.276	465.62
571.487	478.62
571.698	477.62
571.91	455.62
572.121	456.62
572.333	454.62
572.544	419.62
572.755	410.62
572.966	381.62
573.178	390.62
573.389	384.62
573.6	401.62
573.811	413.62
574.023	417.62
574.234	396.62
574.445	383.62
574.656	387.62
574.867	383.62
575.078	389.62
575.289	389.62
575.501	396.62
575.712	400.62
575.923	382.62
576.134	403.62
576.345	393.62
576.556	376.62
576.767	401.62
576.978	408.62
577.188	389.62
577.399	379.62
577.61	367.62
577.821	345.62
578.032	379.62
578.243	385.62
578.454	346.62
578.665	343.62
578.875	335.62
579.086	324.62
579.297	334.62
579.508	354.62
579.718	344.62
579.929	345.62
580.14	323.62
580.35	331.62
580.561	331.62
580.772	374.62
580.982	369.62
581.193	351.62
581.403	367.62
581.614	345.62
581.825	333.62
582.035	340.62
582.246	352.62
582.456	359.62
582.667	356.62
582.877	323.62
583.087	340.62
583.298	324.62
583.508	324.62
583.719	334.62
583.929	339.62
584.139	330.62
584.35	318.62
584.56	338.62
584.77	315.62
584.981	341.62
585.191	345.62
585.401	319.62
585.611	329.62
585.821	341.62
586.032	330.62
586.242	343.62
586.452	307.62
586.662	307.62
586.872	311.62
587.082	308.62
587.292	314.62
587.502	310.62
587.713	313.62
587.923	320.62
588.133	296.62
588.343	314.62
588.553	303.62
588.762	305.62
588.972	310.62
589.182	312.62
589.392	312.62
589.602	306.62
589.812	310.62
590.022	299.62
590.232	299.62
590.441	327.62
590.651	296.62
590.861	305.62
591.071	303.62
591.281	329.62
591.49	302.62
591.7	311.62
591.91	318.62
592.119	309.62
592.329	315.62
592.539	331.62
592.748	314.62
592.958	318.62
593.167	321.62
593.377	317.62
593.587	318.62
593.796	333.62
594.006	323.62
594.215	329.62
594.424	329.62
594.634	319.62
594.843	306.62
595.053	341.62
595.262	316.62
595.472	321.62
595.681	326.62
595.89	311.62
596.1	295.62
596.309	311.62
596.518	320.62
596.727	303.62
596.937	309.62
597.146	318.62
597.355	292.62
597.564	297.62
597.774	302.62
597.983	283.62
598.192	282.62
598.401	289.62
598.61	286.62
598.819	282.62
599.028	295.62
599.237	290.62
599.446	288.62
599.655	275.62
599.864	276.62
600.073	276.62
600.282	281.62
600.491	295.62
600.7	289.62
600.909	289.62
601.118	288.62
601.327	318.62
601.536	330.62
601.745	327.62
601.953	339.62
602.162	332.62
602.371	352.62
602.58	347.62
602.789	344.62
602.997	350.62
603.206	354.62
603.415	327.62
603.623	354.62
603.832	335.62
604.041	319.62
604.249	318.62
604.458	313.62
604.666	315.62
604.875	286.62
605.084	314.62
605.292	332.62
605.501	352.62
605.709	346.62
605.918	357.62
606.126	359.62
606.334	353.62
606.543	360.62
606.751	371.62
606.96	369.62
607.168	359.62
607.376	327.62
607.585	344.62
607.793	367.62
608.001	350.62
608.21	343.62
608.418	361.62
608.626	340.62
608.834	357.62
609.043	366.62
609.251	359.62
609.459	355.62
609.667	348.62
609.875	345.62
610.083	350.62
610.291	359.62
610.499	367.62
610.707	349.62
610.916	369.62
611.124	345.62
611.332	351.62
611.54	356.62
611.748	349.62
611.955	364.62
612.163	367.62
612.371	344.62
612.579	337.62
612.787	359.62
612.995	374.62
613.203	347.62
613.411	354.62
613.618	341.62
613.826	353.62
614.034	350.62
614.242	345.62
614.449	349.62
614.657	349.62
614.865	352.62
615.072	354.62
615.28	355.62
615.488	346.62
615.695	377.62
615.903	338.62
616.111	337.62
616.318	345.62
616.526	357.62
616.733	353.62
616.941	337.62
617.148	354.62
617.356	365.62
617.563	339.62
617.771	329.62
617.978	325.62
618.185	341.62
618.393	340.62
618.6	349.62
618.807	358.62
619.015	326.62
619.222	337.62
619.429	332.62
619.637	306.62
619.844	296.62
620.051	311.62
620.258	305.62
620.466	307.62
620.673	304.62
620.88	323.62
621.087	298.62
621.294	311.62
621.501	322.62
621.708	294.62
621.915	303.62
622.122	316.62
622.329	326.62
622.536	335.62
622.743	337.62
622.95	327.62
623.157	321.62
623.364	310.62
623.571	331.62
623.778	322.62
623.985	315.62
624.192	322.62
624.399	314.62
624.606	314.62
624.812	316.62
625.019	291.62
625.226	287.62
625.433	286.62
625.639	290.62
625.846	263.62
626.053	238.62
626.259	248.62
626.466	247.62
626.673	258.62
626.879	234.62
627.086	256.62
627.293	282.62
627.499	269.62
627.706	302.62
627.912	314.62
628.119	335.62
628.325	320.62
628.532	295.62
628.738	282.62
628.945	279.62
629.151	265.62
629.357	260.62
629.564	261.62
629.77	290.62
629.976	279.62
630.183	262.62
630.389	284.62
630.595	260.62
630.802	275.62
631.008	282.62
631.214	280.62
631.42	279.62
631.627	256.62
631.833	268.62
632.039	271.62
632.245	267.62
632.451	271.62
632.657	259.62
632.863	259.62
633.069	249.62
633.275	267.62
633.481	259.62
633.688	235.62
633.893	234.62
634.099	250.62
634.305	238.62
634.511	253.62
634.717	249.62
634.923	218.62
635.129	223.62
635.335	226.62
635.541	220.62
635.747	244.62
635.952	250.62
636.158	262.62
636.364	259.62
636.57	264.62
636.775	245.62
636.981	240.62
637.187	268.62
637.392	271.62
637.598	259.62
637.804	265.62
638.009	266.62
638.215	270.62
638.421	252.62
638.626	270.62
638.832	265.62
639.037	246.62
639.243	243.62
639.448	218.62
639.654	245.62
639.859	239.62
640.065	254.62
640.27	241.62
640.475	245.62
640.681	228.62
640.886	238.62
641.091	239.62
641.297	253.62
641.502	250.62
641.707	238.62
641.913	249.62
642.118	237.62
642.323	246.62
642.528	240.62
642.733	233.62
642.939	228.62
643.144	219.62
643.349	240.62
643.554	234.62
643.759	229.62
643.964	232.62
644.169	241.62
644.374	231.62
644.579	241.62
644.784	233.62
644.989	241.62
645.194	253.62
645.399	226.62
645.604	245.62
645.809	225.62
646.014	236.62
646.219	227.62
646.423	238.62
646.628	231.62
646.833	237.62
647.038	242.62
647.243	243.62
647.447	248.62
647.652	240.62
647.857	226.62
648.062	241.62
648.266	234.62
648.471	244.62
648.676	228.62
648.88	248.62
649.085	221.62
649.289	224.62
649.494	239.62
649.698	240.62
649.903	235.62
650.107	237.62
650.312	243.62
650.516	225.62
650.721	231.62
650.925	222.62
651.13	219.62
651.334	210.62
651.539	203.62
651.743	227.62
651.947	208.62
652.152	213.62
652.356	195.62
652.56	212.62
652.764	219.62
652.969	210.62
653.173	226.62
653.377	200.62
653.581	197.62
653.785	201.62
653.99	201.62
654.194	192.62
654.398	212.62
654.602	198.62
654.806	201.62
655.01	203.62
655.214	186.62
655.418	197.62
655.622	198.62
655.826	210.62
656.03	198.62
656.234	215.62
656.438	241.62
656.642	215.62
656.846	222.62
657.049	226.62
657.253	170.62
657.457	183.62
657.661	170.62
657.865	163.62
658.068	165.62
658.272	165.62
658.476	155.62
658.68	140.62
658.883	161.62
659.087	131.62
659.291	133.62
659.494	124.62
659.698	129.62
659.901	122.62
660.105	122.62
660.309	122.62
660.512	111.62
660.716	123.62
660.919	125.62
661.123	113.62
661.326	113.62
661.53	106.62
661.733	95.62
661.936	94.62
662.14	89.62
662.343	93.62
662.546	99.62
662.75	82.62
662.953	93.62
663.156	81.62
663.36	94.62
663.563	97.62
663.766	84.62
663.969	87.62
664.173	77.62
664.376	80.62
664.579	83.62
664.782	70.62
664.985	71.62
665.188	74.62
665.391	83.62
665.594	91.62
665.797	93.62
666	77.62
666.203	87.62
666.406	77.62
666.609	78.62
666.812	62.62
667.015	83.62
667.218	83.62
667.421	90.62
667.624	79.62
667.827	80.62
668.03	77.62
668.232	79.62
668.435	82.62
668.638	60.62
668.841	83.62
669.043	81.62
669.246	100.62
669.449	73.62
669.651	89.62
669.854	74.62
670.057	71.62
670.259	76.62
670.462	74.62
670.665	85.62
670.867	79.62
671.07	79.62
671.272	88.62
671.475	77.62
671.677	77.62
671.88	85.62
672.082	79.62
672.284	78.62
672.487	80.62
672.689	79.62
672.892	64.62
