Data from WStandard_LampEnergy5.5LIBS07252019.E.O._I.C._HRD10591_16-08-51-920.txt Node
Date: Thu Jul 25 16:08:51 EDT 2019
User: cochatt
Spectrometer: HR+D1059
Trigger mode: 1
Integration Time (sec): 1.000000E-1
Scans to average: 1
Electric dark correction enabled: true
Nonlinearity correction enabled: false
Boxcar width: 0
XAxis mode: Wavelengths
Number of Pixels in Spectrum: 2048
>>>>>Begin Spectral Data<<<<<
223.165	-12.12
223.4	-12.12
223.635	-12.12
223.869	-14.12
224.104	-9.12
224.338	-14.12
224.573	-23.12
224.808	-24.12
225.042	-6.12
225.277	-19.12
225.511	-5.12
225.746	3.88
225.98	3.88
226.215	-2.12
226.449	17.88
226.683	30.88
226.918	28.88
227.152	43.88
227.387	37.88
227.621	35.88
227.856	33.88
228.09	44.88
228.324	40.88
228.559	46.88
228.793	121.88
229.027	351.88
229.262	374.88
229.496	378.88
229.73	386.88
229.964	414.88
230.199	442.88
230.433	459.88
230.667	493.88
230.901	510.88
231.136	464.88
231.37	443.88
231.604	434.88
231.838	471.88
232.072	450.88
232.306	437.88
232.541	465.88
232.775	526.88
233.009	581.88
233.243	539.88
233.477	522.88
233.711	530.88
233.945	554.88
234.179	528.88
234.413	578.88
234.647	590.88
234.881	564.88
235.115	512.88
235.349	524.88
235.583	522.88
235.817	537.88
236.051	526.88
236.285	522.88
236.519	560.88
236.753	648.88
236.987	672.88
237.221	640.88
237.455	726.88
237.689	704.88
237.922	663.88
238.156	635.88
238.39	641.88
238.624	676.88
238.858	719.88
239.091	727.88
239.325	775.88
239.559	890.88
239.793	947.88
240.027	997.88
240.26	1023.88
240.494	723.88
240.728	692.88
240.961	712.88
241.195	718.88
241.429	791.88
241.662	781.88
241.896	716.88
242.13	752.88
242.363	829.88
242.597	860.88
242.83	860.88
243.064	865.88
243.298	910.88
243.531	916.88
243.765	889.88
243.998	892.88
244.232	800.88
244.465	756.88
244.699	785.88
244.932	842.88
245.166	981.88
245.399	958.88
245.633	902.88
245.866	864.88
246.099	884.88
246.333	922.88
246.566	925.88
246.8	994.88
247.033	1138.88
247.266	1026.88
247.5	990.88
247.733	1018.88
247.966	1075.88
248.2	1148.88
248.433	1164.88
248.666	1123.88
248.899	1251.88
249.133	1466.88
249.366	1652.88
249.599	1365.88
249.832	1178.88
250.066	1213.88
250.299	1218.88
250.532	1171.88
250.765	1053.88
250.998	1105.88
251.231	1144.88
251.465	1211.88
251.698	1140.88
251.931	1134.88
252.164	1176.88
252.397	1226.88
252.63	1206.88
252.863	1056.88
253.096	1065.88
253.329	1106.88
253.562	1141.88
253.795	1224.88
254.028	1197.88
254.261	1123.88
254.494	1111.88
254.727	1072.88
254.96	1091.88
255.193	1187.88
255.426	1340.88
255.659	1523.88
255.892	1626.88
256.124	1334.88
256.357	1292.88
256.59	1373.88
256.823	1373.88
257.056	1354.88
257.289	1635.88
257.521	1810.88
257.754	1637.88
257.987	1516.88
258.22	1678.88
258.452	1670.88
258.685	1334.88
258.918	1290.88
259.151	1317.88
259.383	1288.88
259.616	1118.88
259.849	1193.88
260.081	1330.88
260.314	1462.88
260.547	1609.88
260.779	1673.88
261.012	1538.88
261.244	1344.88
261.477	1284.88
261.71	1374.88
261.942	1386.88
262.175	1324.88
262.407	1400.88
262.64	1306.88
262.872	1253.88
263.105	1201.88
263.337	1228.88
263.57	1250.88
263.802	1222.88
264.035	1188.88
264.267	1114.88
264.499	1103.88
264.732	1189.88
264.964	1265.88
265.197	1310.88
265.429	1342.88
265.661	1506.88
265.894	1668.88
266.126	1663.88
266.358	1561.88
266.591	1612.88
266.823	1734.88
267.055	1543.88
267.287	1520.88
267.52	1506.88
267.752	1500.88
267.984	1466.88
268.216	1600.88
268.448	1643.88
268.681	1573.88
268.913	1450.88
269.145	1359.88
269.377	1346.88
269.609	1434.88
269.841	1662.88
270.073	1920.88
270.306	2139.88
270.538	2274.88
270.77	1910.88
271.002	1614.88
271.234	1608.88
271.466	1584.88
271.698	1720.88
271.93	2112.88
272.162	2102.88
272.394	1883.88
272.626	1817.88
272.858	1629.88
273.09	1440.88
273.322	1427.88
273.553	1320.88
273.785	1348.88
274.017	1394.88
274.249	1486.88
274.481	1544.88
274.713	1392.88
274.945	1347.88
275.176	1380.88
275.408	1365.88
275.64	1325.88
275.872	1293.88
276.104	1413.88
276.335	1580.88
276.567	1812.88
276.799	1832.88
277.031	1625.88
277.262	1536.88
277.494	1577.88
277.726	1798.88
277.957	1798.88
278.189	1632.88
278.421	1508.88
278.652	1449.88
278.884	1406.88
279.115	1448.88
279.347	1450.88
279.579	1429.88
279.81	1405.88
280.042	1560.88
280.273	1682.88
280.505	1713.88
280.736	1715.88
280.968	1650.88
281.199	1482.88
281.431	1389.88
281.662	1412.88
281.894	1420.88
282.125	1446.88
282.356	1486.88
282.588	1540.88
282.819	1492.88
283.051	1601.88
283.282	1747.88
283.513	1684.88
283.745	1484.88
283.976	1368.88
284.207	1381.88
284.439	1408.88
284.67	1440.88
284.901	1518.88
285.132	1497.88
285.364	1497.88
285.595	1490.88
285.826	1496.88
286.057	1451.88
286.288	1424.88
286.52	1520.88
286.751	1626.88
286.982	1650.88
287.213	1529.88
287.444	1435.88
287.675	1440.88
287.906	1499.88
288.138	1584.88
288.369	1540.88
288.6	1468.88
288.831	1427.88
289.062	1421.88
289.293	1440.88
289.524	1497.88
289.755	1532.88
289.986	1540.88
290.217	1454.88
290.448	1434.88
290.679	1499.88
290.91	1499.88
291.141	1531.88
291.371	1592.88
291.602	1560.88
291.833	1543.88
292.064	1596.88
292.295	1565.88
292.526	1622.88
292.757	1658.88
292.987	1596.88
293.218	1525.88
293.449	1597.88
293.68	1797.88
293.91	1943.88
294.141	1785.88
294.372	1717.88
294.603	1788.88
294.833	1872.88
295.064	1741.88
295.295	1635.88
295.525	1572.88
295.756	1461.88
295.987	1402.88
296.217	1424.88
296.448	1489.88
296.679	1469.88
296.909	1460.88
297.14	1498.88
297.37	1424.88
297.601	1572.88
297.831	1685.88
298.062	1694.88
298.292	1562.88
298.523	1473.88
298.753	1448.88
298.984	1529.88
299.214	1485.88
299.445	1557.88
299.675	1559.88
299.905	1539.88
300.136	1541.88
300.366	1496.88
300.597	1468.88
300.827	1451.88
301.057	1526.88
301.288	1583.88
301.518	1572.88
301.748	1620.88
301.979	1712.88
302.209	1723.88
302.439	1824.88
302.669	1920.88
302.9	1762.88
303.13	1590.88
303.36	1606.88
303.59	1659.88
303.82	1626.88
304.051	1597.88
304.281	1631.88
304.511	1599.88
304.741	1719.88
304.971	1812.88
305.201	2017.88
305.431	1928.88
305.661	1592.88
305.891	1433.88
306.121	1432.88
306.352	1462.88
306.582	1538.88
306.812	1627.88
307.042	1759.88
307.272	1761.88
307.502	1811.88
307.731	1943.88
307.961	2082.88
308.191	1895.88
308.421	1643.88
308.651	1575.88
308.881	1548.88
309.111	1563.88
309.341	1495.88
309.571	1571.88
309.8	1540.88
310.03	1529.88
310.26	1522.88
310.49	1509.88
310.72	1525.88
310.949	1632.88
311.179	1658.88
311.409	1618.88
311.639	1566.88
311.868	1513.88
312.098	1594.88
312.328	1586.88
312.557	1551.88
312.787	1569.88
313.017	1621.88
313.246	1633.88
313.476	1607.88
313.706	1648.88
313.935	1648.88
314.165	1683.88
314.394	1680.88
314.624	1811.88
314.853	1889.88
315.083	1937.88
315.312	2008.88
315.542	1861.88
315.771	1661.88
316.001	1637.88
316.23	1774.88
316.46	1784.88
316.689	1728.88
316.919	1648.88
317.148	1616.88
317.377	1579.88
317.607	1723.88
317.836	1917.88
318.065	1949.88
318.295	1929.88
318.524	1835.88
318.753	1726.88
318.983	1756.88
319.212	1690.88
319.441	1659.88
319.67	1654.88
319.9	1702.88
320.129	1778.88
320.358	1857.88
320.587	1905.88
320.816	1864.88
321.046	1863.88
321.275	1743.88
321.504	1783.88
321.733	1908.88
321.962	1856.88
322.191	1680.88
322.42	1661.88
322.649	1662.88
322.878	1681.88
323.108	1708.88
323.337	1771.88
323.566	1790.88
323.795	1736.88
324.024	1734.88
324.253	1694.88
324.482	1724.88
324.71	1659.88
324.939	1607.88
325.168	1654.88
325.397	1707.88
325.626	1749.88
325.855	1771.88
326.084	1679.88
326.313	1673.88
326.542	1730.88
326.77	1807.88
326.999	1770.88
327.228	1714.88
327.457	1630.88
327.686	1642.88
327.914	1681.88
328.143	1701.88
328.372	1677.88
328.6	1665.88
328.829	1698.88
329.058	1705.88
329.287	1668.88
329.515	1723.88
329.744	1744.88
329.972	1793.88
330.201	1892.88
330.43	1842.88
330.658	1778.88
330.887	1782.88
331.115	1772.88
331.344	1824.88
331.572	1788.88
331.801	1793.88
332.03	1792.88
332.258	1809.88
332.486	1806.88
332.715	1812.88
332.943	1891.88
333.172	1807.88
333.4	1812.88
333.629	1850.88
333.857	1982.88
334.085	2134.88
334.314	2328.88
334.542	2628.88
334.771	2450.88
334.999	2140.88
335.227	2037.88
335.455	1964.88
335.684	1950.88
335.912	1947.88
336.14	1961.88
336.369	1997.88
336.597	1851.88
336.825	1840.88
337.053	1866.88
337.281	1968.88
337.51	2025.88
337.738	2068.88
337.966	2083.88
338.194	1840.88
338.422	1794.88
338.65	1751.88
338.878	1738.88
339.106	1724.88
339.334	1683.88
339.562	1691.88
339.79	1706.88
340.018	1804.88
340.246	1909.88
340.474	1879.88
340.702	1840.88
340.93	1844.88
341.158	1856.88
341.386	1819.88
341.614	1776.88
341.842	1784.88
342.07	1813.88
342.298	1792.88
342.526	1796.88
342.754	1751.88
342.981	1762.88
343.209	1716.88
343.437	1764.88
343.665	1779.88
343.893	1828.88
344.12	1917.88
344.348	1890.88
344.576	1846.88
344.804	1844.88
345.031	1757.88
345.259	1792.88
345.487	1729.88
345.714	1705.88
345.942	1599.88
346.17	1632.88
346.397	1652.88
346.625	1712.88
346.853	1670.88
347.08	1577.88
347.308	1614.88
347.535	1634.88
347.763	1713.88
347.99	1674.88
348.218	1593.88
348.445	1655.88
348.673	1658.88
348.9	1696.88
349.128	1737.88
349.355	1759.88
349.583	1746.88
349.81	1657.88
350.037	1536.88
350.265	1561.88
350.492	1573.88
350.72	1628.88
350.947	1652.88
351.174	1691.88
351.402	1654.88
351.629	1580.88
351.856	1528.88
352.083	1536.88
352.311	1546.88
352.538	1606.88
352.765	1668.88
352.992	1665.88
353.22	1631.88
353.447	1591.88
353.674	1601.88
353.901	1628.88
354.128	1562.88
354.355	1610.88
354.583	1645.88
354.81	1670.88
355.037	1657.88
355.264	1693.88
355.491	1659.88
355.718	1663.88
355.945	1634.88
356.172	1625.88
356.399	1575.88
356.626	1590.88
356.853	1611.88
357.08	1738.88
357.307	1933.88
357.534	1950.88
357.761	1715.88
357.988	1596.88
358.215	1524.88
358.441	1578.88
358.668	1572.88
358.895	1573.88
359.122	1684.88
359.349	1824.88
359.576	1800.88
359.802	1627.88
360.029	1573.88
360.256	1544.88
360.483	1587.88
360.709	1658.88
360.936	1676.88
361.163	1698.88
361.39	1914.88
361.616	2006.88
361.843	1996.88
362.07	1896.88
362.296	1654.88
362.523	1634.88
362.749	1602.88
362.976	1654.88
363.203	1676.88
363.429	1655.88
363.656	1577.88
363.882	1623.88
364.109	1779.88
364.335	1954.88
364.562	1830.88
364.788	1699.88
365.015	1642.88
365.241	1584.88
365.468	1579.88
365.694	1720.88
365.92	1784.88
366.147	1721.88
366.373	1620.88
366.599	1590.88
366.826	1580.88
367.052	1605.88
367.278	1582.88
367.505	1686.88
367.731	1698.88
367.957	1621.88
368.184	1700.88
368.41	1789.88
368.636	1799.88
368.862	1831.88
369.089	1851.88
369.315	1772.88
369.541	1717.88
369.767	1648.88
369.993	1635.88
370.219	1613.88
370.445	1654.88
370.672	1770.88
370.898	1834.88
371.124	1836.88
371.35	1727.88
371.576	1755.88
371.802	1840.88
372.028	1753.88
372.254	1709.88
372.48	1661.88
372.706	1649.88
372.932	1658.88
373.158	1667.88
373.384	1674.88
373.61	1705.88
373.835	1786.88
374.061	1741.88
374.287	1717.88
374.513	1679.88
374.739	1748.88
374.965	1749.88
375.191	1769.88
375.416	1739.88
375.642	1748.88
375.868	1871.88
376.094	1884.88
376.319	1854.88
376.545	1690.88
376.771	1775.88
376.997	1829.88
377.222	1860.88
377.448	1772.88
377.674	1810.88
377.899	1778.88
378.125	1887.88
378.35	1906.88
378.576	1734.88
378.802	1669.88
379.027	1689.88
379.253	1669.88
379.478	1694.88
379.704	1718.88
379.929	1710.88
380.155	1696.88
380.38	1756.88
380.606	1742.88
380.831	1709.88
381.057	1780.88
381.282	1784.88
381.507	1785.88
381.733	1851.88
381.958	1963.88
382.184	1813.88
382.409	1771.88
382.634	1774.88
382.86	1785.88
383.085	1782.88
383.31	1813.88
383.535	1975.88
383.761	2106.88
383.986	2027.88
384.211	1930.88
384.436	1909.88
384.662	1964.88
384.887	2049.88
385.112	1952.88
385.337	1971.88
385.562	1944.88
385.787	1984.88
386.013	1998.88
386.238	2017.88
386.463	2049.88
386.688	2110.88
386.913	2236.88
387.138	2168.88
387.363	1993.88
387.588	2018.88
387.813	1997.88
388.038	2029.88
388.263	2060.88
388.488	2093.88
388.713	1895.88
388.938	1892.88
389.163	1920.88
389.387	1944.88
389.612	1926.88
389.837	1983.88
390.062	2009.88
390.287	1986.88
390.512	2004.88
390.736	1921.88
390.961	1865.88
391.186	1896.88
391.411	1888.88
391.636	1896.88
391.86	1970.88
392.085	1966.88
392.31	1892.88
392.534	1988.88
392.759	2001.88
392.984	1984.88
393.208	1948.88
393.433	2021.88
393.658	2085.88
393.882	2123.88
394.107	2021.88
394.331	1933.88
394.556	1947.88
394.78	1991.88
395.005	2028.88
395.229	2107.88
395.454	2258.88
395.678	2242.88
395.903	2144.88
396.127	2041.88
396.352	2071.88
396.576	2133.88
396.801	2146.88
397.025	2074.88
397.249	2119.88
397.474	2082.88
397.698	2065.88
397.922	2148.88
398.147	2234.88
398.371	2324.88
398.595	2345.88
398.82	2273.88
399.044	2311.88
399.268	2385.88
399.492	2579.88
399.717	2664.88
399.941	2623.88
400.165	2625.88
400.389	2517.88
400.613	2506.88
400.837	2755.88
401.062	3166.88
401.286	2706.88
401.51	2481.88
401.734	2568.88
401.958	2480.88
402.182	2320.88
402.406	2188.88
402.63	2207.88
402.854	2262.88
403.078	2260.88
403.302	2314.88
403.526	2364.88
403.75	2341.88
403.974	2347.88
404.198	2346.88
404.422	2436.88
404.645	2501.88
404.869	2526.88
405.093	2343.88
405.317	2263.88
405.541	2364.88
405.765	2357.88
405.988	2382.88
406.212	2375.88
406.436	2498.88
406.66	2540.88
406.883	2517.88
407.107	2840.88
407.331	3009.88
407.555	3212.88
407.778	3036.88
408.002	2524.88
408.226	2457.88
408.449	2452.88
408.673	2394.88
408.896	2463.88
409.12	2469.88
409.344	2339.88
409.567	2327.88
409.791	2335.88
410.014	2402.88
410.238	2476.88
410.461	2613.88
410.685	2401.88
410.908	2290.88
411.132	2350.88
411.355	2355.88
411.578	2276.88
411.802	2241.88
412.025	2344.88
412.249	2260.88
412.472	2193.88
412.695	2177.88
412.919	2174.88
413.142	2198.88
413.365	2238.88
413.589	2293.88
413.812	2344.88
414.035	2437.88
414.258	2256.88
414.482	2198.88
414.705	2261.88
414.928	2199.88
415.151	2184.88
415.374	2232.88
415.597	2298.88
415.821	2234.88
416.044	2370.88
416.267	2358.88
416.49	2153.88
416.713	2132.88
416.936	2217.88
417.159	2272.88
417.382	2330.88
417.605	2181.88
417.828	2193.88
418.051	2272.88
418.274	2262.88
418.497	2196.88
418.72	2174.88
418.943	2094.88
419.166	2313.88
419.389	2401.88
419.611	2253.88
419.834	2203.88
420.057	2238.88
420.28	2132.88
420.503	2139.88
420.726	2120.88
420.948	2221.88
421.171	2142.88
421.394	2166.88
421.617	2194.88
421.839	2191.88
422.062	2186.88
422.285	2107.88
422.507	2153.88
422.73	2100.88
422.953	2044.88
423.175	2074.88
423.398	2176.88
423.621	2152.88
423.843	2114.88
424.066	2213.88
424.288	2284.88
424.511	2244.88
424.733	2227.88
424.956	2023.88
425.178	2029.88
425.401	2113.88
425.623	2107.88
425.846	2096.88
426.068	2173.88
426.291	2193.88
426.513	2198.88
426.735	2177.88
426.958	2261.88
427.18	2441.88
427.402	2277.88
427.625	2340.88
427.847	2339.88
428.069	2177.88
428.292	2088.88
428.514	2064.88
428.736	2022.88
428.958	2064.88
429.181	2117.88
429.403	2353.88
429.625	2927.88
429.847	2580.88
430.069	2132.88
430.292	2335.88
430.514	2444.88
430.736	2236.88
430.958	2376.88
431.18	2219.88
431.402	2090.88
431.624	2055.88
431.846	2093.88
432.068	2003.88
432.29	2054.88
432.512	2100.88
432.734	2144.88
432.956	2160.88
433.178	2264.88
433.4	2205.88
433.622	2225.88
433.844	2153.88
434.066	2067.88
434.287	2109.88
434.509	2162.88
434.731	2254.88
434.953	2410.88
435.175	2306.88
435.397	2203.88
435.618	2204.88
435.84	2166.88
436.062	2170.88
436.284	2169.88
436.505	2153.88
436.727	2188.88
436.949	2152.88
437.17	2072.88
437.392	2083.88
437.614	2072.88
437.835	2028.88
438.057	2188.88
438.278	2285.88
438.5	2125.88
438.721	2048.88
438.943	2053.88
439.165	2082.88
439.386	2027.88
439.608	2071.88
439.829	2086.88
440.05	2032.88
440.272	2014.88
440.493	2013.88
440.715	2066.88
440.936	2179.88
441.158	2422.88
441.379	2348.88
441.6	2290.88
441.822	2274.88
442.043	2199.88
442.264	2168.88
442.486	2065.88
442.707	2088.88
442.928	2054.88
443.149	2142.88
443.371	2285.88
443.592	2309.88
443.813	2266.88
444.034	2233.88
444.255	2236.88
444.476	2338.88
444.698	2386.88
444.919	2297.88
445.14	2400.88
445.361	2378.88
445.582	2466.88
445.803	2343.88
446.024	2273.88
446.245	2311.88
446.466	2241.88
446.687	2113.88
446.908	2127.88
447.129	2072.88
447.35	2110.88
447.571	2138.88
447.792	2039.88
448.013	2057.88
448.234	2056.88
448.455	2133.88
448.675	2169.88
448.896	1970.88
449.117	1924.88
449.338	1984.88
449.559	2089.88
449.779	2240.88
450	2369.88
450.221	2599.88
450.442	2535.88
450.662	2205.88
450.883	1966.88
451.104	1929.88
451.324	1991.88
451.545	2072.88
451.766	2054.88
451.986	1900.88
452.207	1861.88
452.428	1843.88
452.648	1812.88
452.869	1889.88
453.089	1996.88
453.31	2013.88
453.53	2067.88
453.751	2009.88
453.971	1922.88
454.192	1938.88
454.412	2023.88
454.633	1962.88
454.853	1912.88
455.073	1818.88
455.294	1804.88
455.514	1797.88
455.734	1813.88
455.955	1847.88
456.175	1865.88
456.395	1835.88
456.616	1934.88
456.836	1860.88
457.056	1889.88
457.276	1901.88
457.497	1851.88
457.717	1761.88
457.937	1820.88
458.157	1878.88
458.377	1838.88
458.598	1831.88
458.818	1861.88
459.038	1978.88
459.258	2100.88
459.478	2086.88
459.698	2034.88
459.918	2065.88
460.138	2180.88
460.358	2213.88
460.578	2228.88
460.798	2329.88
461.018	2400.88
461.238	2340.88
461.458	2203.88
461.678	2246.88
461.898	2208.88
462.118	2120.88
462.338	2201.88
462.558	2258.88
462.777	2229.88
462.997	2349.88
463.217	2468.88
463.437	2438.88
463.657	2280.88
463.876	2269.88
464.096	2209.88
464.316	2248.88
464.536	2355.88
464.755	2349.88
464.975	2308.88
465.195	2205.88
465.414	2380.88
465.634	2313.88
465.854	2194.88
466.073	2318.88
466.293	2286.88
466.512	2043.88
466.732	2026.88
466.951	2073.88
467.171	2042.88
467.391	2004.88
467.61	1992.88
467.829	1966.88
468.049	2126.88
468.268	2348.88
468.488	2285.88
468.707	2144.88
468.927	2078.88
469.146	2026.88
469.365	2012.88
469.585	2014.88
469.804	2006.88
470.023	1978.88
470.243	2048.88
470.462	2057.88
470.681	1988.88
470.901	2041.88
471.12	2014.88
471.339	1994.88
471.558	1945.88
471.777	1943.88
471.997	1988.88
472.216	2050.88
472.435	1915.88
472.654	1993.88
472.873	2039.88
473.092	2149.88
473.311	2020.88
473.53	1946.88
473.749	1956.88
473.968	2016.88
474.187	2094.88
474.406	2139.88
474.625	2077.88
474.844	2059.88
475.063	2026.88
475.282	2100.88
475.501	2031.88
475.72	2041.88
475.939	2170.88
476.158	2069.88
476.377	2011.88
476.596	2074.88
476.814	2118.88
477.033	2098.88
477.252	2167.88
477.471	2272.88
477.69	2147.88
477.908	2162.88
478.127	2252.88
478.346	2436.88
478.564	2451.88
478.783	2406.88
479.002	2494.88
479.22	2423.88
479.439	2546.88
479.658	2809.88
479.876	2806.88
480.095	2449.88
480.313	2386.88
480.532	2241.88
480.751	2326.88
480.969	2333.88
481.188	2299.88
481.406	2318.88
481.624	2252.88
481.843	2239.88
482.061	2296.88
482.28	2296.88
482.498	2378.88
482.717	2362.88
482.935	2295.88
483.153	2264.88
483.372	2276.88
483.59	2260.88
483.808	2301.88
484.027	2341.88
484.245	2440.88
484.463	2762.88
484.681	3149.88
484.9	2511.88
485.118	2345.88
485.336	2322.88
485.554	2387.88
485.772	2471.88
485.99	2471.88
486.209	2493.88
486.427	2461.88
486.645	2428.88
486.863	2404.88
487.081	2460.88
487.299	2501.88
487.517	2456.88
487.735	2383.88
487.953	2360.88
488.171	2338.88
488.389	2337.88
488.607	2373.88
488.825	2582.88
489.043	2665.88
489.261	2387.88
489.479	2450.88
489.696	2524.88
489.914	2521.88
490.132	2433.88
490.35	2375.88
490.568	2527.88
490.786	2443.88
491.003	2324.88
491.221	2358.88
491.439	2455.88
491.657	2416.88
491.874	2445.88
492.092	2481.88
492.31	2488.88
492.527	2452.88
492.745	2428.88
492.963	2421.88
493.18	2466.88
493.398	2689.88
493.615	2731.88
493.833	2512.88
494.05	2441.88
494.268	2460.88
494.485	2569.88
494.703	2465.88
494.92	2450.88
495.138	2455.88
495.355	2484.88
495.573	2506.88
495.79	2724.88
496.008	2764.88
496.225	2562.88
496.442	2625.88
496.66	2651.88
496.877	2569.88
497.094	2710.88
497.312	2716.88
497.529	2670.88
497.746	2744.88
497.963	3170.88
498.181	3554.88
498.398	3296.88
498.615	3234.88
498.832	3178.88
499.049	3185.88
499.267	3165.88
499.484	3368.88
499.701	3655.88
499.918	3671.88
500.135	3989.88
500.352	4264.88
500.569	4205.88
500.786	4378.88
501.003	4164.88
501.22	3778.88
501.437	3667.88
501.654	3642.88
501.871	3615.88
502.088	3162.88
502.305	3158.88
502.522	3027.88
502.739	2827.88
502.956	2756.88
503.172	2759.88
503.389	2641.88
503.606	2594.88
503.823	2620.88
504.04	2618.88
504.256	2603.88
504.473	2690.88
504.69	2738.88
504.907	2627.88
505.123	2454.88
505.34	2578.88
505.557	3323.88
505.773	2755.88
505.99	2346.88
506.207	2260.88
506.423	2213.88
506.64	2230.88
506.856	2224.88
507.073	2454.88
507.289	2664.88
507.506	2518.88
507.722	2208.88
507.939	2161.88
508.155	2175.88
508.372	2221.88
508.588	2112.88
508.805	2084.88
509.021	2041.88
509.238	2049.88
509.454	2035.88
509.67	2037.88
509.887	2005.88
510.103	2002.88
510.319	2037.88
510.536	2172.88
510.752	2202.88
510.968	2194.88
511.184	2279.88
511.401	2276.88
511.617	2037.88
511.833	2005.88
512.049	1980.88
512.265	1980.88
512.481	1956.88
512.698	2025.88
512.914	2178.88
513.13	2145.88
513.346	2041.88
513.562	1981.88
513.778	1964.88
513.994	2051.88
514.21	2152.88
514.426	2174.88
514.642	2393.88
514.858	2200.88
515.074	2061.88
515.29	2012.88
515.506	2058.88
515.721	2130.88
515.937	2113.88
516.153	2378.88
516.369	2258.88
516.585	2144.88
516.801	2073.88
517.016	2055.88
517.232	2141.88
517.448	2174.88
517.664	2181.88
517.879	2225.88
518.095	2291.88
518.311	2242.88
518.527	2126.88
518.742	2054.88
518.958	2035.88
519.173	1982.88
519.389	2025.88
519.605	1997.88
519.82	1991.88
520.036	2062.88
520.251	2004.88
520.467	1988.88
520.682	2115.88
520.898	2237.88
521.113	2005.88
521.329	2017.88
521.544	2062.88
521.76	2041.88
521.975	1954.88
522.19	1889.88
522.406	1897.88
522.621	2244.88
522.836	2285.88
523.052	1899.88
523.267	1867.88
523.482	1889.88
523.698	1811.88
523.913	1815.88
524.128	1835.88
524.343	1883.88
524.559	1957.88
524.774	1830.88
524.989	1825.88
525.204	1782.88
525.419	1778.88
525.634	1768.88
525.849	1806.88
526.064	1811.88
526.28	1849.88
526.495	1742.88
526.71	1731.88
526.925	1746.88
527.14	1747.88
527.355	1728.88
527.57	1710.88
527.785	1785.88
527.999	1726.88
528.214	1691.88
528.429	1682.88
528.644	1675.88
528.859	1708.88
529.074	1714.88
529.289	1749.88
529.503	1740.88
529.718	1772.88
529.933	1735.88
530.148	1641.88
530.363	1663.88
530.577	1706.88
530.792	1733.88
531.007	1766.88
531.221	1692.88
531.436	1792.88
531.651	1829.88
531.865	1871.88
532.08	1812.88
532.295	1683.88
532.509	1635.88
532.724	1678.88
532.938	1745.88
533.153	1832.88
533.367	1767.88
533.582	1686.88
533.796	1701.88
534.011	1729.88
534.225	1740.88
534.44	1686.88
534.654	1670.88
534.868	1686.88
535.083	1758.88
535.297	1751.88
535.511	1702.88
535.726	1702.88
535.94	1716.88
536.154	1628.88
536.369	1630.88
536.583	1617.88
536.797	1635.88
537.011	1663.88
537.225	1609.88
537.44	1574.88
537.654	1654.88
537.868	1619.88
538.082	1540.88
538.296	1528.88
538.51	1532.88
538.724	1584.88
538.938	1524.88
539.153	1587.88
539.367	1578.88
539.581	1625.88
539.795	1669.88
540.009	1633.88
540.222	1610.88
540.436	1650.88
540.65	1787.88
540.864	1750.88
541.078	1676.88
541.292	1587.88
541.506	1588.88
541.72	1622.88
541.934	1625.88
542.147	1675.88
542.361	1596.88
542.575	1600.88
542.789	1529.88
543.002	1542.88
543.216	1552.88
543.43	1632.88
543.644	1636.88
543.857	1723.88
544.071	1672.88
544.285	1622.88
544.498	1589.88
544.712	1579.88
544.925	1614.88
545.139	1649.88
545.352	1582.88
545.566	1494.88
545.779	1525.88
545.993	1536.88
546.206	1545.88
546.42	1507.88
546.633	1482.88
546.847	1484.88
547.06	1492.88
547.274	1504.88
547.487	1507.88
547.7	1509.88
547.914	1536.88
548.127	1520.88
548.34	1529.88
548.554	1514.88
548.767	1530.88
548.98	1545.88
549.193	1512.88
549.407	1558.88
549.62	1613.88
549.833	1486.88
550.046	1532.88
550.259	1504.88
550.473	1463.88
550.686	1491.88
550.899	1498.88
551.112	1487.88
551.325	1442.88
551.538	1517.88
551.751	1764.88
551.964	1459.88
552.177	1408.88
552.39	1451.88
552.603	1470.88
552.816	1497.88
553.029	1559.88
553.242	1566.88
553.455	1493.88
553.667	1496.88
553.88	1515.88
554.093	1501.88
554.306	1435.88
554.519	1403.88
554.732	1370.88
554.944	1394.88
555.157	1442.88
555.37	1407.88
555.583	1421.88
555.795	1373.88
556.008	1352.88
556.221	1328.88
556.433	1302.88
556.646	1317.88
556.859	1300.88
557.071	1302.88
557.284	1299.88
557.496	1284.88
557.709	1305.88
557.921	1250.88
558.134	1230.88
558.346	1238.88
558.559	1249.88
558.771	1256.88
558.984	1192.88
559.196	1205.88
559.409	1222.88
559.621	1253.88
559.833	1237.88
560.046	1246.88
560.258	1277.88
560.47	1242.88
560.683	1225.88
560.895	1228.88
561.107	1219.88
561.32	1251.88
561.532	1291.88
561.744	1236.88
561.956	1262.88
562.168	1200.88
562.381	1208.88
562.593	1179.88
562.805	1235.88
563.017	1202.88
563.229	1180.88
563.441	1249.88
563.653	1215.88
563.865	1225.88
564.077	1233.88
564.289	1202.88
564.501	1261.88
564.713	1228.88
564.925	1302.88
565.137	1370.88
565.349	1291.88
565.561	1293.88
565.773	1250.88
565.985	1324.88
566.197	1356.88
566.408	1457.88
566.62	1472.88
566.832	1454.88
567.044	1488.88
567.255	1469.88
567.467	1518.88
567.679	1533.88
567.891	1582.88
568.102	1565.88
568.314	1473.88
568.526	1414.88
568.737	1347.88
568.949	1293.88
569.161	1243.88
569.372	1190.88
569.584	1170.88
569.795	1198.88
570.007	1152.88
570.218	1108.88
570.43	1109.88
570.641	1100.88
570.853	1084.88
571.064	1110.88
571.276	1110.88
571.487	1076.88
571.698	1050.88
571.91	1066.88
572.121	1017.88
572.333	1019.88
572.544	998.88
572.755	994.88
572.966	974.88
573.178	974.88
573.389	987.88
573.6	1038.88
573.811	1072.88
574.023	1005.88
574.234	973.88
574.445	952.88
574.656	926.88
574.867	926.88
575.078	923.88
575.289	935.88
575.501	897.88
575.712	908.88
575.923	891.88
576.134	928.88
576.345	916.88
576.556	892.88
576.767	914.88
576.978	889.88
577.188	853.88
577.399	876.88
577.61	837.88
577.821	855.88
578.032	842.88
578.243	863.88
578.454	842.88
578.665	838.88
578.875	835.88
579.086	825.88
579.297	829.88
579.508	862.88
579.718	838.88
579.929	825.88
580.14	822.88
580.35	829.88
580.561	823.88
580.772	920.88
580.982	861.88
581.193	835.88
581.403	793.88
581.614	804.88
581.825	778.88
582.035	794.88
582.246	778.88
582.456	819.88
582.667	812.88
582.877	779.88
583.087	820.88
583.298	780.88
583.508	761.88
583.719	790.88
583.929	791.88
584.139	782.88
584.35	738.88
584.56	744.88
584.77	760.88
584.981	773.88
585.191	804.88
585.401	776.88
585.611	771.88
585.821	761.88
586.032	760.88
586.242	763.88
586.452	742.88
586.662	752.88
586.872	738.88
587.082	758.88
587.292	778.88
587.502	769.88
587.713	786.88
587.923	753.88
588.133	754.88
588.343	770.88
588.553	746.88
588.762	738.88
588.972	741.88
589.182	786.88
589.392	749.88
589.602	754.88
589.812	744.88
590.022	724.88
590.232	669.88
590.441	756.88
590.651	745.88
590.861	761.88
591.071	715.88
591.281	707.88
591.49	727.88
591.7	731.88
591.91	739.88
592.119	747.88
592.329	735.88
592.539	759.88
592.748	758.88
592.958	781.88
593.167	802.88
593.377	773.88
593.587	788.88
593.796	795.88
594.006	777.88
594.215	771.88
594.424	760.88
594.634	740.88
594.843	752.88
595.053	772.88
595.262	738.88
595.472	731.88
595.681	727.88
595.89	725.88
596.1	723.88
596.309	690.88
596.518	674.88
596.727	679.88
596.937	667.88
597.146	658.88
597.355	650.88
597.564	648.88
597.774	642.88
597.983	636.88
598.192	644.88
598.401	625.88
598.61	638.88
598.819	631.88
599.028	632.88
599.237	644.88
599.446	623.88
599.655	609.88
599.864	627.88
600.073	608.88
600.282	604.88
600.491	595.88
600.7	602.88
600.909	629.88
601.118	595.88
601.327	618.88
601.536	599.88
601.745	598.88
601.953	610.88
602.162	579.88
602.371	586.88
602.58	591.88
602.789	600.88
602.997	588.88
603.206	587.88
603.415	597.88
603.623	579.88
603.832	583.88
604.041	586.88
604.249	569.88
604.458	586.88
604.666	593.88
604.875	573.88
605.084	580.88
605.292	588.88
605.501	590.88
605.709	595.88
605.918	547.88
606.126	551.88
606.334	553.88
606.543	549.88
606.751	577.88
606.96	565.88
607.168	548.88
607.376	540.88
607.585	544.88
607.793	547.88
608.001	583.88
608.21	553.88
608.418	557.88
608.626	564.88
608.834	557.88
609.043	551.88
609.251	540.88
609.459	531.88
609.667	522.88
609.875	542.88
610.083	552.88
610.291	575.88
610.499	553.88
610.707	547.88
610.916	525.88
611.124	521.88
611.332	524.88
611.54	535.88
611.748	520.88
611.955	507.88
612.163	525.88
612.371	521.88
612.579	505.88
612.787	527.88
612.995	541.88
613.203	543.88
613.411	520.88
613.618	514.88
613.826	500.88
614.034	532.88
614.242	515.88
614.449	504.88
614.657	536.88
614.865	522.88
615.072	505.88
615.28	499.88
615.488	526.88
615.695	531.88
615.903	528.88
616.111	499.88
616.318	537.88
616.526	534.88
616.733	517.88
616.941	505.88
617.148	531.88
617.356	505.88
617.563	494.88
617.771	484.88
617.978	480.88
618.185	512.88
618.393	500.88
618.6	489.88
618.807	528.88
619.015	500.88
619.222	490.88
619.429	485.88
619.637	490.88
619.844	491.88
620.051	489.88
620.258	482.88
620.466	485.88
620.673	460.88
620.88	439.88
621.087	463.88
621.294	471.88
621.501	444.88
621.708	467.88
621.915	470.88
622.122	451.88
622.329	473.88
622.536	451.88
622.743	444.88
622.95	485.88
623.157	456.88
623.364	457.88
623.571	450.88
623.778	446.88
623.985	453.88
624.192	434.88
624.399	449.88
624.606	417.88
624.812	425.88
625.019	449.88
625.226	443.88
625.433	438.88
625.639	426.88
625.846	425.88
626.053	407.88
626.259	413.88
626.466	406.88
626.673	412.88
626.879	411.88
627.086	425.88
627.293	417.88
627.499	419.88
627.706	428.88
627.912	412.88
628.119	399.88
628.325	423.88
628.532	410.88
628.738	420.88
628.945	443.88
629.151	394.88
629.357	385.88
629.564	399.88
629.77	396.88
629.976	390.88
630.183	391.88
630.389	413.88
630.595	403.88
630.802	397.88
631.008	384.88
631.214	378.88
631.42	374.88
631.627	380.88
631.833	391.88
632.039	365.88
632.245	368.88
632.451	378.88
632.657	372.88
632.863	393.88
633.069	377.88
633.275	370.88
633.481	361.88
633.688	375.88
633.893	363.88
634.099	371.88
634.305	364.88
634.511	353.88
634.717	354.88
634.923	345.88
635.129	337.88
635.335	354.88
635.541	363.88
635.747	370.88
635.952	349.88
636.158	355.88
636.364	368.88
636.57	356.88
636.775	349.88
636.981	374.88
637.187	344.88
637.392	338.88
637.598	338.88
637.804	355.88
638.009	343.88
638.215	346.88
638.421	355.88
638.626	347.88
638.832	343.88
639.037	337.88
639.243	332.88
639.448	333.88
639.654	354.88
639.859	340.88
640.065	321.88
640.27	343.88
640.475	310.88
640.681	344.88
640.886	349.88
641.091	306.88
641.297	323.88
641.502	327.88
641.707	320.88
641.913	332.88
642.118	322.88
642.323	330.88
642.528	344.88
642.733	314.88
642.939	320.88
643.144	322.88
643.349	333.88
643.554	334.88
643.759	317.88
643.964	317.88
644.169	320.88
644.374	316.88
644.579	295.88
644.784	306.88
644.989	316.88
645.194	310.88
645.399	325.88
645.604	316.88
645.809	311.88
646.014	337.88
646.219	324.88
646.423	306.88
646.628	326.88
646.833	311.88
647.038	308.88
647.243	312.88
647.447	310.88
647.652	315.88
647.857	330.88
648.062	322.88
648.266	322.88
648.471	317.88
648.676	333.88
648.88	327.88
649.085	325.88
649.289	303.88
649.494	299.88
649.698	289.88
649.903	308.88
650.107	306.88
650.312	308.88
650.516	299.88
650.721	308.88
650.925	283.88
651.13	288.88
651.334	288.88
651.539	281.88
651.743	260.88
651.947	280.88
652.152	255.88
652.356	269.88
652.56	263.88
652.764	261.88
652.969	263.88
653.173	259.88
653.377	244.88
653.581	247.88
653.785	241.88
653.99	253.88
654.194	244.88
654.398	260.88
654.602	248.88
654.806	249.88
655.01	234.88
655.214	236.88
655.418	242.88
655.622	246.88
655.826	258.88
656.03	249.88
656.234	257.88
656.438	279.88
656.642	278.88
656.846	271.88
657.049	238.88
657.253	228.88
657.457	199.88
657.661	196.88
657.865	181.88
658.068	184.88
658.272	153.88
658.476	167.88
658.68	153.88
658.883	143.88
659.087	167.88
659.291	138.88
659.494	138.88
659.698	137.88
659.901	132.88
660.105	125.88
660.309	127.88
660.512	124.88
660.716	115.88
660.919	115.88
661.123	117.88
661.326	118.88
661.53	108.88
661.733	96.88
661.936	92.88
662.14	121.88
662.343	88.88
662.546	89.88
662.75	81.88
662.953	85.88
663.156	79.88
663.36	83.88
663.563	99.88
663.766	88.88
663.969	84.88
664.173	75.88
664.376	85.88
664.579	77.88
664.782	76.88
664.985	86.88
665.188	83.88
665.391	79.88
665.594	86.88
665.797	74.88
666	85.88
666.203	91.88
666.406	86.88
666.609	85.88
666.812	107.88
667.015	91.88
667.218	72.88
667.421	75.88
667.624	68.88
667.827	79.88
668.03	87.88
668.232	83.88
668.435	88.88
668.638	97.88
668.841	83.88
669.043	86.88
669.246	78.88
669.449	88.88
669.651	90.88
669.854	90.88
670.057	76.88
670.259	81.88
670.462	86.88
670.665	80.88
670.867	80.88
671.07	82.88
671.272	77.88
671.475	91.88
671.677	74.88
671.88	77.88
672.082	88.88
672.284	84.88
672.487	90.88
672.689	77.88
672.892	83.88
