Data from WStandard_LampEnergy5.5LIBS07252019.E.O._I.C._HRD10591_16-09-10-920.txt Node
Date: Thu Jul 25 16:09:10 EDT 2019
User: cochatt
Spectrometer: HR+D1059
Trigger mode: 1
Integration Time (sec): 1.000000E-1
Scans to average: 1
Electric dark correction enabled: true
Nonlinearity correction enabled: false
Boxcar width: 0
XAxis mode: Wavelengths
Number of Pixels in Spectrum: 2048
>>>>>Begin Spectral Data<<<<<
223.165	-18.25
223.4	-18.25
223.635	-18.25
223.869	-9.25
224.104	-16.25
224.338	-31.25
224.573	-17.25
224.808	-19.25
225.042	-7.25
225.277	-16.25
225.511	-18.25
225.746	4.75
225.98	10.75
226.215	32.75
226.449	7.75
226.683	19.75
226.918	35.75
227.152	41.75
227.387	27.75
227.621	45.75
227.856	40.75
228.09	41.75
228.324	38.75
228.559	48.75
228.793	127.75
229.027	352.75
229.262	351.75
229.496	356.75
229.73	396.75
229.964	421.75
230.199	442.75
230.433	445.75
230.667	491.75
230.901	515.75
231.136	451.75
231.37	449.75
231.604	463.75
231.838	447.75
232.072	471.75
232.306	439.75
232.541	440.75
232.775	523.75
233.009	571.75
233.243	564.75
233.477	489.75
233.711	535.75
233.945	529.75
234.179	547.75
234.413	583.75
234.647	621.75
234.881	538.75
235.115	523.75
235.349	536.75
235.583	545.75
235.817	549.75
236.051	514.75
236.285	514.75
236.519	564.75
236.753	606.75
236.987	642.75
237.221	647.75
237.455	713.75
237.689	700.75
237.922	631.75
238.156	630.75
238.39	633.75
238.624	661.75
238.858	705.75
239.091	721.75
239.325	759.75
239.559	876.75
239.793	925.75
240.027	993.75
240.26	997.75
240.494	741.75
240.728	695.75
240.961	695.75
241.195	715.75
241.429	794.75
241.662	790.75
241.896	731.75
242.13	735.75
242.363	815.75
242.597	896.75
242.83	857.75
243.064	871.75
243.298	919.75
243.531	888.75
243.765	883.75
243.998	886.75
244.232	787.75
244.465	746.75
244.699	763.75
244.932	891.75
245.166	968.75
245.399	934.75
245.633	890.75
245.866	852.75
246.099	915.75
246.333	895.75
246.566	936.75
246.8	997.75
247.033	1143.75
247.266	1013.75
247.5	989.75
247.733	1001.75
247.966	1054.75
248.2	1192.75
248.433	1146.75
248.666	1161.75
248.899	1256.75
249.133	1474.75
249.366	1660.75
249.599	1361.75
249.832	1212.75
250.066	1240.75
250.299	1225.75
250.532	1178.75
250.765	1035.75
250.998	1078.75
251.231	1170.75
251.465	1191.75
251.698	1147.75
251.931	1121.75
252.164	1171.75
252.397	1213.75
252.63	1201.75
252.863	1049.75
253.096	1041.75
253.329	1101.75
253.562	1135.75
253.795	1186.75
254.028	1194.75
254.261	1128.75
254.494	1136.75
254.727	1072.75
254.96	1104.75
255.193	1211.75
255.426	1345.75
255.659	1577.75
255.892	1642.75
256.124	1322.75
256.357	1247.75
256.59	1379.75
256.823	1391.75
257.056	1343.75
257.289	1614.75
257.521	1801.75
257.754	1637.75
257.987	1548.75
258.22	1704.75
258.452	1680.75
258.685	1357.75
258.918	1339.75
259.151	1380.75
259.383	1274.75
259.616	1112.75
259.849	1175.75
260.081	1331.75
260.314	1430.75
260.547	1633.75
260.779	1667.75
261.012	1537.75
261.244	1376.75
261.477	1315.75
261.71	1333.75
261.942	1342.75
262.175	1305.75
262.407	1441.75
262.64	1347.75
262.872	1248.75
263.105	1185.75
263.337	1247.75
263.57	1236.75
263.802	1259.75
264.035	1195.75
264.267	1117.75
264.499	1094.75
264.732	1169.75
264.964	1299.75
265.197	1312.75
265.429	1371.75
265.661	1493.75
265.894	1657.75
266.126	1712.75
266.358	1520.75
266.591	1609.75
266.823	1751.75
267.055	1545.75
267.287	1503.75
267.52	1495.75
267.752	1523.75
267.984	1498.75
268.216	1580.75
268.448	1607.75
268.681	1579.75
268.913	1466.75
269.145	1332.75
269.377	1341.75
269.609	1472.75
269.841	1649.75
270.073	1930.75
270.306	2191.75
270.538	2298.75
270.77	1993.75
271.002	1669.75
271.234	1572.75
271.466	1516.75
271.698	1740.75
271.93	2114.75
272.162	2157.75
272.394	1872.75
272.626	1814.75
272.858	1649.75
273.09	1387.75
273.322	1378.75
273.553	1316.75
273.785	1331.75
274.017	1369.75
274.249	1482.75
274.481	1480.75
274.713	1387.75
274.945	1349.75
275.176	1362.75
275.408	1351.75
275.64	1311.75
275.872	1336.75
276.104	1365.75
276.335	1581.75
276.567	1805.75
276.799	1853.75
277.031	1635.75
277.262	1547.75
277.494	1623.75
277.726	1777.75
277.957	1800.75
278.189	1624.75
278.421	1467.75
278.652	1420.75
278.884	1415.75
279.115	1409.75
279.347	1463.75
279.579	1395.75
279.81	1370.75
280.042	1543.75
280.273	1705.75
280.505	1685.75
280.736	1740.75
280.968	1620.75
281.199	1495.75
281.431	1389.75
281.662	1386.75
281.894	1412.75
282.125	1403.75
282.356	1477.75
282.588	1468.75
282.819	1454.75
283.051	1577.75
283.282	1758.75
283.513	1697.75
283.745	1485.75
283.976	1361.75
284.207	1389.75
284.439	1409.75
284.67	1418.75
284.901	1471.75
285.132	1483.75
285.364	1492.75
285.595	1505.75
285.826	1463.75
286.057	1450.75
286.288	1461.75
286.52	1507.75
286.751	1634.75
286.982	1669.75
287.213	1510.75
287.444	1421.75
287.675	1386.75
287.906	1501.75
288.138	1609.75
288.369	1526.75
288.6	1459.75
288.831	1446.75
289.062	1439.75
289.293	1474.75
289.524	1455.75
289.755	1522.75
289.986	1503.75
290.217	1396.75
290.448	1421.75
290.679	1500.75
290.91	1484.75
291.141	1523.75
291.371	1571.75
291.602	1552.75
291.833	1548.75
292.064	1611.75
292.295	1524.75
292.526	1599.75
292.757	1667.75
292.987	1591.75
293.218	1496.75
293.449	1599.75
293.68	1834.75
293.91	1961.75
294.141	1826.75
294.372	1703.75
294.603	1762.75
294.833	1885.75
295.064	1743.75
295.295	1618.75
295.525	1523.75
295.756	1440.75
295.987	1369.75
296.217	1415.75
296.448	1437.75
296.679	1442.75
296.909	1463.75
297.14	1439.75
297.37	1475.75
297.601	1549.75
297.831	1643.75
298.062	1677.75
298.292	1545.75
298.523	1467.75
298.753	1444.75
298.984	1474.75
299.214	1449.75
299.445	1506.75
299.675	1561.75
299.905	1562.75
300.136	1505.75
300.366	1485.75
300.597	1425.75
300.827	1426.75
301.057	1495.75
301.288	1585.75
301.518	1536.75
301.748	1618.75
301.979	1676.75
302.209	1699.75
302.439	1815.75
302.669	1894.75
302.9	1807.75
303.13	1577.75
303.36	1590.75
303.59	1595.75
303.82	1587.75
304.051	1562.75
304.281	1595.75
304.511	1568.75
304.741	1665.75
304.971	1874.75
305.201	2008.75
305.431	1878.75
305.661	1537.75
305.891	1425.75
306.121	1424.75
306.352	1429.75
306.582	1506.75
306.812	1616.75
307.042	1743.75
307.272	1764.75
307.502	1801.75
307.731	1945.75
307.961	2087.75
308.191	1949.75
308.421	1695.75
308.651	1554.75
308.881	1527.75
309.111	1558.75
309.341	1516.75
309.571	1523.75
309.8	1517.75
310.03	1488.75
310.26	1511.75
310.49	1519.75
310.72	1562.75
310.949	1605.75
311.179	1668.75
311.409	1631.75
311.639	1561.75
311.868	1553.75
312.098	1596.75
312.328	1528.75
312.557	1538.75
312.787	1592.75
313.017	1636.75
313.246	1599.75
313.476	1596.75
313.706	1624.75
313.935	1596.75
314.165	1624.75
314.394	1622.75
314.624	1764.75
314.853	1858.75
315.083	1890.75
315.312	1963.75
315.542	1881.75
315.771	1639.75
316.001	1694.75
316.23	1788.75
316.46	1743.75
316.689	1683.75
316.919	1625.75
317.148	1560.75
317.377	1552.75
317.607	1697.75
317.836	1912.75
318.065	2002.75
318.295	1900.75
318.524	1775.75
318.753	1739.75
318.983	1699.75
319.212	1718.75
319.441	1666.75
319.67	1621.75
319.9	1659.75
320.129	1767.75
320.358	1836.75
320.587	1915.75
320.816	1839.75
321.046	1818.75
321.275	1736.75
321.504	1771.75
321.733	1860.75
321.962	1857.75
322.191	1714.75
322.42	1705.75
322.649	1675.75
322.878	1647.75
323.108	1641.75
323.337	1705.75
323.566	1730.75
323.795	1729.75
324.024	1747.75
324.253	1658.75
324.482	1704.75
324.71	1670.75
324.939	1577.75
325.168	1645.75
325.397	1674.75
325.626	1722.75
325.855	1730.75
326.084	1687.75
326.313	1669.75
326.542	1735.75
326.77	1700.75
326.999	1756.75
327.228	1697.75
327.457	1602.75
327.686	1601.75
327.914	1645.75
328.143	1658.75
328.372	1693.75
328.6	1670.75
328.829	1674.75
329.058	1651.75
329.287	1616.75
329.515	1645.75
329.744	1712.75
329.972	1803.75
330.201	1878.75
330.43	1821.75
330.658	1738.75
330.887	1762.75
331.115	1804.75
331.344	1843.75
331.572	1768.75
331.801	1762.75
332.03	1805.75
332.258	1781.75
332.486	1811.75
332.715	1800.75
332.943	1821.75
333.172	1764.75
333.4	1779.75
333.629	1847.75
333.857	1915.75
334.085	2146.75
334.314	2367.75
334.542	2611.75
334.771	2415.75
334.999	2111.75
335.227	2056.75
335.455	1915.75
335.684	1880.75
335.912	1931.75
336.14	1987.75
336.369	1962.75
336.597	1829.75
336.825	1791.75
337.053	1880.75
337.281	1973.75
337.51	2022.75
337.738	2093.75
337.966	2012.75
338.194	1865.75
338.422	1758.75
338.65	1763.75
338.878	1730.75
339.106	1698.75
339.334	1675.75
339.562	1668.75
339.79	1708.75
340.018	1804.75
340.246	1858.75
340.474	1903.75
340.702	1835.75
340.93	1827.75
341.158	1808.75
341.386	1772.75
341.614	1739.75
341.842	1761.75
342.07	1764.75
342.298	1751.75
342.526	1806.75
342.754	1713.75
342.981	1700.75
343.209	1749.75
343.437	1688.75
343.665	1734.75
343.893	1812.75
344.12	1891.75
344.348	1904.75
344.576	1818.75
344.804	1772.75
345.031	1749.75
345.259	1773.75
345.487	1692.75
345.714	1630.75
345.942	1597.75
346.17	1613.75
346.397	1678.75
346.625	1713.75
346.853	1624.75
347.08	1537.75
347.308	1580.75
347.535	1633.75
347.763	1681.75
347.99	1665.75
348.218	1569.75
348.445	1607.75
348.673	1635.75
348.9	1669.75
349.128	1693.75
349.355	1708.75
349.583	1721.75
349.81	1659.75
350.037	1553.75
350.265	1542.75
350.492	1539.75
350.72	1578.75
350.947	1617.75
351.174	1687.75
351.402	1607.75
351.629	1579.75
351.856	1518.75
352.083	1524.75
352.311	1507.75
352.538	1600.75
352.765	1617.75
352.992	1674.75
353.22	1648.75
353.447	1565.75
353.674	1603.75
353.901	1629.75
354.128	1605.75
354.355	1580.75
354.583	1620.75
354.81	1650.75
355.037	1659.75
355.264	1665.75
355.491	1637.75
355.718	1637.75
355.945	1606.75
356.172	1573.75
356.399	1541.75
356.626	1551.75
356.853	1627.75
357.08	1748.75
357.307	1910.75
357.534	1933.75
357.761	1681.75
357.988	1586.75
358.215	1508.75
358.441	1544.75
358.668	1537.75
358.895	1562.75
359.122	1651.75
359.349	1803.75
359.576	1757.75
359.802	1656.75
360.029	1560.75
360.256	1545.75
360.483	1626.75
360.709	1613.75
360.936	1704.75
361.163	1691.75
361.39	1846.75
361.616	2043.75
361.843	1991.75
362.07	1887.75
362.296	1616.75
362.523	1583.75
362.749	1581.75
362.976	1641.75
363.203	1615.75
363.429	1593.75
363.656	1570.75
363.882	1615.75
364.109	1771.75
364.335	1916.75
364.562	1800.75
364.788	1717.75
365.015	1659.75
365.241	1541.75
365.468	1627.75
365.694	1691.75
365.92	1714.75
366.147	1686.75
366.373	1603.75
366.599	1585.75
366.826	1531.75
367.052	1567.75
367.278	1547.75
367.505	1606.75
367.731	1659.75
367.957	1669.75
368.184	1698.75
368.41	1749.75
368.636	1813.75
368.862	1827.75
369.089	1850.75
369.315	1787.75
369.541	1714.75
369.767	1642.75
369.993	1585.75
370.219	1628.75
370.445	1629.75
370.672	1729.75
370.898	1814.75
371.124	1800.75
371.35	1720.75
371.576	1714.75
371.802	1827.75
372.028	1727.75
372.254	1664.75
372.48	1645.75
372.706	1640.75
372.932	1611.75
373.158	1618.75
373.384	1680.75
373.61	1696.75
373.835	1765.75
374.061	1692.75
374.287	1703.75
374.513	1699.75
374.739	1718.75
374.965	1672.75
375.191	1747.75
375.416	1770.75
375.642	1727.75
375.868	1820.75
376.094	1898.75
376.319	1841.75
376.545	1697.75
376.771	1733.75
376.997	1819.75
377.222	1771.75
377.448	1713.75
377.674	1775.75
377.899	1777.75
378.125	1842.75
378.35	1857.75
378.576	1715.75
378.802	1665.75
379.027	1641.75
379.253	1665.75
379.478	1654.75
379.704	1704.75
379.929	1718.75
380.155	1674.75
380.38	1682.75
380.606	1746.75
380.831	1683.75
381.057	1768.75
381.282	1791.75
381.507	1751.75
381.733	1833.75
381.958	1903.75
382.184	1852.75
382.409	1747.75
382.634	1753.75
382.86	1759.75
383.085	1742.75
383.31	1811.75
383.535	1907.75
383.761	2072.75
383.986	1986.75
384.211	1949.75
384.436	1859.75
384.662	1962.75
384.887	2055.75
385.112	1929.75
385.337	1955.75
385.562	1923.75
385.787	1896.75
386.013	1985.75
386.238	1981.75
386.463	1959.75
386.688	2082.75
386.913	2211.75
387.138	2187.75
387.363	1972.75
387.588	1987.75
387.813	2010.75
388.038	2008.75
388.263	2071.75
388.488	2007.75
388.713	1865.75
388.938	1811.75
389.163	1845.75
389.387	1901.75
389.612	1917.75
389.837	1957.75
390.062	1969.75
390.287	1955.75
390.512	1927.75
390.736	1885.75
390.961	1868.75
391.186	1828.75
391.411	1886.75
391.636	1872.75
391.86	1935.75
392.085	1905.75
392.31	1912.75
392.534	1920.75
392.759	1991.75
392.984	1977.75
393.208	1935.75
393.433	2007.75
393.658	2048.75
393.882	2065.75
394.107	1993.75
394.331	1902.75
394.556	1886.75
394.78	1933.75
395.005	2009.75
395.229	2076.75
395.454	2221.75
395.678	2253.75
395.903	2137.75
396.127	2076.75
396.352	2051.75
396.576	2077.75
396.801	2167.75
397.025	2076.75
397.249	2116.75
397.474	2063.75
397.698	2072.75
397.922	2193.75
398.147	2198.75
398.371	2329.75
398.595	2288.75
398.82	2220.75
399.044	2236.75
399.268	2355.75
399.492	2504.75
399.717	2601.75
399.941	2602.75
400.165	2610.75
400.389	2451.75
400.613	2409.75
400.837	2695.75
401.062	3055.75
401.286	2696.75
401.51	2431.75
401.734	2515.75
401.958	2441.75
402.182	2274.75
402.406	2228.75
402.63	2153.75
402.854	2188.75
403.078	2206.75
403.302	2293.75
403.526	2277.75
403.75	2292.75
403.974	2330.75
404.198	2303.75
404.422	2337.75
404.645	2479.75
404.869	2439.75
405.093	2275.75
405.317	2252.75
405.541	2313.75
405.765	2329.75
405.988	2287.75
406.212	2329.75
406.436	2402.75
406.66	2481.75
406.883	2431.75
407.107	2745.75
407.331	3023.75
407.555	3170.75
407.778	3026.75
408.002	2509.75
408.226	2396.75
408.449	2427.75
408.673	2391.75
408.896	2407.75
409.12	2417.75
409.344	2336.75
409.567	2256.75
409.791	2321.75
410.014	2337.75
410.238	2456.75
410.461	2631.75
410.685	2371.75
410.908	2233.75
411.132	2301.75
411.355	2242.75
411.578	2267.75
411.802	2270.75
412.025	2291.75
412.249	2247.75
412.472	2184.75
412.695	2186.75
412.919	2185.75
413.142	2141.75
413.365	2245.75
413.589	2270.75
413.812	2345.75
414.035	2435.75
414.258	2219.75
414.482	2201.75
414.705	2212.75
414.928	2169.75
415.151	2170.75
415.374	2228.75
415.597	2247.75
415.821	2244.75
416.044	2323.75
416.267	2309.75
416.49	2167.75
416.713	2115.75
416.936	2177.75
417.159	2229.75
417.382	2274.75
417.605	2163.75
417.828	2206.75
418.051	2234.75
418.274	2189.75
418.497	2086.75
418.72	2112.75
418.943	2114.75
419.166	2265.75
419.389	2375.75
419.611	2218.75
419.834	2171.75
420.057	2197.75
420.28	2149.75
420.503	2095.75
420.726	2135.75
420.948	2197.75
421.171	2055.75
421.394	2090.75
421.617	2187.75
421.839	2147.75
422.062	2120.75
422.285	2088.75
422.507	2082.75
422.73	2071.75
422.953	2052.75
423.175	2053.75
423.398	2047.75
423.621	2104.75
423.843	2156.75
424.066	2157.75
424.288	2206.75
424.511	2243.75
424.733	2227.75
424.956	2033.75
425.178	2030.75
425.401	2032.75
425.623	2039.75
425.846	2030.75
426.068	2136.75
426.291	2200.75
426.513	2171.75
426.735	2179.75
426.958	2280.75
427.18	2387.75
427.402	2211.75
427.625	2243.75
427.847	2285.75
428.069	2153.75
428.292	2073.75
428.514	2012.75
428.736	2013.75
428.958	2001.75
429.181	2089.75
429.403	2321.75
429.625	2871.75
429.847	2504.75
430.069	2117.75
430.292	2306.75
430.514	2449.75
430.736	2215.75
430.958	2311.75
431.18	2171.75
431.402	2039.75
431.624	2036.75
431.846	2034.75
432.068	2029.75
432.29	2071.75
432.512	2049.75
432.734	2107.75
432.956	2141.75
433.178	2253.75
433.4	2160.75
433.622	2188.75
433.844	2072.75
434.066	2016.75
434.287	2051.75
434.509	2083.75
434.731	2275.75
434.953	2346.75
435.175	2280.75
435.397	2150.75
435.618	2173.75
435.84	2170.75
436.062	2094.75
436.284	2133.75
436.505	2132.75
436.727	2162.75
436.949	2137.75
437.17	2083.75
437.392	2057.75
437.614	2010.75
437.835	2007.75
438.057	2138.75
438.278	2208.75
438.5	2095.75
438.721	2065.75
438.943	2070.75
439.165	2036.75
439.386	1944.75
439.608	2022.75
439.829	2048.75
440.05	2018.75
440.272	2004.75
440.493	1949.75
440.715	2010.75
440.936	2175.75
441.158	2412.75
441.379	2339.75
441.6	2235.75
441.822	2193.75
442.043	2180.75
442.264	2106.75
442.486	2043.75
442.707	2015.75
442.928	2026.75
443.149	2079.75
443.371	2241.75
443.592	2274.75
443.813	2195.75
444.034	2203.75
444.255	2194.75
444.476	2308.75
444.698	2327.75
444.919	2292.75
445.14	2311.75
445.361	2335.75
445.582	2408.75
445.803	2320.75
446.024	2200.75
446.245	2336.75
446.466	2284.75
446.687	2140.75
446.908	2119.75
447.129	2035.75
447.35	2103.75
447.571	2118.75
447.792	2023.75
448.013	1989.75
448.234	2033.75
448.455	2158.75
448.675	2154.75
448.896	1971.75
449.117	1914.75
449.338	1965.75
449.559	2059.75
449.779	2181.75
450	2399.75
450.221	2605.75
450.442	2524.75
450.662	2196.75
450.883	1929.75
451.104	1883.75
451.324	1957.75
451.545	2026.75
451.766	1990.75
451.986	1888.75
452.207	1898.75
452.428	1854.75
452.648	1815.75
452.869	1857.75
453.089	2041.75
453.31	1999.75
453.53	2043.75
453.751	1954.75
453.971	1839.75
454.192	1915.75
454.412	2022.75
454.633	1935.75
454.853	1886.75
455.073	1740.75
455.294	1758.75
455.514	1788.75
455.734	1816.75
455.955	1837.75
456.175	1805.75
456.395	1843.75
456.616	1900.75
456.836	1955.75
457.056	1884.75
457.276	1867.75
457.497	1835.75
457.717	1755.75
457.937	1812.75
458.157	1833.75
458.377	1816.75
458.598	1831.75
458.818	1856.75
459.038	1933.75
459.258	2076.75
459.478	2060.75
459.698	2020.75
459.918	2031.75
460.138	2122.75
460.358	2195.75
460.578	2191.75
460.798	2266.75
461.018	2407.75
461.238	2332.75
461.458	2214.75
461.678	2266.75
461.898	2169.75
462.118	2096.75
462.338	2182.75
462.558	2193.75
462.777	2148.75
462.997	2306.75
463.217	2476.75
463.437	2427.75
463.657	2271.75
463.876	2174.75
464.096	2156.75
464.316	2177.75
464.536	2247.75
464.755	2294.75
464.975	2299.75
465.195	2210.75
465.414	2345.75
465.634	2335.75
465.854	2136.75
466.073	2308.75
466.293	2245.75
466.512	2055.75
466.732	2008.75
466.951	2066.75
467.171	2100.75
467.391	1959.75
467.61	1949.75
467.829	1941.75
468.049	2141.75
468.268	2309.75
468.488	2240.75
468.707	2111.75
468.927	2037.75
469.146	2012.75
469.365	1969.75
469.585	2003.75
469.804	1971.75
470.023	1985.75
470.243	2039.75
470.462	1993.75
470.681	1928.75
470.901	2000.75
471.12	1950.75
471.339	1967.75
471.558	1925.75
471.777	1904.75
471.997	1949.75
472.216	1951.75
472.435	1906.75
472.654	1908.75
472.873	2019.75
473.092	2155.75
473.311	2052.75
473.53	1900.75
473.749	1895.75
473.968	1937.75
474.187	2043.75
474.406	2135.75
474.625	2036.75
474.844	2035.75
475.063	2017.75
475.282	2079.75
475.501	2011.75
475.72	2049.75
475.939	2129.75
476.158	2128.75
476.377	2014.75
476.596	2045.75
476.814	2049.75
477.033	2106.75
477.252	2175.75
477.471	2255.75
477.69	2131.75
477.908	2105.75
478.127	2243.75
478.346	2376.75
478.564	2363.75
478.783	2373.75
479.002	2448.75
479.22	2363.75
479.439	2449.75
479.658	2831.75
479.876	2805.75
480.095	2448.75
480.313	2356.75
480.532	2239.75
480.751	2271.75
480.969	2297.75
481.188	2278.75
481.406	2252.75
481.624	2196.75
481.843	2223.75
482.061	2307.75
482.28	2311.75
482.498	2349.75
482.717	2320.75
482.935	2216.75
483.153	2240.75
483.372	2229.75
483.59	2230.75
483.808	2262.75
484.027	2288.75
484.245	2449.75
484.463	2741.75
484.681	3149.75
484.9	2472.75
485.118	2325.75
485.336	2287.75
485.554	2367.75
485.772	2459.75
485.99	2402.75
486.209	2384.75
486.427	2439.75
486.645	2391.75
486.863	2392.75
487.081	2427.75
487.299	2513.75
487.517	2453.75
487.735	2377.75
487.953	2243.75
488.171	2312.75
488.389	2336.75
488.607	2356.75
488.825	2543.75
489.043	2546.75
489.261	2314.75
489.479	2463.75
489.696	2495.75
489.914	2497.75
490.132	2409.75
490.35	2371.75
490.568	2463.75
490.786	2381.75
491.003	2278.75
491.221	2353.75
491.439	2396.75
491.657	2391.75
491.874	2444.75
492.092	2401.75
492.31	2385.75
492.527	2416.75
492.745	2375.75
492.963	2356.75
493.18	2405.75
493.398	2674.75
493.615	2667.75
493.833	2505.75
494.05	2427.75
494.268	2428.75
494.485	2551.75
494.703	2461.75
494.92	2428.75
495.138	2451.75
495.355	2460.75
495.573	2504.75
495.79	2625.75
496.008	2692.75
496.225	2571.75
496.442	2553.75
496.66	2601.75
496.877	2539.75
497.094	2668.75
497.312	2677.75
497.529	2639.75
497.746	2703.75
497.963	3149.75
498.181	3514.75
498.398	3251.75
498.615	3167.75
498.832	3088.75
499.049	3080.75
499.267	3068.75
499.484	3338.75
499.701	3590.75
499.918	3598.75
500.135	3862.75
500.352	4119.75
500.569	4091.75
500.786	4283.75
501.003	4093.75
501.22	3713.75
501.437	3622.75
501.654	3605.75
501.871	3497.75
502.088	3101.75
502.305	3048.75
502.522	2981.75
502.739	2756.75
502.956	2695.75
503.172	2651.75
503.389	2629.75
503.606	2567.75
503.823	2570.75
504.04	2607.75
504.256	2578.75
504.473	2577.75
504.69	2700.75
504.907	2551.75
505.123	2429.75
505.34	2507.75
505.557	3225.75
505.773	2748.75
505.99	2380.75
506.207	2225.75
506.423	2213.75
506.64	2181.75
506.856	2192.75
507.073	2479.75
507.289	2706.75
507.506	2533.75
507.722	2151.75
507.939	2060.75
508.155	2083.75
508.372	2122.75
508.588	2059.75
508.805	2036.75
509.021	1980.75
509.238	2025.75
509.454	2014.75
509.67	2001.75
509.887	1988.75
510.103	1989.75
510.319	2018.75
510.536	2121.75
510.752	2190.75
510.968	2171.75
511.184	2305.75
511.401	2227.75
511.617	1992.75
511.833	1917.75
512.049	1938.75
512.265	1956.75
512.481	1915.75
512.698	1983.75
512.914	2150.75
513.13	2054.75
513.346	1971.75
513.562	1934.75
513.778	1928.75
513.994	2031.75
514.21	2117.75
514.426	2109.75
514.642	2383.75
514.858	2202.75
515.074	2041.75
515.29	1955.75
515.506	2038.75
515.721	2036.75
515.937	2059.75
516.153	2358.75
516.369	2250.75
516.585	2138.75
516.801	2031.75
517.016	2078.75
517.232	2096.75
517.448	2125.75
517.664	2124.75
517.879	2168.75
518.095	2210.75
518.311	2154.75
518.527	2079.75
518.742	2033.75
518.958	1983.75
519.173	1953.75
519.389	1965.75
519.605	2002.75
519.82	1995.75
520.036	2018.75
520.251	1969.75
520.467	1968.75
520.682	2140.75
520.898	2231.75
521.113	1965.75
521.329	1930.75
521.544	2072.75
521.76	1979.75
521.975	1872.75
522.19	1888.75
522.406	1860.75
522.621	2217.75
522.836	2235.75
523.052	1847.75
523.267	1887.75
523.482	1868.75
523.698	1805.75
523.913	1709.75
524.128	1814.75
524.343	1872.75
524.559	1912.75
524.774	1823.75
524.989	1769.75
525.204	1768.75
525.419	1760.75
525.634	1748.75
525.849	1781.75
526.064	1783.75
526.28	1829.75
526.495	1747.75
526.71	1705.75
526.925	1711.75
527.14	1713.75
527.355	1687.75
527.57	1692.75
527.785	1757.75
527.999	1718.75
528.214	1683.75
528.429	1672.75
528.644	1681.75
528.859	1708.75
529.074	1693.75
529.289	1694.75
529.503	1704.75
529.718	1725.75
529.933	1694.75
530.148	1633.75
530.363	1629.75
530.577	1689.75
530.792	1709.75
531.007	1748.75
531.221	1665.75
531.436	1697.75
531.651	1751.75
531.865	1860.75
532.08	1813.75
532.295	1636.75
532.509	1593.75
532.724	1620.75
532.938	1696.75
533.153	1796.75
533.367	1704.75
533.582	1715.75
533.796	1625.75
534.011	1676.75
534.225	1675.75
534.44	1651.75
534.654	1632.75
534.868	1609.75
535.083	1691.75
535.297	1711.75
535.511	1683.75
535.726	1687.75
535.94	1641.75
536.154	1662.75
536.369	1592.75
536.583	1634.75
536.797	1558.75
537.011	1664.75
537.225	1584.75
537.44	1560.75
537.654	1655.75
537.868	1619.75
538.082	1485.75
538.296	1521.75
538.51	1511.75
538.724	1539.75
538.938	1489.75
539.153	1548.75
539.367	1591.75
539.581	1612.75
539.795	1633.75
540.009	1583.75
540.222	1632.75
540.436	1638.75
540.65	1763.75
540.864	1778.75
541.078	1649.75
541.292	1541.75
541.506	1563.75
541.72	1553.75
541.934	1562.75
542.147	1624.75
542.361	1567.75
542.575	1557.75
542.789	1496.75
543.002	1472.75
543.216	1503.75
543.43	1602.75
543.644	1658.75
543.857	1739.75
544.071	1630.75
544.285	1583.75
544.498	1566.75
544.712	1560.75
544.925	1611.75
545.139	1618.75
545.352	1541.75
545.566	1489.75
545.779	1437.75
545.993	1499.75
546.206	1542.75
546.42	1486.75
546.633	1415.75
546.847	1460.75
547.06	1469.75
547.274	1464.75
547.487	1478.75
547.7	1453.75
547.914	1495.75
548.127	1515.75
548.34	1554.75
548.554	1531.75
548.767	1501.75
548.98	1478.75
549.193	1468.75
549.407	1532.75
549.62	1573.75
549.833	1466.75
550.046	1466.75
550.259	1474.75
550.473	1470.75
550.686	1464.75
550.899	1419.75
551.112	1440.75
551.325	1378.75
551.538	1472.75
551.751	1743.75
551.964	1416.75
552.177	1421.75
552.39	1418.75
552.603	1444.75
552.816	1440.75
553.029	1536.75
553.242	1553.75
553.455	1515.75
553.667	1475.75
553.88	1466.75
554.093	1436.75
554.306	1397.75
554.519	1365.75
554.732	1345.75
554.944	1364.75
555.157	1405.75
555.37	1397.75
555.583	1361.75
555.795	1340.75
556.008	1334.75
556.221	1293.75
556.433	1286.75
556.646	1265.75
556.859	1289.75
557.071	1286.75
557.284	1263.75
557.496	1244.75
557.709	1245.75
557.921	1244.75
558.134	1226.75
558.346	1224.75
558.559	1221.75
558.771	1203.75
558.984	1181.75
559.196	1176.75
559.409	1188.75
559.621	1196.75
559.833	1222.75
560.046	1301.75
560.258	1231.75
560.47	1190.75
560.683	1204.75
560.895	1222.75
561.107	1225.75
561.32	1261.75
561.532	1227.75
561.744	1195.75
561.956	1216.75
562.168	1182.75
562.381	1158.75
562.593	1179.75
562.805	1183.75
563.017	1192.75
563.229	1169.75
563.441	1218.75
563.653	1207.75
563.865	1206.75
564.077	1182.75
564.289	1167.75
564.501	1223.75
564.713	1235.75
564.925	1293.75
565.137	1333.75
565.349	1238.75
565.561	1240.75
565.773	1294.75
565.985	1263.75
566.197	1341.75
566.408	1426.75
566.62	1450.75
566.832	1452.75
567.044	1447.75
567.255	1433.75
567.467	1429.75
567.679	1530.75
567.891	1539.75
568.102	1491.75
568.314	1452.75
568.526	1377.75
568.737	1335.75
568.949	1238.75
569.161	1176.75
569.372	1173.75
569.584	1153.75
569.795	1182.75
570.007	1141.75
570.218	1108.75
570.43	1081.75
570.641	1108.75
570.853	1084.75
571.064	1113.75
571.276	1083.75
571.487	1041.75
571.698	1016.75
571.91	1037.75
572.121	1003.75
572.333	984.75
572.544	1009.75
572.755	972.75
572.966	946.75
573.178	969.75
573.389	974.75
573.6	1029.75
573.811	1043.75
574.023	993.75
574.234	975.75
574.445	915.75
574.656	933.75
574.867	914.75
575.078	925.75
575.289	904.75
575.501	896.75
575.712	896.75
575.923	885.75
576.134	923.75
576.345	921.75
576.556	886.75
576.767	887.75
576.978	862.75
577.188	865.75
577.399	868.75
577.61	844.75
577.821	858.75
578.032	852.75
578.243	862.75
578.454	852.75
578.665	832.75
578.875	807.75
579.086	807.75
579.297	841.75
579.508	860.75
579.718	848.75
579.929	804.75
580.14	801.75
580.35	805.75
580.561	828.75
580.772	882.75
580.982	833.75
581.193	805.75
581.403	801.75
581.614	791.75
581.825	765.75
582.035	796.75
582.246	772.75
582.456	765.75
582.667	781.75
582.877	745.75
583.087	754.75
583.298	750.75
583.508	776.75
583.719	795.75
583.929	765.75
584.139	732.75
584.35	732.75
584.56	720.75
584.77	752.75
584.981	732.75
585.191	780.75
585.401	783.75
585.611	758.75
585.821	755.75
586.032	740.75
586.242	737.75
586.452	767.75
586.662	758.75
586.872	748.75
587.082	727.75
587.292	778.75
587.502	763.75
587.713	757.75
587.923	732.75
588.133	737.75
588.343	743.75
588.553	735.75
588.762	730.75
588.972	743.75
589.182	754.75
589.392	735.75
589.602	749.75
589.812	739.75
590.022	714.75
590.232	708.75
590.441	723.75
590.651	715.75
590.861	721.75
591.071	691.75
591.281	709.75
591.49	721.75
591.7	707.75
591.91	720.75
592.119	705.75
592.329	721.75
592.539	759.75
592.748	750.75
592.958	756.75
593.167	754.75
593.377	762.75
593.587	781.75
593.796	767.75
594.006	759.75
594.215	759.75
594.424	756.75
594.634	753.75
594.843	736.75
595.053	741.75
595.262	722.75
595.472	716.75
595.681	720.75
595.89	700.75
596.1	706.75
596.309	692.75
596.518	673.75
596.727	672.75
596.937	651.75
597.146	688.75
597.355	667.75
597.564	655.75
597.774	643.75
597.983	615.75
598.192	595.75
598.401	611.75
598.61	632.75
598.819	619.75
599.028	633.75
599.237	623.75
599.446	591.75
599.655	605.75
599.864	610.75
600.073	601.75
600.282	605.75
600.491	598.75
600.7	582.75
600.909	582.75
601.118	602.75
601.327	597.75
601.536	601.75
601.745	574.75
601.953	593.75
602.162	594.75
602.371	593.75
602.58	602.75
602.789	581.75
602.997	582.75
603.206	570.75
603.415	571.75
603.623	602.75
603.832	568.75
604.041	549.75
604.249	554.75
604.458	564.75
604.666	577.75
604.875	570.75
605.084	559.75
605.292	571.75
605.501	556.75
605.709	575.75
605.918	541.75
606.126	536.75
606.334	536.75
606.543	554.75
606.751	562.75
606.96	548.75
607.168	542.75
607.376	543.75
607.585	543.75
607.793	520.75
608.001	541.75
608.21	544.75
608.418	529.75
608.626	534.75
608.834	517.75
609.043	552.75
609.251	552.75
609.459	514.75
609.667	525.75
609.875	538.75
610.083	543.75
610.291	561.75
610.499	568.75
610.707	541.75
610.916	532.75
611.124	510.75
611.332	545.75
611.54	524.75
611.748	517.75
611.955	509.75
612.163	501.75
612.371	520.75
612.579	498.75
612.787	514.75
612.995	506.75
613.203	522.75
613.411	508.75
613.618	525.75
613.826	510.75
614.034	519.75
614.242	511.75
614.449	523.75
614.657	495.75
614.865	500.75
615.072	511.75
615.28	500.75
615.488	525.75
615.695	537.75
615.903	512.75
616.111	491.75
616.318	529.75
616.526	515.75
616.733	522.75
616.941	496.75
617.148	501.75
617.356	504.75
617.563	479.75
617.771	490.75
617.978	485.75
618.185	483.75
618.393	485.75
618.6	497.75
618.807	493.75
619.015	503.75
619.222	485.75
619.429	505.75
619.637	474.75
619.844	461.75
620.051	473.75
620.258	476.75
620.466	451.75
620.673	471.75
620.88	449.75
621.087	431.75
621.294	441.75
621.501	450.75
621.708	445.75
621.915	449.75
622.122	457.75
622.329	459.75
622.536	460.75
622.743	457.75
622.95	445.75
623.157	444.75
623.364	436.75
623.571	418.75
623.778	431.75
623.985	435.75
624.192	434.75
624.399	426.75
624.606	445.75
624.812	440.75
625.019	419.75
625.226	441.75
625.433	425.75
625.639	420.75
625.846	431.75
626.053	405.75
626.259	390.75
626.466	396.75
626.673	411.75
626.879	398.75
627.086	400.75
627.293	399.75
627.499	406.75
627.706	392.75
627.912	396.75
628.119	403.75
628.325	423.75
628.532	407.75
628.738	402.75
628.945	414.75
629.151	400.75
629.357	397.75
629.564	411.75
629.77	381.75
629.976	381.75
630.183	382.75
630.389	392.75
630.595	397.75
630.802	390.75
631.008	393.75
631.214	384.75
631.42	357.75
631.627	385.75
631.833	372.75
632.039	372.75
632.245	372.75
632.451	372.75
632.657	384.75
632.863	367.75
633.069	350.75
633.275	353.75
633.481	367.75
633.688	371.75
633.893	343.75
634.099	370.75
634.305	348.75
634.511	341.75
634.717	331.75
634.923	332.75
635.129	353.75
635.335	330.75
635.541	328.75
635.747	367.75
635.952	345.75
636.158	345.75
636.364	342.75
636.57	358.75
636.775	335.75
636.981	358.75
637.187	335.75
637.392	333.75
637.598	329.75
637.804	373.75
638.009	351.75
638.215	323.75
638.421	336.75
638.626	344.75
638.832	349.75
639.037	340.75
639.243	329.75
639.448	317.75
639.654	321.75
639.859	336.75
640.065	326.75
640.27	332.75
640.475	330.75
640.681	327.75
640.886	330.75
641.091	328.75
641.297	315.75
641.502	318.75
641.707	325.75
641.913	314.75
642.118	324.75
642.323	326.75
642.528	327.75
642.733	308.75
642.939	305.75
643.144	323.75
643.349	324.75
643.554	346.75
643.759	316.75
643.964	298.75
644.169	305.75
644.374	293.75
644.579	307.75
644.784	327.75
644.989	305.75
645.194	309.75
645.399	310.75
645.604	291.75
645.809	319.75
646.014	315.75
646.219	320.75
646.423	303.75
646.628	317.75
646.833	306.75
647.038	279.75
647.243	289.75
647.447	310.75
647.652	308.75
647.857	303.75
648.062	309.75
648.266	315.75
648.471	339.75
648.676	301.75
648.88	323.75
649.085	307.75
649.289	301.75
649.494	312.75
649.698	301.75
649.903	293.75
650.107	312.75
650.312	306.75
650.516	289.75
650.721	273.75
650.925	289.75
651.13	283.75
651.334	268.75
651.539	267.75
651.743	274.75
651.947	274.75
652.152	275.75
652.356	272.75
652.56	245.75
652.764	268.75
652.969	269.75
653.173	272.75
653.377	257.75
653.581	258.75
653.785	245.75
653.99	251.75
654.194	243.75
654.398	259.75
654.602	236.75
654.806	233.75
655.01	223.75
655.214	244.75
655.418	239.75
655.622	244.75
655.826	261.75
656.03	266.75
656.234	266.75
656.438	268.75
656.642	303.75
656.846	266.75
657.049	223.75
657.253	218.75
657.457	199.75
657.661	176.75
657.865	204.75
658.068	189.75
658.272	163.75
658.476	151.75
658.68	156.75
658.883	138.75
659.087	145.75
659.291	126.75
659.494	113.75
659.698	137.75
659.901	122.75
660.105	116.75
660.309	130.75
660.512	118.75
660.716	110.75
660.919	126.75
661.123	115.75
661.326	111.75
661.53	106.75
661.733	101.75
661.936	101.75
662.14	109.75
662.343	99.75
662.546	92.75
662.75	94.75
662.953	84.75
663.156	92.75
663.36	95.75
663.563	93.75
663.766	102.75
663.969	85.75
664.173	92.75
664.376	76.75
664.579	91.75
664.782	77.75
664.985	88.75
665.188	87.75
665.391	95.75
665.594	70.75
665.797	69.75
666	77.75
666.203	75.75
666.406	74.75
666.609	88.75
666.812	90.75
667.015	78.75
667.218	84.75
667.421	77.75
667.624	87.75
667.827	75.75
668.03	85.75
668.232	80.75
668.435	88.75
668.638	81.75
668.841	86.75
669.043	79.75
669.246	88.75
669.449	77.75
669.651	71.75
669.854	91.75
670.057	74.75
670.259	84.75
670.462	76.75
670.665	70.75
670.867	79.75
671.07	77.75
671.272	78.75
671.475	84.75
671.677	65.75
671.88	75.75
672.082	92.75
672.284	75.75
672.487	83.75
672.689	85.75
672.892	81.75
