Data from WStandard_LampEnergy8_LIBS07252019.E.O._I.C._HRD10591_15-58-20-929.txt Node
Date: Thu Jul 25 15:58:20 EDT 2019
User: cochatt
Spectrometer: HR+D1059
Trigger mode: 1
Integration Time (sec): 1.000000E-1
Scans to average: 1
Electric dark correction enabled: true
Nonlinearity correction enabled: false
Boxcar width: 0
XAxis mode: Wavelengths
Number of Pixels in Spectrum: 2048
>>>>>Begin Spectral Data<<<<<
223.165	-20.62
223.4	-20.62
223.635	-20.62
223.869	-25.62
224.104	-17.62
224.338	-18.62
224.573	-14.62
224.808	-13.62
225.042	-6.62
225.277	2.38
225.511	6.38
225.746	7.38
225.98	7.38
226.215	1.38
226.449	10.38
226.683	30.38
226.918	20.38
227.152	31.38
227.387	33.38
227.621	33.38
227.856	38.38
228.09	48.38
228.324	46.38
228.559	57.38
228.793	103.38
229.027	212.38
229.262	210.38
229.496	211.38
229.73	213.38
229.964	247.38
230.199	274.38
230.433	248.38
230.667	278.38
230.901	302.38
231.136	276.38
231.37	264.38
231.604	269.38
231.838	262.38
232.072	266.38
232.306	267.38
232.541	291.38
232.775	308.38
233.009	324.38
233.243	324.38
233.477	293.38
233.711	295.38
233.945	318.38
234.179	308.38
234.413	310.38
234.647	368.38
234.881	313.38
235.115	301.38
235.349	297.38
235.583	301.38
235.817	308.38
236.051	317.38
236.285	325.38
236.519	338.38
236.753	357.38
236.987	378.38
237.221	362.38
237.455	388.38
237.689	374.38
237.922	361.38
238.156	349.38
238.39	359.38
238.624	370.38
238.858	395.38
239.091	429.38
239.325	423.38
239.559	466.38
239.793	491.38
240.027	533.38
240.26	505.38
240.494	392.38
240.728	363.38
240.961	375.38
241.195	388.38
241.429	402.38
241.662	423.38
241.896	403.38
242.13	416.38
242.363	438.38
242.597	491.38
242.83	442.38
243.064	470.38
243.298	491.38
243.531	466.38
243.765	464.38
243.998	462.38
244.232	425.38
244.465	430.38
244.699	437.38
244.932	483.38
245.166	545.38
245.399	506.38
245.633	461.38
245.866	462.38
246.099	487.38
246.333	487.38
246.566	504.38
246.8	532.38
247.033	584.38
247.266	550.38
247.5	555.38
247.733	532.38
247.966	586.38
248.2	605.38
248.433	610.38
248.666	637.38
248.899	704.38
249.133	764.38
249.366	814.38
249.599	671.38
249.832	635.38
250.066	656.38
250.299	620.38
250.532	606.38
250.765	561.38
250.998	574.38
251.231	593.38
251.465	612.38
251.698	581.38
251.931	596.38
252.164	600.38
252.397	638.38
252.63	635.38
252.863	558.38
253.096	543.38
253.329	590.38
253.562	588.38
253.795	631.38
254.028	632.38
254.261	587.38
254.494	592.38
254.727	555.38
254.96	588.38
255.193	649.38
255.426	722.38
255.659	803.38
255.892	834.38
256.124	674.38
256.357	684.38
256.59	728.38
256.823	711.38
257.056	741.38
257.289	858.38
257.521	914.38
257.754	813.38
257.987	786.38
258.22	837.38
258.452	841.38
258.685	693.38
258.918	677.38
259.151	675.38
259.383	652.38
259.616	610.38
259.849	638.38
260.081	736.38
260.314	781.38
260.547	813.38
260.779	842.38
261.012	778.38
261.244	704.38
261.477	684.38
261.71	713.38
261.942	661.38
262.175	679.38
262.407	698.38
262.64	686.38
262.872	644.38
263.105	653.38
263.337	641.38
263.57	649.38
263.802	622.38
264.035	604.38
264.267	591.38
264.499	570.38
264.732	620.38
264.964	673.38
265.197	682.38
265.429	732.38
265.661	789.38
265.894	881.38
266.126	882.38
266.358	810.38
266.591	845.38
266.823	860.38
267.055	814.38
267.287	804.38
267.52	782.38
267.752	776.38
267.984	775.38
268.216	808.38
268.448	816.38
268.681	796.38
268.913	746.38
269.145	702.38
269.377	724.38
269.609	800.38
269.841	902.38
270.073	1012.38
270.306	1108.38
270.538	1137.38
270.77	977.38
271.002	880.38
271.234	786.38
271.466	841.38
271.698	948.38
271.93	1092.38
272.162	1075.38
272.394	1001.38
272.626	901.38
272.858	809.38
273.09	721.38
273.322	730.38
273.553	695.38
273.785	700.38
274.017	727.38
274.249	742.38
274.481	764.38
274.713	700.38
274.945	730.38
275.176	731.38
275.408	710.38
275.64	683.38
275.872	709.38
276.104	741.38
276.335	864.38
276.567	911.38
276.799	932.38
277.031	830.38
277.262	830.38
277.494	864.38
277.726	916.38
277.957	915.38
278.189	812.38
278.421	753.38
278.652	760.38
278.884	740.38
279.115	748.38
279.347	771.38
279.579	745.38
279.81	735.38
280.042	812.38
280.273	875.38
280.505	877.38
280.736	908.38
280.968	856.38
281.199	752.38
281.431	726.38
281.662	728.38
281.894	717.38
282.125	741.38
282.356	761.38
282.588	788.38
282.819	788.38
283.051	840.38
283.282	917.38
283.513	846.38
283.745	772.38
283.976	730.38
284.207	751.38
284.439	752.38
284.67	762.38
284.901	783.38
285.132	806.38
285.364	778.38
285.595	777.38
285.826	790.38
286.057	774.38
286.288	780.38
286.52	813.38
286.751	867.38
286.982	876.38
287.213	802.38
287.444	748.38
287.675	739.38
287.906	834.38
288.138	835.38
288.369	801.38
288.6	797.38
288.831	741.38
289.062	734.38
289.293	777.38
289.524	793.38
289.755	805.38
289.986	806.38
290.217	736.38
290.448	764.38
290.679	784.38
290.91	773.38
291.141	820.38
291.371	851.38
291.602	843.38
291.833	828.38
292.064	833.38
292.295	856.38
292.526	865.38
292.757	872.38
292.987	852.38
293.218	827.38
293.449	872.38
293.68	1004.38
293.91	1052.38
294.141	972.38
294.372	928.38
294.603	941.38
294.833	992.38
295.064	946.38
295.295	850.38
295.525	804.38
295.756	781.38
295.987	736.38
296.217	746.38
296.448	797.38
296.679	813.38
296.909	808.38
297.14	789.38
297.37	796.38
297.601	884.38
297.831	918.38
298.062	888.38
298.292	807.38
298.523	776.38
298.753	819.38
298.984	810.38
299.214	842.38
299.445	848.38
299.675	839.38
299.905	858.38
300.136	809.38
300.366	806.38
300.597	780.38
300.827	794.38
301.057	844.38
301.288	849.38
301.518	872.38
301.748	896.38
301.979	933.38
302.209	932.38
302.439	1014.38
302.669	1000.38
302.9	963.38
303.13	865.38
303.36	860.38
303.59	877.38
303.82	873.38
304.051	876.38
304.281	891.38
304.511	881.38
304.741	956.38
304.971	1070.38
305.201	1076.38
305.431	957.38
305.661	851.38
305.891	782.38
306.121	776.38
306.352	813.38
306.582	873.38
306.812	894.38
307.042	980.38
307.272	972.38
307.502	1023.38
307.731	1069.38
307.961	1116.38
308.191	1031.38
308.421	880.38
308.651	864.38
308.881	856.38
309.111	841.38
309.341	832.38
309.571	849.38
309.8	840.38
310.03	846.38
310.26	830.38
310.49	852.38
310.72	896.38
310.949	895.38
311.179	908.38
311.409	897.38
311.639	843.38
311.868	824.38
312.098	860.38
312.328	875.38
312.557	836.38
312.787	856.38
313.017	891.38
313.246	872.38
313.476	881.38
313.706	920.38
313.935	904.38
314.165	912.38
314.394	932.38
314.624	1025.38
314.853	1039.38
315.083	1059.38
315.312	1078.38
315.542	984.38
315.771	938.38
316.001	938.38
316.23	975.38
316.46	956.38
316.689	898.38
316.919	868.38
317.148	873.38
317.377	902.38
317.607	965.38
317.836	1072.38
318.065	1098.38
318.295	1046.38
318.524	1013.38
318.753	978.38
318.983	938.38
319.212	926.38
319.441	935.38
319.67	930.38
319.9	951.38
320.129	999.38
320.358	1067.38
320.587	1078.38
320.816	1064.38
321.046	1018.38
321.275	972.38
321.504	980.38
321.733	1061.38
321.962	988.38
322.191	958.38
322.42	965.38
322.649	926.38
322.878	922.38
323.108	924.38
323.337	978.38
323.566	987.38
323.795	950.38
324.024	972.38
324.253	960.38
324.482	983.38
324.71	906.38
324.939	876.38
325.168	934.38
325.397	961.38
325.626	977.38
325.855	951.38
326.084	936.38
326.313	936.38
326.542	994.38
326.77	1008.38
326.999	963.38
327.228	954.38
327.457	894.38
327.686	895.38
327.914	908.38
328.143	967.38
328.372	955.38
328.6	930.38
328.829	944.38
329.058	926.38
329.287	932.38
329.515	968.38
329.744	974.38
329.972	1025.38
330.201	1059.38
330.43	1002.38
330.658	1005.38
330.887	1010.38
331.115	1002.38
331.344	1005.38
331.572	1009.38
331.801	985.38
332.03	983.38
332.258	1001.38
332.486	1033.38
332.715	1000.38
332.943	1018.38
333.172	1005.38
333.4	1021.38
333.629	1028.38
333.857	1099.38
334.085	1245.38
334.314	1413.38
334.542	1453.38
334.771	1292.38
334.999	1176.38
335.227	1113.38
335.455	1077.38
335.684	1068.38
335.912	1090.38
336.14	1112.38
336.369	1099.38
336.597	1018.38
336.825	1010.38
337.053	1045.38
337.281	1116.38
337.51	1172.38
337.738	1209.38
337.966	1108.38
338.194	1050.38
338.422	1022.38
338.65	1003.38
338.878	974.38
339.106	953.38
339.334	954.38
339.562	962.38
339.79	966.38
340.018	1033.38
340.246	1064.38
340.474	1038.38
340.702	1052.38
340.93	1064.38
341.158	989.38
341.386	1016.38
341.614	994.38
341.842	985.38
342.07	1000.38
342.298	1013.38
342.526	986.38
342.754	1022.38
342.981	1000.38
343.209	988.38
343.437	982.38
343.665	968.38
343.893	1032.38
344.12	1066.38
344.348	1080.38
344.576	995.38
344.804	973.38
345.031	988.38
345.259	996.38
345.487	975.38
345.714	894.38
345.942	928.38
346.17	947.38
346.397	931.38
346.625	948.38
346.853	903.38
347.08	884.38
347.308	896.38
347.535	943.38
347.763	934.38
347.99	944.38
348.218	927.38
348.445	934.38
348.673	940.38
348.9	975.38
349.128	1005.38
349.355	1040.38
349.583	1008.38
349.81	953.38
350.037	865.38
350.265	864.38
350.492	886.38
350.72	916.38
350.947	958.38
351.174	961.38
351.402	906.38
351.629	897.38
351.856	877.38
352.083	863.38
352.311	867.38
352.538	938.38
352.765	948.38
352.992	953.38
353.22	886.38
353.447	875.38
353.674	931.38
353.901	953.38
354.128	920.38
354.355	938.38
354.583	951.38
354.81	1014.38
355.037	952.38
355.264	966.38
355.491	938.38
355.718	959.38
355.945	952.38
356.172	904.38
356.399	899.38
356.626	931.38
356.853	979.38
357.08	1018.38
357.307	1111.38
357.534	1095.38
357.761	954.38
357.988	901.38
358.215	894.38
358.441	921.38
358.668	894.38
358.895	894.38
359.122	1015.38
359.349	1050.38
359.576	1018.38
359.802	932.38
360.029	914.38
360.256	894.38
360.483	912.38
360.709	937.38
360.936	984.38
361.163	1041.38
361.39	1138.38
361.616	1177.38
361.843	1152.38
362.07	1065.38
362.296	944.38
362.523	926.38
362.749	929.38
362.976	920.38
363.203	937.38
363.429	926.38
363.656	927.38
363.882	983.38
364.109	1041.38
364.335	1140.38
364.562	1028.38
364.788	999.38
365.015	926.38
365.241	928.38
365.468	950.38
365.694	1020.38
365.92	994.38
366.147	966.38
366.373	914.38
366.599	915.38
366.826	912.38
367.052	899.38
367.278	924.38
367.505	959.38
367.731	951.38
367.957	942.38
368.184	1057.38
368.41	1076.38
368.636	1086.38
368.862	1070.38
369.089	1068.38
369.315	1046.38
369.541	975.38
369.767	918.38
369.993	924.38
370.219	924.38
370.445	983.38
370.672	1044.38
370.898	1077.38
371.124	1038.38
371.35	996.38
371.576	1060.38
371.802	1062.38
372.028	1009.38
372.254	963.38
372.48	954.38
372.706	960.38
372.932	958.38
373.158	955.38
373.384	1020.38
373.61	1045.38
373.835	1049.38
374.061	991.38
374.287	1021.38
374.513	1012.38
374.739	1019.38
374.965	992.38
375.191	1014.38
375.416	1011.38
375.642	1064.38
375.868	1108.38
376.094	1130.38
376.319	1032.38
376.545	964.38
376.771	1058.38
376.997	1080.38
377.222	1069.38
377.448	1013.38
377.674	1041.38
377.899	1047.38
378.125	1089.38
378.35	1103.38
378.576	1000.38
378.802	994.38
379.027	969.38
379.253	979.38
379.478	970.38
379.704	1016.38
379.929	998.38
380.155	1004.38
380.38	996.38
380.606	1025.38
380.831	1029.38
381.057	1090.38
381.282	1102.38
381.507	1074.38
381.733	1131.38
381.958	1160.38
382.184	1067.38
382.409	1020.38
382.634	1061.38
382.86	1026.38
383.085	1028.38
383.31	1097.38
383.535	1169.38
383.761	1241.38
383.986	1160.38
384.211	1132.38
384.436	1152.38
384.662	1181.38
384.887	1206.38
385.112	1152.38
385.337	1148.38
385.562	1144.38
385.787	1131.38
386.013	1145.38
386.238	1162.38
386.463	1168.38
386.688	1253.38
386.913	1331.38
387.138	1296.38
387.363	1180.38
387.588	1188.38
387.813	1179.38
388.038	1206.38
388.263	1234.38
388.488	1185.38
388.713	1089.38
388.938	1072.38
389.163	1105.38
389.387	1138.38
389.612	1122.38
389.837	1133.38
390.062	1163.38
390.287	1159.38
390.512	1140.38
390.736	1111.38
390.961	1098.38
391.186	1081.38
391.411	1119.38
391.636	1117.38
391.86	1123.38
392.085	1140.38
392.31	1135.38
392.534	1115.38
392.759	1140.38
392.984	1145.38
393.208	1146.38
393.433	1210.38
393.658	1249.38
393.882	1248.38
394.107	1189.38
394.331	1147.38
394.556	1129.38
394.78	1164.38
395.005	1193.38
395.229	1258.38
395.454	1374.38
395.678	1323.38
395.903	1266.38
396.127	1221.38
396.352	1237.38
396.576	1284.38
396.801	1289.38
397.025	1243.38
397.249	1256.38
397.474	1259.38
397.698	1229.38
397.922	1284.38
398.147	1324.38
398.371	1400.38
398.595	1370.38
398.82	1294.38
399.044	1322.38
399.268	1403.38
399.492	1480.38
399.717	1500.38
399.941	1505.38
400.165	1500.38
400.389	1412.38
400.613	1459.38
400.837	1673.38
401.062	1856.38
401.286	1517.38
401.51	1467.38
401.734	1507.38
401.958	1422.38
402.182	1347.38
402.406	1316.38
402.63	1308.38
402.854	1283.38
403.078	1341.38
403.302	1352.38
403.526	1364.38
403.75	1398.38
403.974	1362.38
404.198	1387.38
404.422	1437.38
404.645	1493.38
404.869	1423.38
405.093	1330.38
405.317	1316.38
405.541	1368.38
405.765	1346.38
405.988	1384.38
406.212	1380.38
406.436	1407.38
406.66	1448.38
406.883	1505.38
407.107	1693.38
407.331	1820.38
407.555	1928.38
407.778	1715.38
408.002	1434.38
408.226	1408.38
408.449	1439.38
408.673	1381.38
408.896	1396.38
409.12	1417.38
409.344	1400.38
409.567	1349.38
409.791	1368.38
410.014	1397.38
410.238	1471.38
410.461	1510.38
410.685	1398.38
410.908	1324.38
411.132	1372.38
411.355	1366.38
411.578	1348.38
411.802	1332.38
412.025	1354.38
412.249	1334.38
412.472	1301.38
412.695	1282.38
412.919	1304.38
413.142	1304.38
413.365	1335.38
413.589	1361.38
413.812	1461.38
414.035	1474.38
414.258	1367.38
414.482	1308.38
414.705	1352.38
414.928	1283.38
415.151	1344.38
415.374	1304.38
415.597	1337.38
415.821	1322.38
416.044	1356.38
416.267	1368.38
416.49	1278.38
416.713	1278.38
416.936	1340.38
417.159	1380.38
417.382	1395.38
417.605	1296.38
417.828	1324.38
418.051	1367.38
418.274	1299.38
418.497	1291.38
418.72	1278.38
418.943	1274.38
419.166	1342.38
419.389	1369.38
419.611	1325.38
419.834	1306.38
420.057	1328.38
420.28	1270.38
420.503	1298.38
420.726	1318.38
420.948	1331.38
421.171	1264.38
421.394	1299.38
421.617	1332.38
421.839	1351.38
422.062	1339.38
422.285	1294.38
422.507	1289.38
422.73	1258.38
422.953	1237.38
423.175	1205.38
423.398	1237.38
423.621	1284.38
423.843	1284.38
424.066	1345.38
424.288	1430.38
424.511	1420.38
424.733	1397.38
424.956	1258.38
425.178	1270.38
425.401	1277.38
425.623	1284.38
425.846	1275.38
426.068	1318.38
426.291	1359.38
426.513	1348.38
426.735	1337.38
426.958	1459.38
427.18	1491.38
427.402	1380.38
427.625	1436.38
427.847	1410.38
428.069	1304.38
428.292	1229.38
428.514	1244.38
428.736	1218.38
428.958	1273.38
429.181	1272.38
429.403	1470.38
429.625	1828.38
429.847	1490.38
430.069	1352.38
430.292	1494.38
430.514	1472.38
430.736	1375.38
430.958	1392.38
431.18	1338.38
431.402	1232.38
431.624	1219.38
431.846	1204.38
432.068	1156.38
432.29	1128.38
432.512	1199.38
432.734	1278.38
432.956	1342.38
433.178	1363.38
433.4	1330.38
433.622	1294.38
433.844	1256.38
434.066	1209.38
434.287	1206.38
434.509	1217.38
434.731	1281.38
434.953	1418.38
435.175	1332.38
435.397	1237.38
435.618	1277.38
435.84	1275.38
436.062	1248.38
436.284	1294.38
436.505	1317.38
436.727	1304.38
436.949	1277.38
437.17	1247.38
437.392	1255.38
437.614	1212.38
437.835	1168.38
438.057	1219.38
438.278	1254.38
438.5	1245.38
438.721	1268.38
438.943	1283.38
439.165	1237.38
439.386	1230.38
439.608	1267.38
439.829	1284.38
440.05	1272.38
440.272	1251.38
440.493	1257.38
440.715	1268.38
440.936	1378.38
441.158	1461.38
441.379	1436.38
441.6	1367.38
441.822	1357.38
442.043	1316.38
442.264	1338.38
442.486	1291.38
442.707	1266.38
442.928	1265.38
443.149	1324.38
443.371	1363.38
443.592	1378.38
443.813	1392.38
444.034	1382.38
444.255	1371.38
444.476	1394.38
444.698	1392.38
444.919	1402.38
445.14	1513.38
445.361	1477.38
445.582	1491.38
445.803	1456.38
446.024	1377.38
446.245	1416.38
446.466	1381.38
446.687	1348.38
446.908	1362.38
447.129	1343.38
447.35	1350.38
447.571	1318.38
447.792	1237.38
448.013	1268.38
448.234	1268.38
448.455	1331.38
448.675	1350.38
448.896	1241.38
449.117	1192.38
449.338	1245.38
449.559	1286.38
449.779	1315.38
450	1466.38
450.221	1474.38
450.442	1466.38
450.662	1300.38
450.883	1164.38
451.104	1218.38
451.324	1170.38
451.545	1209.38
451.766	1200.38
451.986	1148.38
452.207	1147.38
452.428	1101.38
452.648	1102.38
452.869	1126.38
453.089	1147.38
453.31	1148.38
453.53	1196.38
453.751	1124.38
453.971	1073.38
454.192	1097.38
454.412	1167.38
454.633	1150.38
454.853	1129.38
455.073	1065.38
455.294	1077.38
455.514	1085.38
455.734	1097.38
455.955	1085.38
456.175	1098.38
456.395	1055.38
456.616	1098.38
456.836	1115.38
457.056	1093.38
457.276	1082.38
457.497	1080.38
457.717	1041.38
457.937	1044.38
458.157	1092.38
458.377	1040.38
458.598	1030.38
458.818	1065.38
459.038	1132.38
459.258	1156.38
459.478	1136.38
459.698	1103.38
459.918	1162.38
460.138	1234.38
460.358	1259.38
460.578	1269.38
460.798	1270.38
461.018	1358.38
461.238	1278.38
461.458	1282.38
461.678	1258.38
461.898	1230.38
462.118	1202.38
462.338	1285.38
462.558	1266.38
462.777	1286.38
462.997	1339.38
463.217	1374.38
463.437	1348.38
463.657	1278.38
463.876	1256.38
464.096	1295.38
464.316	1271.38
464.536	1322.38
464.755	1292.38
464.975	1335.38
465.195	1317.38
465.414	1340.38
465.634	1321.38
465.854	1313.38
466.073	1420.38
466.293	1348.38
466.512	1227.38
466.732	1198.38
466.951	1205.38
467.171	1237.38
467.391	1214.38
467.61	1210.38
467.829	1223.38
468.049	1323.38
468.268	1478.38
468.488	1386.38
468.707	1277.38
468.927	1241.38
469.146	1221.38
469.365	1221.38
469.585	1239.38
469.804	1226.38
470.023	1268.38
470.243	1249.38
470.462	1246.38
470.681	1232.38
470.901	1224.38
471.12	1251.38
471.339	1232.38
471.558	1238.38
471.777	1222.38
471.997	1210.38
472.216	1200.38
472.435	1144.38
472.654	1148.38
472.873	1208.38
473.092	1258.38
473.311	1217.38
473.53	1127.38
473.749	1127.38
473.968	1190.38
474.187	1238.38
474.406	1255.38
474.625	1232.38
474.844	1216.38
475.063	1263.38
475.282	1226.38
475.501	1193.38
475.72	1228.38
475.939	1301.38
476.158	1274.38
476.377	1216.38
476.596	1240.38
476.814	1251.38
477.033	1247.38
477.252	1301.38
477.471	1342.38
477.69	1300.38
477.908	1285.38
478.127	1368.38
478.346	1416.38
478.564	1428.38
478.783	1421.38
479.002	1428.38
479.22	1456.38
479.439	1460.38
479.658	1584.38
479.876	1556.38
480.095	1373.38
480.313	1347.38
480.532	1249.38
480.751	1298.38
480.969	1298.38
481.188	1302.38
481.406	1241.38
481.624	1216.38
481.843	1265.38
482.061	1302.38
482.28	1334.38
482.498	1363.38
482.717	1338.38
482.935	1314.38
483.153	1328.38
483.372	1341.38
483.59	1380.38
483.808	1365.38
484.027	1376.38
484.245	1443.38
484.463	1776.38
484.681	1953.38
484.9	1486.38
485.118	1420.38
485.336	1355.38
485.554	1402.38
485.772	1402.38
485.99	1379.38
486.209	1389.38
486.427	1398.38
486.645	1420.38
486.863	1406.38
487.081	1436.38
487.299	1475.38
487.517	1465.38
487.735	1464.38
487.953	1515.38
488.171	1525.38
488.389	1486.38
488.607	1470.38
488.825	1638.38
489.043	1588.38
489.261	1430.38
489.479	1478.38
489.696	1478.38
489.914	1488.38
490.132	1437.38
490.35	1474.38
490.568	1563.38
490.786	1524.38
491.003	1487.38
491.221	1576.38
491.439	1612.38
491.657	1593.38
491.874	1597.38
492.092	1669.38
492.31	1722.38
492.527	1673.38
492.745	1635.38
492.963	1595.38
493.18	1620.38
493.398	1717.38
493.615	1718.38
493.833	1650.38
494.05	1569.38
494.268	1593.38
494.485	1569.38
494.703	1549.38
494.92	1535.38
495.138	1564.38
495.355	1581.38
495.573	1651.38
495.79	1704.38
496.008	1728.38
496.225	1618.38
496.442	1595.38
496.66	1594.38
496.877	1604.38
497.094	1654.38
497.312	1655.38
497.529	1620.38
497.746	1674.38
497.963	1870.38
498.181	1958.38
498.398	1850.38
498.615	1856.38
498.832	1749.38
499.049	1763.38
499.267	1798.38
499.484	1908.38
499.701	2015.38
499.918	2047.38
500.135	2169.38
500.352	2380.38
500.569	2368.38
500.786	2601.38
501.003	2341.38
501.22	2119.38
501.437	2100.38
501.654	2129.38
501.871	2018.38
502.088	1774.38
502.305	1781.38
502.522	1722.38
502.739	1594.38
502.956	1553.38
503.172	1563.38
503.389	1509.38
503.606	1524.38
503.823	1507.38
504.04	1509.38
504.256	1459.38
504.473	1540.38
504.69	1558.38
504.907	1436.38
505.123	1426.38
505.34	1582.38
505.557	2024.38
505.773	1683.38
505.99	1408.38
506.207	1336.38
506.423	1304.38
506.64	1295.38
506.856	1322.38
507.073	1522.38
507.289	1669.38
507.506	1521.38
507.722	1318.38
507.939	1258.38
508.155	1253.38
508.372	1287.38
508.588	1222.38
508.805	1195.38
509.021	1186.38
509.238	1198.38
509.454	1160.38
509.67	1140.38
509.887	1148.38
510.103	1141.38
510.319	1143.38
510.536	1203.38
510.752	1247.38
510.968	1234.38
511.184	1320.38
511.401	1272.38
511.617	1143.38
511.833	1093.38
512.049	1099.38
512.265	1126.38
512.481	1107.38
512.698	1150.38
512.914	1252.38
513.13	1145.38
513.346	1091.38
513.562	1115.38
513.778	1138.38
513.994	1190.38
514.21	1183.38
514.426	1228.38
514.642	1340.38
514.858	1262.38
515.074	1138.38
515.29	1092.38
515.506	1160.38
515.721	1165.38
515.937	1188.38
516.153	1345.38
516.369	1262.38
516.585	1184.38
516.801	1149.38
517.016	1180.38
517.232	1179.38
517.448	1223.38
517.664	1264.38
517.879	1224.38
518.095	1300.38
518.311	1202.38
518.527	1221.38
518.742	1139.38
518.958	1145.38
519.173	1166.38
519.389	1140.38
519.605	1214.38
519.82	1181.38
520.036	1185.38
520.251	1128.38
520.467	1188.38
520.682	1294.38
520.898	1242.38
521.113	1145.38
521.329	1138.38
521.544	1214.38
521.76	1172.38
521.975	1108.38
522.19	1098.38
522.406	1096.38
522.621	1435.38
522.836	1306.38
523.052	1131.38
523.267	1121.38
523.482	1130.38
523.698	1112.38
523.913	1052.38
524.128	1105.38
524.343	1152.38
524.559	1174.38
524.774	1112.38
524.989	1090.38
525.204	1085.38
525.419	1051.38
525.634	1087.38
525.849	1089.38
526.064	1103.38
526.28	1082.38
526.495	1027.38
526.71	979.38
526.925	988.38
527.14	989.38
527.355	969.38
527.57	1027.38
527.785	1063.38
527.999	1016.38
528.214	980.38
528.429	1013.38
528.644	1020.38
528.859	1062.38
529.074	1078.38
529.289	1094.38
529.503	1105.38
529.718	1090.38
529.933	1016.38
530.148	982.38
530.363	991.38
530.577	990.38
530.792	1013.38
531.007	988.38
531.221	964.38
531.436	1010.38
531.651	1028.38
531.865	1053.38
532.08	1030.38
532.295	950.38
532.509	925.38
532.724	976.38
532.938	1032.38
533.153	1086.38
533.367	1056.38
533.582	1034.38
533.796	994.38
534.011	997.38
534.225	992.38
534.44	982.38
534.654	950.38
534.868	988.38
535.083	1036.38
535.297	1046.38
535.511	988.38
535.726	1017.38
535.94	987.38
536.154	978.38
536.369	940.38
536.583	912.38
536.797	922.38
537.011	953.38
537.225	947.38
537.44	911.38
537.654	970.38
537.868	930.38
538.082	907.38
538.296	918.38
538.51	911.38
538.724	932.38
538.938	970.38
539.153	1018.38
539.367	1000.38
539.581	967.38
539.795	1018.38
540.009	983.38
540.222	970.38
540.436	986.38
540.65	1059.38
540.864	1096.38
541.078	1038.38
541.292	1051.38
541.506	1078.38
541.72	1119.38
541.934	1176.38
542.147	1214.38
542.361	1142.38
542.575	1063.38
542.789	1028.38
543.002	976.38
543.216	999.38
543.43	1042.38
543.644	1074.38
543.857	1129.38
544.071	1120.38
544.285	1074.38
544.498	1065.38
544.712	1081.38
544.925	1113.38
545.139	1124.38
545.352	1091.38
545.566	1052.38
545.779	1058.38
545.993	1107.38
546.206	1100.38
546.42	1060.38
546.633	1077.38
546.847	1042.38
547.06	1080.38
547.274	1060.38
547.487	1075.38
547.7	1081.38
547.914	1084.38
548.127	1095.38
548.34	1081.38
548.554	1076.38
548.767	1046.38
548.98	1085.38
549.193	1045.38
549.407	1106.38
549.62	1107.38
549.833	1036.38
550.046	1054.38
550.259	1062.38
550.473	1051.38
550.686	1050.38
550.899	993.38
551.112	1013.38
551.325	1007.38
551.538	1043.38
551.751	1149.38
551.964	918.38
552.177	910.38
552.39	985.38
552.603	995.38
552.816	1000.38
553.029	1093.38
553.242	1069.38
553.455	1072.38
553.667	1056.38
553.88	1060.38
554.093	1011.38
554.306	972.38
554.519	977.38
554.732	954.38
554.944	974.38
555.157	985.38
555.37	967.38
555.583	966.38
555.795	939.38
556.008	906.38
556.221	864.38
556.433	875.38
556.646	880.38
556.859	882.38
557.071	872.38
557.284	877.38
557.496	868.38
557.709	877.38
557.921	881.38
558.134	854.38
558.346	860.38
558.559	865.38
558.771	855.38
558.984	824.38
559.196	800.38
559.409	824.38
559.621	831.38
559.833	817.38
560.046	840.38
560.258	848.38
560.47	820.38
560.683	833.38
560.895	853.38
561.107	831.38
561.32	853.38
561.532	839.38
561.744	828.38
561.956	824.38
562.168	804.38
562.381	770.38
562.593	789.38
562.805	794.38
563.017	800.38
563.229	804.38
563.441	830.38
563.653	789.38
563.865	789.38
564.077	757.38
564.289	783.38
564.501	814.38
564.713	786.38
564.925	816.38
565.137	887.38
565.349	822.38
565.561	800.38
565.773	822.38
565.985	834.38
566.197	881.38
566.408	906.38
566.62	911.38
566.832	904.38
567.044	920.38
567.255	897.38
567.467	912.38
567.679	920.38
567.891	946.38
568.102	885.38
568.314	841.38
568.526	793.38
568.737	782.38
568.949	766.38
569.161	699.38
569.372	705.38
569.584	685.38
569.795	697.38
570.007	676.38
570.218	655.38
570.43	640.38
570.641	662.38
570.853	658.38
571.064	664.38
571.276	686.38
571.487	667.38
571.698	661.38
571.91	646.38
572.121	620.38
572.333	610.38
572.544	599.38
572.755	578.38
572.966	590.38
573.178	598.38
573.389	578.38
573.6	618.38
573.811	666.38
574.023	596.38
574.234	594.38
574.445	570.38
574.656	557.38
574.867	546.38
575.078	577.38
575.289	571.38
575.501	581.38
575.712	542.38
575.923	546.38
576.134	578.38
576.345	555.38
576.556	560.38
576.767	573.38
576.978	552.38
577.188	531.38
577.399	529.38
577.61	523.38
577.821	530.38
578.032	516.38
578.243	524.38
578.454	507.38
578.665	510.38
578.875	483.38
579.086	496.38
579.297	487.38
579.508	537.38
579.718	515.38
579.929	518.38
580.14	481.38
580.35	500.38
580.561	508.38
580.772	556.38
580.982	513.38
581.193	518.38
581.403	500.38
581.614	481.38
581.825	480.38
582.035	462.38
582.246	472.38
582.456	488.38
582.667	464.38
582.877	468.38
583.087	477.38
583.298	463.38
583.508	447.38
583.719	482.38
583.929	484.38
584.139	473.38
584.35	469.38
584.56	459.38
584.77	474.38
584.981	466.38
585.191	462.38
585.401	479.38
585.611	460.38
585.821	464.38
586.032	457.38
586.242	450.38
586.452	437.38
586.662	458.38
586.872	449.38
587.082	439.38
587.292	462.38
587.502	470.38
587.713	467.38
587.923	462.38
588.133	451.38
588.343	473.38
588.553	454.38
588.762	450.38
588.972	447.38
589.182	452.38
589.392	445.38
589.602	454.38
589.812	448.38
590.022	432.38
590.232	437.38
590.441	457.38
590.651	450.38
590.861	442.38
591.071	444.38
591.281	453.38
591.49	438.38
591.7	429.38
591.91	454.38
592.119	434.38
592.329	449.38
592.539	458.38
592.748	475.38
592.958	455.38
593.167	458.38
593.377	475.38
593.587	485.38
593.796	456.38
594.006	472.38
594.215	472.38
594.424	442.38
594.634	461.38
594.843	455.38
595.053	477.38
595.262	471.38
595.472	438.38
595.681	432.38
595.89	430.38
596.1	442.38
596.309	442.38
596.518	421.38
596.727	447.38
596.937	429.38
597.146	430.38
597.355	420.38
597.564	420.38
597.774	417.38
597.983	417.38
598.192	391.38
598.401	394.38
598.61	418.38
598.819	385.38
599.028	413.38
599.237	392.38
599.446	384.38
599.655	404.38
599.864	373.38
600.073	379.38
600.282	408.38
600.491	381.38
600.7	382.38
600.909	368.38
601.118	398.38
601.327	402.38
601.536	402.38
601.745	394.38
601.953	418.38
602.162	412.38
602.371	420.38
602.58	403.38
602.789	425.38
602.997	414.38
603.206	392.38
603.415	417.38
603.623	407.38
603.832	402.38
604.041	394.38
604.249	377.38
604.458	376.38
604.666	363.38
604.875	388.38
605.084	386.38
605.292	393.38
605.501	416.38
605.709	423.38
605.918	407.38
606.126	402.38
606.334	400.38
606.543	398.38
606.751	397.38
606.96	392.38
607.168	417.38
607.376	379.38
607.585	420.38
607.793	416.38
608.001	407.38
608.21	397.38
608.418	404.38
608.626	410.38
608.834	410.38
609.043	400.38
609.251	396.38
609.459	393.38
609.667	412.38
609.875	405.38
610.083	436.38
610.291	428.38
610.499	407.38
610.707	393.38
610.916	390.38
611.124	400.38
611.332	400.38
611.54	390.38
611.748	432.38
611.955	398.38
612.163	390.38
612.371	379.38
612.579	384.38
612.787	386.38
612.995	408.38
613.203	396.38
613.411	390.38
613.618	384.38
613.826	410.38
614.034	390.38
614.242	392.38
614.449	396.38
614.657	402.38
614.865	380.38
615.072	392.38
615.28	385.38
615.488	394.38
615.695	432.38
615.903	404.38
616.111	406.38
616.318	418.38
616.526	390.38
616.733	379.38
616.941	386.38
617.148	369.38
617.356	377.38
617.563	381.38
617.771	378.38
617.978	356.38
618.185	360.38
618.393	370.38
618.6	359.38
618.807	372.38
619.015	388.38
619.222	354.38
619.429	347.38
619.637	347.38
619.844	348.38
620.051	352.38
620.258	359.38
620.466	388.38
620.673	348.38
620.88	340.38
621.087	343.38
621.294	332.38
621.501	337.38
621.708	336.38
621.915	357.38
622.122	361.38
622.329	354.38
622.536	344.38
622.743	362.38
622.95	346.38
623.157	361.38
623.364	345.38
623.571	349.38
623.778	350.38
623.985	386.38
624.192	333.38
624.399	342.38
624.606	338.38
624.812	330.38
625.019	336.38
625.226	324.38
625.433	341.38
625.639	319.38
625.846	313.38
626.053	324.38
626.259	318.38
626.466	308.38
626.673	268.38
626.879	287.38
627.086	301.38
627.293	307.38
627.499	304.38
627.706	334.38
627.912	330.38
628.119	334.38
628.325	335.38
628.532	326.38
628.738	318.38
628.945	332.38
629.151	319.38
629.357	336.38
629.564	309.38
629.77	306.38
629.976	288.38
630.183	306.38
630.389	283.38
630.595	294.38
630.802	279.38
631.008	301.38
631.214	309.38
631.42	295.38
631.627	279.38
631.833	285.38
632.039	290.38
632.245	280.38
632.451	289.38
632.657	283.38
632.863	284.38
633.069	298.38
633.275	290.38
633.481	270.38
633.688	287.38
633.893	269.38
634.099	271.38
634.305	290.38
634.511	275.38
634.717	262.38
634.923	260.38
635.129	251.38
635.335	280.38
635.541	263.38
635.747	273.38
635.952	287.38
636.158	276.38
636.364	301.38
636.57	260.38
636.775	274.38
636.981	292.38
637.187	289.38
637.392	259.38
637.598	286.38
637.804	287.38
638.009	277.38
638.215	288.38
638.421	296.38
638.626	284.38
638.832	274.38
639.037	260.38
639.243	278.38
639.448	266.38
639.654	284.38
639.859	268.38
640.065	269.38
640.27	280.38
640.475	254.38
640.681	265.38
640.886	276.38
641.091	275.38
641.297	277.38
641.502	269.38
641.707	279.38
641.913	269.38
642.118	251.38
642.323	279.38
642.528	241.38
642.733	246.38
642.939	253.38
643.144	258.38
643.349	275.38
643.554	277.38
643.759	275.38
643.964	258.38
644.169	283.38
644.374	256.38
644.579	251.38
644.784	254.38
644.989	258.38
645.194	259.38
645.399	258.38
645.604	257.38
645.809	269.38
646.014	250.38
646.219	247.38
646.423	268.38
646.628	248.38
646.833	268.38
647.038	254.38
647.243	252.38
647.447	254.38
647.652	257.38
647.857	243.38
648.062	290.38
648.266	245.38
648.471	254.38
648.676	264.38
648.88	263.38
649.085	269.38
649.289	280.38
649.494	256.38
649.698	233.38
649.903	241.38
650.107	248.38
650.312	261.38
650.516	248.38
650.721	258.38
650.925	247.38
651.13	247.38
651.334	232.38
651.539	237.38
651.743	236.38
651.947	242.38
652.152	248.38
652.356	246.38
652.56	212.38
652.764	237.38
652.969	230.38
653.173	221.38
653.377	217.38
653.581	213.38
653.785	218.38
653.99	215.38
654.194	210.38
654.398	213.38
654.602	221.38
654.806	234.38
655.01	224.38
655.214	215.38
655.418	214.38
655.622	224.38
655.826	229.38
656.03	240.38
656.234	222.38
656.438	256.38
656.642	249.38
656.846	232.38
657.049	226.38
657.253	198.38
657.457	210.38
657.661	195.38
657.865	173.38
658.068	176.38
658.272	186.38
658.476	173.38
658.68	164.38
658.883	155.38
659.087	130.38
659.291	154.38
659.494	164.38
659.698	148.38
659.901	136.38
660.105	116.38
660.309	121.38
660.512	116.38
660.716	120.38
660.919	121.38
661.123	109.38
661.326	101.38
661.53	103.38
661.733	108.38
661.936	98.38
662.14	105.38
662.343	92.38
662.546	96.38
662.75	87.38
662.953	94.38
663.156	85.38
663.36	97.38
663.563	94.38
663.766	86.38
663.969	98.38
664.173	96.38
664.376	97.38
664.579	92.38
664.782	92.38
664.985	92.38
665.188	89.38
665.391	83.38
665.594	86.38
665.797	80.38
666	95.38
666.203	89.38
666.406	85.38
666.609	81.38
666.812	91.38
667.015	86.38
667.218	96.38
667.421	93.38
667.624	69.38
667.827	75.38
668.03	85.38
668.232	94.38
668.435	85.38
668.638	97.38
668.841	78.38
669.043	80.38
669.246	87.38
669.449	93.38
669.651	75.38
669.854	78.38
670.057	77.38
670.259	93.38
670.462	82.38
670.665	67.38
670.867	77.38
671.07	87.38
671.272	78.38
671.475	84.38
671.677	78.38
671.88	78.38
672.082	83.38
672.284	97.38
672.487	91.38
672.689	87.38
672.892	81.38
