Data from WStandard_LampEnergy8_LIBS07252019.E.O._I.C._HRD10591_15-58-19-929.txt Node
Date: Thu Jul 25 15:58:19 EDT 2019
User: cochatt
Spectrometer: HR+D1059
Trigger mode: 1
Integration Time (sec): 1.000000E-1
Scans to average: 1
Electric dark correction enabled: true
Nonlinearity correction enabled: false
Boxcar width: 0
XAxis mode: Wavelengths
Number of Pixels in Spectrum: 2048
>>>>>Begin Spectral Data<<<<<
223.165	-27.06
223.4	-27.06
223.635	-27.06
223.869	-23.06
224.104	-5.06
224.338	-19.06
224.573	-12.06
224.808	-33.06
225.042	-5.06
225.277	-16.06
225.511	-5.06
225.746	14.94
225.98	15.94
226.215	22.94
226.449	28.94
226.683	12.94
226.918	15.94
227.152	33.94
227.387	37.94
227.621	46.94
227.856	53.94
228.09	26.94
228.324	56.94
228.559	58.94
228.793	105.94
229.027	187.94
229.262	218.94
229.496	218.94
229.73	233.94
229.964	245.94
230.199	264.94
230.433	283.94
230.667	292.94
230.901	295.94
231.136	265.94
231.37	248.94
231.604	271.94
231.838	280.94
232.072	279.94
232.306	259.94
232.541	279.94
232.775	304.94
233.009	336.94
233.243	314.94
233.477	303.94
233.711	298.94
233.945	311.94
234.179	301.94
234.413	341.94
234.647	340.94
234.881	317.94
235.115	308.94
235.349	293.94
235.583	318.94
235.817	307.94
236.051	307.94
236.285	315.94
236.519	325.94
236.753	359.94
236.987	361.94
237.221	376.94
237.455	396.94
237.689	392.94
237.922	379.94
238.156	362.94
238.39	360.94
238.624	382.94
238.858	396.94
239.091	430.94
239.325	445.94
239.559	476.94
239.793	512.94
240.027	535.94
240.26	500.94
240.494	413.94
240.728	400.94
240.961	393.94
241.195	403.94
241.429	430.94
241.662	429.94
241.896	423.94
242.13	409.94
242.363	455.94
242.597	454.94
242.83	460.94
243.064	454.94
243.298	504.94
243.531	482.94
243.765	475.94
243.998	484.94
244.232	434.94
244.465	423.94
244.699	418.94
244.932	488.94
245.166	516.94
245.399	502.94
245.633	470.94
245.866	471.94
246.099	468.94
246.333	505.94
246.566	509.94
246.8	545.94
247.033	584.94
247.266	548.94
247.5	529.94
247.733	552.94
247.966	586.94
248.2	626.94
248.433	602.94
248.666	623.94
248.899	679.94
249.133	786.94
249.366	822.94
249.599	688.94
249.832	625.94
250.066	648.94
250.299	660.94
250.532	598.94
250.765	556.94
250.998	595.94
251.231	622.94
251.465	600.94
251.698	586.94
251.931	600.94
252.164	637.94
252.397	630.94
252.63	623.94
252.863	574.94
253.096	592.94
253.329	599.94
253.562	620.94
253.795	687.94
254.028	638.94
254.261	582.94
254.494	599.94
254.727	578.94
254.96	596.94
255.193	643.94
255.426	729.94
255.659	806.94
255.892	799.94
256.124	680.94
256.357	690.94
256.59	712.94
256.823	722.94
257.056	740.94
257.289	838.94
257.521	904.94
257.754	832.94
257.987	800.94
258.22	843.94
258.452	812.94
258.685	710.94
258.918	698.94
259.151	700.94
259.383	661.94
259.616	606.94
259.849	642.94
260.081	726.94
260.314	779.94
260.547	834.94
260.779	842.94
261.012	793.94
261.244	714.94
261.477	708.94
261.71	696.94
261.942	701.94
262.175	716.94
262.407	719.94
262.64	684.94
262.872	677.94
263.105	645.94
263.337	651.94
263.57	659.94
263.802	649.94
264.035	621.94
264.267	605.94
264.499	608.94
264.732	628.94
264.964	644.94
265.197	692.94
265.429	709.94
265.661	791.94
265.894	882.94
266.126	886.94
266.358	813.94
266.591	842.94
266.823	880.94
267.055	823.94
267.287	801.94
267.52	784.94
267.752	781.94
267.984	786.94
268.216	803.94
268.448	836.94
268.681	812.94
268.913	740.94
269.145	733.94
269.377	690.94
269.609	786.94
269.841	908.94
270.073	1040.94
270.306	1114.94
270.538	1153.94
270.77	986.94
271.002	853.94
271.234	843.94
271.466	836.94
271.698	958.94
271.93	1092.94
272.162	1078.94
272.394	975.94
272.626	927.94
272.858	844.94
273.09	748.94
273.322	707.94
273.553	682.94
273.785	695.94
274.017	738.94
274.249	798.94
274.481	804.94
274.713	731.94
274.945	717.94
275.176	709.94
275.408	710.94
275.64	696.94
275.872	698.94
276.104	751.94
276.335	867.94
276.567	960.94
276.799	939.94
277.031	859.94
277.262	830.94
277.494	858.94
277.726	962.94
277.957	925.94
278.189	815.94
278.421	777.94
278.652	751.94
278.884	743.94
279.115	770.94
279.347	808.94
279.579	752.94
279.81	774.94
280.042	850.94
280.273	909.94
280.505	902.94
280.736	893.94
280.968	856.94
281.199	769.94
281.431	754.94
281.662	759.94
281.894	727.94
282.125	792.94
282.356	792.94
282.588	807.94
282.819	805.94
283.051	883.94
283.282	879.94
283.513	896.94
283.745	759.94
283.976	729.94
284.207	733.94
284.439	771.94
284.67	776.94
284.901	813.94
285.132	808.94
285.364	780.94
285.595	801.94
285.826	772.94
286.057	798.94
286.288	800.94
286.52	823.94
286.751	854.94
286.982	876.94
287.213	827.94
287.444	758.94
287.675	761.94
287.906	810.94
288.138	853.94
288.369	832.94
288.6	776.94
288.831	770.94
289.062	748.94
289.293	802.94
289.524	773.94
289.755	826.94
289.986	813.94
290.217	784.94
290.448	790.94
290.679	823.94
290.91	805.94
291.141	844.94
291.371	842.94
291.602	827.94
291.833	841.94
292.064	841.94
292.295	844.94
292.526	869.94
292.757	893.94
292.987	882.94
293.218	818.94
293.449	893.94
293.68	973.94
293.91	1012.94
294.141	934.94
294.372	952.94
294.603	976.94
294.833	989.94
295.064	941.94
295.295	870.94
295.525	828.94
295.756	768.94
295.987	755.94
296.217	784.94
296.448	792.94
296.679	810.94
296.909	796.94
297.14	802.94
297.37	834.94
297.601	864.94
297.831	911.94
298.062	916.94
298.292	829.94
298.523	804.94
298.753	806.94
298.984	835.94
299.214	844.94
299.445	855.94
299.675	875.94
299.905	834.94
300.136	818.94
300.366	803.94
300.597	780.94
300.827	813.94
301.057	837.94
301.288	882.94
301.518	874.94
301.748	900.94
301.979	938.94
302.209	942.94
302.439	1012.94
302.669	1018.94
302.9	951.94
303.13	863.94
303.36	874.94
303.59	886.94
303.82	879.94
304.051	882.94
304.281	886.94
304.511	935.94
304.741	941.94
304.971	1071.94
305.201	1070.94
305.431	962.94
305.661	820.94
305.891	771.94
306.121	784.94
306.352	819.94
306.582	872.94
306.812	890.94
307.042	995.94
307.272	974.94
307.502	1010.94
307.731	1082.94
307.961	1128.94
308.191	1032.94
308.421	894.94
308.651	881.94
308.881	839.94
309.111	880.94
309.341	832.94
309.571	851.94
309.8	866.94
310.03	836.94
310.26	843.94
310.49	863.94
310.72	889.94
310.949	920.94
311.179	925.94
311.409	902.94
311.639	886.94
311.868	847.94
312.098	866.94
312.328	862.94
312.557	876.94
312.787	867.94
313.017	913.94
313.246	896.94
313.476	898.94
313.706	930.94
313.935	914.94
314.165	928.94
314.394	943.94
314.624	995.94
314.853	1061.94
315.083	1101.94
315.312	1059.94
315.542	1017.94
315.771	916.94
316.001	946.94
316.23	987.94
316.46	971.94
316.689	931.94
316.919	932.94
317.148	884.94
317.377	940.94
317.607	1000.94
317.836	1069.94
318.065	1103.94
318.295	1065.94
318.524	998.94
318.753	987.94
318.983	955.94
319.212	947.94
319.441	919.94
319.67	964.94
319.9	971.94
320.129	1015.94
320.358	1064.94
320.587	1096.94
320.816	1082.94
321.046	1023.94
321.275	1010.94
321.504	984.94
321.733	1062.94
321.962	1031.94
322.191	960.94
322.42	956.94
322.649	941.94
322.878	948.94
323.108	956.94
323.337	988.94
323.566	979.94
323.795	975.94
324.024	984.94
324.253	942.94
324.482	975.94
324.71	926.94
324.939	876.94
325.168	929.94
325.397	996.94
325.626	983.94
325.855	953.94
326.084	953.94
326.313	972.94
326.542	978.94
326.77	997.94
326.999	1012.94
327.228	956.94
327.457	915.94
327.686	906.94
327.914	915.94
328.143	960.94
328.372	982.94
328.6	947.94
328.829	945.94
329.058	934.94
329.287	953.94
329.515	946.94
329.744	1005.94
329.972	1036.94
330.201	1058.94
330.43	1037.94
330.658	1026.94
330.887	1014.94
331.115	1027.94
331.344	992.94
331.572	983.94
331.801	989.94
332.03	1005.94
332.258	1059.94
332.486	1040.94
332.715	1057.94
332.943	1043.94
333.172	1005.94
333.4	1037.94
333.629	1046.94
333.857	1084.94
334.085	1272.94
334.314	1436.94
334.542	1490.94
334.771	1340.94
334.999	1191.94
335.227	1111.94
335.455	1069.94
335.684	1076.94
335.912	1118.94
336.14	1154.94
336.369	1093.94
336.597	1047.94
336.825	1020.94
337.053	1042.94
337.281	1126.94
337.51	1166.94
337.738	1195.94
337.966	1143.94
338.194	1052.94
338.422	1007.94
338.65	1017.94
338.878	1011.94
339.106	973.94
339.334	967.94
339.562	976.94
339.79	980.94
340.018	1046.94
340.246	1080.94
340.474	1076.94
340.702	1062.94
340.93	1044.94
341.158	1060.94
341.386	1042.94
341.614	1013.94
341.842	999.94
342.07	995.94
342.298	1025.94
342.526	1005.94
342.754	988.94
342.981	1039.94
343.209	989.94
343.437	996.94
343.665	1026.94
343.893	1063.94
344.12	1075.94
344.348	1107.94
344.576	1034.94
344.804	1014.94
345.031	1029.94
345.259	1000.94
345.487	936.94
345.714	932.94
345.942	915.94
346.17	926.94
346.397	966.94
346.625	968.94
346.853	918.94
347.08	887.94
347.308	922.94
347.535	925.94
347.763	950.94
347.99	933.94
348.218	941.94
348.445	978.94
348.673	957.94
348.9	968.94
349.128	1011.94
349.355	1040.94
349.583	1003.94
349.81	952.94
350.037	871.94
350.265	895.94
350.492	886.94
350.72	923.94
350.947	972.94
351.174	958.94
351.402	919.94
351.629	869.94
351.856	904.94
352.083	902.94
352.311	885.94
352.538	934.94
352.765	965.94
352.992	963.94
353.22	920.94
353.447	903.94
353.674	915.94
353.901	931.94
354.128	918.94
354.355	921.94
354.583	970.94
354.81	976.94
355.037	995.94
355.264	950.94
355.491	954.94
355.718	952.94
355.945	927.94
356.172	912.94
356.399	932.94
356.626	949.94
356.853	968.94
357.08	1074.94
357.307	1189.94
357.534	1112.94
357.761	971.94
357.988	884.94
358.215	888.94
358.441	923.94
358.668	916.94
358.895	939.94
359.122	989.94
359.349	1073.94
359.576	1030.94
359.802	938.94
360.029	896.94
360.256	908.94
360.483	918.94
360.709	970.94
360.936	1022.94
361.163	1073.94
361.39	1149.94
361.616	1187.94
361.843	1181.94
362.07	1077.94
362.296	953.94
362.523	945.94
362.749	948.94
362.976	940.94
363.203	986.94
363.429	952.94
363.656	918.94
363.882	979.94
364.109	1088.94
364.335	1118.94
364.562	1059.94
364.788	991.94
365.015	958.94
365.241	943.94
365.468	965.94
365.694	1008.94
365.92	1039.94
366.147	955.94
366.373	948.94
366.599	934.94
366.826	910.94
367.052	925.94
367.278	946.94
367.505	946.94
367.731	988.94
367.957	1000.94
368.184	1016.94
368.41	1098.94
368.636	1095.94
368.862	1066.94
369.089	1065.94
369.315	1041.94
369.541	998.94
369.767	960.94
369.993	952.94
370.219	955.94
370.445	977.94
370.672	1045.94
370.898	1056.94
371.124	1088.94
371.35	994.94
371.576	1044.94
371.802	1077.94
372.028	1040.94
372.254	997.94
372.48	942.94
372.706	962.94
372.932	975.94
373.158	984.94
373.384	983.94
373.61	1040.94
373.835	1100.94
374.061	1034.94
374.287	975.94
374.513	981.94
374.739	1024.94
374.965	1024.94
375.191	1006.94
375.416	1027.94
375.642	1078.94
375.868	1124.94
376.094	1122.94
376.319	1082.94
376.545	1024.94
376.771	1077.94
376.997	1094.94
377.222	1095.94
377.448	1055.94
377.674	1054.94
377.899	1062.94
378.125	1121.94
378.35	1111.94
378.576	1020.94
378.802	969.94
379.027	976.94
379.253	971.94
379.478	1000.94
379.704	1006.94
379.929	996.94
380.155	1010.94
380.38	1030.94
380.606	1047.94
380.831	1051.94
381.057	1089.94
381.282	1080.94
381.507	1046.94
381.733	1125.94
381.958	1174.94
382.184	1100.94
382.409	1046.94
382.634	1059.94
382.86	1059.94
383.085	1063.94
383.31	1139.94
383.535	1202.94
383.761	1248.94
383.986	1187.94
384.211	1119.94
384.436	1134.94
384.662	1232.94
384.887	1205.94
385.112	1163.94
385.337	1174.94
385.562	1153.94
385.787	1163.94
386.013	1189.94
386.238	1187.94
386.463	1192.94
386.688	1306.94
386.913	1348.94
387.138	1274.94
387.363	1229.94
387.588	1196.94
387.813	1164.94
388.038	1213.94
388.263	1242.94
388.488	1194.94
388.713	1095.94
388.938	1101.94
389.163	1109.94
389.387	1160.94
389.612	1154.94
389.837	1172.94
390.062	1189.94
390.287	1176.94
390.512	1153.94
390.736	1164.94
390.961	1125.94
391.186	1089.94
391.411	1144.94
391.636	1155.94
391.86	1161.94
392.085	1160.94
392.31	1146.94
392.534	1162.94
392.759	1186.94
392.984	1163.94
393.208	1172.94
393.433	1226.94
393.658	1259.94
393.882	1231.94
394.107	1156.94
394.331	1146.94
394.556	1143.94
394.78	1190.94
395.005	1235.94
395.229	1284.94
395.454	1338.94
395.678	1348.94
395.903	1275.94
396.127	1224.94
396.352	1260.94
396.576	1291.94
396.801	1288.94
397.025	1300.94
397.249	1286.94
397.474	1254.94
397.698	1259.94
397.922	1290.94
398.147	1371.94
398.371	1420.94
398.595	1391.94
398.82	1309.94
399.044	1339.94
399.268	1420.94
399.492	1514.94
399.717	1525.94
399.941	1563.94
400.165	1511.94
400.389	1486.94
400.613	1506.94
400.837	1687.94
401.062	1875.94
401.286	1568.94
401.51	1468.94
401.734	1524.94
401.958	1464.94
402.182	1366.94
402.406	1359.94
402.63	1282.94
402.854	1312.94
403.078	1372.94
403.302	1367.94
403.526	1382.94
403.75	1419.94
403.974	1392.94
404.198	1405.94
404.422	1460.94
404.645	1498.94
404.869	1455.94
405.093	1337.94
405.317	1342.94
405.541	1353.94
405.765	1389.94
405.988	1357.94
406.212	1416.94
406.436	1480.94
406.66	1520.94
406.883	1546.94
407.107	1707.94
407.331	1811.94
407.555	1938.94
407.778	1710.94
408.002	1490.94
408.226	1441.94
408.449	1437.94
408.673	1418.94
408.896	1410.94
409.12	1435.94
409.344	1399.94
409.567	1355.94
409.791	1394.94
410.014	1426.94
410.238	1514.94
410.461	1560.94
410.685	1439.94
410.908	1359.94
411.132	1378.94
411.355	1375.94
411.578	1352.94
411.802	1364.94
412.025	1400.94
412.249	1398.94
412.472	1318.94
412.695	1323.94
412.919	1347.94
413.142	1328.94
413.365	1364.94
413.589	1390.94
413.812	1456.94
414.035	1472.94
414.258	1399.94
414.482	1326.94
414.705	1364.94
414.928	1309.94
415.151	1332.94
415.374	1364.94
415.597	1395.94
415.821	1366.94
416.044	1377.94
416.267	1382.94
416.49	1292.94
416.713	1335.94
416.936	1360.94
417.159	1415.94
417.382	1401.94
417.605	1343.94
417.828	1382.94
418.051	1356.94
418.274	1342.94
418.497	1301.94
418.72	1300.94
418.943	1316.94
419.166	1331.94
419.389	1413.94
419.611	1322.94
419.834	1326.94
420.057	1331.94
420.28	1310.94
420.503	1333.94
420.726	1356.94
420.948	1334.94
421.171	1262.94
421.394	1301.94
421.617	1343.94
421.839	1359.94
422.062	1382.94
422.285	1309.94
422.507	1310.94
422.73	1293.94
422.953	1217.94
423.175	1260.94
423.398	1313.94
423.621	1324.94
423.843	1286.94
424.066	1347.94
424.288	1384.94
424.511	1461.94
424.733	1427.94
424.956	1302.94
425.178	1272.94
425.401	1300.94
425.623	1318.94
425.846	1321.94
426.068	1402.94
426.291	1383.94
426.513	1342.94
426.735	1345.94
426.958	1483.94
427.18	1544.94
427.402	1416.94
427.625	1467.94
427.847	1422.94
428.069	1312.94
428.292	1310.94
428.514	1267.94
428.736	1251.94
428.958	1278.94
429.181	1268.94
429.403	1498.94
429.625	1828.94
429.847	1522.94
430.069	1347.94
430.292	1478.94
430.514	1480.94
430.736	1405.94
430.958	1410.94
431.18	1342.94
431.402	1257.94
431.624	1225.94
431.846	1180.94
432.068	1156.94
432.29	1203.94
432.512	1197.94
432.734	1270.94
432.956	1316.94
433.178	1353.94
433.4	1389.94
433.622	1340.94
433.844	1289.94
434.066	1240.94
434.287	1187.94
434.509	1240.94
434.731	1318.94
434.953	1391.94
435.175	1360.94
435.397	1321.94
435.618	1326.94
435.84	1279.94
436.062	1235.94
436.284	1287.94
436.505	1326.94
436.727	1383.94
436.949	1312.94
437.17	1275.94
437.392	1230.94
437.614	1224.94
437.835	1200.94
438.057	1243.94
438.278	1299.94
438.5	1247.94
438.721	1260.94
438.943	1263.94
439.165	1267.94
439.386	1265.94
439.608	1296.94
439.829	1272.94
440.05	1275.94
440.272	1292.94
440.493	1288.94
440.715	1320.94
440.936	1390.94
441.158	1470.94
441.379	1420.94
441.6	1412.94
441.822	1365.94
442.043	1381.94
442.264	1346.94
442.486	1307.94
442.707	1300.94
442.928	1309.94
443.149	1349.94
443.371	1382.94
443.592	1403.94
443.813	1391.94
444.034	1420.94
444.255	1370.94
444.476	1407.94
444.698	1430.94
444.919	1406.94
445.14	1573.94
445.361	1499.94
445.582	1511.94
445.803	1446.94
446.024	1439.94
446.245	1478.94
446.466	1393.94
446.687	1368.94
446.908	1375.94
447.129	1325.94
447.35	1328.94
447.571	1312.94
447.792	1261.94
448.013	1277.94
448.234	1304.94
448.455	1359.94
448.675	1335.94
448.896	1243.94
449.117	1216.94
449.338	1250.94
449.559	1300.94
449.779	1355.94
450	1456.94
450.221	1504.94
450.442	1453.94
450.662	1283.94
450.883	1231.94
451.104	1234.94
451.324	1228.94
451.545	1232.94
451.766	1222.94
451.986	1188.94
452.207	1156.94
452.428	1124.94
452.648	1130.94
452.869	1150.94
453.089	1197.94
453.31	1192.94
453.53	1170.94
453.751	1144.94
453.971	1087.94
454.192	1110.94
454.412	1175.94
454.633	1166.94
454.853	1155.94
455.073	1066.94
455.294	1074.94
455.514	1078.94
455.734	1102.94
455.955	1118.94
456.175	1108.94
456.395	1085.94
456.616	1122.94
456.836	1129.94
457.056	1128.94
457.276	1103.94
457.497	1070.94
457.717	1046.94
457.937	1046.94
458.157	1082.94
458.377	1084.94
458.598	1062.94
458.818	1055.94
459.038	1122.94
459.258	1186.94
459.478	1187.94
459.698	1158.94
459.918	1202.94
460.138	1249.94
460.358	1266.94
460.578	1243.94
460.798	1331.94
461.018	1383.94
461.238	1330.94
461.458	1306.94
461.678	1277.94
461.898	1275.94
462.118	1274.94
462.338	1318.94
462.558	1312.94
462.777	1312.94
462.997	1358.94
463.217	1381.94
463.437	1360.94
463.657	1294.94
463.876	1275.94
464.096	1286.94
464.316	1273.94
464.536	1308.94
464.755	1352.94
464.975	1334.94
465.195	1308.94
465.414	1332.94
465.634	1353.94
465.854	1348.94
466.073	1437.94
466.293	1424.94
466.512	1249.94
466.732	1229.94
466.951	1273.94
467.171	1252.94
467.391	1242.94
467.61	1197.94
467.829	1247.94
468.049	1358.94
468.268	1501.94
468.488	1378.94
468.707	1276.94
468.927	1259.94
469.146	1232.94
469.365	1237.94
469.585	1255.94
469.804	1260.94
470.023	1250.94
470.243	1300.94
470.462	1252.94
470.681	1250.94
470.901	1263.94
471.12	1261.94
471.339	1262.94
471.558	1208.94
471.777	1197.94
471.997	1228.94
472.216	1196.94
472.435	1163.94
472.654	1170.94
472.873	1232.94
473.092	1245.94
473.311	1217.94
473.53	1175.94
473.749	1175.94
473.968	1158.94
474.187	1218.94
474.406	1266.94
474.625	1250.94
474.844	1231.94
475.063	1242.94
475.282	1224.94
475.501	1242.94
475.72	1212.94
475.939	1328.94
476.158	1264.94
476.377	1248.94
476.596	1232.94
476.814	1240.94
477.033	1230.94
477.252	1272.94
477.471	1346.94
477.69	1326.94
477.908	1310.94
478.127	1395.94
478.346	1492.94
478.564	1460.94
478.783	1425.94
479.002	1494.94
479.22	1430.94
479.439	1501.94
479.658	1609.94
479.876	1536.94
480.095	1432.94
480.313	1397.94
480.532	1334.94
480.751	1327.94
480.969	1303.94
481.188	1318.94
481.406	1272.94
481.624	1249.94
481.843	1286.94
482.061	1319.94
482.28	1350.94
482.498	1400.94
482.717	1339.94
482.935	1337.94
483.153	1352.94
483.372	1399.94
483.59	1400.94
483.808	1364.94
484.027	1395.94
484.245	1506.94
484.463	1759.94
484.681	1963.94
484.9	1514.94
485.118	1406.94
485.336	1374.94
485.554	1407.94
485.772	1418.94
485.99	1387.94
486.209	1420.94
486.427	1429.94
486.645	1430.94
486.863	1445.94
487.081	1475.94
487.299	1483.94
487.517	1474.94
487.735	1500.94
487.953	1518.94
488.171	1526.94
488.389	1503.94
488.607	1498.94
488.825	1650.94
489.043	1602.94
489.261	1472.94
489.479	1508.94
489.696	1490.94
489.914	1513.94
490.132	1472.94
490.35	1499.94
490.568	1577.94
490.786	1509.94
491.003	1497.94
491.221	1559.94
491.439	1652.94
491.657	1647.94
491.874	1711.94
492.092	1690.94
492.31	1733.94
492.527	1686.94
492.745	1605.94
492.963	1622.94
493.18	1665.94
493.398	1738.94
493.615	1754.94
493.833	1641.94
494.05	1585.94
494.268	1609.94
494.485	1639.94
494.703	1579.94
494.92	1583.94
495.138	1586.94
495.355	1617.94
495.573	1643.94
495.79	1718.94
496.008	1724.94
496.225	1627.94
496.442	1646.94
496.66	1637.94
496.877	1615.94
497.094	1688.94
497.312	1666.94
497.529	1641.94
497.746	1695.94
497.963	1934.94
498.181	2033.94
498.398	1922.94
498.615	1910.94
498.832	1843.94
499.049	1802.94
499.267	1805.94
499.484	1937.94
499.701	2038.94
499.918	2070.94
500.135	2250.94
500.352	2426.94
500.569	2436.94
500.786	2656.94
501.003	2409.94
501.22	2168.94
501.437	2120.94
501.654	2136.94
501.871	2026.94
502.088	1814.94
502.305	1790.94
502.522	1733.94
502.739	1639.94
502.956	1640.94
503.172	1564.94
503.389	1502.94
503.606	1504.94
503.823	1493.94
504.04	1520.94
504.256	1517.94
504.473	1512.94
504.69	1541.94
504.907	1489.94
505.123	1472.94
505.34	1604.94
505.557	2085.94
505.773	1728.94
505.99	1412.94
506.207	1338.94
506.423	1312.94
506.64	1305.94
506.856	1357.94
507.073	1558.94
507.289	1672.94
507.506	1567.94
507.722	1302.94
507.939	1251.94
508.155	1296.94
508.372	1280.94
508.588	1239.94
508.805	1233.94
509.021	1211.94
509.238	1179.94
509.454	1165.94
509.67	1165.94
509.887	1154.94
510.103	1164.94
510.319	1162.94
510.536	1249.94
510.752	1252.94
510.968	1234.94
511.184	1288.94
511.401	1255.94
511.617	1133.94
511.833	1116.94
512.049	1150.94
512.265	1117.94
512.481	1109.94
512.698	1204.94
512.914	1238.94
513.13	1206.94
513.346	1131.94
513.562	1126.94
513.778	1139.94
513.994	1203.94
514.21	1213.94
514.426	1214.94
514.642	1324.94
514.858	1266.94
515.074	1161.94
515.29	1151.94
515.506	1194.94
515.721	1197.94
515.937	1223.94
516.153	1306.94
516.369	1293.94
516.585	1204.94
516.801	1175.94
517.016	1188.94
517.232	1199.94
517.448	1214.94
517.664	1269.94
517.879	1290.94
518.095	1286.94
518.311	1268.94
518.527	1205.94
518.742	1190.94
518.958	1148.94
519.173	1170.94
519.389	1174.94
519.605	1179.94
519.82	1178.94
520.036	1248.94
520.251	1172.94
520.467	1209.94
520.682	1294.94
520.898	1273.94
521.113	1178.94
521.329	1189.94
521.544	1212.94
521.76	1164.94
521.975	1117.94
522.19	1104.94
522.406	1127.94
522.621	1430.94
522.836	1338.94
523.052	1127.94
523.267	1136.94
523.482	1130.94
523.698	1084.94
523.913	1078.94
524.128	1081.94
524.343	1194.94
524.559	1218.94
524.774	1124.94
524.989	1108.94
525.204	1108.94
525.419	1081.94
525.634	1103.94
525.849	1090.94
526.064	1083.94
526.28	1108.94
526.495	1038.94
526.71	1012.94
526.925	1028.94
527.14	1037.94
527.355	984.94
527.57	982.94
527.785	1043.94
527.999	1029.94
528.214	995.94
528.429	1019.94
528.644	1078.94
528.859	1114.94
529.074	1092.94
529.289	1128.94
529.503	1102.94
529.718	1124.94
529.933	1045.94
530.148	980.94
530.363	986.94
530.577	1017.94
530.792	1038.94
531.007	1019.94
531.221	985.94
531.436	1044.94
531.651	1040.94
531.865	1060.94
532.08	1042.94
532.295	973.94
532.509	968.94
532.724	986.94
532.938	1019.94
533.153	1076.94
533.367	1053.94
533.582	1058.94
533.796	1025.94
534.011	1035.94
534.225	1019.94
534.44	1015.94
534.654	1013.94
534.868	1020.94
535.083	1052.94
535.297	1049.94
535.511	1030.94
535.726	1014.94
535.94	1032.94
536.154	979.94
536.369	978.94
536.583	958.94
536.797	952.94
537.011	968.94
537.225	939.94
537.44	962.94
537.654	982.94
537.868	958.94
538.082	915.94
538.296	910.94
538.51	907.94
538.724	942.94
538.938	991.94
539.153	1032.94
539.367	1050.94
539.581	984.94
539.795	1018.94
540.009	997.94
540.222	972.94
540.436	1005.94
540.65	1070.94
540.864	1110.94
541.078	1082.94
541.292	1067.94
541.506	1113.94
541.72	1141.94
541.934	1154.94
542.147	1197.94
542.361	1138.94
542.575	1094.94
542.789	1051.94
543.002	943.94
543.216	967.94
543.43	1059.94
543.644	1106.94
543.857	1141.94
544.071	1125.94
544.285	1109.94
544.498	1104.94
544.712	1100.94
544.925	1103.94
545.139	1162.94
545.352	1081.94
545.566	1105.94
545.779	1090.94
545.993	1111.94
546.206	1134.94
546.42	1088.94
546.633	1095.94
546.847	1053.94
547.06	1104.94
547.274	1077.94
547.487	1096.94
547.7	1108.94
547.914	1100.94
548.127	1133.94
548.34	1109.94
548.554	1099.94
548.767	1083.94
548.98	1084.94
549.193	1076.94
549.407	1123.94
549.62	1149.94
549.833	1100.94
550.046	1059.94
550.259	1104.94
550.473	1057.94
550.686	1068.94
550.899	1045.94
551.112	1044.94
551.325	1005.94
551.538	1046.94
551.751	1176.94
551.964	964.94
552.177	944.94
552.39	994.94
552.603	1036.94
552.816	1035.94
553.029	1048.94
553.242	1103.94
553.455	1052.94
553.667	1094.94
553.88	1074.94
554.093	1050.94
554.306	1018.94
554.519	1002.94
554.732	976.94
554.944	1003.94
555.157	998.94
555.37	972.94
555.583	977.94
555.795	947.94
556.008	918.94
556.221	900.94
556.433	896.94
556.646	870.94
556.859	883.94
557.071	898.94
557.284	890.94
557.496	898.94
557.709	890.94
557.921	889.94
558.134	888.94
558.346	876.94
558.559	890.94
558.771	858.94
558.984	849.94
559.196	825.94
559.409	819.94
559.621	840.94
559.833	852.94
560.046	872.94
560.258	837.94
560.47	854.94
560.683	847.94
560.895	870.94
561.107	835.94
561.32	805.94
561.532	866.94
561.744	854.94
561.956	844.94
562.168	829.94
562.381	821.94
562.593	802.94
562.805	821.94
563.017	806.94
563.229	816.94
563.441	834.94
563.653	790.94
563.865	802.94
564.077	798.94
564.289	793.94
564.501	816.94
564.713	799.94
564.925	833.94
565.137	871.94
565.349	841.94
565.561	820.94
565.773	838.94
565.985	834.94
566.197	884.94
566.408	930.94
566.62	925.94
566.832	938.94
567.044	926.94
567.255	920.94
567.467	927.94
567.679	960.94
567.891	965.94
568.102	883.94
568.314	872.94
568.526	831.94
568.737	804.94
568.949	752.94
569.161	733.94
569.372	724.94
569.584	699.94
569.795	716.94
570.007	695.94
570.218	674.94
570.43	654.94
570.641	674.94
570.853	683.94
571.064	695.94
571.276	714.94
571.487	650.94
571.698	655.94
571.91	650.94
572.121	661.94
572.333	635.94
572.544	643.94
572.755	599.94
572.966	588.94
573.178	596.94
573.389	602.94
573.6	591.94
573.811	653.94
574.023	620.94
574.234	583.94
574.445	573.94
574.656	582.94
574.867	579.94
575.078	573.94
575.289	566.94
575.501	567.94
575.712	567.94
575.923	571.94
576.134	601.94
576.345	594.94
576.556	573.94
576.767	556.94
576.978	549.94
577.188	550.94
577.399	539.94
577.61	520.94
577.821	514.94
578.032	524.94
578.243	540.94
578.454	514.94
578.665	504.94
578.875	509.94
579.086	505.94
579.297	511.94
579.508	527.94
579.718	520.94
579.929	507.94
580.14	496.94
580.35	516.94
580.561	538.94
580.772	544.94
580.982	516.94
581.193	519.94
581.403	496.94
581.614	478.94
581.825	492.94
582.035	492.94
582.246	480.94
582.456	503.94
582.667	494.94
582.877	493.94
583.087	471.94
583.298	493.94
583.508	472.94
583.719	486.94
583.929	470.94
584.139	466.94
584.35	470.94
584.56	454.94
584.77	492.94
584.981	474.94
585.191	461.94
585.401	489.94
585.611	493.94
585.821	474.94
586.032	470.94
586.242	464.94
586.452	447.94
586.662	470.94
586.872	471.94
587.082	461.94
587.292	480.94
587.502	456.94
587.713	468.94
587.923	466.94
588.133	462.94
588.343	468.94
588.553	454.94
588.762	459.94
588.972	438.94
589.182	473.94
589.392	474.94
589.602	452.94
589.812	460.94
590.022	454.94
590.232	458.94
590.441	462.94
590.651	454.94
590.861	432.94
591.071	432.94
591.281	459.94
591.49	445.94
591.7	450.94
591.91	452.94
592.119	463.94
592.329	475.94
592.539	465.94
592.748	475.94
592.958	459.94
593.167	468.94
593.377	474.94
593.587	459.94
593.796	484.94
594.006	487.94
594.215	472.94
594.424	482.94
594.634	471.94
594.843	474.94
595.053	489.94
595.262	478.94
595.472	460.94
595.681	483.94
595.89	443.94
596.1	447.94
596.309	438.94
596.518	439.94
596.727	456.94
596.937	447.94
597.146	451.94
597.355	441.94
597.564	426.94
597.774	400.94
597.983	404.94
598.192	400.94
598.401	423.94
598.61	420.94
598.819	414.94
599.028	411.94
599.237	397.94
599.446	388.94
599.655	385.94
599.864	401.94
600.073	394.94
600.282	398.94
600.491	397.94
600.7	381.94
600.909	403.94
601.118	419.94
601.327	415.94
601.536	407.94
601.745	425.94
601.953	413.94
602.162	425.94
602.371	437.94
602.58	426.94
602.789	436.94
602.997	403.94
603.206	445.94
603.415	420.94
603.623	427.94
603.832	410.94
604.041	403.94
604.249	397.94
604.458	389.94
604.666	401.94
604.875	377.94
605.084	392.94
605.292	396.94
605.501	405.94
605.709	420.94
605.918	414.94
606.126	426.94
606.334	418.94
606.543	420.94
606.751	412.94
606.96	425.94
607.168	407.94
607.376	404.94
607.585	410.94
607.793	406.94
608.001	403.94
608.21	408.94
608.418	407.94
608.626	423.94
608.834	407.94
609.043	417.94
609.251	408.94
609.459	411.94
609.667	414.94
609.875	436.94
610.083	420.94
610.291	413.94
610.499	406.94
610.707	386.94
610.916	412.94
611.124	410.94
611.332	389.94
611.54	406.94
611.748	399.94
611.955	402.94
612.163	400.94
612.371	401.94
612.579	401.94
612.787	394.94
612.995	374.94
613.203	403.94
613.411	404.94
613.618	400.94
613.826	383.94
614.034	392.94
614.242	404.94
614.449	407.94
614.657	395.94
614.865	413.94
615.072	384.94
615.28	400.94
615.488	404.94
615.695	426.94
615.903	407.94
616.111	382.94
616.318	397.94
616.526	393.94
616.733	412.94
616.941	384.94
617.148	390.94
617.356	409.94
617.563	395.94
617.771	410.94
617.978	371.94
618.185	380.94
618.393	365.94
618.6	380.94
618.807	396.94
619.015	387.94
619.222	390.94
619.429	392.94
619.637	357.94
619.844	335.94
620.051	372.94
620.258	381.94
620.466	350.94
620.673	376.94
620.88	352.94
621.087	343.94
621.294	344.94
621.501	340.94
621.708	347.94
621.915	364.94
622.122	350.94
622.329	390.94
622.536	377.94
622.743	375.94
622.95	364.94
623.157	338.94
623.364	353.94
623.571	370.94
623.778	363.94
623.985	347.94
624.192	345.94
624.399	348.94
624.606	368.94
624.812	351.94
625.019	347.94
625.226	343.94
625.433	343.94
625.639	318.94
625.846	308.94
626.053	316.94
626.259	314.94
626.466	301.94
626.673	310.94
626.879	298.94
627.086	312.94
627.293	316.94
627.499	327.94
627.706	332.94
627.912	334.94
628.119	333.94
628.325	331.94
628.532	335.94
628.738	342.94
628.945	343.94
629.151	314.94
629.357	320.94
629.564	339.94
629.77	303.94
629.976	298.94
630.183	323.94
630.389	312.94
630.595	315.94
630.802	291.94
631.008	323.94
631.214	327.94
631.42	309.94
631.627	307.94
631.833	299.94
632.039	302.94
632.245	300.94
632.451	282.94
632.657	302.94
632.863	288.94
633.069	306.94
633.275	291.94
633.481	279.94
633.688	278.94
633.893	287.94
634.099	294.94
634.305	276.94
634.511	274.94
634.717	280.94
634.923	285.94
635.129	265.94
635.335	265.94
635.541	291.94
635.747	295.94
635.952	278.94
636.158	281.94
636.364	291.94
636.57	299.94
636.775	294.94
636.981	303.94
637.187	298.94
637.392	299.94
637.598	307.94
637.804	294.94
638.009	274.94
638.215	284.94
638.421	278.94
638.626	271.94
638.832	292.94
639.037	273.94
639.243	281.94
639.448	273.94
639.654	266.94
639.859	281.94
640.065	264.94
640.27	272.94
640.475	267.94
640.681	287.94
640.886	270.94
641.091	263.94
641.297	277.94
641.502	292.94
641.707	278.94
641.913	287.94
642.118	269.94
642.323	283.94
642.528	266.94
642.733	253.94
642.939	277.94
643.144	258.94
643.349	254.94
643.554	271.94
643.759	263.94
643.964	261.94
644.169	286.94
644.374	251.94
644.579	262.94
644.784	280.94
644.989	252.94
645.194	255.94
645.399	267.94
645.604	263.94
645.809	271.94
646.014	284.94
646.219	265.94
646.423	269.94
646.628	239.94
646.833	244.94
647.038	263.94
647.243	258.94
647.447	249.94
647.652	276.94
647.857	264.94
648.062	281.94
648.266	265.94
648.471	278.94
648.676	278.94
648.88	263.94
649.085	276.94
649.289	247.94
649.494	260.94
649.698	281.94
649.903	266.94
650.107	270.94
650.312	270.94
650.516	233.94
650.721	228.94
650.925	257.94
651.13	220.94
651.334	260.94
651.539	251.94
651.743	254.94
651.947	244.94
652.152	246.94
652.356	222.94
652.56	219.94
652.764	234.94
652.969	243.94
653.173	252.94
653.377	226.94
653.581	242.94
653.785	212.94
653.99	234.94
654.194	223.94
654.398	214.94
654.602	220.94
654.806	216.94
655.01	219.94
655.214	218.94
655.418	253.94
655.622	229.94
655.826	230.94
656.03	259.94
656.234	256.94
656.438	270.94
656.642	267.94
656.846	261.94
657.049	226.94
657.253	226.94
657.457	218.94
657.661	200.94
657.865	187.94
658.068	184.94
658.272	181.94
658.476	160.94
658.68	154.94
658.883	154.94
659.087	158.94
659.291	154.94
659.494	134.94
659.698	128.94
659.901	135.94
660.105	142.94
660.309	132.94
660.512	137.94
660.716	123.94
660.919	131.94
661.123	122.94
661.326	117.94
661.53	108.94
661.733	111.94
661.936	114.94
662.14	96.94
662.343	98.94
662.546	77.94
662.75	105.94
662.953	105.94
663.156	99.94
663.36	92.94
663.563	86.94
663.766	92.94
663.969	93.94
664.173	86.94
664.376	97.94
664.579	89.94
664.782	99.94
664.985	91.94
665.188	87.94
665.391	86.94
665.594	93.94
665.797	92.94
666	77.94
666.203	91.94
666.406	89.94
666.609	80.94
666.812	88.94
667.015	91.94
667.218	93.94
667.421	83.94
667.624	86.94
667.827	86.94
668.03	86.94
668.232	79.94
668.435	88.94
668.638	89.94
668.841	86.94
669.043	78.94
669.246	86.94
669.449	73.94
669.651	105.94
669.854	80.94
670.057	78.94
670.259	74.94
670.462	79.94
670.665	78.94
670.867	93.94
671.07	78.94
671.272	76.94
671.475	99.94
671.677	95.94
671.88	78.94
672.082	85.94
672.284	86.94
672.487	91.94
672.689	80.94
672.892	94.94
