Data from WStandard_LampEnergy8_LIBS07252019.E.O._I.C._HRD10591_16-00-17-930.txt Node
Date: Thu Jul 25 16:00:17 EDT 2019
User: cochatt
Spectrometer: HR+D1059
Trigger mode: 1
Integration Time (sec): 1.000000E-1
Scans to average: 1
Electric dark correction enabled: true
Nonlinearity correction enabled: false
Boxcar width: 0
XAxis mode: Wavelengths
Number of Pixels in Spectrum: 2048
>>>>>Begin Spectral Data<<<<<
223.165	-7.19
223.4	-7.19
223.635	-7.19
223.869	-26.19
224.104	-17.19
224.338	-5.19
224.573	-24.19
224.808	-25.19
225.042	-8.19
225.277	-2.19
225.511	4.81
225.746	0.81
225.98	-4.19
226.215	15.81
226.449	27.81
226.683	27.81
226.918	17.81
227.152	24.81
227.387	17.81
227.621	34.81
227.856	45.81
228.09	55.81
228.324	63.81
228.559	72.81
228.793	93.81
229.027	183.81
229.262	195.81
229.496	205.81
229.73	213.81
229.964	243.81
230.199	225.81
230.433	257.81
230.667	282.81
230.901	277.81
231.136	249.81
231.37	248.81
231.604	248.81
231.838	255.81
232.072	260.81
232.306	236.81
232.541	278.81
232.775	280.81
233.009	313.81
233.243	281.81
233.477	269.81
233.711	285.81
233.945	289.81
234.179	285.81
234.413	316.81
234.647	330.81
234.881	293.81
235.115	282.81
235.349	300.81
235.583	292.81
235.817	300.81
236.051	286.81
236.285	302.81
236.519	302.81
236.753	360.81
236.987	330.81
237.221	338.81
237.455	358.81
237.689	397.81
237.922	342.81
238.156	326.81
238.39	341.81
238.624	354.81
238.858	376.81
239.091	392.81
239.325	416.81
239.559	470.81
239.793	466.81
240.027	492.81
240.26	465.81
240.494	386.81
240.728	359.81
240.961	364.81
241.195	388.81
241.429	416.81
241.662	390.81
241.896	389.81
242.13	399.81
242.363	415.81
242.597	460.81
242.83	422.81
243.064	448.81
243.298	453.81
243.531	440.81
243.765	458.81
243.998	439.81
244.232	415.81
244.465	392.81
244.699	417.81
244.932	461.81
245.166	500.81
245.399	466.81
245.633	441.81
245.866	449.81
246.099	438.81
246.333	487.81
246.566	477.81
246.8	526.81
247.033	560.81
247.266	514.81
247.5	507.81
247.733	517.81
247.966	559.81
248.2	593.81
248.433	593.81
248.666	589.81
248.899	643.81
249.133	741.81
249.366	786.81
249.599	657.81
249.832	601.81
250.066	598.81
250.299	596.81
250.532	570.81
250.765	543.81
250.998	565.81
251.231	571.81
251.465	585.81
251.698	544.81
251.931	562.81
252.164	588.81
252.397	596.81
252.63	591.81
252.863	540.81
253.096	529.81
253.329	564.81
253.562	576.81
253.795	590.81
254.028	601.81
254.261	566.81
254.494	546.81
254.727	535.81
254.96	544.81
255.193	632.81
255.426	682.81
255.659	772.81
255.892	753.81
256.124	664.81
256.357	634.81
256.59	657.81
256.823	681.81
257.056	685.81
257.289	782.81
257.521	863.81
257.754	779.81
257.987	776.81
258.22	787.81
258.452	780.81
258.685	685.81
258.918	674.81
259.151	652.81
259.383	620.81
259.616	583.81
259.849	613.81
260.081	657.81
260.314	739.81
260.547	818.81
260.779	800.81
261.012	728.81
261.244	680.81
261.477	672.81
261.71	680.81
261.942	674.81
262.175	639.81
262.407	701.81
262.64	653.81
262.872	617.81
263.105	601.81
263.337	596.81
263.57	594.81
263.802	594.81
264.035	581.81
264.267	566.81
264.499	554.81
264.732	631.81
264.964	658.81
265.197	660.81
265.429	691.81
265.661	750.81
265.894	820.81
266.126	824.81
266.358	757.81
266.591	772.81
266.823	816.81
267.055	750.81
267.287	738.81
267.52	717.81
267.752	750.81
267.984	748.81
268.216	766.81
268.448	752.81
268.681	778.81
268.913	709.81
269.145	659.81
269.377	712.81
269.609	721.81
269.841	841.81
270.073	955.81
270.306	1056.81
270.538	1102.81
270.77	964.81
271.002	807.81
271.234	780.81
271.466	787.81
271.698	903.81
271.93	1033.81
272.162	1032.81
272.394	914.81
272.626	919.81
272.858	806.81
273.09	684.81
273.322	669.81
273.553	649.81
273.785	671.81
274.017	709.81
274.249	745.81
274.481	732.81
274.713	684.81
274.945	666.81
275.176	673.81
275.408	681.81
275.64	674.81
275.872	664.81
276.104	719.81
276.335	824.81
276.567	918.81
276.799	904.81
277.031	818.81
277.262	804.81
277.494	820.81
277.726	873.81
277.957	858.81
278.189	814.81
278.421	766.81
278.652	727.81
278.884	714.81
279.115	707.81
279.347	722.81
279.579	716.81
279.81	735.81
280.042	814.81
280.273	853.81
280.505	857.81
280.736	856.81
280.968	800.81
281.199	707.81
281.431	700.81
281.662	702.81
281.894	704.81
282.125	753.81
282.356	756.81
282.588	752.81
282.819	769.81
283.051	842.81
283.282	872.81
283.513	841.81
283.745	749.81
283.976	709.81
284.207	706.81
284.439	725.81
284.67	724.81
284.901	763.81
285.132	776.81
285.364	755.81
285.595	776.81
285.826	719.81
286.057	744.81
286.288	768.81
286.52	762.81
286.751	825.81
286.982	835.81
287.213	779.81
287.444	710.81
287.675	719.81
287.906	790.81
288.138	826.81
288.369	775.81
288.6	738.81
288.831	743.81
289.062	720.81
289.293	761.81
289.524	773.81
289.755	781.81
289.986	774.81
290.217	721.81
290.448	735.81
290.679	774.81
290.91	773.81
291.141	806.81
291.371	842.81
291.602	793.81
291.833	788.81
292.064	833.81
292.295	818.81
292.526	825.81
292.757	856.81
292.987	828.81
293.218	792.81
293.449	857.81
293.68	958.81
293.91	968.81
294.141	913.81
294.372	874.81
294.603	942.81
294.833	952.81
295.064	890.81
295.295	818.81
295.525	787.81
295.756	766.81
295.987	709.81
296.217	732.81
296.448	744.81
296.679	751.81
296.909	758.81
297.14	757.81
297.37	752.81
297.601	857.81
297.831	872.81
298.062	867.81
298.292	798.81
298.523	776.81
298.753	804.81
298.984	793.81
299.214	796.81
299.445	807.81
299.675	812.81
299.905	848.81
300.136	807.81
300.366	771.81
300.597	765.81
300.827	767.81
301.057	785.81
301.288	832.81
301.518	828.81
301.748	862.81
301.979	918.81
302.209	928.81
302.439	956.81
302.669	993.81
302.9	916.81
303.13	842.81
303.36	835.81
303.59	842.81
303.82	866.81
304.051	837.81
304.281	874.81
304.511	855.81
304.741	904.81
304.971	1024.81
305.201	1039.81
305.431	944.81
305.661	797.81
305.891	752.81
306.121	755.81
306.352	780.81
306.582	845.81
306.812	893.81
307.042	935.81
307.272	931.81
307.502	991.81
307.731	1009.81
307.961	1065.81
308.191	967.81
308.421	902.81
308.651	814.81
308.881	818.81
309.111	806.81
309.341	823.81
309.571	806.81
309.8	844.81
310.03	802.81
310.26	842.81
310.49	804.81
310.72	836.81
310.949	868.81
311.179	864.81
311.409	852.81
311.639	849.81
311.868	826.81
312.098	839.81
312.328	850.81
312.557	845.81
312.787	817.81
313.017	880.81
313.246	846.81
313.476	848.81
313.706	863.81
313.935	864.81
314.165	873.81
314.394	904.81
314.624	964.81
314.853	1006.81
315.083	1056.81
315.312	1036.81
315.542	954.81
315.771	894.81
316.001	866.81
316.23	926.81
316.46	953.81
316.689	926.81
316.919	858.81
317.148	844.81
317.377	881.81
317.607	959.81
317.836	1050.81
318.065	1078.81
318.295	1038.81
318.524	957.81
318.753	951.81
318.983	956.81
319.212	948.81
319.441	934.81
319.67	880.81
319.9	944.81
320.129	991.81
320.358	1028.81
320.587	1018.81
320.816	1021.81
321.046	1006.81
321.275	949.81
321.504	967.81
321.733	1020.81
321.962	984.81
322.191	943.81
322.42	941.81
322.649	890.81
322.878	925.81
323.108	905.81
323.337	939.81
323.566	960.81
323.795	948.81
324.024	922.81
324.253	950.81
324.482	931.81
324.71	919.81
324.939	853.81
325.168	886.81
325.397	904.81
325.626	935.81
325.855	945.81
326.084	923.81
326.313	905.81
326.542	917.81
326.77	977.81
326.999	983.81
327.228	914.81
327.457	884.81
327.686	871.81
327.914	932.81
328.143	896.81
328.372	901.81
328.6	942.81
328.829	888.81
329.058	900.81
329.287	897.81
329.515	940.81
329.744	967.81
329.972	997.81
330.201	1022.81
330.43	1004.81
330.658	960.81
330.887	990.81
331.115	981.81
331.344	1001.81
331.572	945.81
331.801	950.81
332.03	960.81
332.258	1004.81
332.486	999.81
332.715	996.81
332.943	993.81
333.172	982.81
333.4	995.81
333.629	1008.81
333.857	1060.81
334.085	1177.81
334.314	1344.81
334.542	1367.81
334.771	1278.81
334.999	1152.81
335.227	1062.81
335.455	1026.81
335.684	1024.81
335.912	1081.81
336.14	1108.81
336.369	1034.81
336.597	1016.81
336.825	991.81
337.053	1025.81
337.281	1101.81
337.51	1132.81
337.738	1152.81
337.966	1091.81
338.194	1010.81
338.422	998.81
338.65	957.81
338.878	957.81
339.106	947.81
339.334	938.81
339.562	928.81
339.79	933.81
340.018	993.81
340.246	1019.81
340.474	1024.81
340.702	1012.81
340.93	999.81
341.158	1004.81
341.386	1004.81
341.614	960.81
341.842	961.81
342.07	947.81
342.298	982.81
342.526	980.81
342.754	980.81
342.981	990.81
343.209	962.81
343.437	954.81
343.665	995.81
343.893	995.81
344.12	1066.81
344.348	1048.81
344.576	979.81
344.804	972.81
345.031	965.81
345.259	946.81
345.487	916.81
345.714	904.81
345.942	903.81
346.17	919.81
346.397	945.81
346.625	933.81
346.853	894.81
347.08	905.81
347.308	872.81
347.535	915.81
347.763	918.81
347.99	905.81
348.218	916.81
348.445	919.81
348.673	936.81
348.9	962.81
349.128	964.81
349.355	1003.81
349.583	980.81
349.81	905.81
350.037	889.81
350.265	879.81
350.492	873.81
350.72	892.81
350.947	929.81
351.174	940.81
351.402	895.81
351.629	878.81
351.856	853.81
352.083	873.81
352.311	885.81
352.538	908.81
352.765	948.81
352.992	942.81
353.22	921.81
353.447	917.81
353.674	921.81
353.901	893.81
354.128	897.81
354.355	891.81
354.583	935.81
354.81	927.81
355.037	952.81
355.264	900.81
355.491	889.81
355.718	918.81
355.945	874.81
356.172	886.81
356.399	870.81
356.626	900.81
356.853	965.81
357.08	1035.81
357.307	1098.81
357.534	1048.81
357.761	969.81
357.988	894.81
358.215	880.81
358.441	866.81
358.668	886.81
358.895	900.81
359.122	939.81
359.349	1015.81
359.576	975.81
359.802	910.81
360.029	879.81
360.256	862.81
360.483	886.81
360.709	938.81
360.936	962.81
361.163	1024.81
361.39	1091.81
361.616	1136.81
361.843	1135.81
362.07	1022.81
362.296	933.81
362.523	899.81
362.749	904.81
362.976	938.81
363.203	962.81
363.429	904.81
363.656	890.81
363.882	957.81
364.109	1036.81
364.335	1052.81
364.562	1004.81
364.788	968.81
365.015	937.81
365.241	905.81
365.468	938.81
365.694	980.81
365.92	966.81
366.147	948.81
366.373	883.81
366.599	889.81
366.826	887.81
367.052	919.81
367.278	904.81
367.505	929.81
367.731	964.81
367.957	925.81
368.184	965.81
368.41	1034.81
368.636	1029.81
368.862	1020.81
369.089	1033.81
369.315	1015.81
369.541	968.81
369.767	933.81
369.993	953.81
370.219	920.81
370.445	965.81
370.672	1021.81
370.898	1045.81
371.124	995.81
371.35	994.81
371.576	1034.81
371.802	1032.81
372.028	997.81
372.254	994.81
372.48	941.81
372.706	952.81
372.932	944.81
373.158	946.81
373.384	978.81
373.61	1014.81
373.835	1008.81
374.061	977.81
374.287	960.81
374.513	964.81
374.739	1011.81
374.965	976.81
375.191	981.81
375.416	997.81
375.642	1037.81
375.868	1102.81
376.094	1117.81
376.319	1057.81
376.545	996.81
376.771	1049.81
376.997	1061.81
377.222	1067.81
377.448	1046.81
377.674	1040.81
377.899	1025.81
378.125	1036.81
378.35	1039.81
378.576	981.81
378.802	949.81
379.027	941.81
379.253	922.81
379.478	995.81
379.704	976.81
379.929	974.81
380.155	1008.81
380.38	1012.81
380.606	1020.81
380.831	1008.81
381.057	1059.81
381.282	1064.81
381.507	1023.81
381.733	1112.81
381.958	1107.81
382.184	1051.81
382.409	1078.81
382.634	1060.81
382.86	1054.81
383.085	1031.81
383.31	1086.81
383.535	1198.81
383.761	1188.81
383.986	1180.81
384.211	1104.81
384.436	1106.81
384.662	1158.81
384.887	1186.81
385.112	1142.81
385.337	1153.81
385.562	1096.81
385.787	1149.81
386.013	1136.81
386.238	1164.81
386.463	1147.81
386.688	1252.81
386.913	1283.81
387.138	1244.81
387.363	1169.81
387.588	1134.81
387.813	1140.81
388.038	1153.81
388.263	1196.81
388.488	1150.81
388.713	1069.81
388.938	1095.81
389.163	1108.81
389.387	1134.81
389.612	1137.81
389.837	1126.81
390.062	1130.81
390.287	1121.81
390.512	1138.81
390.736	1132.81
390.961	1085.81
391.186	1031.81
391.411	1119.81
391.636	1124.81
391.86	1128.81
392.085	1139.81
392.31	1111.81
392.534	1129.81
392.759	1152.81
392.984	1121.81
393.208	1190.81
393.433	1172.81
393.658	1204.81
393.882	1201.81
394.107	1156.81
394.331	1108.81
394.556	1144.81
394.78	1143.81
395.005	1179.81
395.229	1235.81
395.454	1285.81
395.678	1286.81
395.903	1235.81
396.127	1189.81
396.352	1220.81
396.576	1251.81
396.801	1284.81
397.025	1246.81
397.249	1258.81
397.474	1183.81
397.698	1225.81
397.922	1274.81
398.147	1316.81
398.371	1338.81
398.595	1315.81
398.82	1290.81
399.044	1338.81
399.268	1364.81
399.492	1431.81
399.717	1486.81
399.941	1511.81
400.165	1454.81
400.389	1422.81
400.613	1469.81
400.837	1672.81
401.062	1786.81
401.286	1534.81
401.51	1452.81
401.734	1460.81
401.958	1371.81
402.182	1296.81
402.406	1282.81
402.63	1254.81
402.854	1266.81
403.078	1300.81
403.302	1343.81
403.526	1345.81
403.75	1330.81
403.974	1350.81
404.198	1369.81
404.422	1401.81
404.645	1477.81
404.869	1406.81
405.093	1335.81
405.317	1320.81
405.541	1284.81
405.765	1351.81
405.988	1329.81
406.212	1373.81
406.436	1398.81
406.66	1473.81
406.883	1452.81
407.107	1650.81
407.331	1776.81
407.555	1916.81
407.778	1702.81
408.002	1470.81
408.226	1420.81
408.449	1421.81
408.673	1373.81
408.896	1350.81
409.12	1394.81
409.344	1332.81
409.567	1342.81
409.791	1337.81
410.014	1387.81
410.238	1452.81
410.461	1519.81
410.685	1389.81
410.908	1337.81
411.132	1360.81
411.355	1329.81
411.578	1302.81
411.802	1346.81
412.025	1358.81
412.249	1327.81
412.472	1308.81
412.695	1318.81
412.919	1293.81
413.142	1296.81
413.365	1322.81
413.589	1373.81
413.812	1412.81
414.035	1397.81
414.258	1345.81
414.482	1304.81
414.705	1300.81
414.928	1272.81
415.151	1281.81
415.374	1312.81
415.597	1338.81
415.821	1351.81
416.044	1349.81
416.267	1351.81
416.49	1301.81
416.713	1245.81
416.936	1321.81
417.159	1369.81
417.382	1371.81
417.605	1268.81
417.828	1318.81
418.051	1333.81
418.274	1290.81
418.497	1270.81
418.72	1276.81
418.943	1284.81
419.166	1319.81
419.389	1369.81
419.611	1304.81
419.834	1294.81
420.057	1291.81
420.28	1273.81
420.503	1281.81
420.726	1310.81
420.948	1284.81
421.171	1226.81
421.394	1297.81
421.617	1325.81
421.839	1316.81
422.062	1305.81
422.285	1295.81
422.507	1270.81
422.73	1241.81
422.953	1208.81
423.175	1237.81
423.398	1220.81
423.621	1261.81
423.843	1271.81
424.066	1312.81
424.288	1389.81
424.511	1404.81
424.733	1359.81
424.956	1285.81
425.178	1248.81
425.401	1264.81
425.623	1272.81
425.846	1272.81
426.068	1316.81
426.291	1343.81
426.513	1304.81
426.735	1289.81
426.958	1438.81
427.18	1475.81
427.402	1354.81
427.625	1419.81
427.847	1373.81
428.069	1288.81
428.292	1249.81
428.514	1249.81
428.736	1183.81
428.958	1253.81
429.181	1257.81
429.403	1488.81
429.625	1720.81
429.847	1470.81
430.069	1278.81
430.292	1416.81
430.514	1428.81
430.736	1342.81
430.958	1344.81
431.18	1289.81
431.402	1198.81
431.624	1214.81
431.846	1170.81
432.068	1137.81
432.29	1126.81
432.512	1175.81
432.734	1233.81
432.956	1267.81
433.178	1314.81
433.4	1323.81
433.622	1264.81
433.844	1244.81
434.066	1217.81
434.287	1199.81
434.509	1205.81
434.731	1239.81
434.953	1388.81
435.175	1352.81
435.397	1282.81
435.618	1249.81
435.84	1235.81
436.062	1216.81
436.284	1263.81
436.505	1306.81
436.727	1325.81
436.949	1255.81
437.17	1206.81
437.392	1233.81
437.614	1230.81
437.835	1177.81
438.057	1214.81
438.278	1242.81
438.5	1213.81
438.721	1215.81
438.943	1219.81
439.165	1208.81
439.386	1200.81
439.608	1232.81
439.829	1238.81
440.05	1217.81
440.272	1223.81
440.493	1216.81
440.715	1260.81
440.936	1321.81
441.158	1434.81
441.379	1400.81
441.6	1375.81
441.822	1315.81
442.043	1338.81
442.264	1315.81
442.486	1272.81
442.707	1253.81
442.928	1243.81
443.149	1284.81
443.371	1346.81
443.592	1357.81
443.813	1367.81
444.034	1355.81
444.255	1348.81
444.476	1370.81
444.698	1432.81
444.919	1396.81
445.14	1509.81
445.361	1456.81
445.582	1437.81
445.803	1385.81
446.024	1377.81
446.245	1419.81
446.466	1358.81
446.687	1326.81
446.908	1333.81
447.129	1299.81
447.35	1291.81
447.571	1302.81
447.792	1268.81
448.013	1224.81
448.234	1237.81
448.455	1285.81
448.675	1304.81
448.896	1182.81
449.117	1220.81
449.338	1207.81
449.559	1278.81
449.779	1301.81
450	1405.81
450.221	1484.81
450.442	1413.81
450.662	1260.81
450.883	1198.81
451.104	1160.81
451.324	1182.81
451.545	1185.81
451.766	1161.81
451.986	1125.81
452.207	1116.81
452.428	1096.81
452.648	1094.81
452.869	1124.81
453.089	1149.81
453.31	1150.81
453.53	1135.81
453.751	1116.81
453.971	1045.81
454.192	1069.81
454.412	1154.81
454.633	1132.81
454.853	1112.81
455.073	1030.81
455.294	1071.81
455.514	1070.81
455.734	1053.81
455.955	1062.81
456.175	1074.81
456.395	1084.81
456.616	1096.81
456.836	1125.81
457.056	1068.81
457.276	1037.81
457.497	1056.81
457.717	1027.81
457.937	1045.81
458.157	1068.81
458.377	1029.81
458.598	1019.81
458.818	1031.81
459.038	1100.81
459.258	1139.81
459.478	1142.81
459.698	1084.81
459.918	1114.81
460.138	1216.81
460.358	1241.81
460.578	1216.81
460.798	1268.81
461.018	1328.81
461.238	1300.81
461.458	1250.81
461.678	1239.81
461.898	1227.81
462.118	1215.81
462.338	1262.81
462.558	1269.81
462.777	1266.81
462.997	1311.81
463.217	1375.81
463.437	1326.81
463.657	1294.81
463.876	1295.81
464.096	1246.81
464.316	1249.81
464.536	1289.81
464.755	1284.81
464.975	1322.81
465.195	1276.81
465.414	1316.81
465.634	1255.81
465.854	1271.81
466.073	1360.81
466.293	1327.81
466.512	1167.81
466.732	1230.81
466.951	1253.81
467.171	1215.81
467.391	1179.81
467.61	1184.81
467.829	1212.81
468.049	1321.81
468.268	1394.81
468.488	1338.81
468.707	1215.81
468.927	1222.81
469.146	1166.81
469.365	1190.81
469.585	1220.81
469.804	1185.81
470.023	1215.81
470.243	1223.81
470.462	1236.81
470.681	1188.81
470.901	1239.81
471.12	1204.81
471.339	1256.81
471.558	1247.81
471.777	1211.81
471.997	1200.81
472.216	1177.81
472.435	1102.81
472.654	1104.81
472.873	1167.81
473.092	1241.81
473.311	1169.81
473.53	1146.81
473.749	1136.81
473.968	1172.81
474.187	1213.81
474.406	1241.81
474.625	1209.81
474.844	1207.81
475.063	1194.81
475.282	1205.81
475.501	1161.81
475.72	1220.81
475.939	1278.81
476.158	1236.81
476.377	1202.81
476.596	1203.81
476.814	1193.81
477.033	1174.81
477.252	1222.81
477.471	1304.81
477.69	1289.81
477.908	1310.81
478.127	1368.81
478.346	1412.81
478.564	1402.81
478.783	1430.81
479.002	1418.81
479.22	1404.81
479.439	1467.81
479.658	1544.81
479.876	1500.81
480.095	1377.81
480.313	1330.81
480.532	1268.81
480.751	1294.81
480.969	1301.81
481.188	1246.81
481.406	1244.81
481.624	1207.81
481.843	1256.81
482.061	1260.81
482.28	1309.81
482.498	1340.81
482.717	1308.81
482.935	1295.81
483.153	1322.81
483.372	1352.81
483.59	1380.81
483.808	1330.81
484.027	1366.81
484.245	1433.81
484.463	1710.81
484.681	1907.81
484.9	1479.81
485.118	1369.81
485.336	1334.81
485.554	1349.81
485.772	1353.81
485.99	1346.81
486.209	1385.81
486.427	1387.81
486.645	1399.81
486.863	1397.81
487.081	1485.81
487.299	1442.81
487.517	1465.81
487.735	1442.81
487.953	1521.81
488.171	1487.81
488.389	1444.81
488.607	1439.81
488.825	1591.81
489.043	1558.81
489.261	1432.81
489.479	1447.81
489.696	1467.81
489.914	1476.81
490.132	1431.81
490.35	1450.81
490.568	1517.81
490.786	1460.81
491.003	1460.81
491.221	1520.81
491.439	1566.81
491.657	1572.81
491.874	1598.81
492.092	1642.81
492.31	1671.81
492.527	1625.81
492.745	1574.81
492.963	1610.81
493.18	1607.81
493.398	1700.81
493.615	1687.81
493.833	1575.81
494.05	1537.81
494.268	1574.81
494.485	1564.81
494.703	1580.81
494.92	1528.81
495.138	1494.81
495.355	1560.81
495.573	1573.81
495.79	1661.81
496.008	1620.81
496.225	1605.81
496.442	1602.81
496.66	1622.81
496.877	1613.81
497.094	1616.81
497.312	1605.81
497.529	1597.81
497.746	1664.81
497.963	1854.81
498.181	1934.81
498.398	1886.81
498.615	1821.81
498.832	1778.81
499.049	1761.81
499.267	1795.81
499.484	1843.81
499.701	2002.81
499.918	2071.81
500.135	2222.81
500.352	2369.81
500.569	2377.81
500.786	2532.81
501.003	2298.81
501.22	2067.81
501.437	2017.81
501.654	2078.81
501.871	2009.81
502.088	1774.81
502.305	1756.81
502.522	1699.81
502.739	1602.81
502.956	1577.81
503.172	1534.81
503.389	1500.81
503.606	1479.81
503.823	1463.81
504.04	1486.81
504.256	1509.81
504.473	1486.81
504.69	1482.81
504.907	1426.81
505.123	1393.81
505.34	1547.81
505.557	1990.81
505.773	1606.81
505.99	1383.81
506.207	1348.81
506.423	1279.81
506.64	1296.81
506.856	1314.81
507.073	1497.81
507.289	1566.81
507.506	1487.81
507.722	1297.81
507.939	1233.81
508.155	1233.81
508.372	1246.81
508.588	1184.81
508.805	1180.81
509.021	1168.81
509.238	1177.81
509.454	1158.81
509.67	1117.81
509.887	1141.81
510.103	1106.81
510.319	1142.81
510.536	1221.81
510.752	1215.81
510.968	1199.81
511.184	1257.81
511.401	1212.81
511.617	1117.81
511.833	1101.81
512.049	1093.81
512.265	1104.81
512.481	1102.81
512.698	1142.81
512.914	1201.81
513.13	1154.81
513.346	1125.81
513.562	1106.81
513.778	1118.81
513.994	1159.81
514.21	1172.81
514.426	1202.81
514.642	1290.81
514.858	1216.81
515.074	1108.81
515.29	1122.81
515.506	1130.81
515.721	1159.81
515.937	1170.81
516.153	1308.81
516.369	1233.81
516.585	1173.81
516.801	1160.81
517.016	1129.81
517.232	1181.81
517.448	1215.81
517.664	1201.81
517.879	1223.81
518.095	1270.81
518.311	1253.81
518.527	1173.81
518.742	1178.81
518.958	1122.81
519.173	1146.81
519.389	1168.81
519.605	1153.81
519.82	1171.81
520.036	1180.81
520.251	1146.81
520.467	1166.81
520.682	1236.81
520.898	1226.81
521.113	1137.81
521.329	1112.81
521.544	1184.81
521.76	1151.81
521.975	1104.81
522.19	1080.81
522.406	1121.81
522.621	1354.81
522.836	1312.81
523.052	1092.81
523.267	1085.81
523.482	1109.81
523.698	1055.81
523.913	1037.81
524.128	1078.81
524.343	1124.81
524.559	1185.81
524.774	1100.81
524.989	1078.81
525.204	1092.81
525.419	1038.81
525.634	1052.81
525.849	1056.81
526.064	1049.81
526.28	1043.81
526.495	1032.81
526.71	1023.81
526.925	987.81
527.14	977.81
527.355	963.81
527.57	992.81
527.785	1026.81
527.999	1008.81
528.214	968.81
528.429	987.81
528.644	1024.81
528.859	1056.81
529.074	1072.81
529.289	1088.81
529.503	1137.81
529.718	1063.81
529.933	1040.81
530.148	985.81
530.363	976.81
530.577	948.81
530.792	953.81
531.007	976.81
531.221	952.81
531.436	971.81
531.651	1015.81
531.865	1051.81
532.08	1032.81
532.295	952.81
532.509	935.81
532.724	956.81
532.938	986.81
533.153	1073.81
533.367	1028.81
533.582	1036.81
533.796	1043.81
534.011	1005.81
534.225	978.81
534.44	952.81
534.654	959.81
534.868	967.81
535.083	1032.81
535.297	1042.81
535.511	989.81
535.726	1011.81
535.94	990.81
536.154	950.81
536.369	940.81
536.583	927.81
536.797	930.81
537.011	960.81
537.225	936.81
537.44	948.81
537.654	961.81
537.868	933.81
538.082	889.81
538.296	890.81
538.51	918.81
538.724	965.81
538.938	967.81
539.153	981.81
539.367	992.81
539.581	966.81
539.795	997.81
540.009	941.81
540.222	949.81
540.436	965.81
540.65	1071.81
540.864	1070.81
541.078	1046.81
541.292	1057.81
541.506	1066.81
541.72	1095.81
541.934	1186.81
542.147	1157.81
542.361	1114.81
542.575	1046.81
542.789	1007.81
543.002	945.81
543.216	953.81
543.43	1007.81
543.644	1048.81
543.857	1133.81
544.071	1112.81
544.285	1096.81
544.498	1064.81
544.712	1106.81
544.925	1111.81
545.139	1109.81
545.352	1110.81
545.566	1066.81
545.779	1069.81
545.993	1070.81
546.206	1084.81
546.42	1053.81
546.633	1057.81
546.847	1054.81
547.06	1047.81
547.274	1062.81
547.487	1075.81
547.7	1091.81
547.914	1069.81
548.127	1105.81
548.34	1043.81
548.554	1100.81
548.767	1041.81
548.98	1038.81
549.193	1028.81
549.407	1075.81
549.62	1098.81
549.833	1042.81
550.046	1022.81
550.259	1046.81
550.473	1038.81
550.686	1010.81
550.899	1030.81
551.112	980.81
551.325	971.81
551.538	1033.81
551.751	1135.81
551.964	933.81
552.177	917.81
552.39	971.81
552.603	990.81
552.816	1011.81
553.029	1008.81
553.242	1059.81
553.455	1047.81
553.667	1054.81
553.88	1032.81
554.093	1011.81
554.306	1007.81
554.519	954.81
554.732	948.81
554.944	962.81
555.157	965.81
555.37	964.81
555.583	923.81
555.795	918.81
556.008	908.81
556.221	885.81
556.433	860.81
556.646	863.81
556.859	866.81
557.071	869.81
557.284	853.81
557.496	881.81
557.709	886.81
557.921	872.81
558.134	886.81
558.346	822.81
558.559	829.81
558.771	840.81
558.984	808.81
559.196	818.81
559.409	809.81
559.621	777.81
559.833	833.81
560.046	836.81
560.258	816.81
560.47	824.81
560.683	822.81
560.895	805.81
561.107	807.81
561.32	830.81
561.532	837.81
561.744	831.81
561.956	809.81
562.168	805.81
562.381	759.81
562.593	786.81
562.805	789.81
563.017	786.81
563.229	805.81
563.441	776.81
563.653	760.81
563.865	781.81
564.077	767.81
564.289	783.81
564.501	750.81
564.713	781.81
564.925	818.81
565.137	895.81
565.349	830.81
565.561	804.81
565.773	802.81
565.985	806.81
566.197	856.81
566.408	900.81
566.62	879.81
566.832	906.81
567.044	882.81
567.255	903.81
567.467	887.81
567.679	892.81
567.891	905.81
568.102	892.81
568.314	845.81
568.526	790.81
568.737	798.81
568.949	734.81
569.161	743.81
569.372	698.81
569.584	706.81
569.795	677.81
570.007	706.81
570.218	659.81
570.43	636.81
570.641	640.81
570.853	653.81
571.064	672.81
571.276	665.81
571.487	665.81
571.698	650.81
571.91	641.81
572.121	623.81
572.333	596.81
572.544	601.81
572.755	609.81
572.966	591.81
573.178	577.81
573.389	590.81
573.6	604.81
573.811	646.81
574.023	578.81
574.234	547.81
574.445	548.81
574.656	530.81
574.867	554.81
575.078	556.81
575.289	569.81
575.501	563.81
575.712	544.81
575.923	579.81
576.134	569.81
576.345	560.81
576.556	548.81
576.767	547.81
576.978	527.81
577.188	516.81
577.399	527.81
577.61	516.81
577.821	520.81
578.032	515.81
578.243	522.81
578.454	500.81
578.665	501.81
578.875	501.81
579.086	508.81
579.297	491.81
579.508	518.81
579.718	481.81
579.929	485.81
580.14	476.81
580.35	476.81
580.561	493.81
580.772	535.81
580.982	510.81
581.193	478.81
581.403	495.81
581.614	483.81
581.825	484.81
582.035	471.81
582.246	477.81
582.456	480.81
582.667	487.81
582.877	468.81
583.087	471.81
583.298	447.81
583.508	475.81
583.719	463.81
583.929	448.81
584.139	465.81
584.35	463.81
584.56	471.81
584.77	452.81
584.981	471.81
585.191	486.81
585.401	464.81
585.611	449.81
585.821	442.81
586.032	435.81
586.242	449.81
586.452	435.81
586.662	458.81
586.872	452.81
587.082	467.81
587.292	463.81
587.502	459.81
587.713	472.81
587.923	454.81
588.133	448.81
588.343	474.81
588.553	441.81
588.762	448.81
588.972	448.81
589.182	453.81
589.392	461.81
589.602	439.81
589.812	440.81
590.022	441.81
590.232	438.81
590.441	460.81
590.651	441.81
590.861	441.81
591.071	425.81
591.281	438.81
591.49	433.81
591.7	418.81
591.91	448.81
592.119	426.81
592.329	447.81
592.539	450.81
592.748	462.81
592.958	452.81
593.167	463.81
593.377	457.81
593.587	449.81
593.796	460.81
594.006	448.81
594.215	467.81
594.424	441.81
594.634	444.81
594.843	452.81
595.053	489.81
595.262	450.81
595.472	433.81
595.681	453.81
595.89	403.81
596.1	430.81
596.309	438.81
596.518	442.81
596.727	440.81
596.937	433.81
597.146	424.81
597.355	430.81
597.564	396.81
597.774	408.81
597.983	419.81
598.192	383.81
598.401	366.81
598.61	395.81
598.819	402.81
599.028	384.81
599.237	391.81
599.446	404.81
599.655	384.81
599.864	382.81
600.073	382.81
600.282	358.81
600.491	373.81
600.7	392.81
600.909	381.81
601.118	394.81
601.327	399.81
601.536	422.81
601.745	412.81
601.953	422.81
602.162	407.81
602.371	421.81
602.58	413.81
602.789	405.81
602.997	407.81
603.206	415.81
603.415	402.81
603.623	405.81
603.832	410.81
604.041	391.81
604.249	390.81
604.458	386.81
604.666	385.81
604.875	376.81
605.084	404.81
605.292	402.81
605.501	392.81
605.709	400.81
605.918	396.81
606.126	377.81
606.334	380.81
606.543	403.81
606.751	384.81
606.96	421.81
607.168	402.81
607.376	395.81
607.585	384.81
607.793	394.81
608.001	416.81
608.21	421.81
608.418	375.81
608.626	408.81
608.834	399.81
609.043	417.81
609.251	404.81
609.459	396.81
609.667	390.81
609.875	416.81
610.083	420.81
610.291	420.81
610.499	408.81
610.707	410.81
610.916	404.81
611.124	382.81
611.332	391.81
611.54	389.81
611.748	378.81
611.955	384.81
612.163	392.81
612.371	365.81
612.579	394.81
612.787	403.81
612.995	388.81
613.203	389.81
613.411	369.81
613.618	379.81
613.826	384.81
614.034	385.81
614.242	384.81
614.449	385.81
614.657	397.81
614.865	381.81
615.072	388.81
615.28	387.81
615.488	398.81
615.695	402.81
615.903	373.81
616.111	393.81
616.318	389.81
616.526	374.81
616.733	367.81
616.941	380.81
617.148	399.81
617.356	378.81
617.563	359.81
617.771	384.81
617.978	373.81
618.185	382.81
618.393	361.81
618.6	376.81
618.807	367.81
619.015	388.81
619.222	365.81
619.429	364.81
619.637	341.81
619.844	334.81
620.051	352.81
620.258	358.81
620.466	326.81
620.673	344.81
620.88	325.81
621.087	341.81
621.294	340.81
621.501	338.81
621.708	348.81
621.915	348.81
622.122	346.81
622.329	339.81
622.536	351.81
622.743	354.81
622.95	353.81
623.157	332.81
623.364	359.81
623.571	359.81
623.778	352.81
623.985	342.81
624.192	350.81
624.399	334.81
624.606	348.81
624.812	341.81
625.019	336.81
625.226	346.81
625.433	333.81
625.639	302.81
625.846	321.81
626.053	297.81
626.259	292.81
626.466	303.81
626.673	289.81
626.879	283.81
627.086	304.81
627.293	310.81
627.499	311.81
627.706	316.81
627.912	312.81
628.119	321.81
628.325	320.81
628.532	311.81
628.738	319.81
628.945	320.81
629.151	316.81
629.357	321.81
629.564	321.81
629.77	287.81
629.976	314.81
630.183	291.81
630.389	286.81
630.595	319.81
630.802	293.81
631.008	303.81
631.214	291.81
631.42	290.81
631.627	288.81
631.833	301.81
632.039	293.81
632.245	297.81
632.451	290.81
632.657	271.81
632.863	272.81
633.069	280.81
633.275	291.81
633.481	273.81
633.688	276.81
633.893	300.81
634.099	265.81
634.305	274.81
634.511	254.81
634.717	277.81
634.923	262.81
635.129	263.81
635.335	266.81
635.541	252.81
635.747	281.81
635.952	284.81
636.158	263.81
636.364	287.81
636.57	278.81
636.775	278.81
636.981	292.81
637.187	276.81
637.392	288.81
637.598	281.81
637.804	267.81
638.009	282.81
638.215	277.81
638.421	264.81
638.626	290.81
638.832	267.81
639.037	304.81
639.243	267.81
639.448	250.81
639.654	264.81
639.859	279.81
640.065	271.81
640.27	264.81
640.475	260.81
640.681	272.81
640.886	276.81
641.091	248.81
641.297	277.81
641.502	258.81
641.707	268.81
641.913	241.81
642.118	260.81
642.323	262.81
642.528	250.81
642.733	260.81
642.939	244.81
643.144	251.81
643.349	264.81
643.554	264.81
643.759	244.81
643.964	265.81
644.169	253.81
644.374	231.81
644.579	245.81
644.784	261.81
644.989	241.81
645.194	246.81
645.399	254.81
645.604	256.81
645.809	253.81
646.014	248.81
646.219	262.81
646.423	253.81
646.628	262.81
646.833	259.81
647.038	252.81
647.243	276.81
647.447	261.81
647.652	258.81
647.857	245.81
648.062	258.81
648.266	267.81
648.471	270.81
648.676	274.81
648.88	265.81
649.085	262.81
649.289	265.81
649.494	257.81
649.698	263.81
649.903	248.81
650.107	240.81
650.312	238.81
650.516	256.81
650.721	232.81
650.925	230.81
651.13	233.81
651.334	245.81
651.539	229.81
651.743	245.81
651.947	240.81
652.152	242.81
652.356	250.81
652.56	230.81
652.764	210.81
652.969	218.81
653.173	226.81
653.377	217.81
653.581	226.81
653.785	214.81
653.99	222.81
654.194	222.81
654.398	221.81
654.602	223.81
654.806	208.81
655.01	224.81
655.214	203.81
655.418	210.81
655.622	232.81
655.826	239.81
656.03	249.81
656.234	263.81
656.438	280.81
656.642	268.81
656.846	253.81
657.049	242.81
657.253	226.81
657.457	199.81
657.661	201.81
657.865	175.81
658.068	173.81
658.272	165.81
658.476	163.81
658.68	149.81
658.883	158.81
659.087	136.81
659.291	146.81
659.494	130.81
659.698	132.81
659.901	134.81
660.105	151.81
660.309	140.81
660.512	129.81
660.716	132.81
660.919	114.81
661.123	103.81
661.326	124.81
661.53	100.81
661.733	85.81
661.936	94.81
662.14	99.81
662.343	103.81
662.546	101.81
662.75	82.81
662.953	86.81
663.156	90.81
663.36	94.81
663.563	75.81
663.766	94.81
663.969	94.81
664.173	82.81
664.376	69.81
664.579	87.81
664.782	79.81
664.985	84.81
665.188	79.81
665.391	71.81
665.594	88.81
665.797	66.81
666	95.81
666.203	75.81
666.406	88.81
666.609	70.81
666.812	74.81
667.015	79.81
667.218	90.81
667.421	80.81
667.624	91.81
667.827	81.81
668.03	78.81
668.232	75.81
668.435	68.81
668.638	86.81
668.841	79.81
669.043	69.81
669.246	80.81
669.449	68.81
669.651	69.81
669.854	82.81
670.057	70.81
670.259	73.81
670.462	84.81
670.665	82.81
670.867	93.81
671.07	84.81
671.272	82.81
671.475	57.81
671.677	79.81
671.88	69.81
672.082	92.81
672.284	74.81
672.487	78.81
672.689	77.81
672.892	74.81
