Data from WStandard_LampEnergy5.5LIBS07252019.E.O._I.C._HRD10591_16-06-17-921.txt Node
Date: Thu Jul 25 16:06:17 EDT 2019
User: cochatt
Spectrometer: HR+D1059
Trigger mode: 1
Integration Time (sec): 1.000000E-1
Scans to average: 1
Electric dark correction enabled: true
Nonlinearity correction enabled: false
Boxcar width: 0
XAxis mode: Wavelengths
Number of Pixels in Spectrum: 2048
>>>>>Begin Spectral Data<<<<<
223.165	5.12
223.4	5.12
223.635	5.12
223.869	-20.88
224.104	-21.88
224.338	-14.88
224.573	-15.88
224.808	-19.88
225.042	-23.88
225.277	7.12
225.511	1.12
225.746	-2.88
225.98	3.12
226.215	24.12
226.449	6.12
226.683	8.12
226.918	32.12
227.152	33.12
227.387	29.12
227.621	43.12
227.856	40.12
228.09	45.12
228.324	36.12
228.559	58.12
228.793	147.12
229.027	332.12
229.262	333.12
229.496	337.12
229.73	374.12
229.964	391.12
230.199	415.12
230.433	427.12
230.667	427.12
230.901	482.12
231.136	433.12
231.37	399.12
231.604	411.12
231.838	423.12
232.072	437.12
232.306	392.12
232.541	416.12
232.775	484.12
233.009	546.12
233.243	511.12
233.477	465.12
233.711	480.12
233.945	505.12
234.179	486.12
234.413	545.12
234.647	556.12
234.881	550.12
235.115	489.12
235.349	488.12
235.583	484.12
235.817	482.12
236.051	469.12
236.285	471.12
236.519	524.12
236.753	616.12
236.987	614.12
237.221	597.12
237.455	671.12
237.689	635.12
237.922	609.12
238.156	595.12
238.39	595.12
238.624	608.12
238.858	656.12
239.091	675.12
239.325	722.12
239.559	832.12
239.793	860.12
240.027	909.12
240.26	898.12
240.494	639.12
240.728	633.12
240.961	627.12
241.195	640.12
241.429	725.12
241.662	736.12
241.896	707.12
242.13	659.12
242.363	739.12
242.597	804.12
242.83	785.12
243.064	762.12
243.298	838.12
243.531	818.12
243.765	821.12
243.998	799.12
244.232	704.12
244.465	696.12
244.699	705.12
244.932	798.12
245.166	900.12
245.399	861.12
245.633	779.12
245.866	778.12
246.099	797.12
246.333	801.12
246.566	833.12
246.8	899.12
247.033	996.12
247.266	935.12
247.5	958.12
247.733	914.12
247.966	989.12
248.2	1079.12
248.433	1031.12
248.666	1044.12
248.899	1144.12
249.133	1335.12
249.366	1530.12
249.599	1250.12
249.832	1073.12
250.066	1099.12
250.299	1143.12
250.532	1088.12
250.765	939.12
250.998	980.12
251.231	1036.12
251.465	1071.12
251.698	1029.12
251.931	1035.12
252.164	1055.12
252.397	1092.12
252.63	1084.12
252.863	964.12
253.096	917.12
253.329	981.12
253.562	1021.12
253.795	1117.12
254.028	1096.12
254.261	1027.12
254.494	1037.12
254.727	968.12
254.96	974.12
255.193	1056.12
255.426	1205.12
255.659	1427.12
255.892	1457.12
256.124	1185.12
256.357	1138.12
256.59	1213.12
256.823	1220.12
257.056	1215.12
257.289	1490.12
257.521	1681.12
257.754	1448.12
257.987	1384.12
258.22	1522.12
258.452	1488.12
258.685	1228.12
258.918	1181.12
259.151	1217.12
259.383	1129.12
259.616	1025.12
259.849	1093.12
260.081	1205.12
260.314	1353.12
260.547	1477.12
260.779	1474.12
261.012	1396.12
261.244	1231.12
261.477	1153.12
261.71	1209.12
261.942	1233.12
262.175	1168.12
262.407	1295.12
262.64	1222.12
262.872	1110.12
263.105	1027.12
263.337	1082.12
263.57	1106.12
263.802	1115.12
264.035	1059.12
264.267	996.12
264.499	1003.12
264.732	1054.12
264.964	1135.12
265.197	1179.12
265.429	1207.12
265.661	1363.12
265.894	1485.12
266.126	1540.12
266.358	1358.12
266.591	1420.12
266.823	1559.12
267.055	1411.12
267.287	1352.12
267.52	1322.12
267.752	1343.12
267.984	1346.12
268.216	1380.12
268.448	1416.12
268.681	1409.12
268.913	1327.12
269.145	1232.12
269.377	1191.12
269.609	1272.12
269.841	1507.12
270.073	1749.12
270.306	1874.12
270.538	2096.12
270.77	1760.12
271.002	1459.12
271.234	1401.12
271.466	1423.12
271.698	1567.12
271.93	1884.12
272.162	1881.12
272.394	1689.12
272.626	1603.12
272.858	1432.12
273.09	1255.12
273.322	1271.12
273.553	1188.12
273.785	1227.12
274.017	1261.12
274.249	1380.12
274.481	1379.12
274.713	1223.12
274.945	1190.12
275.176	1222.12
275.408	1216.12
275.64	1191.12
275.872	1175.12
276.104	1277.12
276.335	1421.12
276.567	1580.12
276.799	1625.12
277.031	1472.12
277.262	1378.12
277.494	1354.12
277.726	1612.12
277.957	1601.12
278.189	1453.12
278.421	1333.12
278.652	1276.12
278.884	1267.12
279.115	1297.12
279.347	1320.12
279.579	1280.12
279.81	1272.12
280.042	1396.12
280.273	1536.12
280.505	1552.12
280.736	1573.12
280.968	1462.12
281.199	1308.12
281.431	1238.12
281.662	1232.12
281.894	1222.12
282.125	1295.12
282.356	1359.12
282.588	1358.12
282.819	1318.12
283.051	1415.12
283.282	1524.12
283.513	1489.12
283.745	1318.12
283.976	1240.12
284.207	1265.12
284.439	1269.12
284.67	1266.12
284.901	1281.12
285.132	1300.12
285.364	1322.12
285.595	1336.12
285.826	1284.12
286.057	1307.12
286.288	1270.12
286.52	1352.12
286.751	1437.12
286.982	1528.12
287.213	1395.12
287.444	1292.12
287.675	1288.12
287.906	1305.12
288.138	1389.12
288.369	1361.12
288.6	1337.12
288.831	1274.12
289.062	1281.12
289.293	1331.12
289.524	1352.12
289.755	1343.12
289.986	1340.12
290.217	1241.12
290.448	1330.12
290.679	1349.12
290.91	1321.12
291.141	1379.12
291.371	1402.12
291.602	1461.12
291.833	1377.12
292.064	1443.12
292.295	1405.12
292.526	1424.12
292.757	1533.12
292.987	1417.12
293.218	1349.12
293.449	1427.12
293.68	1635.12
293.91	1785.12
294.141	1642.12
294.372	1507.12
294.603	1482.12
294.833	1599.12
295.064	1555.12
295.295	1394.12
295.525	1388.12
295.756	1318.12
295.987	1262.12
296.217	1274.12
296.448	1292.12
296.679	1298.12
296.909	1325.12
297.14	1320.12
297.37	1315.12
297.601	1396.12
297.831	1464.12
298.062	1472.12
298.292	1362.12
298.523	1291.12
298.753	1285.12
298.984	1357.12
299.214	1343.12
299.445	1384.12
299.675	1427.12
299.905	1391.12
300.136	1372.12
300.366	1372.12
300.597	1300.12
300.827	1314.12
301.057	1349.12
301.288	1445.12
301.518	1422.12
301.748	1403.12
301.979	1481.12
302.209	1512.12
302.439	1596.12
302.669	1683.12
302.9	1589.12
303.13	1437.12
303.36	1431.12
303.59	1469.12
303.82	1415.12
304.051	1435.12
304.281	1424.12
304.511	1402.12
304.741	1467.12
304.971	1625.12
305.201	1815.12
305.431	1707.12
305.661	1400.12
305.891	1285.12
306.121	1270.12
306.352	1303.12
306.582	1412.12
306.812	1491.12
307.042	1593.12
307.272	1583.12
307.502	1610.12
307.731	1763.12
307.961	1897.12
308.191	1756.12
308.421	1521.12
308.651	1396.12
308.881	1353.12
309.111	1378.12
309.341	1345.12
309.571	1366.12
309.8	1411.12
310.03	1425.12
310.26	1378.12
310.49	1370.12
310.72	1397.12
310.949	1431.12
311.179	1464.12
311.409	1454.12
311.639	1401.12
311.868	1382.12
312.098	1415.12
312.328	1365.12
312.557	1399.12
312.787	1425.12
313.017	1500.12
313.246	1483.12
313.476	1475.12
313.706	1512.12
313.935	1474.12
314.165	1455.12
314.394	1496.12
314.624	1595.12
314.853	1676.12
315.083	1780.12
315.312	1820.12
315.542	1679.12
315.771	1519.12
316.001	1470.12
316.23	1587.12
316.46	1588.12
316.689	1552.12
316.919	1440.12
317.148	1411.12
317.377	1462.12
317.607	1566.12
317.836	1680.12
318.065	1792.12
318.295	1743.12
318.524	1687.12
318.753	1578.12
318.983	1560.12
319.212	1533.12
319.441	1491.12
319.67	1510.12
319.9	1526.12
320.129	1624.12
320.358	1656.12
320.587	1680.12
320.816	1683.12
321.046	1620.12
321.275	1549.12
321.504	1552.12
321.733	1671.12
321.962	1679.12
322.191	1507.12
322.42	1556.12
322.649	1544.12
322.878	1520.12
323.108	1521.12
323.337	1578.12
323.566	1537.12
323.795	1567.12
324.024	1590.12
324.253	1540.12
324.482	1572.12
324.71	1551.12
324.939	1465.12
325.168	1492.12
325.397	1514.12
325.626	1549.12
325.855	1577.12
326.084	1525.12
326.313	1518.12
326.542	1533.12
326.77	1628.12
326.999	1621.12
327.228	1577.12
327.457	1471.12
327.686	1473.12
327.914	1500.12
328.143	1520.12
328.372	1539.12
328.6	1562.12
328.829	1528.12
329.058	1491.12
329.287	1494.12
329.515	1521.12
329.744	1580.12
329.972	1631.12
330.201	1690.12
330.43	1689.12
330.658	1631.12
330.887	1607.12
331.115	1674.12
331.344	1649.12
331.572	1598.12
331.801	1611.12
332.03	1602.12
332.258	1642.12
332.486	1651.12
332.715	1640.12
332.943	1644.12
333.172	1603.12
333.4	1668.12
333.629	1706.12
333.857	1846.12
334.085	1963.12
334.314	2182.12
334.542	2377.12
334.771	2225.12
334.999	1971.12
335.227	1874.12
335.455	1792.12
335.684	1773.12
335.912	1782.12
336.14	1831.12
336.369	1821.12
336.597	1687.12
336.825	1680.12
337.053	1685.12
337.281	1810.12
337.51	1857.12
337.738	1971.12
337.966	1859.12
338.194	1695.12
338.422	1639.12
338.65	1610.12
338.878	1592.12
339.106	1541.12
339.334	1593.12
339.562	1532.12
339.79	1563.12
340.018	1694.12
340.246	1737.12
340.474	1722.12
340.702	1679.12
340.93	1672.12
341.158	1660.12
341.386	1678.12
341.614	1606.12
341.842	1621.12
342.07	1641.12
342.298	1639.12
342.526	1643.12
342.754	1591.12
342.981	1602.12
343.209	1604.12
343.437	1612.12
343.665	1634.12
343.893	1712.12
344.12	1730.12
344.348	1779.12
344.576	1675.12
344.804	1651.12
345.031	1626.12
345.259	1617.12
345.487	1608.12
345.714	1529.12
345.942	1497.12
346.17	1492.12
346.397	1555.12
346.625	1562.12
346.853	1468.12
347.08	1457.12
347.308	1431.12
347.535	1517.12
347.763	1569.12
347.99	1484.12
348.218	1459.12
348.445	1483.12
348.673	1474.12
348.9	1544.12
349.128	1567.12
349.355	1671.12
349.583	1583.12
349.81	1493.12
350.037	1439.12
350.265	1412.12
350.492	1463.12
350.72	1484.12
350.947	1495.12
351.174	1529.12
351.402	1499.12
351.629	1419.12
351.856	1419.12
352.083	1381.12
352.311	1401.12
352.538	1420.12
352.765	1532.12
352.992	1553.12
353.22	1490.12
353.447	1442.12
353.674	1469.12
353.901	1481.12
354.128	1463.12
354.355	1437.12
354.583	1491.12
354.81	1558.12
355.037	1562.12
355.264	1562.12
355.491	1525.12
355.718	1537.12
355.945	1521.12
356.172	1490.12
356.399	1463.12
356.626	1447.12
356.853	1488.12
357.08	1560.12
357.307	1731.12
357.534	1787.12
357.761	1564.12
357.988	1443.12
358.215	1399.12
358.441	1417.12
358.668	1452.12
358.895	1440.12
359.122	1549.12
359.349	1655.12
359.576	1649.12
359.802	1484.12
360.029	1459.12
360.256	1432.12
360.483	1443.12
360.709	1480.12
360.936	1541.12
361.163	1557.12
361.39	1741.12
361.616	1842.12
361.843	1765.12
362.07	1702.12
362.296	1503.12
362.523	1493.12
362.749	1509.12
362.976	1442.12
363.203	1514.12
363.429	1484.12
363.656	1446.12
363.882	1473.12
364.109	1649.12
364.335	1759.12
364.562	1667.12
364.788	1623.12
365.015	1515.12
365.241	1473.12
365.468	1487.12
365.694	1573.12
365.92	1654.12
366.147	1563.12
366.373	1482.12
366.599	1418.12
366.826	1478.12
367.052	1466.12
367.278	1467.12
367.505	1477.12
367.731	1483.12
367.957	1486.12
368.184	1532.12
368.41	1614.12
368.636	1628.12
368.862	1655.12
369.089	1673.12
369.315	1628.12
369.541	1575.12
369.767	1539.12
369.993	1477.12
370.219	1481.12
370.445	1532.12
370.672	1617.12
370.898	1665.12
371.124	1664.12
371.35	1542.12
371.576	1648.12
371.802	1693.12
372.028	1641.12
372.254	1549.12
372.48	1512.12
372.706	1474.12
372.932	1525.12
373.158	1529.12
373.384	1554.12
373.61	1604.12
373.835	1685.12
374.061	1599.12
374.287	1575.12
374.513	1591.12
374.739	1601.12
374.965	1621.12
375.191	1615.12
375.416	1596.12
375.642	1628.12
375.868	1695.12
376.094	1739.12
376.319	1653.12
376.545	1590.12
376.771	1569.12
376.997	1606.12
377.222	1630.12
377.448	1609.12
377.674	1650.12
377.899	1622.12
378.125	1725.12
378.35	1705.12
378.576	1576.12
378.802	1550.12
379.027	1556.12
379.253	1526.12
379.478	1597.12
379.704	1572.12
379.929	1566.12
380.155	1543.12
380.38	1603.12
380.606	1619.12
380.831	1578.12
381.057	1640.12
381.282	1650.12
381.507	1636.12
381.733	1701.12
381.958	1782.12
382.184	1649.12
382.409	1632.12
382.634	1637.12
382.86	1635.12
383.085	1669.12
383.31	1647.12
383.535	1793.12
383.761	1894.12
383.986	1830.12
384.211	1773.12
384.436	1793.12
384.662	1863.12
384.887	1895.12
385.112	1788.12
385.337	1821.12
385.562	1844.12
385.787	1819.12
386.013	1906.12
386.238	1893.12
386.463	1823.12
386.688	1897.12
386.913	1989.12
387.138	1948.12
387.363	1881.12
387.588	1859.12
387.813	1853.12
388.038	1844.12
388.263	1920.12
388.488	1881.12
388.713	1741.12
388.938	1761.12
389.163	1752.12
389.387	1798.12
389.612	1792.12
389.837	1835.12
390.062	1862.12
390.287	1837.12
390.512	1847.12
390.736	1808.12
390.961	1754.12
391.186	1763.12
391.411	1798.12
391.636	1811.12
391.86	1851.12
392.085	1866.12
392.31	1830.12
392.534	1852.12
392.759	1889.12
392.984	1922.12
393.208	2071.12
393.433	2407.12
393.658	2512.12
393.882	2101.12
394.107	1883.12
394.331	1844.12
394.556	1823.12
394.78	1887.12
395.005	1954.12
395.229	1955.12
395.454	2012.12
395.678	2096.12
395.903	2006.12
396.127	1939.12
396.352	1977.12
396.576	2026.12
396.801	2193.12
397.025	2338.12
397.249	2199.12
397.474	2021.12
397.698	1981.12
397.922	1996.12
398.147	2042.12
398.371	2134.12
398.595	2172.12
398.82	2124.12
399.044	2182.12
399.268	2264.12
399.492	2367.12
399.717	2514.12
399.941	2561.12
400.165	2463.12
400.389	2381.12
400.613	2294.12
400.837	2457.12
401.062	2726.12
401.286	2425.12
401.51	2213.12
401.734	2355.12
401.958	2243.12
402.182	2145.12
402.406	2090.12
402.63	2100.12
402.854	2075.12
403.078	2119.12
403.302	2167.12
403.526	2171.12
403.75	2197.12
403.974	2182.12
404.198	2142.12
404.422	2215.12
404.645	2269.12
404.869	2255.12
405.093	2123.12
405.317	2114.12
405.541	2209.12
405.765	2203.12
405.988	2218.12
406.212	2275.12
406.436	2295.12
406.66	2336.12
406.883	2313.12
407.107	2565.12
407.331	2757.12
407.555	2923.12
407.778	2768.12
408.002	2394.12
408.226	2341.12
408.449	2289.12
408.673	2233.12
408.896	2272.12
409.12	2259.12
409.344	2266.12
409.567	2151.12
409.791	2215.12
410.014	2235.12
410.238	2307.12
410.461	2422.12
410.685	2228.12
410.908	2129.12
411.132	2161.12
411.355	2177.12
411.578	2123.12
411.802	2122.12
412.025	2168.12
412.249	2164.12
412.472	2089.12
412.695	2042.12
412.919	2055.12
413.142	2065.12
413.365	2071.12
413.589	2161.12
413.812	2174.12
414.035	2258.12
414.258	2090.12
414.482	2095.12
414.705	2121.12
414.928	2085.12
415.151	2058.12
415.374	2096.12
415.597	2127.12
415.821	2120.12
416.044	2209.12
416.267	2163.12
416.49	2025.12
416.713	2011.12
416.936	2043.12
417.159	2099.12
417.382	2106.12
417.605	2035.12
417.828	2139.12
418.051	2131.12
418.274	2107.12
418.497	2028.12
418.72	2040.12
418.943	2018.12
419.166	2205.12
419.389	2295.12
419.611	2124.12
419.834	2072.12
420.057	2078.12
420.28	2024.12
420.503	2007.12
420.726	2018.12
420.948	2038.12
421.171	1968.12
421.394	2017.12
421.617	2095.12
421.839	2096.12
422.062	1978.12
422.285	1940.12
422.507	2036.12
422.73	2014.12
422.953	2037.12
423.175	1959.12
423.398	1989.12
423.621	2006.12
423.843	2003.12
424.066	2052.12
424.288	2097.12
424.511	2042.12
424.733	2073.12
424.956	1957.12
425.178	1886.12
425.401	1951.12
425.623	1933.12
425.846	1902.12
426.068	2034.12
426.291	2042.12
426.513	1992.12
426.735	1983.12
426.958	2085.12
427.18	2203.12
427.402	2036.12
427.625	2078.12
427.847	2119.12
428.069	1974.12
428.292	1970.12
428.514	1899.12
428.736	1896.12
428.958	1928.12
429.181	1974.12
429.403	2140.12
429.625	2527.12
429.847	2307.12
430.069	1977.12
430.292	2123.12
430.514	2180.12
430.736	2042.12
430.958	2149.12
431.18	2057.12
431.402	1934.12
431.624	1911.12
431.846	1930.12
432.068	1913.12
432.29	1945.12
432.512	1960.12
432.734	2017.12
432.956	2043.12
433.178	2081.12
433.4	2039.12
433.622	2070.12
433.844	1978.12
434.066	1887.12
434.287	1909.12
434.509	2006.12
434.731	2101.12
434.953	2202.12
435.175	2111.12
435.397	2008.12
435.618	1983.12
435.84	2037.12
436.062	2026.12
436.284	1992.12
436.505	2019.12
436.727	2011.12
436.949	2022.12
437.17	1956.12
437.392	1940.12
437.614	1932.12
437.835	1887.12
438.057	2039.12
438.278	2127.12
438.5	2003.12
438.721	1968.12
438.943	1971.12
439.165	1940.12
439.386	1868.12
439.608	1890.12
439.829	1926.12
440.05	1919.12
440.272	1870.12
440.493	1859.12
440.715	1935.12
440.936	2017.12
441.158	2230.12
441.379	2212.12
441.6	2163.12
441.822	2101.12
442.043	2083.12
442.264	2004.12
442.486	1939.12
442.707	1916.12
442.928	1925.12
443.149	2026.12
443.371	2108.12
443.592	2158.12
443.813	2137.12
444.034	2124.12
444.255	2128.12
444.476	2155.12
444.698	2241.12
444.919	2171.12
445.14	2263.12
445.361	2253.12
445.582	2353.12
445.803	2244.12
446.024	2115.12
446.245	2232.12
446.466	2127.12
446.687	2031.12
446.908	2014.12
447.129	1940.12
447.35	2018.12
447.571	2011.12
447.792	1930.12
448.013	1871.12
448.234	1891.12
448.455	1977.12
448.675	1962.12
448.896	1866.12
449.117	1819.12
449.338	1873.12
449.559	1930.12
449.779	2043.12
450	2276.12
450.221	2425.12
450.442	2355.12
450.662	2059.12
450.883	1847.12
451.104	1788.12
451.324	1842.12
451.545	1871.12
451.766	1881.12
451.986	1791.12
452.207	1756.12
452.428	1743.12
452.648	1747.12
452.869	1772.12
453.089	1875.12
453.31	1907.12
453.53	1916.12
453.751	1842.12
453.971	1741.12
454.192	1820.12
454.412	1921.12
454.633	1784.12
454.853	1762.12
455.073	1697.12
455.294	1668.12
455.514	1663.12
455.734	1695.12
455.955	1723.12
456.175	1765.12
456.395	1741.12
456.616	1795.12
456.836	1850.12
457.056	1778.12
457.276	1720.12
457.497	1706.12
457.717	1635.12
457.937	1681.12
458.157	1763.12
458.377	1728.12
458.598	1725.12
458.818	1700.12
459.038	1809.12
459.258	1953.12
459.478	1930.12
459.698	1883.12
459.918	1937.12
460.138	1985.12
460.358	2048.12
460.578	2086.12
460.798	2154.12
461.018	2288.12
461.238	2169.12
461.458	2024.12
461.678	2087.12
461.898	2108.12
462.118	2007.12
462.338	2127.12
462.558	2076.12
462.777	2037.12
462.997	2192.12
463.217	2324.12
463.437	2287.12
463.657	2171.12
463.876	2100.12
464.096	2107.12
464.316	2101.12
464.536	2136.12
464.755	2154.12
464.975	2183.12
465.195	2126.12
465.414	2233.12
465.634	2164.12
465.854	2019.12
466.073	2107.12
466.293	2080.12
466.512	1905.12
466.732	1858.12
466.951	1984.12
467.171	1947.12
467.391	1876.12
467.61	1831.12
467.829	1855.12
468.049	1960.12
468.268	2159.12
468.488	2072.12
468.707	2016.12
468.927	1926.12
469.146	1889.12
469.365	1857.12
469.585	1874.12
469.804	1860.12
470.023	1866.12
470.243	1911.12
470.462	1860.12
470.681	1832.12
470.901	1913.12
471.12	1904.12
471.339	1840.12
471.558	1802.12
471.777	1802.12
471.997	1842.12
472.216	1840.12
472.435	1759.12
472.654	1799.12
472.873	1873.12
473.092	2009.12
473.311	1907.12
473.53	1790.12
473.749	1833.12
473.968	1856.12
474.187	1980.12
474.406	2053.12
474.625	1967.12
474.844	1868.12
475.063	1875.12
475.282	1951.12
475.501	1919.12
475.72	1869.12
475.939	1977.12
476.158	1950.12
476.377	1892.12
476.596	1898.12
476.814	1929.12
477.033	2015.12
477.252	2069.12
477.471	2126.12
477.69	2036.12
477.908	1969.12
478.127	2100.12
478.346	2245.12
478.564	2259.12
478.783	2215.12
479.002	2284.12
479.22	2233.12
479.439	2331.12
479.658	2664.12
479.876	2637.12
480.095	2250.12
480.313	2147.12
480.532	2063.12
480.751	2149.12
480.969	2123.12
481.188	2121.12
481.406	2100.12
481.624	2039.12
481.843	2071.12
482.061	2099.12
482.28	2203.12
482.498	2197.12
482.717	2171.12
482.935	2029.12
483.153	2083.12
483.372	2090.12
483.59	2039.12
483.808	2081.12
484.027	2120.12
484.245	2235.12
484.463	2476.12
484.681	2799.12
484.9	2284.12
485.118	2158.12
485.336	2114.12
485.554	2171.12
485.772	2276.12
485.99	2246.12
486.209	2259.12
486.427	2244.12
486.645	2220.12
486.863	2203.12
487.081	2215.12
487.299	2263.12
487.517	2248.12
487.735	2118.12
487.953	2155.12
488.171	2168.12
488.389	2175.12
488.607	2162.12
488.825	2279.12
489.043	2316.12
489.261	2154.12
489.479	2272.12
489.696	2327.12
489.914	2324.12
490.132	2247.12
490.35	2164.12
490.568	2297.12
490.786	2229.12
491.003	2168.12
491.221	2167.12
491.439	2260.12
491.657	2218.12
491.874	2283.12
492.092	2290.12
492.31	2301.12
492.527	2313.12
492.745	2252.12
492.963	2250.12
493.18	2338.12
493.398	2485.12
493.615	2514.12
493.833	2335.12
494.05	2251.12
494.268	2285.12
494.485	2376.12
494.703	2328.12
494.92	2239.12
495.138	2297.12
495.355	2298.12
495.573	2375.12
495.79	2510.12
496.008	2567.12
496.225	2377.12
496.442	2403.12
496.66	2453.12
496.877	2417.12
497.094	2518.12
497.312	2499.12
497.529	2446.12
497.746	2547.12
497.963	2970.12
498.181	3271.12
498.398	3064.12
498.615	2979.12
498.832	3001.12
499.049	2959.12
499.267	2984.12
499.484	3233.12
499.701	3399.12
499.918	3521.12
500.135	3759.12
500.352	4074.12
500.569	3973.12
500.786	4126.12
501.003	3957.12
501.22	3577.12
501.437	3506.12
501.654	3417.12
501.871	3249.12
502.088	2972.12
502.305	3021.12
502.522	2876.12
502.739	2677.12
502.956	2583.12
503.172	2599.12
503.389	2492.12
503.606	2447.12
503.823	2427.12
504.04	2430.12
504.256	2451.12
504.473	2472.12
504.69	2556.12
504.907	2375.12
505.123	2262.12
505.34	2343.12
505.557	2829.12
505.773	2484.12
505.99	2176.12
506.207	2119.12
506.423	2075.12
506.64	2076.12
506.856	2056.12
507.073	2255.12
507.289	2359.12
507.506	2268.12
507.722	2057.12
507.939	1973.12
508.155	1979.12
508.372	1977.12
508.588	1923.12
508.805	1885.12
509.021	1874.12
509.238	1853.12
509.454	1876.12
509.67	1891.12
509.887	1795.12
510.103	1840.12
510.319	1898.12
510.536	1943.12
510.752	1990.12
510.968	2011.12
511.184	2121.12
511.401	2091.12
511.617	1869.12
511.833	1802.12
512.049	1802.12
512.265	1795.12
512.481	1807.12
512.698	1845.12
512.914	1994.12
513.13	1906.12
513.346	1846.12
513.562	1800.12
513.778	1857.12
513.994	1897.12
514.21	1948.12
514.426	2005.12
514.642	2223.12
514.858	2045.12
515.074	1879.12
515.29	1860.12
515.506	1907.12
515.721	1900.12
515.937	1932.12
516.153	2207.12
516.369	2150.12
516.585	2000.12
516.801	1914.12
517.016	1916.12
517.232	1958.12
517.448	2066.12
517.664	2039.12
517.879	2110.12
518.095	2170.12
518.311	2037.12
518.527	1949.12
518.742	1906.12
518.958	1876.12
519.173	1886.12
519.389	1857.12
519.605	1873.12
519.82	1812.12
520.036	1905.12
520.251	1812.12
520.467	1828.12
520.682	1976.12
520.898	2083.12
521.113	1863.12
521.329	1801.12
521.544	1924.12
521.76	1863.12
521.975	1812.12
522.19	1753.12
522.406	1693.12
522.621	1948.12
522.836	2003.12
523.052	1716.12
523.267	1739.12
523.482	1768.12
523.698	1705.12
523.913	1616.12
524.128	1681.12
524.343	1760.12
524.559	1788.12
524.774	1687.12
524.989	1694.12
525.204	1700.12
525.419	1642.12
525.634	1631.12
525.849	1651.12
526.064	1669.12
526.28	1638.12
526.495	1584.12
526.71	1598.12
526.925	1620.12
527.14	1585.12
527.355	1561.12
527.57	1528.12
527.785	1588.12
527.999	1572.12
528.214	1584.12
528.429	1524.12
528.644	1587.12
528.859	1558.12
529.074	1583.12
529.289	1599.12
529.503	1628.12
529.718	1597.12
529.933	1595.12
530.148	1551.12
530.363	1551.12
530.577	1578.12
530.792	1588.12
531.007	1643.12
531.221	1562.12
531.436	1585.12
531.651	1627.12
531.865	1717.12
532.08	1651.12
532.295	1548.12
532.509	1495.12
532.724	1529.12
532.938	1621.12
533.153	1686.12
533.367	1625.12
533.582	1603.12
533.796	1545.12
534.011	1575.12
534.225	1610.12
534.44	1543.12
534.654	1521.12
534.868	1545.12
535.083	1589.12
535.297	1608.12
535.511	1546.12
535.726	1543.12
535.94	1551.12
536.154	1501.12
536.369	1533.12
536.583	1475.12
536.797	1504.12
537.011	1559.12
537.225	1499.12
537.44	1439.12
537.654	1541.12
537.868	1469.12
538.082	1427.12
538.296	1399.12
538.51	1405.12
538.724	1426.12
538.938	1452.12
539.153	1479.12
539.367	1487.12
539.581	1481.12
539.795	1579.12
540.009	1504.12
540.222	1473.12
540.436	1496.12
540.65	1636.12
540.864	1668.12
541.078	1593.12
541.292	1522.12
541.506	1475.12
541.72	1497.12
541.934	1473.12
542.147	1523.12
542.361	1475.12
542.575	1440.12
542.789	1398.12
543.002	1392.12
543.216	1432.12
543.43	1507.12
543.644	1552.12
543.857	1624.12
544.071	1567.12
544.285	1523.12
544.498	1475.12
544.712	1488.12
544.925	1483.12
545.139	1482.12
545.352	1461.12
545.566	1443.12
545.779	1381.12
545.993	1455.12
546.206	1481.12
546.42	1422.12
546.633	1427.12
546.847	1432.12
547.06	1379.12
547.274	1431.12
547.487	1395.12
547.7	1397.12
547.914	1403.12
548.127	1448.12
548.34	1443.12
548.554	1427.12
548.767	1414.12
548.98	1421.12
549.193	1413.12
549.407	1463.12
549.62	1484.12
549.833	1400.12
550.046	1433.12
550.259	1400.12
550.473	1383.12
550.686	1439.12
550.899	1365.12
551.112	1381.12
551.325	1350.12
551.538	1379.12
551.751	1587.12
551.964	1351.12
552.177	1371.12
552.39	1357.12
552.603	1420.12
552.816	1415.12
553.029	1453.12
553.242	1515.12
553.455	1426.12
553.667	1413.12
553.88	1405.12
554.093	1372.12
554.306	1339.12
554.519	1343.12
554.732	1286.12
554.944	1296.12
555.157	1373.12
555.37	1311.12
555.583	1333.12
555.795	1292.12
556.008	1248.12
556.221	1244.12
556.433	1236.12
556.646	1212.12
556.859	1168.12
557.071	1205.12
557.284	1192.12
557.496	1195.12
557.709	1171.12
557.921	1196.12
558.134	1151.12
558.346	1185.12
558.559	1157.12
558.771	1164.12
558.984	1108.12
559.196	1129.12
559.409	1130.12
559.621	1143.12
559.833	1145.12
560.046	1192.12
560.258	1188.12
560.47	1145.12
560.683	1153.12
560.895	1148.12
561.107	1169.12
561.32	1170.12
561.532	1201.12
561.744	1125.12
561.956	1138.12
562.168	1143.12
562.381	1103.12
562.593	1122.12
562.805	1111.12
563.017	1120.12
563.229	1126.12
563.441	1164.12
563.653	1129.12
563.865	1130.12
564.077	1137.12
564.289	1141.12
564.501	1121.12
564.713	1192.12
564.925	1203.12
565.137	1256.12
565.349	1216.12
565.561	1165.12
565.773	1228.12
565.985	1255.12
566.197	1293.12
566.408	1388.12
566.62	1372.12
566.832	1420.12
567.044	1420.12
567.255	1418.12
567.467	1396.12
567.679	1487.12
567.891	1446.12
568.102	1480.12
568.314	1420.12
568.526	1380.12
568.737	1314.12
568.949	1233.12
569.161	1167.12
569.372	1114.12
569.584	1105.12
569.795	1101.12
570.007	1104.12
570.218	1018.12
570.43	1023.12
570.641	1051.12
570.853	1032.12
571.064	1027.12
571.276	973.12
571.487	1004.12
571.698	968.12
571.91	970.12
572.121	956.12
572.333	924.12
572.544	947.12
572.755	913.12
572.966	901.12
573.178	889.12
573.389	911.12
573.6	935.12
573.811	970.12
574.023	940.12
574.234	885.12
574.445	890.12
574.656	859.12
574.867	860.12
575.078	871.12
575.289	890.12
575.501	842.12
575.712	819.12
575.923	855.12
576.134	863.12
576.345	830.12
576.556	826.12
576.767	809.12
576.978	819.12
577.188	793.12
577.399	796.12
577.61	776.12
577.821	796.12
578.032	787.12
578.243	800.12
578.454	792.12
578.665	794.12
578.875	766.12
579.086	736.12
579.297	771.12
579.508	769.12
579.718	779.12
579.929	757.12
580.14	761.12
580.35	757.12
580.561	739.12
580.772	803.12
580.982	762.12
581.193	730.12
581.403	751.12
581.614	736.12
581.825	727.12
582.035	731.12
582.246	712.12
582.456	756.12
582.667	769.12
582.877	721.12
583.087	725.12
583.298	711.12
583.508	707.12
583.719	712.12
583.929	716.12
584.139	711.12
584.35	713.12
584.56	696.12
584.77	701.12
584.981	725.12
585.191	723.12
585.401	736.12
585.611	717.12
585.821	677.12
586.032	708.12
586.242	716.12
586.452	695.12
586.662	725.12
586.872	681.12
587.082	706.12
587.292	714.12
587.502	716.12
587.713	718.12
587.923	696.12
588.133	669.12
588.343	683.12
588.553	704.12
588.762	689.12
588.972	712.12
589.182	881.12
589.392	845.12
589.602	739.12
589.812	830.12
590.022	723.12
590.232	695.12
590.441	680.12
590.651	697.12
590.861	691.12
591.071	673.12
591.281	671.12
591.49	692.12
591.7	699.12
591.91	680.12
592.119	672.12
592.329	693.12
592.539	737.12
592.748	718.12
592.958	705.12
593.167	725.12
593.377	733.12
593.587	751.12
593.796	724.12
594.006	736.12
594.215	737.12
594.424	714.12
594.634	733.12
594.843	724.12
595.053	729.12
595.262	711.12
595.472	681.12
595.681	677.12
595.89	646.12
596.1	641.12
596.309	645.12
596.518	645.12
596.727	628.12
596.937	626.12
597.146	615.12
597.355	616.12
597.564	610.12
597.774	616.12
597.983	597.12
598.192	593.12
598.401	588.12
598.61	579.12
598.819	588.12
599.028	560.12
599.237	589.12
599.446	568.12
599.655	564.12
599.864	550.12
600.073	573.12
600.282	555.12
600.491	555.12
600.7	574.12
600.909	564.12
601.118	562.12
601.327	553.12
601.536	589.12
601.745	552.12
601.953	555.12
602.162	568.12
602.371	545.12
602.58	547.12
602.789	543.12
602.997	538.12
603.206	547.12
603.415	523.12
603.623	543.12
603.832	531.12
604.041	555.12
604.249	536.12
604.458	551.12
604.666	531.12
604.875	548.12
605.084	541.12
605.292	553.12
605.501	515.12
605.709	535.12
605.918	521.12
606.126	533.12
606.334	535.12
606.543	525.12
606.751	519.12
606.96	517.12
607.168	522.12
607.376	527.12
607.585	517.12
607.793	524.12
608.001	513.12
608.21	537.12
608.418	518.12
608.626	521.12
608.834	510.12
609.043	521.12
609.251	521.12
609.459	524.12
609.667	516.12
609.875	492.12
610.083	505.12
610.291	529.12
610.499	545.12
610.707	492.12
610.916	495.12
611.124	480.12
611.332	496.12
611.54	497.12
611.748	485.12
611.955	493.12
612.163	508.12
612.371	488.12
612.579	475.12
612.787	495.12
612.995	505.12
613.203	491.12
613.411	497.12
613.618	494.12
613.826	468.12
614.034	459.12
614.242	484.12
614.449	484.12
614.657	475.12
614.865	486.12
615.072	484.12
615.28	482.12
615.488	490.12
615.695	488.12
615.903	497.12
616.111	487.12
616.318	495.12
616.526	495.12
616.733	482.12
616.941	470.12
617.148	488.12
617.356	476.12
617.563	484.12
617.771	482.12
617.978	468.12
618.185	471.12
618.393	462.12
618.6	463.12
618.807	462.12
619.015	474.12
619.222	469.12
619.429	467.12
619.637	470.12
619.844	470.12
620.051	446.12
620.258	456.12
620.466	450.12
620.673	437.12
620.88	426.12
621.087	436.12
621.294	427.12
621.501	441.12
621.708	417.12
621.915	451.12
622.122	448.12
622.329	441.12
622.536	448.12
622.743	417.12
622.95	428.12
623.157	394.12
623.364	435.12
623.571	427.12
623.778	420.12
623.985	425.12
624.192	427.12
624.399	417.12
624.606	424.12
624.812	403.12
625.019	387.12
625.226	415.12
625.433	395.12
625.639	404.12
625.846	426.12
626.053	398.12
626.259	385.12
626.466	381.12
626.673	382.12
626.879	377.12
627.086	386.12
627.293	408.12
627.499	398.12
627.706	388.12
627.912	395.12
628.119	376.12
628.325	380.12
628.532	379.12
628.738	391.12
628.945	390.12
629.151	369.12
629.357	393.12
629.564	368.12
629.77	370.12
629.976	383.12
630.183	384.12
630.389	374.12
630.595	370.12
630.802	376.12
631.008	358.12
631.214	370.12
631.42	357.12
631.627	343.12
631.833	370.12
632.039	373.12
632.245	383.12
632.451	354.12
632.657	356.12
632.863	366.12
633.069	353.12
633.275	356.12
633.481	356.12
633.688	339.12
633.893	336.12
634.099	336.12
634.305	354.12
634.511	374.12
634.717	341.12
634.923	348.12
635.129	340.12
635.335	315.12
635.541	339.12
635.747	351.12
635.952	329.12
636.158	348.12
636.364	321.12
636.57	324.12
636.775	351.12
636.981	320.12
637.187	343.12
637.392	324.12
637.598	303.12
637.804	332.12
638.009	325.12
638.215	321.12
638.421	311.12
638.626	335.12
638.832	305.12
639.037	299.12
639.243	315.12
639.448	325.12
639.654	331.12
639.859	327.12
640.065	313.12
640.27	316.12
640.475	315.12
640.681	329.12
640.886	315.12
641.091	316.12
641.297	315.12
641.502	315.12
641.707	313.12
641.913	312.12
642.118	304.12
642.323	305.12
642.528	307.12
642.733	299.12
642.939	309.12
643.144	305.12
643.349	310.12
643.554	307.12
643.759	301.12
643.964	288.12
644.169	297.12
644.374	289.12
644.579	322.12
644.784	314.12
644.989	305.12
645.194	310.12
645.399	294.12
645.604	319.12
645.809	296.12
646.014	292.12
646.219	310.12
646.423	304.12
646.628	307.12
646.833	293.12
647.038	287.12
647.243	280.12
647.447	303.12
647.652	308.12
647.857	275.12
648.062	307.12
648.266	290.12
648.471	311.12
648.676	307.12
648.88	316.12
649.085	297.12
649.289	298.12
649.494	295.12
649.698	298.12
649.903	278.12
650.107	283.12
650.312	260.12
650.516	285.12
650.721	279.12
650.925	288.12
651.13	266.12
651.334	266.12
651.539	263.12
651.743	282.12
651.947	254.12
652.152	256.12
652.356	248.12
652.56	268.12
652.764	253.12
652.969	240.12
653.173	234.12
653.377	233.12
653.581	258.12
653.785	245.12
653.99	211.12
654.194	221.12
654.398	217.12
654.602	236.12
654.806	225.12
655.01	237.12
655.214	224.12
655.418	215.12
655.622	228.12
655.826	221.12
656.03	227.12
656.234	234.12
656.438	236.12
656.642	227.12
656.846	213.12
657.049	203.12
657.253	205.12
657.457	200.12
657.661	166.12
657.865	178.12
658.068	176.12
658.272	153.12
658.476	165.12
658.68	150.12
658.883	156.12
659.087	152.12
659.291	136.12
659.494	129.12
659.698	130.12
659.901	131.12
660.105	115.12
660.309	124.12
660.512	114.12
660.716	113.12
660.919	103.12
661.123	116.12
661.326	92.12
661.53	103.12
661.733	99.12
661.936	95.12
662.14	84.12
662.343	101.12
662.546	93.12
662.75	88.12
662.953	99.12
663.156	99.12
663.36	101.12
663.563	86.12
663.766	89.12
663.969	90.12
664.173	84.12
664.376	84.12
664.579	98.12
664.782	96.12
664.985	96.12
665.188	69.12
665.391	79.12
665.594	81.12
665.797	87.12
666	86.12
666.203	72.12
666.406	69.12
666.609	91.12
666.812	73.12
667.015	86.12
667.218	86.12
667.421	84.12
667.624	72.12
667.827	81.12
668.03	94.12
668.232	88.12
668.435	71.12
668.638	87.12
668.841	88.12
669.043	77.12
669.246	97.12
669.449	87.12
669.651	85.12
669.854	88.12
670.057	90.12
670.259	79.12
670.462	91.12
670.665	88.12
670.867	75.12
671.07	72.12
671.272	87.12
671.475	87.12
671.677	77.12
671.88	76.12
672.082	80.12
672.284	75.12
672.487	73.12
672.689	82.12
672.892	92.12
