Data from WStandard_LampEnergy8_LIBS07252019.E.O._I.C._HRD10591_15-57-59-929.txt Node
Date: Thu Jul 25 15:57:59 EDT 2019
User: cochatt
Spectrometer: HR+D1059
Trigger mode: 1
Integration Time (sec): 1.000000E-1
Scans to average: 1
Electric dark correction enabled: true
Nonlinearity correction enabled: false
Boxcar width: 0
XAxis mode: Wavelengths
Number of Pixels in Spectrum: 2048
>>>>>Begin Spectral Data<<<<<
223.165	-12.12
223.4	-12.12
223.635	-12.12
223.869	-10.12
224.104	-35.12
224.338	-14.12
224.573	-1.12
224.808	-9.12
225.042	-2.12
225.277	-10.12
225.511	-16.12
225.746	4.88
225.98	10.88
226.215	16.88
226.449	5.88
226.683	26.88
226.918	22.88
227.152	21.88
227.387	28.88
227.621	41.88
227.856	25.88
228.09	49.88
228.324	50.88
228.559	47.88
228.793	94.88
229.027	208.88
229.262	195.88
229.496	226.88
229.73	239.88
229.964	242.88
230.199	270.88
230.433	272.88
230.667	287.88
230.901	289.88
231.136	292.88
231.37	283.88
231.604	268.88
231.838	274.88
232.072	263.88
232.306	280.88
232.541	294.88
232.775	304.88
233.009	338.88
233.243	308.88
233.477	289.88
233.711	294.88
233.945	325.88
234.179	311.88
234.413	358.88
234.647	342.88
234.881	332.88
235.115	311.88
235.349	304.88
235.583	323.88
235.817	305.88
236.051	298.88
236.285	323.88
236.519	335.88
236.753	362.88
236.987	382.88
237.221	370.88
237.455	376.88
237.689	370.88
237.922	380.88
238.156	372.88
238.39	383.88
238.624	388.88
238.858	418.88
239.091	415.88
239.325	444.88
239.559	475.88
239.793	492.88
240.027	528.88
240.26	522.88
240.494	386.88
240.728	387.88
240.961	384.88
241.195	407.88
241.429	424.88
241.662	417.88
241.896	388.88
242.13	426.88
242.363	452.88
242.597	491.88
242.83	454.88
243.064	484.88
243.298	493.88
243.531	498.88
243.765	481.88
243.998	467.88
244.232	439.88
244.465	409.88
244.699	418.88
244.932	471.88
245.166	552.88
245.399	517.88
245.633	476.88
245.866	462.88
246.099	504.88
246.333	508.88
246.566	506.88
246.8	566.88
247.033	616.88
247.266	574.88
247.5	547.88
247.733	542.88
247.966	580.88
248.2	617.88
248.433	626.88
248.666	646.88
248.899	713.88
249.133	799.88
249.366	867.88
249.599	709.88
249.832	638.88
250.066	654.88
250.299	664.88
250.532	599.88
250.765	577.88
250.998	588.88
251.231	624.88
251.465	621.88
251.698	597.88
251.931	594.88
252.164	622.88
252.397	626.88
252.63	629.88
252.863	577.88
253.096	574.88
253.329	590.88
253.562	608.88
253.795	641.88
254.028	629.88
254.261	615.88
254.494	588.88
254.727	577.88
254.96	588.88
255.193	648.88
255.426	717.88
255.659	825.88
255.892	821.88
256.124	722.88
256.357	662.88
256.59	747.88
256.823	734.88
257.056	728.88
257.289	874.88
257.521	962.88
257.754	863.88
257.987	824.88
258.22	890.88
258.452	840.88
258.685	710.88
258.918	706.88
259.151	688.88
259.383	668.88
259.616	601.88
259.849	637.88
260.081	705.88
260.314	814.88
260.547	842.88
260.779	869.88
261.012	811.88
261.244	708.88
261.477	708.88
261.71	735.88
261.942	721.88
262.175	688.88
262.407	751.88
262.64	673.88
262.872	642.88
263.105	623.88
263.337	652.88
263.57	654.88
263.802	667.88
264.035	616.88
264.267	599.88
264.499	588.88
264.732	642.88
264.964	686.88
265.197	694.88
265.429	733.88
265.661	793.88
265.894	856.88
266.126	912.88
266.358	812.88
266.591	828.88
266.823	883.88
267.055	804.88
267.287	830.88
267.52	790.88
267.752	789.88
267.984	806.88
268.216	821.88
268.448	839.88
268.681	844.88
268.913	757.88
269.145	734.88
269.377	700.88
269.609	797.88
269.841	931.88
270.073	1042.88
270.306	1148.88
270.538	1160.88
270.77	967.88
271.002	893.88
271.234	834.88
271.466	869.88
271.698	985.88
271.93	1097.88
272.162	1089.88
272.394	985.88
272.626	949.88
272.858	829.88
273.09	740.88
273.322	723.88
273.553	691.88
273.785	723.88
274.017	747.88
274.249	799.88
274.481	774.88
274.713	746.88
274.945	735.88
275.176	729.88
275.408	714.88
275.64	691.88
275.872	725.88
276.104	788.88
276.335	890.88
276.567	944.88
276.799	980.88
277.031	862.88
277.262	801.88
277.494	876.88
277.726	923.88
277.957	906.88
278.189	863.88
278.421	787.88
278.652	761.88
278.884	764.88
279.115	779.88
279.347	764.88
279.579	752.88
279.81	775.88
280.042	846.88
280.273	938.88
280.505	883.88
280.736	924.88
280.968	857.88
281.199	782.88
281.431	745.88
281.662	733.88
281.894	751.88
282.125	784.88
282.356	780.88
282.588	808.88
282.819	805.88
283.051	860.88
283.282	911.88
283.513	886.88
283.745	764.88
283.976	738.88
284.207	764.88
284.439	770.88
284.67	772.88
284.901	822.88
285.132	822.88
285.364	808.88
285.595	807.88
285.826	780.88
286.057	794.88
286.288	795.88
286.52	811.88
286.751	873.88
286.982	886.88
287.213	830.88
287.444	735.88
287.675	776.88
287.906	836.88
288.138	863.88
288.369	824.88
288.6	790.88
288.831	739.88
289.062	756.88
289.293	766.88
289.524	795.88
289.755	790.88
289.986	808.88
290.217	764.88
290.448	786.88
290.679	797.88
290.91	820.88
291.141	832.88
291.371	838.88
291.602	830.88
291.833	849.88
292.064	856.88
292.295	852.88
292.526	882.88
292.757	888.88
292.987	874.88
293.218	848.88
293.449	920.88
293.68	981.88
293.91	1058.88
294.141	995.88
294.372	922.88
294.603	992.88
294.833	994.88
295.064	935.88
295.295	868.88
295.525	818.88
295.756	800.88
295.987	744.88
296.217	795.88
296.448	792.88
296.679	802.88
296.909	792.88
297.14	781.88
297.37	813.88
297.601	875.88
297.831	932.88
298.062	908.88
298.292	835.88
298.523	820.88
298.753	812.88
298.984	852.88
299.214	815.88
299.445	845.88
299.675	888.88
299.905	862.88
300.136	823.88
300.366	826.88
300.597	774.88
300.827	798.88
301.057	849.88
301.288	880.88
301.518	844.88
301.748	896.88
301.979	918.88
302.209	974.88
302.439	1044.88
302.669	1073.88
302.9	1000.88
303.13	903.88
303.36	882.88
303.59	866.88
303.82	903.88
304.051	851.88
304.281	892.88
304.511	918.88
304.741	998.88
304.971	1114.88
305.201	1116.88
305.431	1020.88
305.661	811.88
305.891	778.88
306.121	778.88
306.352	818.88
306.582	866.88
306.812	940.88
307.042	976.88
307.272	979.88
307.502	1022.88
307.731	1112.88
307.961	1135.88
308.191	1032.88
308.421	891.88
308.651	855.88
308.881	860.88
309.111	873.88
309.341	849.88
309.571	838.88
309.8	869.88
310.03	862.88
310.26	864.88
310.49	851.88
310.72	883.88
310.949	911.88
311.179	930.88
311.409	898.88
311.639	878.88
311.868	862.88
312.098	865.88
312.328	886.88
312.557	866.88
312.787	877.88
313.017	881.88
313.246	901.88
313.476	893.88
313.706	949.88
313.935	932.88
314.165	937.88
314.394	970.88
314.624	1032.88
314.853	1049.88
315.083	1123.88
315.312	1097.88
315.542	1030.88
315.771	940.88
316.001	939.88
316.23	1005.88
316.46	971.88
316.689	946.88
316.919	878.88
317.148	905.88
317.377	935.88
317.607	1001.88
317.836	1102.88
318.065	1101.88
318.295	1025.88
318.524	1024.88
318.753	972.88
318.983	995.88
319.212	964.88
319.441	953.88
319.67	933.88
319.9	960.88
320.129	1048.88
320.358	1057.88
320.587	1074.88
320.816	1049.88
321.046	1030.88
321.275	984.88
321.504	1010.88
321.733	1064.88
321.962	1014.88
322.191	962.88
322.42	970.88
322.649	964.88
322.878	960.88
323.108	975.88
323.337	984.88
323.566	990.88
323.795	978.88
324.024	989.88
324.253	986.88
324.482	943.88
324.71	951.88
324.939	893.88
325.168	934.88
325.397	952.88
325.626	964.88
325.855	981.88
326.084	954.88
326.313	969.88
326.542	977.88
326.77	1030.88
326.999	1000.88
327.228	939.88
327.457	913.88
327.686	906.88
327.914	960.88
328.143	948.88
328.372	944.88
328.6	937.88
328.829	943.88
329.058	929.88
329.287	923.88
329.515	960.88
329.744	993.88
329.972	1019.88
330.201	1086.88
330.43	1066.88
330.658	980.88
330.887	1027.88
331.115	1043.88
331.344	1023.88
331.572	1002.88
331.801	995.88
332.03	990.88
332.258	1040.88
332.486	1020.88
332.715	1039.88
332.943	1030.88
333.172	1020.88
333.4	1033.88
333.629	1055.88
333.857	1125.88
334.085	1250.88
334.314	1440.88
334.542	1490.88
334.771	1348.88
334.999	1178.88
335.227	1109.88
335.455	1078.88
335.684	1076.88
335.912	1103.88
336.14	1128.88
336.369	1097.88
336.597	1047.88
336.825	1018.88
337.053	1058.88
337.281	1127.88
337.51	1186.88
337.738	1186.88
337.966	1103.88
338.194	1007.88
338.422	1018.88
338.65	1014.88
338.878	999.88
339.106	940.88
339.334	966.88
339.562	936.88
339.79	964.88
340.018	1042.88
340.246	1063.88
340.474	1096.88
340.702	1057.88
340.93	1028.88
341.158	1034.88
341.386	1014.88
341.614	1025.88
341.842	1020.88
342.07	1006.88
342.298	1028.88
342.526	1033.88
342.754	1002.88
342.981	1008.88
343.209	989.88
343.437	1026.88
343.665	1005.88
343.893	1037.88
344.12	1107.88
344.348	1087.88
344.576	1024.88
344.804	1010.88
345.031	1062.88
345.259	1000.88
345.487	1008.88
345.714	945.88
345.942	914.88
346.17	946.88
346.397	979.88
346.625	969.88
346.853	883.88
347.08	904.88
347.308	916.88
347.535	938.88
347.763	961.88
347.99	920.88
348.218	911.88
348.445	906.88
348.673	954.88
348.9	984.88
349.128	1010.88
349.355	1000.88
349.583	1002.88
349.81	910.88
350.037	892.88
350.265	896.88
350.492	924.88
350.72	928.88
350.947	977.88
351.174	982.88
351.402	913.88
351.629	897.88
351.856	864.88
352.083	854.88
352.311	895.88
352.538	918.88
352.765	972.88
352.992	963.88
353.22	902.88
353.447	900.88
353.674	936.88
353.901	927.88
354.128	920.88
354.355	918.88
354.583	962.88
354.81	998.88
355.037	980.88
355.264	966.88
355.491	950.88
355.718	958.88
355.945	925.88
356.172	936.88
356.399	911.88
356.626	919.88
356.853	961.88
357.08	1048.88
357.307	1150.88
357.534	1098.88
357.761	951.88
357.988	918.88
358.215	898.88
358.441	906.88
358.668	903.88
358.895	914.88
359.122	1005.88
359.349	1080.88
359.576	1017.88
359.802	935.88
360.029	911.88
360.256	901.88
360.483	911.88
360.709	973.88
360.936	976.88
361.163	1044.88
361.39	1137.88
361.616	1215.88
361.843	1176.88
362.07	1088.88
362.296	967.88
362.523	916.88
362.749	934.88
362.976	940.88
363.203	1011.88
363.429	915.88
363.656	926.88
363.882	966.88
364.109	1076.88
364.335	1102.88
364.562	1045.88
364.788	983.88
365.015	987.88
365.241	945.88
365.468	956.88
365.694	998.88
365.92	1024.88
366.147	982.88
366.373	905.88
366.599	915.88
366.826	929.88
367.052	931.88
367.278	914.88
367.505	939.88
367.731	978.88
367.957	984.88
368.184	1013.88
368.41	1086.88
368.636	1099.88
368.862	1071.88
369.089	1091.88
369.315	1034.88
369.541	981.88
369.767	958.88
369.993	959.88
370.219	951.88
370.445	997.88
370.672	1076.88
370.898	1083.88
371.124	1049.88
371.35	1010.88
371.576	1041.88
371.802	1099.88
372.028	1042.88
372.254	996.88
372.48	950.88
372.706	945.88
372.932	982.88
373.158	1000.88
373.384	1010.88
373.61	1030.88
373.835	1069.88
374.061	1027.88
374.287	997.88
374.513	1016.88
374.739	1054.88
374.965	1044.88
375.191	1034.88
375.416	1039.88
375.642	1010.88
375.868	1112.88
376.094	1134.88
376.319	1098.88
376.545	1045.88
376.771	1066.88
376.997	1115.88
377.222	1078.88
377.448	1075.88
377.674	1064.88
377.899	1088.88
378.125	1129.88
378.35	1110.88
378.576	991.88
378.802	961.88
379.027	1026.88
379.253	971.88
379.478	1008.88
379.704	1002.88
379.929	996.88
380.155	1027.88
380.38	1012.88
380.606	1039.88
380.831	1008.88
381.057	1122.88
381.282	1087.88
381.507	1051.88
381.733	1157.88
381.958	1174.88
382.184	1082.88
382.409	1032.88
382.634	1048.88
382.86	1044.88
383.085	1059.88
383.31	1081.88
383.535	1189.88
383.761	1242.88
383.986	1209.88
384.211	1126.88
384.436	1148.88
384.662	1226.88
384.887	1233.88
385.112	1170.88
385.337	1171.88
385.562	1150.88
385.787	1162.88
386.013	1175.88
386.238	1168.88
386.463	1195.88
386.688	1305.88
386.913	1355.88
387.138	1290.88
387.363	1213.88
387.588	1202.88
387.813	1175.88
388.038	1234.88
388.263	1220.88
388.488	1189.88
388.713	1088.88
388.938	1109.88
389.163	1152.88
389.387	1154.88
389.612	1115.88
389.837	1174.88
390.062	1170.88
390.287	1163.88
390.512	1146.88
390.736	1129.88
390.961	1116.88
391.186	1090.88
391.411	1105.88
391.636	1145.88
391.86	1138.88
392.085	1147.88
392.31	1127.88
392.534	1132.88
392.759	1163.88
392.984	1172.88
393.208	1172.88
393.433	1212.88
393.658	1272.88
393.882	1278.88
394.107	1162.88
394.331	1129.88
394.556	1144.88
394.78	1164.88
395.005	1218.88
395.229	1267.88
395.454	1352.88
395.678	1346.88
395.903	1294.88
396.127	1205.88
396.352	1228.88
396.576	1287.88
396.801	1293.88
397.025	1275.88
397.249	1253.88
397.474	1246.88
397.698	1216.88
397.922	1273.88
398.147	1366.88
398.371	1408.88
398.595	1367.88
398.82	1319.88
399.044	1343.88
399.268	1436.88
399.492	1434.88
399.717	1476.88
399.941	1512.88
400.165	1512.88
400.389	1466.88
400.613	1455.88
400.837	1682.88
401.062	1837.88
401.286	1565.88
401.51	1449.88
401.734	1496.88
401.958	1437.88
402.182	1334.88
402.406	1325.88
402.63	1317.88
402.854	1335.88
403.078	1351.88
403.302	1318.88
403.526	1353.88
403.75	1326.88
403.974	1385.88
404.198	1378.88
404.422	1440.88
404.645	1518.88
404.869	1430.88
405.093	1349.88
405.317	1339.88
405.541	1366.88
405.765	1394.88
405.988	1398.88
406.212	1416.88
406.436	1436.88
406.66	1496.88
406.883	1528.88
407.107	1724.88
407.331	1849.88
407.555	1998.88
407.778	1735.88
408.002	1478.88
408.226	1412.88
408.449	1414.88
408.673	1394.88
408.896	1401.88
409.12	1427.88
409.344	1401.88
409.567	1353.88
409.791	1360.88
410.014	1430.88
410.238	1522.88
410.461	1564.88
410.685	1430.88
410.908	1377.88
411.132	1408.88
411.355	1363.88
411.578	1318.88
411.802	1363.88
412.025	1379.88
412.249	1359.88
412.472	1285.88
412.695	1340.88
412.919	1305.88
413.142	1312.88
413.365	1362.88
413.589	1406.88
413.812	1462.88
414.035	1499.88
414.258	1404.88
414.482	1318.88
414.705	1369.88
414.928	1329.88
415.151	1316.88
415.374	1340.88
415.597	1347.88
415.821	1372.88
416.044	1396.88
416.267	1370.88
416.49	1303.88
416.713	1289.88
416.936	1358.88
417.159	1404.88
417.382	1395.88
417.605	1295.88
417.828	1312.88
418.051	1352.88
418.274	1353.88
418.497	1307.88
418.72	1329.88
418.943	1307.88
419.166	1366.88
419.389	1358.88
419.611	1331.88
419.834	1319.88
420.057	1354.88
420.28	1287.88
420.503	1307.88
420.726	1322.88
420.948	1333.88
421.171	1303.88
421.394	1324.88
421.617	1359.88
421.839	1359.88
422.062	1338.88
422.285	1286.88
422.507	1307.88
422.73	1251.88
422.953	1230.88
423.175	1257.88
423.398	1329.88
423.621	1310.88
423.843	1308.88
424.066	1379.88
424.288	1428.88
424.511	1465.88
424.733	1383.88
424.956	1258.88
425.178	1263.88
425.401	1256.88
425.623	1310.88
425.846	1304.88
426.068	1355.88
426.291	1353.88
426.513	1336.88
426.735	1347.88
426.958	1458.88
427.18	1538.88
427.402	1387.88
427.625	1441.88
427.847	1414.88
428.069	1296.88
428.292	1298.88
428.514	1250.88
428.736	1264.88
428.958	1248.88
429.181	1278.88
429.403	1517.88
429.625	1810.88
429.847	1519.88
430.069	1338.88
430.292	1490.88
430.514	1496.88
430.736	1392.88
430.958	1442.88
431.18	1368.88
431.402	1257.88
431.624	1232.88
431.846	1193.88
432.068	1168.88
432.29	1187.88
432.512	1219.88
432.734	1248.88
432.956	1299.88
433.178	1371.88
433.4	1322.88
433.622	1322.88
433.844	1275.88
434.066	1199.88
434.287	1210.88
434.509	1235.88
434.731	1278.88
434.953	1390.88
435.175	1351.88
435.397	1326.88
435.618	1284.88
435.84	1245.88
436.062	1288.88
436.284	1302.88
436.505	1334.88
436.727	1365.88
436.949	1266.88
437.17	1269.88
437.392	1258.88
437.614	1224.88
437.835	1170.88
438.057	1272.88
438.278	1278.88
438.5	1234.88
438.721	1247.88
438.943	1259.88
439.165	1255.88
439.386	1262.88
439.608	1257.88
439.829	1252.88
440.05	1252.88
440.272	1277.88
440.493	1264.88
440.715	1311.88
440.936	1369.88
441.158	1470.88
441.379	1406.88
441.6	1371.88
441.822	1395.88
442.043	1373.88
442.264	1333.88
442.486	1304.88
442.707	1265.88
442.928	1292.88
443.149	1317.88
443.371	1367.88
443.592	1378.88
443.813	1406.88
444.034	1401.88
444.255	1376.88
444.476	1366.88
444.698	1417.88
444.919	1414.88
445.14	1513.88
445.361	1484.88
445.582	1505.88
445.803	1421.88
446.024	1391.88
446.245	1446.88
446.466	1383.88
446.687	1374.88
446.908	1381.88
447.129	1330.88
447.35	1338.88
447.571	1322.88
447.792	1290.88
448.013	1243.88
448.234	1282.88
448.455	1334.88
448.675	1344.88
448.896	1242.88
449.117	1223.88
449.338	1275.88
449.559	1331.88
449.779	1335.88
450	1458.88
450.221	1512.88
450.442	1467.88
450.662	1331.88
450.883	1186.88
451.104	1173.88
451.324	1242.88
451.545	1251.88
451.766	1214.88
451.986	1147.88
452.207	1140.88
452.428	1120.88
452.648	1129.88
452.869	1145.88
453.089	1160.88
453.31	1153.88
453.53	1172.88
453.751	1133.88
453.971	1085.88
454.192	1123.88
454.412	1158.88
454.633	1162.88
454.853	1132.88
455.073	1065.88
455.294	1107.88
455.514	1084.88
455.734	1072.88
455.955	1112.88
456.175	1120.88
456.395	1085.88
456.616	1102.88
456.836	1129.88
457.056	1110.88
457.276	1072.88
457.497	1082.88
457.717	1048.88
457.937	1072.88
458.157	1079.88
458.377	1048.88
458.598	1059.88
458.818	1065.88
459.038	1151.88
459.258	1178.88
459.478	1137.88
459.698	1148.88
459.918	1201.88
460.138	1230.88
460.358	1281.88
460.578	1266.88
460.798	1306.88
461.018	1326.88
461.238	1303.88
461.458	1292.88
461.678	1282.88
461.898	1248.88
462.118	1240.88
462.338	1278.88
462.558	1268.88
462.777	1284.88
462.997	1353.88
463.217	1371.88
463.437	1341.88
463.657	1294.88
463.876	1289.88
464.096	1253.88
464.316	1298.88
464.536	1326.88
464.755	1343.88
464.975	1308.88
465.195	1300.88
465.414	1378.88
465.634	1332.88
465.854	1336.88
466.073	1475.88
466.293	1386.88
466.512	1235.88
466.732	1215.88
466.951	1282.88
467.171	1289.88
467.391	1190.88
467.61	1233.88
467.829	1233.88
468.049	1357.88
468.268	1507.88
468.488	1387.88
468.707	1301.88
468.927	1223.88
469.146	1228.88
469.365	1255.88
469.585	1257.88
469.804	1241.88
470.023	1265.88
470.243	1304.88
470.462	1264.88
470.681	1239.88
470.901	1234.88
471.12	1260.88
471.339	1250.88
471.558	1228.88
471.777	1192.88
471.997	1235.88
472.216	1219.88
472.435	1157.88
472.654	1159.88
472.873	1199.88
473.092	1283.88
473.311	1198.88
473.53	1150.88
473.749	1192.88
473.968	1178.88
474.187	1238.88
474.406	1267.88
474.625	1218.88
474.844	1260.88
475.063	1222.88
475.282	1274.88
475.501	1206.88
475.72	1209.88
475.939	1321.88
476.158	1282.88
476.377	1239.88
476.596	1237.88
476.814	1232.88
477.033	1240.88
477.252	1243.88
477.471	1316.88
477.69	1303.88
477.908	1293.88
478.127	1371.88
478.346	1470.88
478.564	1444.88
478.783	1410.88
479.002	1433.88
479.22	1437.88
479.439	1502.88
479.658	1620.88
479.876	1581.88
480.095	1416.88
480.313	1355.88
480.532	1301.88
480.751	1344.88
480.969	1330.88
481.188	1274.88
481.406	1259.88
481.624	1257.88
481.843	1291.88
482.061	1326.88
482.28	1366.88
482.498	1376.88
482.717	1328.88
482.935	1311.88
483.153	1376.88
483.372	1405.88
483.59	1383.88
483.808	1375.88
484.027	1371.88
484.245	1513.88
484.463	1764.88
484.681	1924.88
484.9	1481.88
485.118	1379.88
485.336	1338.88
485.554	1400.88
485.772	1420.88
485.99	1407.88
486.209	1410.88
486.427	1364.88
486.645	1376.88
486.863	1442.88
487.081	1494.88
487.299	1491.88
487.517	1469.88
487.735	1469.88
487.953	1521.88
488.171	1534.88
488.389	1466.88
488.607	1466.88
488.825	1664.88
489.043	1556.88
489.261	1456.88
489.479	1493.88
489.696	1491.88
489.914	1460.88
490.132	1491.88
490.35	1456.88
490.568	1579.88
490.786	1518.88
491.003	1493.88
491.221	1563.88
491.439	1590.88
491.657	1616.88
491.874	1625.88
492.092	1699.88
492.31	1735.88
492.527	1701.88
492.745	1650.88
492.963	1625.88
493.18	1650.88
493.398	1779.88
493.615	1746.88
493.833	1612.88
494.05	1584.88
494.268	1585.88
494.485	1604.88
494.703	1595.88
494.92	1578.88
495.138	1582.88
495.355	1601.88
495.573	1625.88
495.79	1716.88
496.008	1682.88
496.225	1578.88
496.442	1591.88
496.66	1601.88
496.877	1619.88
497.094	1686.88
497.312	1678.88
497.529	1626.88
497.746	1670.88
497.963	1887.88
498.181	2020.88
498.398	1954.88
498.615	1907.88
498.832	1804.88
499.049	1835.88
499.267	1828.88
499.484	1938.88
499.701	2054.88
499.918	2063.88
500.135	2258.88
500.352	2381.88
500.569	2366.88
500.786	2566.88
501.003	2353.88
501.22	2122.88
501.437	2096.88
501.654	2181.88
501.871	2016.88
502.088	1794.88
502.305	1808.88
502.522	1686.88
502.739	1597.88
502.956	1601.88
503.172	1588.88
503.389	1529.88
503.606	1495.88
503.823	1521.88
504.04	1498.88
504.256	1532.88
504.473	1498.88
504.69	1532.88
504.907	1467.88
505.123	1432.88
505.34	1574.88
505.557	2049.88
505.773	1668.88
505.99	1426.88
506.207	1323.88
506.423	1358.88
506.64	1266.88
506.856	1339.88
507.073	1547.88
507.289	1660.88
507.506	1536.88
507.722	1340.88
507.939	1267.88
508.155	1280.88
508.372	1303.88
508.588	1232.88
508.805	1205.88
509.021	1204.88
509.238	1204.88
509.454	1168.88
509.67	1152.88
509.887	1149.88
510.103	1193.88
510.319	1183.88
510.536	1231.88
510.752	1255.88
510.968	1226.88
511.184	1271.88
511.401	1248.88
511.617	1149.88
511.833	1127.88
512.049	1113.88
512.265	1103.88
512.481	1100.88
512.698	1179.88
512.914	1216.88
513.13	1170.88
513.346	1136.88
513.562	1106.88
513.778	1120.88
513.994	1206.88
514.21	1199.88
514.426	1244.88
514.642	1308.88
514.858	1258.88
515.074	1149.88
515.29	1138.88
515.506	1187.88
515.721	1192.88
515.937	1237.88
516.153	1331.88
516.369	1301.88
516.585	1219.88
516.801	1138.88
517.016	1156.88
517.232	1217.88
517.448	1220.88
517.664	1260.88
517.879	1251.88
518.095	1305.88
518.311	1204.88
518.527	1198.88
518.742	1190.88
518.958	1160.88
519.173	1171.88
519.389	1176.88
519.605	1223.88
519.82	1190.88
520.036	1208.88
520.251	1144.88
520.467	1194.88
520.682	1262.88
520.898	1307.88
521.113	1160.88
521.329	1150.88
521.544	1205.88
521.76	1161.88
521.975	1127.88
522.19	1115.88
522.406	1128.88
522.621	1428.88
522.836	1351.88
523.052	1152.88
523.267	1110.88
523.482	1114.88
523.698	1065.88
523.913	1081.88
524.128	1084.88
524.343	1197.88
524.559	1200.88
524.774	1097.88
524.989	1085.88
525.204	1071.88
525.419	1066.88
525.634	1070.88
525.849	1058.88
526.064	1096.88
526.28	1091.88
526.495	1009.88
526.71	991.88
526.925	1001.88
527.14	1008.88
527.355	966.88
527.57	981.88
527.785	1038.88
527.999	1028.88
528.214	1000.88
528.429	1007.88
528.644	1030.88
528.859	1107.88
529.074	1112.88
529.289	1107.88
529.503	1123.88
529.718	1095.88
529.933	1036.88
530.148	989.88
530.363	977.88
530.577	999.88
530.792	1004.88
531.007	1011.88
531.221	992.88
531.436	1022.88
531.651	1008.88
531.865	1050.88
532.08	1060.88
532.295	1003.88
532.509	950.88
532.724	951.88
532.938	1038.88
533.153	1073.88
533.367	1054.88
533.582	1050.88
533.796	1011.88
534.011	1013.88
534.225	1013.88
534.44	1010.88
534.654	999.88
534.868	1009.88
535.083	1050.88
535.297	1051.88
535.511	1010.88
535.726	1038.88
535.94	1006.88
536.154	985.88
536.369	958.88
536.583	950.88
536.797	962.88
537.011	976.88
537.225	934.88
537.44	914.88
537.654	986.88
537.868	932.88
538.082	916.88
538.296	914.88
538.51	937.88
538.724	954.88
538.938	976.88
539.153	1019.88
539.367	1013.88
539.581	982.88
539.795	995.88
540.009	981.88
540.222	939.88
540.436	1008.88
540.65	1088.88
540.864	1074.88
541.078	1064.88
541.292	1050.88
541.506	1096.88
541.72	1104.88
541.934	1164.88
542.147	1178.88
542.361	1149.88
542.575	1069.88
542.789	1044.88
543.002	986.88
543.216	959.88
543.43	1028.88
543.644	1070.88
543.857	1144.88
544.071	1139.88
544.285	1146.88
544.498	1090.88
544.712	1096.88
544.925	1132.88
545.139	1142.88
545.352	1098.88
545.566	1065.88
545.779	1070.88
545.993	1114.88
546.206	1105.88
546.42	1080.88
546.633	1082.88
546.847	1054.88
547.06	1061.88
547.274	1089.88
547.487	1110.88
547.7	1109.88
547.914	1084.88
548.127	1093.88
548.34	1078.88
548.554	1094.88
548.767	1042.88
548.98	1063.88
549.193	1104.88
549.407	1139.88
549.62	1141.88
549.833	1061.88
550.046	1074.88
550.259	1091.88
550.473	1046.88
550.686	1023.88
550.899	1026.88
551.112	1007.88
551.325	986.88
551.538	1053.88
551.751	1177.88
551.964	943.88
552.177	945.88
552.39	961.88
552.603	1028.88
552.816	1009.88
553.029	1065.88
553.242	1105.88
553.455	1066.88
553.667	1034.88
553.88	1040.88
554.093	1037.88
554.306	994.88
554.519	991.88
554.732	956.88
554.944	977.88
555.157	986.88
555.37	958.88
555.583	971.88
555.795	956.88
556.008	922.88
556.221	864.88
556.433	872.88
556.646	893.88
556.859	902.88
557.071	890.88
557.284	924.88
557.496	908.88
557.709	893.88
557.921	890.88
558.134	888.88
558.346	912.88
558.559	854.88
558.771	866.88
558.984	830.88
559.196	818.88
559.409	811.88
559.621	824.88
559.833	834.88
560.046	869.88
560.258	821.88
560.47	802.88
560.683	827.88
560.895	831.88
561.107	824.88
561.32	843.88
561.532	813.88
561.744	820.88
561.956	844.88
562.168	818.88
562.381	809.88
562.593	794.88
562.805	785.88
563.017	800.88
563.229	798.88
563.441	827.88
563.653	792.88
563.865	780.88
564.077	793.88
564.289	802.88
564.501	781.88
564.713	811.88
564.925	860.88
565.137	893.88
565.349	792.88
565.561	800.88
565.773	816.88
565.985	835.88
566.197	890.88
566.408	918.88
566.62	915.88
566.832	943.88
567.044	916.88
567.255	874.88
567.467	907.88
567.679	935.88
567.891	935.88
568.102	884.88
568.314	859.88
568.526	802.88
568.737	772.88
568.949	754.88
569.161	724.88
569.372	686.88
569.584	690.88
569.795	677.88
570.007	714.88
570.218	658.88
570.43	642.88
570.641	654.88
570.853	668.88
571.064	650.88
571.276	670.88
571.487	659.88
571.698	658.88
571.91	653.88
572.121	631.88
572.333	621.88
572.544	615.88
572.755	601.88
572.966	568.88
573.178	580.88
573.389	577.88
573.6	587.88
573.811	655.88
574.023	593.88
574.234	589.88
574.445	572.88
574.656	560.88
574.867	552.88
575.078	569.88
575.289	592.88
575.501	571.88
575.712	560.88
575.923	594.88
576.134	570.88
576.345	544.88
576.556	545.88
576.767	569.88
576.978	533.88
577.188	546.88
577.399	535.88
577.61	534.88
577.821	536.88
578.032	528.88
578.243	514.88
578.454	523.88
578.665	508.88
578.875	494.88
579.086	488.88
579.297	520.88
579.508	542.88
579.718	490.88
579.929	498.88
580.14	484.88
580.35	475.88
580.561	525.88
580.772	567.88
580.982	513.88
581.193	519.88
581.403	473.88
581.614	473.88
581.825	484.88
582.035	479.88
582.246	487.88
582.456	480.88
582.667	484.88
582.877	478.88
583.087	485.88
583.298	481.88
583.508	454.88
583.719	486.88
583.929	476.88
584.139	459.88
584.35	481.88
584.56	457.88
584.77	454.88
584.981	463.88
585.191	481.88
585.401	501.88
585.611	467.88
585.821	471.88
586.032	460.88
586.242	444.88
586.452	447.88
586.662	474.88
586.872	457.88
587.082	460.88
587.292	467.88
587.502	463.88
587.713	486.88
587.923	476.88
588.133	465.88
588.343	460.88
588.553	436.88
588.762	466.88
588.972	449.88
589.182	460.88
589.392	466.88
589.602	451.88
589.812	448.88
590.022	444.88
590.232	429.88
590.441	448.88
590.651	450.88
590.861	454.88
591.071	413.88
591.281	449.88
591.49	453.88
591.7	446.88
591.91	433.88
592.119	437.88
592.329	452.88
592.539	468.88
592.748	460.88
592.958	488.88
593.167	470.88
593.377	471.88
593.587	469.88
593.796	449.88
594.006	475.88
594.215	471.88
594.424	467.88
594.634	473.88
594.843	459.88
595.053	480.88
595.262	452.88
595.472	455.88
595.681	451.88
595.89	448.88
596.1	423.88
596.309	436.88
596.518	426.88
596.727	436.88
596.937	427.88
597.146	414.88
597.355	411.88
597.564	414.88
597.774	398.88
597.983	406.88
598.192	389.88
598.401	390.88
598.61	400.88
598.819	395.88
599.028	394.88
599.237	410.88
599.446	407.88
599.655	404.88
599.864	388.88
600.073	386.88
600.282	388.88
600.491	379.88
600.7	385.88
600.909	394.88
601.118	394.88
601.327	406.88
601.536	443.88
601.745	424.88
601.953	394.88
602.162	421.88
602.371	423.88
602.58	420.88
602.789	423.88
602.997	437.88
603.206	424.88
603.415	414.88
603.623	410.88
603.832	414.88
604.041	406.88
604.249	380.88
604.458	386.88
604.666	398.88
604.875	378.88
605.084	404.88
605.292	420.88
605.501	413.88
605.709	411.88
605.918	426.88
606.126	394.88
606.334	403.88
606.543	410.88
606.751	420.88
606.96	396.88
607.168	393.88
607.376	418.88
607.585	386.88
607.793	409.88
608.001	416.88
608.21	405.88
608.418	419.88
608.626	386.88
608.834	396.88
609.043	394.88
609.251	397.88
609.459	396.88
609.667	395.88
609.875	410.88
610.083	425.88
610.291	410.88
610.499	405.88
610.707	411.88
610.916	396.88
611.124	399.88
611.332	388.88
611.54	410.88
611.748	384.88
611.955	386.88
612.163	390.88
612.371	388.88
612.579	378.88
612.787	363.88
612.995	402.88
613.203	408.88
613.411	387.88
613.618	386.88
613.826	394.88
614.034	366.88
614.242	369.88
614.449	400.88
614.657	384.88
614.865	402.88
615.072	395.88
615.28	370.88
615.488	388.88
615.695	421.88
615.903	393.88
616.111	386.88
616.318	394.88
616.526	380.88
616.733	396.88
616.941	414.88
617.148	377.88
617.356	380.88
617.563	404.88
617.771	382.88
617.978	360.88
618.185	399.88
618.393	389.88
618.6	391.88
618.807	383.88
619.015	404.88
619.222	361.88
619.429	368.88
619.637	351.88
619.844	352.88
620.051	352.88
620.258	378.88
620.466	342.88
620.673	342.88
620.88	361.88
621.087	330.88
621.294	349.88
621.501	353.88
621.708	332.88
621.915	345.88
622.122	357.88
622.329	354.88
622.536	371.88
622.743	362.88
622.95	369.88
623.157	357.88
623.364	356.88
623.571	350.88
623.778	344.88
623.985	330.88
624.192	325.88
624.399	355.88
624.606	330.88
624.812	351.88
625.019	340.88
625.226	335.88
625.433	321.88
625.639	328.88
625.846	319.88
626.053	280.88
626.259	308.88
626.466	317.88
626.673	297.88
626.879	270.88
627.086	295.88
627.293	303.88
627.499	327.88
627.706	335.88
627.912	327.88
628.119	346.88
628.325	318.88
628.532	325.88
628.738	315.88
628.945	300.88
629.151	320.88
629.357	314.88
629.564	328.88
629.77	315.88
629.976	310.88
630.183	306.88
630.389	297.88
630.595	307.88
630.802	282.88
631.008	319.88
631.214	308.88
631.42	313.88
631.627	297.88
631.833	305.88
632.039	288.88
632.245	291.88
632.451	278.88
632.657	293.88
632.863	286.88
633.069	291.88
633.275	289.88
633.481	275.88
633.688	291.88
633.893	300.88
634.099	285.88
634.305	280.88
634.511	275.88
634.717	270.88
634.923	268.88
635.129	262.88
635.335	278.88
635.541	280.88
635.747	292.88
635.952	277.88
636.158	258.88
636.364	293.88
636.57	286.88
636.775	277.88
636.981	275.88
637.187	293.88
637.392	278.88
637.598	292.88
637.804	269.88
638.009	283.88
638.215	281.88
638.421	272.88
638.626	282.88
638.832	265.88
639.037	264.88
639.243	262.88
639.448	270.88
639.654	258.88
639.859	258.88
640.065	268.88
640.27	272.88
640.475	262.88
640.681	281.88
640.886	261.88
641.091	256.88
641.297	269.88
641.502	263.88
641.707	272.88
641.913	263.88
642.118	266.88
642.323	251.88
642.528	254.88
642.733	263.88
642.939	266.88
643.144	269.88
643.349	270.88
643.554	264.88
643.759	268.88
643.964	251.88
644.169	266.88
644.374	265.88
644.579	262.88
644.784	264.88
644.989	256.88
645.194	274.88
645.399	277.88
645.604	250.88
645.809	266.88
646.014	250.88
646.219	249.88
646.423	263.88
646.628	262.88
646.833	255.88
647.038	255.88
647.243	260.88
647.447	247.88
647.652	258.88
647.857	235.88
648.062	258.88
648.266	270.88
648.471	246.88
648.676	258.88
648.88	278.88
649.085	260.88
649.289	254.88
649.494	266.88
649.698	259.88
649.903	255.88
650.107	248.88
650.312	257.88
650.516	222.88
650.721	246.88
650.925	238.88
651.13	235.88
651.334	247.88
651.539	231.88
651.743	229.88
651.947	218.88
652.152	232.88
652.356	229.88
652.56	231.88
652.764	219.88
652.969	209.88
653.173	224.88
653.377	229.88
653.581	213.88
653.785	228.88
653.99	214.88
654.194	224.88
654.398	204.88
654.602	205.88
654.806	207.88
655.01	227.88
655.214	224.88
655.418	232.88
655.622	228.88
655.826	254.88
656.03	233.88
656.234	238.88
656.438	249.88
656.642	260.88
656.846	236.88
657.049	230.88
657.253	216.88
657.457	212.88
657.661	197.88
657.865	176.88
658.068	167.88
658.272	169.88
658.476	175.88
658.68	162.88
658.883	138.88
659.087	162.88
659.291	150.88
659.494	139.88
659.698	130.88
659.901	140.88
660.105	126.88
660.309	135.88
660.512	124.88
660.716	130.88
660.919	136.88
661.123	101.88
661.326	107.88
661.53	104.88
661.733	98.88
661.936	108.88
662.14	111.88
662.343	99.88
662.546	100.88
662.75	95.88
662.953	102.88
663.156	97.88
663.36	87.88
663.563	88.88
663.766	85.88
663.969	85.88
664.173	74.88
664.376	95.88
664.579	82.88
664.782	78.88
664.985	87.88
665.188	84.88
665.391	76.88
665.594	85.88
665.797	85.88
666	72.88
666.203	85.88
666.406	85.88
666.609	90.88
666.812	82.88
667.015	82.88
667.218	87.88
667.421	76.88
667.624	83.88
667.827	87.88
668.03	70.88
668.232	83.88
668.435	78.88
668.638	81.88
668.841	103.88
669.043	86.88
669.246	88.88
669.449	79.88
669.651	96.88
669.854	89.88
670.057	86.88
670.259	84.88
670.462	74.88
670.665	93.88
670.867	95.88
671.07	82.88
671.272	90.88
671.475	74.88
671.677	75.88
671.88	77.88
672.082	72.88
672.284	68.88
672.487	85.88
672.689	90.88
672.892	76.88
