Data from WStandard_LampEnergy8_LIBS07252019.E.O._I.C._HRD10591_15-58-29-929.txt Node
Date: Thu Jul 25 15:58:29 EDT 2019
User: cochatt
Spectrometer: HR+D1059
Trigger mode: 1
Integration Time (sec): 1.000000E-1
Scans to average: 1
Electric dark correction enabled: true
Nonlinearity correction enabled: false
Boxcar width: 0
XAxis mode: Wavelengths
Number of Pixels in Spectrum: 2048
>>>>>Begin Spectral Data<<<<<
223.165	-25.5
223.4	-25.5
223.635	-25.5
223.869	-16.5
224.104	-15.5
224.338	-23.5
224.573	-21.5
224.808	-1.5
225.042	-24.5
225.277	-6.5
225.511	5.5
225.746	-0.5
225.98	16.5
226.215	13.5
226.449	13.5
226.683	23.5
226.918	31.5
227.152	31.5
227.387	28.5
227.621	38.5
227.856	53.5
228.09	42.5
228.324	58.5
228.559	54.5
228.793	104.5
229.027	209.5
229.262	201.5
229.496	215.5
229.73	231.5
229.964	238.5
230.199	260.5
230.433	284.5
230.667	279.5
230.901	298.5
231.136	268.5
231.37	266.5
231.604	256.5
231.838	263.5
232.072	256.5
232.306	272.5
232.541	281.5
232.775	310.5
233.009	322.5
233.243	339.5
233.477	294.5
233.711	303.5
233.945	319.5
234.179	308.5
234.413	338.5
234.647	329.5
234.881	325.5
235.115	310.5
235.349	310.5
235.583	309.5
235.817	306.5
236.051	279.5
236.285	299.5
236.519	307.5
236.753	337.5
236.987	346.5
237.221	363.5
237.455	393.5
237.689	359.5
237.922	344.5
238.156	346.5
238.39	348.5
238.624	387.5
238.858	402.5
239.091	390.5
239.325	434.5
239.559	485.5
239.793	476.5
240.027	517.5
240.26	500.5
240.494	382.5
240.728	373.5
240.961	382.5
241.195	390.5
241.429	436.5
241.662	435.5
241.896	382.5
242.13	414.5
242.363	437.5
242.597	456.5
242.83	453.5
243.064	458.5
243.298	474.5
243.531	454.5
243.765	440.5
243.998	459.5
244.232	436.5
244.465	387.5
244.699	420.5
244.932	463.5
245.166	511.5
245.399	475.5
245.633	446.5
245.866	440.5
246.099	453.5
246.333	468.5
246.566	501.5
246.8	525.5
247.033	588.5
247.266	549.5
247.5	510.5
247.733	534.5
247.966	535.5
248.2	604.5
248.433	588.5
248.666	611.5
248.899	664.5
249.133	760.5
249.366	798.5
249.599	677.5
249.832	615.5
250.066	601.5
250.299	637.5
250.532	576.5
250.765	552.5
250.998	591.5
251.231	598.5
251.465	595.5
251.698	552.5
251.931	584.5
252.164	587.5
252.397	619.5
252.63	620.5
252.863	554.5
253.096	535.5
253.329	559.5
253.562	575.5
253.795	629.5
254.028	627.5
254.261	582.5
254.494	568.5
254.727	552.5
254.96	594.5
255.193	629.5
255.426	709.5
255.659	771.5
255.892	793.5
256.124	674.5
256.357	647.5
256.59	687.5
256.823	704.5
257.056	730.5
257.289	820.5
257.521	870.5
257.754	803.5
257.987	776.5
258.22	822.5
258.452	816.5
258.685	669.5
258.918	670.5
259.151	664.5
259.383	648.5
259.616	586.5
259.849	631.5
260.081	686.5
260.314	742.5
260.547	802.5
260.779	822.5
261.012	744.5
261.244	686.5
261.477	671.5
261.71	694.5
261.942	654.5
262.175	673.5
262.407	725.5
262.64	686.5
262.872	618.5
263.105	622.5
263.337	626.5
263.57	642.5
263.802	639.5
264.035	577.5
264.267	580.5
264.499	570.5
264.732	596.5
264.964	658.5
265.197	670.5
265.429	698.5
265.661	726.5
265.894	858.5
266.126	847.5
266.358	770.5
266.591	806.5
266.823	842.5
267.055	791.5
267.287	785.5
267.52	751.5
267.752	739.5
267.984	774.5
268.216	743.5
268.448	791.5
268.681	789.5
268.913	748.5
269.145	688.5
269.377	699.5
269.609	766.5
269.841	903.5
270.073	1011.5
270.306	1086.5
270.538	1083.5
270.77	949.5
271.002	846.5
271.234	805.5
271.466	841.5
271.698	943.5
271.93	1035.5
272.162	1021.5
272.394	950.5
272.626	880.5
272.858	804.5
273.09	714.5
273.322	684.5
273.553	668.5
273.785	686.5
274.017	704.5
274.249	750.5
274.481	759.5
274.713	703.5
274.945	693.5
275.176	684.5
275.408	674.5
275.64	682.5
275.872	678.5
276.104	741.5
276.335	825.5
276.567	882.5
276.799	866.5
277.031	832.5
277.262	811.5
277.494	802.5
277.726	895.5
277.957	865.5
278.189	823.5
278.421	744.5
278.652	741.5
278.884	743.5
279.115	750.5
279.347	742.5
279.579	735.5
279.81	755.5
280.042	796.5
280.273	901.5
280.505	894.5
280.736	869.5
280.968	810.5
281.199	752.5
281.431	731.5
281.662	732.5
281.894	707.5
282.125	745.5
282.356	764.5
282.588	758.5
282.819	759.5
283.051	824.5
283.282	876.5
283.513	861.5
283.745	736.5
283.976	691.5
284.207	758.5
284.439	720.5
284.67	741.5
284.901	734.5
285.132	780.5
285.364	757.5
285.595	773.5
285.826	758.5
286.057	752.5
286.288	771.5
286.52	778.5
286.751	838.5
286.982	862.5
287.213	765.5
287.444	724.5
287.675	752.5
287.906	791.5
288.138	840.5
288.369	794.5
288.6	748.5
288.831	730.5
289.062	738.5
289.293	764.5
289.524	762.5
289.755	770.5
289.986	791.5
290.217	717.5
290.448	755.5
290.679	766.5
290.91	765.5
291.141	814.5
291.371	845.5
291.602	812.5
291.833	828.5
292.064	808.5
292.295	809.5
292.526	841.5
292.757	842.5
292.987	852.5
293.218	833.5
293.449	877.5
293.68	989.5
293.91	1004.5
294.141	948.5
294.372	885.5
294.603	938.5
294.833	967.5
295.064	905.5
295.295	832.5
295.525	822.5
295.756	768.5
295.987	732.5
296.217	760.5
296.448	755.5
296.679	794.5
296.909	787.5
297.14	777.5
297.37	784.5
297.601	843.5
297.831	879.5
298.062	849.5
298.292	840.5
298.523	775.5
298.753	787.5
298.984	788.5
299.214	811.5
299.445	816.5
299.675	831.5
299.905	827.5
300.136	816.5
300.366	783.5
300.597	758.5
300.827	805.5
301.057	849.5
301.288	884.5
301.518	838.5
301.748	849.5
301.979	926.5
302.209	918.5
302.439	985.5
302.669	992.5
302.9	933.5
303.13	857.5
303.36	858.5
303.59	863.5
303.82	833.5
304.051	856.5
304.281	882.5
304.511	890.5
304.741	930.5
304.971	1029.5
305.201	1064.5
305.431	951.5
305.661	809.5
305.891	749.5
306.121	761.5
306.352	786.5
306.582	862.5
306.812	911.5
307.042	944.5
307.272	937.5
307.502	978.5
307.731	1019.5
307.961	1061.5
308.191	986.5
308.421	895.5
308.651	828.5
308.881	857.5
309.111	803.5
309.341	816.5
309.571	825.5
309.8	818.5
310.03	792.5
310.26	810.5
310.49	824.5
310.72	841.5
310.949	892.5
311.179	853.5
311.409	848.5
311.639	860.5
311.868	843.5
312.098	845.5
312.328	832.5
312.557	842.5
312.787	871.5
313.017	897.5
313.246	896.5
313.476	863.5
313.706	872.5
313.935	894.5
314.165	909.5
314.394	938.5
314.624	984.5
314.853	1037.5
315.083	1057.5
315.312	1083.5
315.542	967.5
315.771	898.5
316.001	892.5
316.23	972.5
316.46	942.5
316.689	926.5
316.919	884.5
317.148	891.5
317.377	886.5
317.607	978.5
317.836	1046.5
318.065	1061.5
318.295	1013.5
318.524	999.5
318.753	956.5
318.983	931.5
319.212	925.5
319.441	895.5
319.67	912.5
319.9	922.5
320.129	988.5
320.358	1008.5
320.587	1034.5
320.816	1032.5
321.046	990.5
321.275	962.5
321.504	965.5
321.733	1024.5
321.962	966.5
322.191	935.5
322.42	928.5
322.649	908.5
322.878	902.5
323.108	933.5
323.337	955.5
323.566	959.5
323.795	949.5
324.024	953.5
324.253	892.5
324.482	933.5
324.71	918.5
324.939	875.5
325.168	910.5
325.397	928.5
325.626	948.5
325.855	944.5
326.084	932.5
326.313	914.5
326.542	962.5
326.77	975.5
326.999	974.5
327.228	911.5
327.457	862.5
327.686	877.5
327.914	878.5
328.143	909.5
328.372	930.5
328.6	952.5
328.829	894.5
329.058	893.5
329.287	919.5
329.515	947.5
329.744	971.5
329.972	996.5
330.201	1020.5
330.43	994.5
330.658	964.5
330.887	957.5
331.115	983.5
331.344	988.5
331.572	972.5
331.801	971.5
332.03	1006.5
332.258	984.5
332.486	982.5
332.715	1008.5
332.943	999.5
333.172	957.5
333.4	1030.5
333.629	1001.5
333.857	1109.5
334.085	1213.5
334.314	1338.5
334.542	1456.5
334.771	1287.5
334.999	1150.5
335.227	1100.5
335.455	1077.5
335.684	1065.5
335.912	1070.5
336.14	1082.5
336.369	1046.5
336.597	1020.5
336.825	1007.5
337.053	1036.5
337.281	1058.5
337.51	1157.5
337.738	1166.5
337.966	1077.5
338.194	1034.5
338.422	980.5
338.65	964.5
338.878	958.5
339.106	984.5
339.334	951.5
339.562	905.5
339.79	951.5
340.018	971.5
340.246	1063.5
340.474	1053.5
340.702	1016.5
340.93	1038.5
341.158	990.5
341.386	979.5
341.614	994.5
341.842	975.5
342.07	979.5
342.298	995.5
342.526	995.5
342.754	971.5
342.981	954.5
343.209	991.5
343.437	916.5
343.665	970.5
343.893	1040.5
344.12	1039.5
344.348	1052.5
344.576	1007.5
344.804	987.5
345.031	971.5
345.259	958.5
345.487	943.5
345.714	905.5
345.942	908.5
346.17	919.5
346.397	920.5
346.625	953.5
346.853	904.5
347.08	899.5
347.308	906.5
347.535	906.5
347.763	940.5
347.99	918.5
348.218	938.5
348.445	927.5
348.673	917.5
348.9	963.5
349.128	976.5
349.355	992.5
349.583	966.5
349.81	889.5
350.037	857.5
350.265	867.5
350.492	894.5
350.72	891.5
350.947	943.5
351.174	943.5
351.402	865.5
351.629	890.5
351.856	843.5
352.083	842.5
352.311	880.5
352.538	903.5
352.765	914.5
352.992	949.5
353.22	922.5
353.447	884.5
353.674	894.5
353.901	903.5
354.128	924.5
354.355	895.5
354.583	935.5
354.81	957.5
355.037	981.5
355.264	946.5
355.491	948.5
355.718	931.5
355.945	914.5
356.172	919.5
356.399	905.5
356.626	876.5
356.853	944.5
357.08	1026.5
357.307	1109.5
357.534	1062.5
357.761	960.5
357.988	871.5
358.215	860.5
358.441	905.5
358.668	870.5
358.895	908.5
359.122	958.5
359.349	1008.5
359.576	988.5
359.802	940.5
360.029	894.5
360.256	877.5
360.483	898.5
360.709	928.5
360.936	947.5
361.163	1008.5
361.39	1110.5
361.616	1148.5
361.843	1094.5
362.07	1050.5
362.296	916.5
362.523	910.5
362.749	940.5
362.976	959.5
363.203	934.5
363.429	914.5
363.656	908.5
363.882	967.5
364.109	1034.5
364.335	1090.5
364.562	1015.5
364.788	982.5
365.015	931.5
365.241	901.5
365.468	957.5
365.694	976.5
365.92	997.5
366.147	943.5
366.373	918.5
366.599	898.5
366.826	911.5
367.052	914.5
367.278	920.5
367.505	954.5
367.731	957.5
367.957	936.5
368.184	1003.5
368.41	1021.5
368.636	1040.5
368.862	1050.5
369.089	1055.5
369.315	986.5
369.541	971.5
369.767	969.5
369.993	922.5
370.219	926.5
370.445	986.5
370.672	1024.5
370.898	1080.5
371.124	1052.5
371.35	978.5
371.576	1006.5
371.802	1038.5
372.028	966.5
372.254	969.5
372.48	966.5
372.706	949.5
372.932	944.5
373.158	960.5
373.384	994.5
373.61	1010.5
373.835	1028.5
374.061	1019.5
374.287	967.5
374.513	1006.5
374.739	994.5
374.965	1018.5
375.191	1001.5
375.416	1022.5
375.642	1047.5
375.868	1060.5
376.094	1120.5
376.319	1067.5
376.545	982.5
376.771	1058.5
376.997	1046.5
377.222	1063.5
377.448	1032.5
377.674	1076.5
377.899	1069.5
378.125	1102.5
378.35	1054.5
378.576	1002.5
378.802	969.5
379.027	982.5
379.253	966.5
379.478	996.5
379.704	984.5
379.929	994.5
380.155	1011.5
380.38	996.5
380.606	999.5
380.831	1038.5
381.057	1079.5
381.282	1072.5
381.507	1056.5
381.733	1132.5
381.958	1158.5
382.184	1040.5
382.409	1035.5
382.634	1060.5
382.86	1020.5
383.085	1036.5
383.31	1063.5
383.535	1178.5
383.761	1236.5
383.986	1153.5
384.211	1107.5
384.436	1138.5
384.662	1160.5
384.887	1186.5
385.112	1138.5
385.337	1155.5
385.562	1144.5
385.787	1135.5
386.013	1143.5
386.238	1160.5
386.463	1168.5
386.688	1255.5
386.913	1306.5
387.138	1241.5
387.363	1175.5
387.588	1174.5
387.813	1148.5
388.038	1180.5
388.263	1238.5
388.488	1135.5
388.713	1081.5
388.938	1109.5
389.163	1109.5
389.387	1120.5
389.612	1116.5
389.837	1128.5
390.062	1170.5
390.287	1123.5
390.512	1147.5
390.736	1078.5
390.961	1090.5
391.186	1067.5
391.411	1102.5
391.636	1112.5
391.86	1168.5
392.085	1131.5
392.31	1118.5
392.534	1113.5
392.759	1142.5
392.984	1138.5
393.208	1150.5
393.433	1191.5
393.658	1202.5
393.882	1194.5
394.107	1138.5
394.331	1122.5
394.556	1114.5
394.78	1149.5
395.005	1168.5
395.229	1237.5
395.454	1286.5
395.678	1300.5
395.903	1234.5
396.127	1208.5
396.352	1251.5
396.576	1264.5
396.801	1256.5
397.025	1250.5
397.249	1213.5
397.474	1215.5
397.698	1199.5
397.922	1262.5
398.147	1304.5
398.371	1361.5
398.595	1351.5
398.82	1281.5
399.044	1330.5
399.268	1394.5
399.492	1455.5
399.717	1460.5
399.941	1469.5
400.165	1450.5
400.389	1424.5
400.613	1467.5
400.837	1609.5
401.062	1829.5
401.286	1548.5
401.51	1445.5
401.734	1476.5
401.958	1407.5
402.182	1310.5
402.406	1285.5
402.63	1288.5
402.854	1302.5
403.078	1309.5
403.302	1318.5
403.526	1359.5
403.75	1335.5
403.974	1333.5
404.198	1348.5
404.422	1382.5
404.645	1489.5
404.869	1439.5
405.093	1310.5
405.317	1333.5
405.541	1339.5
405.765	1366.5
405.988	1340.5
406.212	1380.5
406.436	1428.5
406.66	1462.5
406.883	1491.5
407.107	1699.5
407.331	1800.5
407.555	1902.5
407.778	1654.5
408.002	1439.5
408.226	1430.5
408.449	1407.5
408.673	1406.5
408.896	1367.5
409.12	1348.5
409.344	1355.5
409.567	1311.5
409.791	1354.5
410.014	1406.5
410.238	1500.5
410.461	1547.5
410.685	1367.5
410.908	1325.5
411.132	1349.5
411.355	1348.5
411.578	1337.5
411.802	1354.5
412.025	1352.5
412.249	1335.5
412.472	1277.5
412.695	1283.5
412.919	1310.5
413.142	1263.5
413.365	1299.5
413.589	1340.5
413.812	1383.5
414.035	1446.5
414.258	1334.5
414.482	1342.5
414.705	1335.5
414.928	1292.5
415.151	1299.5
415.374	1306.5
415.597	1333.5
415.821	1290.5
416.044	1341.5
416.267	1324.5
416.49	1238.5
416.713	1222.5
416.936	1282.5
417.159	1362.5
417.382	1361.5
417.605	1298.5
417.828	1312.5
418.051	1356.5
418.274	1294.5
418.497	1269.5
418.72	1267.5
418.943	1286.5
419.166	1328.5
419.389	1383.5
419.611	1345.5
419.834	1289.5
420.057	1312.5
420.28	1314.5
420.503	1283.5
420.726	1316.5
420.948	1317.5
421.171	1297.5
421.394	1302.5
421.617	1324.5
421.839	1326.5
422.062	1315.5
422.285	1267.5
422.507	1251.5
422.73	1219.5
422.953	1215.5
423.175	1222.5
423.398	1275.5
423.621	1270.5
423.843	1266.5
424.066	1348.5
424.288	1418.5
424.511	1405.5
424.733	1372.5
424.956	1256.5
425.178	1223.5
425.401	1248.5
425.623	1262.5
425.846	1257.5
426.068	1327.5
426.291	1327.5
426.513	1335.5
426.735	1305.5
426.958	1423.5
427.18	1490.5
427.402	1334.5
427.625	1432.5
427.847	1412.5
428.069	1299.5
428.292	1242.5
428.514	1228.5
428.736	1224.5
428.958	1238.5
429.181	1278.5
429.403	1466.5
429.625	1711.5
429.847	1469.5
430.069	1278.5
430.292	1407.5
430.514	1458.5
430.736	1355.5
430.958	1394.5
431.18	1333.5
431.402	1232.5
431.624	1204.5
431.846	1166.5
432.068	1131.5
432.29	1165.5
432.512	1186.5
432.734	1285.5
432.956	1260.5
433.178	1332.5
433.4	1304.5
433.622	1310.5
433.844	1256.5
434.066	1207.5
434.287	1152.5
434.509	1183.5
434.731	1261.5
434.953	1362.5
435.175	1340.5
435.397	1268.5
435.618	1268.5
435.84	1237.5
436.062	1208.5
436.284	1272.5
436.505	1271.5
436.727	1288.5
436.949	1249.5
437.17	1235.5
437.392	1243.5
437.614	1207.5
437.835	1133.5
438.057	1224.5
438.278	1268.5
438.5	1238.5
438.721	1229.5
438.943	1227.5
439.165	1203.5
439.386	1214.5
439.608	1247.5
439.829	1241.5
440.05	1257.5
440.272	1233.5
440.493	1238.5
440.715	1280.5
440.936	1342.5
441.158	1412.5
441.379	1410.5
441.6	1379.5
441.822	1362.5
442.043	1327.5
442.264	1302.5
442.486	1249.5
442.707	1252.5
442.928	1301.5
443.149	1284.5
443.371	1350.5
443.592	1381.5
443.813	1380.5
444.034	1344.5
444.255	1338.5
444.476	1386.5
444.698	1384.5
444.919	1392.5
445.14	1472.5
445.361	1464.5
445.582	1430.5
445.803	1414.5
446.024	1353.5
446.245	1425.5
446.466	1393.5
446.687	1341.5
446.908	1327.5
447.129	1313.5
447.35	1334.5
447.571	1274.5
447.792	1235.5
448.013	1256.5
448.234	1266.5
448.455	1319.5
448.675	1288.5
448.896	1220.5
449.117	1165.5
449.338	1210.5
449.559	1259.5
449.779	1350.5
450	1395.5
450.221	1455.5
450.442	1435.5
450.662	1285.5
450.883	1178.5
451.104	1143.5
451.324	1173.5
451.545	1217.5
451.766	1180.5
451.986	1140.5
452.207	1130.5
452.428	1098.5
452.648	1087.5
452.869	1120.5
453.089	1154.5
453.31	1155.5
453.53	1154.5
453.751	1099.5
453.971	1060.5
454.192	1101.5
454.412	1165.5
454.633	1135.5
454.853	1096.5
455.073	1032.5
455.294	1053.5
455.514	1078.5
455.734	1054.5
455.955	1080.5
456.175	1083.5
456.395	1045.5
456.616	1084.5
456.836	1126.5
457.056	1094.5
457.276	1081.5
457.497	1043.5
457.717	1008.5
457.937	1073.5
458.157	1054.5
458.377	1037.5
458.598	1023.5
458.818	1046.5
459.038	1120.5
459.258	1166.5
459.478	1136.5
459.698	1115.5
459.918	1146.5
460.138	1214.5
460.358	1226.5
460.578	1240.5
460.798	1282.5
461.018	1332.5
461.238	1306.5
461.458	1284.5
461.678	1253.5
461.898	1215.5
462.118	1198.5
462.338	1251.5
462.558	1260.5
462.777	1230.5
462.997	1304.5
463.217	1361.5
463.437	1314.5
463.657	1242.5
463.876	1253.5
464.096	1238.5
464.316	1275.5
464.536	1298.5
464.755	1294.5
464.975	1294.5
465.195	1284.5
465.414	1297.5
465.634	1314.5
465.854	1297.5
466.073	1384.5
466.293	1335.5
466.512	1195.5
466.732	1202.5
466.951	1258.5
467.171	1228.5
467.391	1182.5
467.61	1197.5
467.829	1215.5
468.049	1327.5
468.268	1430.5
468.488	1311.5
468.707	1244.5
468.927	1216.5
469.146	1202.5
469.365	1229.5
469.585	1247.5
469.804	1215.5
470.023	1245.5
470.243	1225.5
470.462	1231.5
470.681	1173.5
470.901	1225.5
471.12	1247.5
471.339	1223.5
471.558	1202.5
471.777	1199.5
471.997	1182.5
472.216	1187.5
472.435	1119.5
472.654	1143.5
472.873	1150.5
473.092	1212.5
473.311	1162.5
473.53	1118.5
473.749	1124.5
473.968	1155.5
474.187	1214.5
474.406	1246.5
474.625	1228.5
474.844	1206.5
475.063	1214.5
475.282	1224.5
475.501	1195.5
475.72	1236.5
475.939	1278.5
476.158	1260.5
476.377	1213.5
476.596	1250.5
476.814	1236.5
477.033	1194.5
477.252	1241.5
477.471	1285.5
477.69	1268.5
477.908	1289.5
478.127	1361.5
478.346	1414.5
478.564	1422.5
478.783	1424.5
479.002	1434.5
479.22	1397.5
479.439	1463.5
479.658	1536.5
479.876	1490.5
480.095	1365.5
480.313	1330.5
480.532	1330.5
480.751	1312.5
480.969	1288.5
481.188	1278.5
481.406	1229.5
481.624	1229.5
481.843	1259.5
482.061	1286.5
482.28	1318.5
482.498	1339.5
482.717	1304.5
482.935	1282.5
483.153	1358.5
483.372	1374.5
483.59	1350.5
483.808	1379.5
484.027	1352.5
484.245	1439.5
484.463	1738.5
484.681	1883.5
484.9	1458.5
485.118	1341.5
485.336	1319.5
485.554	1363.5
485.772	1347.5
485.99	1363.5
486.209	1384.5
486.427	1344.5
486.645	1380.5
486.863	1373.5
487.081	1467.5
487.299	1461.5
487.517	1434.5
487.735	1488.5
487.953	1515.5
488.171	1512.5
488.389	1469.5
488.607	1449.5
488.825	1613.5
489.043	1535.5
489.261	1383.5
489.479	1466.5
489.696	1492.5
489.914	1454.5
490.132	1408.5
490.35	1423.5
490.568	1526.5
490.786	1481.5
491.003	1460.5
491.221	1560.5
491.439	1582.5
491.657	1564.5
491.874	1616.5
492.092	1676.5
492.31	1700.5
492.527	1624.5
492.745	1586.5
492.963	1577.5
493.18	1631.5
493.398	1658.5
493.615	1685.5
493.833	1588.5
494.05	1551.5
494.268	1552.5
494.485	1567.5
494.703	1558.5
494.92	1506.5
495.138	1587.5
495.355	1545.5
495.573	1588.5
495.79	1663.5
496.008	1685.5
496.225	1586.5
496.442	1625.5
496.66	1641.5
496.877	1575.5
497.094	1654.5
497.312	1624.5
497.529	1629.5
497.746	1635.5
497.963	1843.5
498.181	1924.5
498.398	1864.5
498.615	1856.5
498.832	1718.5
499.049	1780.5
499.267	1778.5
499.484	1851.5
499.701	2041.5
499.918	2058.5
500.135	2176.5
500.352	2344.5
500.569	2323.5
500.786	2486.5
501.003	2316.5
501.22	2062.5
501.437	2030.5
501.654	2121.5
501.871	1989.5
502.088	1768.5
502.305	1745.5
502.522	1675.5
502.739	1573.5
502.956	1553.5
503.172	1526.5
503.389	1512.5
503.606	1473.5
503.823	1441.5
504.04	1479.5
504.256	1486.5
504.473	1500.5
504.69	1500.5
504.907	1428.5
505.123	1402.5
505.34	1508.5
505.557	1983.5
505.773	1632.5
505.99	1376.5
506.207	1310.5
506.423	1252.5
506.64	1245.5
506.856	1314.5
507.073	1506.5
507.289	1614.5
507.506	1483.5
507.722	1307.5
507.939	1215.5
508.155	1229.5
508.372	1224.5
508.588	1218.5
508.805	1179.5
509.021	1149.5
509.238	1158.5
509.454	1139.5
509.67	1142.5
509.887	1143.5
510.103	1135.5
510.319	1159.5
510.536	1194.5
510.752	1200.5
510.968	1220.5
511.184	1250.5
511.401	1221.5
511.617	1113.5
511.833	1086.5
512.049	1097.5
512.265	1087.5
512.481	1100.5
512.698	1141.5
512.914	1226.5
513.13	1194.5
513.346	1080.5
513.562	1078.5
513.778	1080.5
513.994	1162.5
514.21	1203.5
514.426	1202.5
514.642	1256.5
514.858	1254.5
515.074	1159.5
515.29	1135.5
515.506	1170.5
515.721	1171.5
515.937	1182.5
516.153	1266.5
516.369	1252.5
516.585	1178.5
516.801	1120.5
517.016	1129.5
517.232	1173.5
517.448	1195.5
517.664	1213.5
517.879	1211.5
518.095	1253.5
518.311	1218.5
518.527	1167.5
518.742	1159.5
518.958	1125.5
519.173	1142.5
519.389	1168.5
519.605	1168.5
519.82	1198.5
520.036	1180.5
520.251	1134.5
520.467	1146.5
520.682	1247.5
520.898	1218.5
521.113	1146.5
521.329	1094.5
521.544	1178.5
521.76	1132.5
521.975	1076.5
522.19	1091.5
522.406	1093.5
522.621	1379.5
522.836	1350.5
523.052	1086.5
523.267	1096.5
523.482	1112.5
523.698	1092.5
523.913	1070.5
524.128	1055.5
524.343	1186.5
524.559	1172.5
524.774	1114.5
524.989	1084.5
525.204	1059.5
525.419	1039.5
525.634	1053.5
525.849	1062.5
526.064	1047.5
526.28	1062.5
526.495	1006.5
526.71	987.5
526.925	984.5
527.14	991.5
527.355	960.5
527.57	954.5
527.785	992.5
527.999	1002.5
528.214	978.5
528.429	1004.5
528.644	1007.5
528.859	1035.5
529.074	1087.5
529.289	1102.5
529.503	1115.5
529.718	1072.5
529.933	1028.5
530.148	960.5
530.363	978.5
530.577	983.5
530.792	976.5
531.007	977.5
531.221	968.5
531.436	968.5
531.651	1010.5
531.865	1051.5
532.08	1010.5
532.295	975.5
532.509	939.5
532.724	932.5
532.938	1029.5
533.153	1022.5
533.367	1032.5
533.582	1054.5
533.796	996.5
534.011	1020.5
534.225	1016.5
534.44	966.5
534.654	962.5
534.868	991.5
535.083	1012.5
535.297	1019.5
535.511	994.5
535.726	1007.5
535.94	974.5
536.154	987.5
536.369	965.5
536.583	904.5
536.797	954.5
537.011	963.5
537.225	925.5
537.44	930.5
537.654	979.5
537.868	935.5
538.082	870.5
538.296	901.5
538.51	893.5
538.724	930.5
538.938	940.5
539.153	986.5
539.367	993.5
539.581	973.5
539.795	981.5
540.009	961.5
540.222	951.5
540.436	959.5
540.65	1043.5
540.864	1098.5
541.078	1055.5
541.292	1029.5
541.506	1050.5
541.72	1078.5
541.934	1133.5
542.147	1176.5
542.361	1146.5
542.575	1039.5
542.789	1014.5
543.002	967.5
543.216	974.5
543.43	1007.5
543.644	1080.5
543.857	1130.5
544.071	1110.5
544.285	1114.5
544.498	1072.5
544.712	1086.5
544.925	1088.5
545.139	1109.5
545.352	1092.5
545.566	1064.5
545.779	1040.5
545.993	1094.5
546.206	1062.5
546.42	1055.5
546.633	1051.5
546.847	1047.5
547.06	1067.5
547.274	1080.5
547.487	1105.5
547.7	1101.5
547.914	1105.5
548.127	1095.5
548.34	1086.5
548.554	1044.5
548.767	1070.5
548.98	1049.5
549.193	1040.5
549.407	1088.5
549.62	1099.5
549.833	1053.5
550.046	1063.5
550.259	1061.5
550.473	1028.5
550.686	1031.5
550.899	998.5
551.112	991.5
551.325	964.5
551.538	1054.5
551.751	1153.5
551.964	935.5
552.177	908.5
552.39	960.5
552.603	1021.5
552.816	1009.5
553.029	1049.5
553.242	1067.5
553.455	1061.5
553.667	1056.5
553.88	1038.5
554.093	1022.5
554.306	992.5
554.519	973.5
554.732	963.5
554.944	943.5
555.157	997.5
555.37	958.5
555.583	965.5
555.795	945.5
556.008	886.5
556.221	891.5
556.433	875.5
556.646	878.5
556.859	850.5
557.071	858.5
557.284	855.5
557.496	870.5
557.709	876.5
557.921	865.5
558.134	888.5
558.346	868.5
558.559	872.5
558.771	846.5
558.984	819.5
559.196	832.5
559.409	800.5
559.621	813.5
559.833	819.5
560.046	838.5
560.258	830.5
560.47	827.5
560.683	797.5
560.895	801.5
561.107	803.5
561.32	803.5
561.532	820.5
561.744	811.5
561.956	805.5
562.168	826.5
562.381	809.5
562.593	781.5
562.805	806.5
563.017	746.5
563.229	810.5
563.441	824.5
563.653	784.5
563.865	799.5
564.077	774.5
564.289	776.5
564.501	807.5
564.713	815.5
564.925	839.5
565.137	878.5
565.349	774.5
565.561	777.5
565.773	812.5
565.985	830.5
566.197	851.5
566.408	924.5
566.62	926.5
566.832	889.5
567.044	894.5
567.255	874.5
567.467	893.5
567.679	914.5
567.891	937.5
568.102	885.5
568.314	849.5
568.526	803.5
568.737	762.5
568.949	740.5
569.161	682.5
569.372	683.5
569.584	662.5
569.795	695.5
570.007	666.5
570.218	636.5
570.43	648.5
570.641	646.5
570.853	639.5
571.064	655.5
571.276	660.5
571.487	646.5
571.698	641.5
571.91	658.5
572.121	641.5
572.333	627.5
572.544	621.5
572.755	584.5
572.966	583.5
573.178	571.5
573.389	584.5
573.6	590.5
573.811	647.5
574.023	589.5
574.234	580.5
574.445	548.5
574.656	582.5
574.867	551.5
575.078	558.5
575.289	573.5
575.501	575.5
575.712	548.5
575.923	579.5
576.134	567.5
576.345	554.5
576.556	550.5
576.767	539.5
576.978	536.5
577.188	526.5
577.399	553.5
577.61	547.5
577.821	527.5
578.032	509.5
578.243	519.5
578.454	521.5
578.665	516.5
578.875	511.5
579.086	490.5
579.297	510.5
579.508	520.5
579.718	504.5
579.929	499.5
580.14	488.5
580.35	485.5
580.561	510.5
580.772	556.5
580.982	527.5
581.193	513.5
581.403	473.5
581.614	489.5
581.825	456.5
582.035	495.5
582.246	469.5
582.456	480.5
582.667	516.5
582.877	498.5
583.087	481.5
583.298	463.5
583.508	469.5
583.719	455.5
583.929	481.5
584.139	466.5
584.35	450.5
584.56	464.5
584.77	474.5
584.981	438.5
585.191	461.5
585.401	484.5
585.611	464.5
585.821	470.5
586.032	467.5
586.242	440.5
586.452	441.5
586.662	458.5
586.872	449.5
587.082	436.5
587.292	445.5
587.502	472.5
587.713	458.5
587.923	436.5
588.133	438.5
588.343	458.5
588.553	453.5
588.762	428.5
588.972	451.5
589.182	443.5
589.392	451.5
589.602	467.5
589.812	446.5
590.022	451.5
590.232	420.5
590.441	470.5
590.651	435.5
590.861	424.5
591.071	429.5
591.281	444.5
591.49	440.5
591.7	444.5
591.91	468.5
592.119	462.5
592.329	447.5
592.539	453.5
592.748	455.5
592.958	452.5
593.167	472.5
593.377	474.5
593.587	473.5
593.796	468.5
594.006	465.5
594.215	486.5
594.424	468.5
594.634	468.5
594.843	461.5
595.053	474.5
595.262	461.5
595.472	438.5
595.681	450.5
595.89	425.5
596.1	434.5
596.309	438.5
596.518	429.5
596.727	450.5
596.937	421.5
597.146	422.5
597.355	412.5
597.564	412.5
597.774	394.5
597.983	404.5
598.192	411.5
598.401	411.5
598.61	377.5
598.819	389.5
599.028	409.5
599.237	390.5
599.446	414.5
599.655	399.5
599.864	398.5
600.073	400.5
600.282	377.5
600.491	380.5
600.7	370.5
600.909	380.5
601.118	411.5
601.327	405.5
601.536	412.5
601.745	407.5
601.953	409.5
602.162	419.5
602.371	408.5
602.58	414.5
602.789	404.5
602.997	423.5
603.206	416.5
603.415	424.5
603.623	405.5
603.832	390.5
604.041	386.5
604.249	376.5
604.458	378.5
604.666	383.5
604.875	400.5
605.084	386.5
605.292	391.5
605.501	422.5
605.709	423.5
605.918	401.5
606.126	414.5
606.334	390.5
606.543	404.5
606.751	417.5
606.96	404.5
607.168	398.5
607.376	396.5
607.585	390.5
607.793	405.5
608.001	395.5
608.21	402.5
608.418	404.5
608.626	403.5
608.834	409.5
609.043	382.5
609.251	408.5
609.459	395.5
609.667	396.5
609.875	398.5
610.083	393.5
610.291	384.5
610.499	411.5
610.707	389.5
610.916	396.5
611.124	400.5
611.332	394.5
611.54	400.5
611.748	395.5
611.955	390.5
612.163	383.5
612.371	397.5
612.579	367.5
612.787	386.5
612.995	390.5
613.203	403.5
613.411	406.5
613.618	400.5
613.826	377.5
614.034	390.5
614.242	388.5
614.449	387.5
614.657	412.5
614.865	404.5
615.072	382.5
615.28	388.5
615.488	396.5
615.695	400.5
615.903	388.5
616.111	391.5
616.318	400.5
616.526	373.5
616.733	401.5
616.941	390.5
617.148	384.5
617.356	390.5
617.563	370.5
617.771	380.5
617.978	360.5
618.185	379.5
618.393	380.5
618.6	382.5
618.807	366.5
619.015	384.5
619.222	374.5
619.429	375.5
619.637	354.5
619.844	352.5
620.051	337.5
620.258	379.5
620.466	344.5
620.673	355.5
620.88	347.5
621.087	352.5
621.294	359.5
621.501	336.5
621.708	351.5
621.915	358.5
622.122	369.5
622.329	357.5
622.536	351.5
622.743	359.5
622.95	338.5
623.157	357.5
623.364	358.5
623.571	356.5
623.778	362.5
623.985	357.5
624.192	361.5
624.399	336.5
624.606	356.5
624.812	327.5
625.019	323.5
625.226	339.5
625.433	334.5
625.639	320.5
625.846	307.5
626.053	300.5
626.259	299.5
626.466	285.5
626.673	280.5
626.879	282.5
627.086	277.5
627.293	309.5
627.499	323.5
627.706	327.5
627.912	337.5
628.119	301.5
628.325	326.5
628.532	324.5
628.738	334.5
628.945	331.5
629.151	308.5
629.357	317.5
629.564	318.5
629.77	303.5
629.976	318.5
630.183	293.5
630.389	309.5
630.595	298.5
630.802	294.5
631.008	301.5
631.214	295.5
631.42	311.5
631.627	287.5
631.833	275.5
632.039	300.5
632.245	300.5
632.451	284.5
632.657	283.5
632.863	312.5
633.069	307.5
633.275	275.5
633.481	275.5
633.688	286.5
633.893	285.5
634.099	289.5
634.305	277.5
634.511	261.5
634.717	274.5
634.923	270.5
635.129	273.5
635.335	252.5
635.541	263.5
635.747	285.5
635.952	258.5
636.158	279.5
636.364	292.5
636.57	289.5
636.775	280.5
636.981	285.5
637.187	289.5
637.392	301.5
637.598	298.5
637.804	283.5
638.009	259.5
638.215	266.5
638.421	267.5
638.626	267.5
638.832	300.5
639.037	278.5
639.243	280.5
639.448	258.5
639.654	254.5
639.859	268.5
640.065	246.5
640.27	278.5
640.475	261.5
640.681	270.5
640.886	263.5
641.091	284.5
641.297	278.5
641.502	270.5
641.707	287.5
641.913	241.5
642.118	275.5
642.323	287.5
642.528	276.5
642.733	264.5
642.939	249.5
643.144	269.5
643.349	261.5
643.554	277.5
643.759	282.5
643.964	250.5
644.169	246.5
644.374	261.5
644.579	270.5
644.784	266.5
644.989	267.5
645.194	270.5
645.399	266.5
645.604	251.5
645.809	243.5
646.014	266.5
646.219	256.5
646.423	265.5
646.628	282.5
646.833	291.5
647.038	248.5
647.243	253.5
647.447	266.5
647.652	260.5
647.857	264.5
648.062	275.5
648.266	254.5
648.471	272.5
648.676	252.5
648.88	260.5
649.085	264.5
649.289	248.5
649.494	249.5
649.698	260.5
649.903	256.5
650.107	246.5
650.312	242.5
650.516	254.5
650.721	242.5
650.925	248.5
651.13	262.5
651.334	257.5
651.539	238.5
651.743	246.5
651.947	229.5
652.152	248.5
652.356	218.5
652.56	241.5
652.764	219.5
652.969	241.5
653.173	239.5
653.377	234.5
653.581	234.5
653.785	215.5
653.99	219.5
654.194	237.5
654.398	231.5
654.602	212.5
654.806	203.5
655.01	219.5
655.214	218.5
655.418	222.5
655.622	239.5
655.826	227.5
656.03	236.5
656.234	236.5
656.438	264.5
656.642	274.5
656.846	251.5
657.049	228.5
657.253	222.5
657.457	229.5
657.661	200.5
657.865	219.5
658.068	171.5
658.272	159.5
658.476	173.5
658.68	158.5
658.883	153.5
659.087	151.5
659.291	160.5
659.494	132.5
659.698	138.5
659.901	140.5
660.105	138.5
660.309	139.5
660.512	135.5
660.716	138.5
660.919	119.5
661.123	128.5
661.326	117.5
661.53	108.5
661.733	106.5
661.936	107.5
662.14	108.5
662.343	114.5
662.546	113.5
662.75	88.5
662.953	89.5
663.156	93.5
663.36	99.5
663.563	92.5
663.766	87.5
663.969	87.5
664.173	82.5
664.376	80.5
664.579	96.5
664.782	67.5
664.985	95.5
665.188	75.5
665.391	87.5
665.594	85.5
665.797	78.5
666	92.5
666.203	88.5
666.406	89.5
666.609	102.5
666.812	89.5
667.015	88.5
667.218	91.5
667.421	77.5
667.624	85.5
667.827	102.5
668.03	82.5
668.232	79.5
668.435	79.5
668.638	93.5
668.841	83.5
669.043	86.5
669.246	93.5
669.449	77.5
669.651	84.5
669.854	93.5
670.057	83.5
670.259	83.5
670.462	94.5
670.665	82.5
670.867	80.5
671.07	92.5
671.272	83.5
671.475	85.5
671.677	80.5
671.88	70.5
672.082	87.5
672.284	94.5
672.487	89.5
672.689	86.5
672.892	80.5
