Data from WStandard_LampEnergy8_LIBS07252019.E.O._I.C._HRD10591_15-58-33-929.txt Node
Date: Thu Jul 25 15:58:33 EDT 2019
User: cochatt
Spectrometer: HR+D1059
Trigger mode: 1
Integration Time (sec): 1.000000E-1
Scans to average: 1
Electric dark correction enabled: true
Nonlinearity correction enabled: false
Boxcar width: 0
XAxis mode: Wavelengths
Number of Pixels in Spectrum: 2048
>>>>>Begin Spectral Data<<<<<
223.165	-10.25
223.4	-10.25
223.635	-10.25
223.869	-27.25
224.104	-19.25
224.338	-1.25
224.573	-13.25
224.808	-18.25
225.042	-21.25
225.277	-9.25
225.511	5.75
225.746	6.75
225.98	14.75
226.215	15.75
226.449	3.75
226.683	27.75
226.918	14.75
227.152	30.75
227.387	44.75
227.621	27.75
227.856	50.75
228.09	56.75
228.324	54.75
228.559	59.75
228.793	108.75
229.027	197.75
229.262	204.75
229.496	216.75
229.73	234.75
229.964	228.75
230.199	263.75
230.433	257.75
230.667	274.75
230.901	284.75
231.136	275.75
231.37	270.75
231.604	273.75
231.838	272.75
232.072	249.75
232.306	252.75
232.541	284.75
232.775	331.75
233.009	330.75
233.243	312.75
233.477	301.75
233.711	304.75
233.945	321.75
234.179	328.75
234.413	323.75
234.647	331.75
234.881	330.75
235.115	298.75
235.349	311.75
235.583	306.75
235.817	314.75
236.051	308.75
236.285	316.75
236.519	332.75
236.753	343.75
236.987	370.75
237.221	340.75
237.455	407.75
237.689	388.75
237.922	357.75
238.156	348.75
238.39	351.75
238.624	368.75
238.858	408.75
239.091	408.75
239.325	437.75
239.559	493.75
239.793	486.75
240.027	529.75
240.26	494.75
240.494	398.75
240.728	359.75
240.961	388.75
241.195	397.75
241.429	408.75
241.662	418.75
241.896	417.75
242.13	427.75
242.363	434.75
242.597	460.75
242.83	461.75
243.064	464.75
243.298	485.75
243.531	469.75
243.765	471.75
243.998	462.75
244.232	406.75
244.465	405.75
244.699	424.75
244.932	458.75
245.166	514.75
245.399	489.75
245.633	458.75
245.866	446.75
246.099	495.75
246.333	460.75
246.566	519.75
246.8	528.75
247.033	596.75
247.266	566.75
247.5	552.75
247.733	562.75
247.966	571.75
248.2	620.75
248.433	596.75
248.666	636.75
248.899	696.75
249.133	742.75
249.366	833.75
249.599	679.75
249.832	616.75
250.066	642.75
250.299	626.75
250.532	586.75
250.765	564.75
250.998	568.75
251.231	599.75
251.465	624.75
251.698	597.75
251.931	615.75
252.164	605.75
252.397	627.75
252.63	634.75
252.863	557.75
253.096	584.75
253.329	582.75
253.562	616.75
253.795	656.75
254.028	625.75
254.261	591.75
254.494	566.75
254.727	561.75
254.96	589.75
255.193	640.75
255.426	739.75
255.659	806.75
255.892	796.75
256.124	696.75
256.357	659.75
256.59	706.75
256.823	713.75
257.056	724.75
257.289	849.75
257.521	910.75
257.754	850.75
257.987	795.75
258.22	872.75
258.452	804.75
258.685	696.75
258.918	664.75
259.151	697.75
259.383	660.75
259.616	585.75
259.849	660.75
260.081	728.75
260.314	786.75
260.547	843.75
260.779	821.75
261.012	772.75
261.244	702.75
261.477	677.75
261.71	709.75
261.942	705.75
262.175	665.75
262.407	707.75
262.64	686.75
262.872	617.75
263.105	618.75
263.337	668.75
263.57	648.75
263.802	648.75
264.035	617.75
264.267	602.75
264.499	600.75
264.732	652.75
264.964	677.75
265.197	669.75
265.429	732.75
265.661	825.75
265.894	879.75
266.126	878.75
266.358	796.75
266.591	821.75
266.823	881.75
267.055	800.75
267.287	800.75
267.52	792.75
267.752	764.75
267.984	809.75
268.216	798.75
268.448	819.75
268.681	818.75
268.913	736.75
269.145	685.75
269.377	706.75
269.609	772.75
269.841	906.75
270.073	1039.75
270.306	1110.75
270.538	1136.75
270.77	966.75
271.002	842.75
271.234	832.75
271.466	830.75
271.698	947.75
271.93	1072.75
272.162	1080.75
272.394	956.75
272.626	917.75
272.858	808.75
273.09	722.75
273.322	718.75
273.553	703.75
273.785	721.75
274.017	728.75
274.249	774.75
274.481	796.75
274.713	715.75
274.945	724.75
275.176	716.75
275.408	709.75
275.64	707.75
275.872	684.75
276.104	744.75
276.335	867.75
276.567	961.75
276.799	920.75
277.031	848.75
277.262	828.75
277.494	844.75
277.726	917.75
277.957	882.75
278.189	807.75
278.421	761.75
278.652	772.75
278.884	757.75
279.115	744.75
279.347	740.75
279.579	751.75
279.81	756.75
280.042	849.75
280.273	916.75
280.505	886.75
280.736	892.75
280.968	842.75
281.199	745.75
281.431	745.75
281.662	736.75
281.894	733.75
282.125	779.75
282.356	760.75
282.588	794.75
282.819	793.75
283.051	868.75
283.282	910.75
283.513	826.75
283.745	749.75
283.976	739.75
284.207	747.75
284.439	780.75
284.67	784.75
284.901	802.75
285.132	803.75
285.364	813.75
285.595	793.75
285.826	771.75
286.057	767.75
286.288	774.75
286.52	820.75
286.751	867.75
286.982	876.75
287.213	805.75
287.444	753.75
287.675	758.75
287.906	799.75
288.138	866.75
288.369	808.75
288.6	769.75
288.831	740.75
289.062	752.75
289.293	778.75
289.524	798.75
289.755	807.75
289.986	818.75
290.217	750.75
290.448	758.75
290.679	803.75
290.91	807.75
291.141	814.75
291.371	830.75
291.602	812.75
291.833	826.75
292.064	861.75
292.295	880.75
292.526	866.75
292.757	892.75
292.987	858.75
293.218	823.75
293.449	896.75
293.68	988.75
293.91	1026.75
294.141	973.75
294.372	924.75
294.603	960.75
294.833	1003.75
295.064	952.75
295.295	832.75
295.525	816.75
295.756	763.75
295.987	745.75
296.217	761.75
296.448	777.75
296.679	821.75
296.909	804.75
297.14	787.75
297.37	809.75
297.601	853.75
297.831	916.75
298.062	894.75
298.292	837.75
298.523	806.75
298.753	816.75
298.984	806.75
299.214	805.75
299.445	838.75
299.675	829.75
299.905	859.75
300.136	827.75
300.366	771.75
300.597	774.75
300.827	810.75
301.057	825.75
301.288	880.75
301.518	881.75
301.748	919.75
301.979	937.75
302.209	973.75
302.439	992.75
302.669	999.75
302.9	950.75
303.13	882.75
303.36	871.75
303.59	890.75
303.82	866.75
304.051	873.75
304.281	908.75
304.511	913.75
304.741	986.75
304.971	1056.75
305.201	1084.75
305.431	961.75
305.661	813.75
305.891	753.75
306.121	768.75
306.352	821.75
306.582	861.75
306.812	950.75
307.042	966.75
307.272	966.75
307.502	1021.75
307.731	1083.75
307.961	1138.75
308.191	1017.75
308.421	898.75
308.651	842.75
308.881	818.75
309.111	852.75
309.341	834.75
309.571	871.75
309.8	832.75
310.03	826.75
310.26	859.75
310.49	842.75
310.72	867.75
310.949	905.75
311.179	909.75
311.409	871.75
311.639	866.75
311.868	853.75
312.098	859.75
312.328	846.75
312.557	868.75
312.787	888.75
313.017	890.75
313.246	866.75
313.476	877.75
313.706	924.75
313.935	916.75
314.165	905.75
314.394	943.75
314.624	996.75
314.853	1030.75
315.083	1095.75
315.312	1099.75
315.542	1009.75
315.771	922.75
316.001	936.75
316.23	998.75
316.46	968.75
316.689	937.75
316.919	890.75
317.148	892.75
317.377	937.75
317.607	984.75
317.836	1090.75
318.065	1121.75
318.295	1062.75
318.524	1014.75
318.753	993.75
318.983	953.75
319.212	946.75
319.441	945.75
319.67	946.75
319.9	964.75
320.129	1001.75
320.358	1048.75
320.587	1035.75
320.816	1068.75
321.046	1045.75
321.275	969.75
321.504	981.75
321.733	1077.75
321.962	987.75
322.191	952.75
322.42	938.75
322.649	939.75
322.878	929.75
323.108	960.75
323.337	989.75
323.566	1005.75
323.795	957.75
324.024	985.75
324.253	955.75
324.482	966.75
324.71	928.75
324.939	912.75
325.168	920.75
325.397	941.75
325.626	991.75
325.855	995.75
326.084	942.75
326.313	926.75
326.542	963.75
326.77	992.75
326.999	990.75
327.228	937.75
327.457	890.75
327.686	888.75
327.914	930.75
328.143	937.75
328.372	970.75
328.6	940.75
328.829	913.75
329.058	940.75
329.287	913.75
329.515	950.75
329.744	997.75
329.972	1049.75
330.201	1058.75
330.43	1043.75
330.658	1022.75
330.887	1012.75
331.115	987.75
331.344	994.75
331.572	1014.75
331.801	989.75
332.03	999.75
332.258	989.75
332.486	1008.75
332.715	1029.75
332.943	1016.75
333.172	1011.75
333.4	983.75
333.629	1036.75
333.857	1106.75
334.085	1254.75
334.314	1440.75
334.542	1452.75
334.771	1324.75
334.999	1198.75
335.227	1108.75
335.455	1065.75
335.684	1095.75
335.912	1125.75
336.14	1136.75
336.369	1023.75
336.597	1029.75
336.825	1024.75
337.053	1065.75
337.281	1091.75
337.51	1173.75
337.738	1211.75
337.966	1110.75
338.194	1031.75
338.422	1008.75
338.65	993.75
338.878	978.75
339.106	951.75
339.334	953.75
339.562	960.75
339.79	982.75
340.018	1044.75
340.246	1083.75
340.474	1029.75
340.702	1051.75
340.93	1010.75
341.158	1033.75
341.386	1044.75
341.614	1046.75
341.842	1013.75
342.07	998.75
342.298	1012.75
342.526	987.75
342.754	1003.75
342.981	1004.75
343.209	1005.75
343.437	987.75
343.665	996.75
343.893	1033.75
344.12	1082.75
344.348	1057.75
344.576	1038.75
344.804	982.75
345.031	1032.75
345.259	1012.75
345.487	998.75
345.714	904.75
345.942	901.75
346.17	931.75
346.397	958.75
346.625	969.75
346.853	888.75
347.08	868.75
347.308	908.75
347.535	983.75
347.763	954.75
347.99	930.75
348.218	894.75
348.445	901.75
348.673	965.75
348.9	980.75
349.128	997.75
349.355	1001.75
349.583	999.75
349.81	949.75
350.037	882.75
350.265	879.75
350.492	903.75
350.72	916.75
350.947	970.75
351.174	948.75
351.402	931.75
351.629	878.75
351.856	882.75
352.083	844.75
352.311	903.75
352.538	928.75
352.765	954.75
352.992	944.75
353.22	926.75
353.447	926.75
353.674	927.75
353.901	948.75
354.128	922.75
354.355	913.75
354.583	977.75
354.81	961.75
355.037	924.75
355.264	921.75
355.491	959.75
355.718	955.75
355.945	950.75
356.172	909.75
356.399	870.75
356.626	898.75
356.853	940.75
357.08	1048.75
357.307	1148.75
357.534	1112.75
357.761	935.75
357.988	897.75
358.215	898.75
358.441	917.75
358.668	847.75
358.895	907.75
359.122	974.75
359.349	1068.75
359.576	1069.75
359.802	950.75
360.029	914.75
360.256	927.75
360.483	926.75
360.709	942.75
360.936	993.75
361.163	1036.75
361.39	1134.75
361.616	1194.75
361.843	1160.75
362.07	1054.75
362.296	949.75
362.523	938.75
362.749	934.75
362.976	958.75
363.203	987.75
363.429	978.75
363.656	920.75
363.882	975.75
364.109	1080.75
364.335	1125.75
364.562	1056.75
364.788	968.75
365.015	968.75
365.241	920.75
365.468	960.75
365.694	998.75
365.92	1018.75
366.147	968.75
366.373	902.75
366.599	895.75
366.826	924.75
367.052	920.75
367.278	952.75
367.505	958.75
367.731	979.75
367.957	978.75
368.184	1000.75
368.41	1058.75
368.636	1065.75
368.862	1079.75
369.089	1076.75
369.315	1026.75
369.541	995.75
369.767	972.75
369.993	939.75
370.219	968.75
370.445	990.75
370.672	1062.75
370.898	1080.75
371.124	1068.75
371.35	1002.75
371.576	1056.75
371.802	1046.75
372.028	1000.75
372.254	978.75
372.48	953.75
372.706	930.75
372.932	976.75
373.158	988.75
373.384	950.75
373.61	1025.75
373.835	1060.75
374.061	1005.75
374.287	993.75
374.513	1001.75
374.739	1002.75
374.965	1030.75
375.191	1033.75
375.416	1017.75
375.642	1064.75
375.868	1106.75
376.094	1133.75
376.319	1088.75
376.545	1044.75
376.771	1081.75
376.997	1114.75
377.222	1111.75
377.448	1056.75
377.674	1053.75
377.899	1054.75
378.125	1152.75
378.35	1080.75
378.576	1024.75
378.802	992.75
379.027	1014.75
379.253	984.75
379.478	1012.75
379.704	1003.75
379.929	1013.75
380.155	1002.75
380.38	1040.75
380.606	1017.75
380.831	1042.75
381.057	1100.75
381.282	1096.75
381.507	1067.75
381.733	1145.75
381.958	1184.75
382.184	1092.75
382.409	1034.75
382.634	1056.75
382.86	1058.75
383.085	1064.75
383.31	1145.75
383.535	1222.75
383.761	1240.75
383.986	1198.75
384.211	1129.75
384.436	1163.75
384.662	1229.75
384.887	1207.75
385.112	1148.75
385.337	1169.75
385.562	1146.75
385.787	1151.75
386.013	1170.75
386.238	1171.75
386.463	1189.75
386.688	1287.75
386.913	1357.75
387.138	1284.75
387.363	1196.75
387.588	1175.75
387.813	1164.75
388.038	1202.75
388.263	1246.75
388.488	1147.75
388.713	1076.75
388.938	1092.75
389.163	1088.75
389.387	1139.75
389.612	1162.75
389.837	1165.75
390.062	1131.75
390.287	1121.75
390.512	1160.75
390.736	1125.75
390.961	1109.75
391.186	1075.75
391.411	1117.75
391.636	1145.75
391.86	1153.75
392.085	1149.75
392.31	1160.75
392.534	1181.75
392.759	1166.75
392.984	1158.75
393.208	1156.75
393.433	1194.75
393.658	1278.75
393.882	1284.75
394.107	1172.75
394.331	1144.75
394.556	1187.75
394.78	1197.75
395.005	1232.75
395.229	1265.75
395.454	1366.75
395.678	1346.75
395.903	1242.75
396.127	1238.75
396.352	1232.75
396.576	1261.75
396.801	1285.75
397.025	1286.75
397.249	1255.75
397.474	1229.75
397.698	1243.75
397.922	1301.75
398.147	1344.75
398.371	1401.75
398.595	1406.75
398.82	1357.75
399.044	1308.75
399.268	1408.75
399.492	1496.75
399.717	1508.75
399.941	1532.75
400.165	1506.75
400.389	1457.75
400.613	1495.75
400.837	1727.75
401.062	1817.75
401.286	1514.75
401.51	1434.75
401.734	1516.75
401.958	1427.75
402.182	1365.75
402.406	1289.75
402.63	1304.75
402.854	1312.75
403.078	1300.75
403.302	1340.75
403.526	1360.75
403.75	1389.75
403.974	1404.75
404.198	1401.75
404.422	1424.75
404.645	1499.75
404.869	1431.75
405.093	1338.75
405.317	1324.75
405.541	1349.75
405.765	1357.75
405.988	1367.75
406.212	1423.75
406.436	1417.75
406.66	1507.75
406.883	1520.75
407.107	1694.75
407.331	1852.75
407.555	1960.75
407.778	1707.75
408.002	1483.75
408.226	1435.75
408.449	1428.75
408.673	1412.75
408.896	1418.75
409.12	1441.75
409.344	1406.75
409.567	1370.75
409.791	1371.75
410.014	1414.75
410.238	1507.75
410.461	1564.75
410.685	1419.75
410.908	1373.75
411.132	1394.75
411.355	1358.75
411.578	1365.75
411.802	1338.75
412.025	1385.75
412.249	1353.75
412.472	1352.75
412.695	1352.75
412.919	1309.75
413.142	1313.75
413.365	1348.75
413.589	1400.75
413.812	1460.75
414.035	1484.75
414.258	1351.75
414.482	1325.75
414.705	1319.75
414.928	1342.75
415.151	1336.75
415.374	1321.75
415.597	1369.75
415.821	1341.75
416.044	1394.75
416.267	1347.75
416.49	1267.75
416.713	1303.75
416.936	1329.75
417.159	1396.75
417.382	1404.75
417.605	1301.75
417.828	1356.75
418.051	1365.75
418.274	1319.75
418.497	1332.75
418.72	1310.75
418.943	1293.75
419.166	1347.75
419.389	1413.75
419.611	1352.75
419.834	1313.75
420.057	1332.75
420.28	1334.75
420.503	1320.75
420.726	1353.75
420.948	1306.75
421.171	1282.75
421.394	1290.75
421.617	1346.75
421.839	1371.75
422.062	1345.75
422.285	1316.75
422.507	1339.75
422.73	1250.75
422.953	1239.75
423.175	1223.75
423.398	1288.75
423.621	1293.75
423.843	1329.75
424.066	1384.75
424.288	1404.75
424.511	1420.75
424.733	1410.75
424.956	1224.75
425.178	1260.75
425.401	1308.75
425.623	1256.75
425.846	1270.75
426.068	1364.75
426.291	1322.75
426.513	1355.75
426.735	1382.75
426.958	1445.75
427.18	1514.75
427.402	1400.75
427.625	1405.75
427.847	1427.75
428.069	1296.75
428.292	1280.75
428.514	1247.75
428.736	1264.75
428.958	1249.75
429.181	1294.75
429.403	1509.75
429.625	1776.75
429.847	1513.75
430.069	1355.75
430.292	1472.75
430.514	1462.75
430.736	1356.75
430.958	1402.75
431.18	1312.75
431.402	1224.75
431.624	1225.75
431.846	1198.75
432.068	1173.75
432.29	1185.75
432.512	1223.75
432.734	1250.75
432.956	1302.75
433.178	1375.75
433.4	1332.75
433.622	1349.75
433.844	1283.75
434.066	1211.75
434.287	1195.75
434.509	1202.75
434.731	1268.75
434.953	1385.75
435.175	1359.75
435.397	1323.75
435.618	1333.75
435.84	1248.75
436.062	1250.75
436.284	1303.75
436.505	1282.75
436.727	1318.75
436.949	1284.75
437.17	1248.75
437.392	1249.75
437.614	1254.75
437.835	1210.75
438.057	1249.75
438.278	1243.75
438.5	1214.75
438.721	1240.75
438.943	1257.75
439.165	1242.75
439.386	1237.75
439.608	1261.75
439.829	1242.75
440.05	1279.75
440.272	1262.75
440.493	1258.75
440.715	1287.75
440.936	1369.75
441.158	1460.75
441.379	1426.75
441.6	1421.75
441.822	1383.75
442.043	1383.75
442.264	1292.75
442.486	1288.75
442.707	1272.75
442.928	1254.75
443.149	1304.75
443.371	1389.75
443.592	1404.75
443.813	1402.75
444.034	1385.75
444.255	1380.75
444.476	1399.75
444.698	1436.75
444.919	1435.75
445.14	1510.75
445.361	1491.75
445.582	1470.75
445.803	1430.75
446.024	1426.75
446.245	1448.75
446.466	1380.75
446.687	1364.75
446.908	1375.75
447.129	1311.75
447.35	1348.75
447.571	1295.75
447.792	1233.75
448.013	1243.75
448.234	1285.75
448.455	1346.75
448.675	1328.75
448.896	1188.75
449.117	1207.75
449.338	1248.75
449.559	1311.75
449.779	1344.75
450	1463.75
450.221	1530.75
450.442	1477.75
450.662	1309.75
450.883	1226.75
451.104	1189.75
451.324	1233.75
451.545	1218.75
451.766	1240.75
451.986	1131.75
452.207	1140.75
452.428	1105.75
452.648	1114.75
452.869	1133.75
453.089	1155.75
453.31	1176.75
453.53	1153.75
453.751	1129.75
453.971	1086.75
454.192	1081.75
454.412	1186.75
454.633	1142.75
454.853	1145.75
455.073	1062.75
455.294	1100.75
455.514	1096.75
455.734	1095.75
455.955	1083.75
456.175	1060.75
456.395	1093.75
456.616	1117.75
456.836	1142.75
457.056	1106.75
457.276	1076.75
457.497	1081.75
457.717	1044.75
457.937	1093.75
458.157	1083.75
458.377	1077.75
458.598	1058.75
458.818	1044.75
459.038	1129.75
459.258	1164.75
459.478	1167.75
459.698	1131.75
459.918	1218.75
460.138	1254.75
460.358	1246.75
460.578	1280.75
460.798	1331.75
461.018	1343.75
461.238	1291.75
461.458	1284.75
461.678	1251.75
461.898	1275.75
462.118	1222.75
462.338	1293.75
462.558	1274.75
462.777	1264.75
462.997	1343.75
463.217	1360.75
463.437	1388.75
463.657	1334.75
463.876	1280.75
464.096	1279.75
464.316	1255.75
464.536	1296.75
464.755	1330.75
464.975	1321.75
465.195	1292.75
465.414	1318.75
465.634	1317.75
465.854	1353.75
466.073	1462.75
466.293	1390.75
466.512	1220.75
466.732	1226.75
466.951	1286.75
467.171	1271.75
467.391	1224.75
467.61	1242.75
467.829	1241.75
468.049	1349.75
468.268	1485.75
468.488	1326.75
468.707	1272.75
468.927	1271.75
469.146	1227.75
469.365	1216.75
469.585	1267.75
469.804	1239.75
470.023	1248.75
470.243	1294.75
470.462	1248.75
470.681	1231.75
470.901	1262.75
471.12	1226.75
471.339	1250.75
471.558	1235.75
471.777	1210.75
471.997	1218.75
472.216	1198.75
472.435	1127.75
472.654	1153.75
472.873	1184.75
473.092	1269.75
473.311	1164.75
473.53	1146.75
473.749	1190.75
473.968	1204.75
474.187	1244.75
474.406	1277.75
474.625	1210.75
474.844	1245.75
475.063	1221.75
475.282	1249.75
475.501	1206.75
475.72	1224.75
475.939	1328.75
476.158	1268.75
476.377	1223.75
476.596	1242.75
476.814	1243.75
477.033	1256.75
477.252	1309.75
477.471	1325.75
477.69	1295.75
477.908	1310.75
478.127	1364.75
478.346	1442.75
478.564	1438.75
478.783	1400.75
479.002	1450.75
479.22	1436.75
479.439	1469.75
479.658	1609.75
479.876	1541.75
480.095	1395.75
480.313	1378.75
480.532	1304.75
480.751	1311.75
480.969	1328.75
481.188	1295.75
481.406	1258.75
481.624	1210.75
481.843	1305.75
482.061	1335.75
482.28	1336.75
482.498	1379.75
482.717	1346.75
482.935	1318.75
483.153	1372.75
483.372	1402.75
483.59	1372.75
483.808	1388.75
484.027	1410.75
484.245	1452.75
484.463	1763.75
484.681	1922.75
484.9	1464.75
485.118	1398.75
485.336	1373.75
485.554	1420.75
485.772	1428.75
485.99	1395.75
486.209	1420.75
486.427	1378.75
486.645	1400.75
486.863	1449.75
487.081	1485.75
487.299	1512.75
487.517	1494.75
487.735	1524.75
487.953	1551.75
488.171	1505.75
488.389	1485.75
488.607	1490.75
488.825	1608.75
489.043	1576.75
489.261	1386.75
489.479	1481.75
489.696	1486.75
489.914	1485.75
490.132	1432.75
490.35	1496.75
490.568	1570.75
490.786	1521.75
491.003	1506.75
491.221	1575.75
491.439	1632.75
491.657	1650.75
491.874	1624.75
492.092	1655.75
492.31	1707.75
492.527	1665.75
492.745	1644.75
492.963	1630.75
493.18	1675.75
493.398	1725.75
493.615	1705.75
493.833	1610.75
494.05	1580.75
494.268	1582.75
494.485	1631.75
494.703	1572.75
494.92	1570.75
495.138	1521.75
495.355	1608.75
495.573	1618.75
495.79	1653.75
496.008	1708.75
496.225	1622.75
496.442	1621.75
496.66	1666.75
496.877	1621.75
497.094	1648.75
497.312	1676.75
497.529	1656.75
497.746	1660.75
497.963	1897.75
498.181	2020.75
498.398	1916.75
498.615	1913.75
498.832	1810.75
499.049	1789.75
499.267	1783.75
499.484	1927.75
499.701	2074.75
499.918	2073.75
500.135	2232.75
500.352	2383.75
500.569	2432.75
500.786	2608.75
501.003	2354.75
501.22	2112.75
501.437	2124.75
501.654	2139.75
501.871	2056.75
502.088	1812.75
502.305	1792.75
502.522	1713.75
502.739	1578.75
502.956	1584.75
503.172	1583.75
503.389	1522.75
503.606	1485.75
503.823	1502.75
504.04	1514.75
504.256	1492.75
504.473	1524.75
504.69	1565.75
504.907	1477.75
505.123	1423.75
505.34	1563.75
505.557	2039.75
505.773	1679.75
505.99	1408.75
506.207	1291.75
506.423	1330.75
506.64	1360.75
506.856	1341.75
507.073	1522.75
507.289	1620.75
507.506	1544.75
507.722	1330.75
507.939	1269.75
508.155	1254.75
508.372	1261.75
508.588	1204.75
508.805	1220.75
509.021	1198.75
509.238	1172.75
509.454	1154.75
509.67	1173.75
509.887	1153.75
510.103	1145.75
510.319	1158.75
510.536	1205.75
510.752	1249.75
510.968	1189.75
511.184	1308.75
511.401	1276.75
511.617	1141.75
511.833	1136.75
512.049	1090.75
512.265	1118.75
512.481	1130.75
512.698	1163.75
512.914	1243.75
513.13	1194.75
513.346	1130.75
513.562	1107.75
513.778	1121.75
513.994	1176.75
514.21	1214.75
514.426	1209.75
514.642	1340.75
514.858	1264.75
515.074	1150.75
515.29	1121.75
515.506	1170.75
515.721	1194.75
515.937	1213.75
516.153	1312.75
516.369	1234.75
516.585	1225.75
516.801	1165.75
517.016	1171.75
517.232	1201.75
517.448	1223.75
517.664	1238.75
517.879	1240.75
518.095	1284.75
518.311	1223.75
518.527	1208.75
518.742	1178.75
518.958	1152.75
519.173	1131.75
519.389	1186.75
519.605	1197.75
519.82	1176.75
520.036	1192.75
520.251	1138.75
520.467	1188.75
520.682	1267.75
520.898	1250.75
521.113	1154.75
521.329	1170.75
521.544	1213.75
521.76	1154.75
521.975	1092.75
522.19	1118.75
522.406	1142.75
522.621	1413.75
522.836	1358.75
523.052	1119.75
523.267	1125.75
523.482	1101.75
523.698	1065.75
523.913	1067.75
524.128	1114.75
524.343	1176.75
524.559	1178.75
524.774	1112.75
524.989	1115.75
525.204	1083.75
525.419	1066.75
525.634	1060.75
525.849	1070.75
526.064	1096.75
526.28	1096.75
526.495	1033.75
526.71	1023.75
526.925	1014.75
527.14	1001.75
527.355	958.75
527.57	994.75
527.785	1027.75
527.999	1010.75
528.214	982.75
528.429	1021.75
528.644	1065.75
528.859	1057.75
529.074	1069.75
529.289	1120.75
529.503	1129.75
529.718	1090.75
529.933	1043.75
530.148	971.75
530.363	974.75
530.577	987.75
530.792	1001.75
531.007	1011.75
531.221	991.75
531.436	998.75
531.651	1039.75
531.865	1082.75
532.08	1034.75
532.295	988.75
532.509	932.75
532.724	983.75
532.938	1023.75
533.153	1084.75
533.367	1048.75
533.582	1062.75
533.796	1035.75
534.011	1052.75
534.225	1021.75
534.44	1002.75
534.654	982.75
534.868	1016.75
535.083	1048.75
535.297	1049.75
535.511	1021.75
535.726	1024.75
535.94	987.75
536.154	996.75
536.369	960.75
536.583	958.75
536.797	948.75
537.011	977.75
537.225	969.75
537.44	949.75
537.654	963.75
537.868	954.75
538.082	908.75
538.296	902.75
538.51	900.75
538.724	969.75
538.938	968.75
539.153	981.75
539.367	1026.75
539.581	977.75
539.795	993.75
540.009	986.75
540.222	957.75
540.436	1006.75
540.65	1075.75
540.864	1097.75
541.078	1056.75
541.292	1072.75
541.506	1103.75
541.72	1154.75
541.934	1160.75
542.147	1188.75
542.361	1140.75
542.575	1095.75
542.789	1012.75
543.002	988.75
543.216	964.75
543.43	1046.75
543.644	1067.75
543.857	1118.75
544.071	1122.75
544.285	1113.75
544.498	1096.75
544.712	1086.75
544.925	1142.75
545.139	1148.75
545.352	1117.75
545.566	1084.75
545.779	1053.75
545.993	1088.75
546.206	1086.75
546.42	1093.75
546.633	1088.75
546.847	1065.75
547.06	1108.75
547.274	1089.75
547.487	1083.75
547.7	1101.75
547.914	1119.75
548.127	1105.75
548.34	1130.75
548.554	1081.75
548.767	1061.75
548.98	1069.75
549.193	1088.75
549.407	1119.75
549.62	1131.75
549.833	1087.75
550.046	1090.75
550.259	1059.75
550.473	1063.75
550.686	1052.75
550.899	1028.75
551.112	1010.75
551.325	1011.75
551.538	1052.75
551.751	1146.75
551.964	932.75
552.177	956.75
552.39	993.75
552.603	1044.75
552.816	1021.75
553.029	1080.75
553.242	1093.75
553.455	1061.75
553.667	1040.75
553.88	1080.75
554.093	1009.75
554.306	1012.75
554.519	960.75
554.732	955.75
554.944	987.75
555.157	983.75
555.37	955.75
555.583	935.75
555.795	950.75
556.008	911.75
556.221	886.75
556.433	875.75
556.646	877.75
556.859	897.75
557.071	881.75
557.284	898.75
557.496	896.75
557.709	884.75
557.921	865.75
558.134	902.75
558.346	885.75
558.559	852.75
558.771	857.75
558.984	841.75
559.196	820.75
559.409	824.75
559.621	807.75
559.833	826.75
560.046	842.75
560.258	827.75
560.47	841.75
560.683	857.75
560.895	838.75
561.107	837.75
561.32	836.75
561.532	852.75
561.744	802.75
561.956	845.75
562.168	826.75
562.381	812.75
562.593	796.75
562.805	787.75
563.017	785.75
563.229	782.75
563.441	828.75
563.653	791.75
563.865	787.75
564.077	785.75
564.289	796.75
564.501	794.75
564.713	807.75
564.925	840.75
565.137	907.75
565.349	814.75
565.561	820.75
565.773	844.75
565.985	834.75
566.197	894.75
566.408	925.75
566.62	882.75
566.832	894.75
567.044	920.75
567.255	922.75
567.467	922.75
567.679	948.75
567.891	930.75
568.102	917.75
568.314	858.75
568.526	799.75
568.737	765.75
568.949	733.75
569.161	714.75
569.372	717.75
569.584	675.75
569.795	700.75
570.007	666.75
570.218	653.75
570.43	657.75
570.641	654.75
570.853	653.75
571.064	680.75
571.276	680.75
571.487	645.75
571.698	638.75
571.91	634.75
572.121	634.75
572.333	642.75
572.544	622.75
572.755	600.75
572.966	607.75
573.178	606.75
573.389	601.75
573.6	616.75
573.811	653.75
574.023	601.75
574.234	564.75
574.445	557.75
574.656	579.75
574.867	560.75
575.078	574.75
575.289	582.75
575.501	564.75
575.712	545.75
575.923	560.75
576.134	564.75
576.345	559.75
576.556	579.75
576.767	546.75
576.978	547.75
577.188	529.75
577.399	548.75
577.61	506.75
577.821	524.75
578.032	541.75
578.243	536.75
578.454	529.75
578.665	521.75
578.875	488.75
579.086	519.75
579.297	494.75
579.508	534.75
579.718	512.75
579.929	497.75
580.14	496.75
580.35	511.75
580.561	542.75
580.772	568.75
580.982	530.75
581.193	515.75
581.403	520.75
581.614	510.75
581.825	510.75
582.035	508.75
582.246	481.75
582.456	502.75
582.667	500.75
582.877	485.75
583.087	494.75
583.298	486.75
583.508	478.75
583.719	474.75
583.929	497.75
584.139	473.75
584.35	452.75
584.56	446.75
584.77	451.75
584.981	464.75
585.191	474.75
585.401	491.75
585.611	460.75
585.821	470.75
586.032	472.75
586.242	464.75
586.452	462.75
586.662	462.75
586.872	468.75
587.082	468.75
587.292	483.75
587.502	484.75
587.713	470.75
587.923	455.75
588.133	467.75
588.343	467.75
588.553	439.75
588.762	453.75
588.972	445.75
589.182	473.75
589.392	441.75
589.602	472.75
589.812	468.75
590.022	453.75
590.232	436.75
590.441	455.75
590.651	455.75
590.861	448.75
591.071	440.75
591.281	453.75
591.49	461.75
591.7	459.75
591.91	466.75
592.119	450.75
592.329	456.75
592.539	486.75
592.748	477.75
592.958	491.75
593.167	478.75
593.377	472.75
593.587	481.75
593.796	462.75
594.006	460.75
594.215	487.75
594.424	467.75
594.634	470.75
594.843	470.75
595.053	496.75
595.262	468.75
595.472	465.75
595.681	440.75
595.89	440.75
596.1	428.75
596.309	435.75
596.518	425.75
596.727	448.75
596.937	449.75
597.146	404.75
597.355	421.75
597.564	432.75
597.774	416.75
597.983	416.75
598.192	403.75
598.401	409.75
598.61	400.75
598.819	382.75
599.028	418.75
599.237	412.75
599.446	402.75
599.655	386.75
599.864	385.75
600.073	382.75
600.282	409.75
600.491	404.75
600.7	381.75
600.909	413.75
601.118	406.75
601.327	402.75
601.536	417.75
601.745	420.75
601.953	397.75
602.162	415.75
602.371	441.75
602.58	411.75
602.789	400.75
602.997	421.75
603.206	428.75
603.415	404.75
603.623	413.75
603.832	402.75
604.041	401.75
604.249	409.75
604.458	385.75
604.666	378.75
604.875	391.75
605.084	386.75
605.292	409.75
605.501	409.75
605.709	407.75
605.918	418.75
606.126	402.75
606.334	398.75
606.543	386.75
606.751	388.75
606.96	410.75
607.168	416.75
607.376	395.75
607.585	426.75
607.793	418.75
608.001	417.75
608.21	416.75
608.418	410.75
608.626	418.75
608.834	408.75
609.043	395.75
609.251	395.75
609.459	409.75
609.667	414.75
609.875	394.75
610.083	426.75
610.291	421.75
610.499	412.75
610.707	412.75
610.916	422.75
611.124	392.75
611.332	404.75
611.54	403.75
611.748	403.75
611.955	405.75
612.163	412.75
612.371	402.75
612.579	390.75
612.787	409.75
612.995	416.75
613.203	407.75
613.411	417.75
613.618	394.75
613.826	384.75
614.034	386.75
614.242	384.75
614.449	385.75
614.657	402.75
614.865	388.75
615.072	378.75
615.28	405.75
615.488	394.75
615.695	421.75
615.903	411.75
616.111	396.75
616.318	401.75
616.526	416.75
616.733	387.75
616.941	384.75
617.148	377.75
617.356	382.75
617.563	384.75
617.771	382.75
617.978	370.75
618.185	373.75
618.393	382.75
618.6	387.75
618.807	391.75
619.015	389.75
619.222	378.75
619.429	366.75
619.637	373.75
619.844	327.75
620.051	349.75
620.258	365.75
620.466	349.75
620.673	359.75
620.88	350.75
621.087	338.75
621.294	356.75
621.501	352.75
621.708	344.75
621.915	358.75
622.122	349.75
622.329	345.75
622.536	341.75
622.743	355.75
622.95	356.75
623.157	355.75
623.364	354.75
623.571	352.75
623.778	346.75
623.985	356.75
624.192	329.75
624.399	327.75
624.606	340.75
624.812	357.75
625.019	346.75
625.226	321.75
625.433	331.75
625.639	330.75
625.846	324.75
626.053	315.75
626.259	296.75
626.466	299.75
626.673	291.75
626.879	294.75
627.086	292.75
627.293	338.75
627.499	334.75
627.706	313.75
627.912	324.75
628.119	310.75
628.325	332.75
628.532	330.75
628.738	309.75
628.945	335.75
629.151	327.75
629.357	328.75
629.564	317.75
629.77	289.75
629.976	314.75
630.183	306.75
630.389	299.75
630.595	308.75
630.802	306.75
631.008	305.75
631.214	307.75
631.42	310.75
631.627	293.75
631.833	278.75
632.039	279.75
632.245	313.75
632.451	288.75
632.657	294.75
632.863	288.75
633.069	293.75
633.275	299.75
633.481	284.75
633.688	289.75
633.893	295.75
634.099	278.75
634.305	284.75
634.511	274.75
634.717	288.75
634.923	281.75
635.129	255.75
635.335	292.75
635.541	287.75
635.747	274.75
635.952	284.75
636.158	270.75
636.364	293.75
636.57	281.75
636.775	282.75
636.981	292.75
637.187	285.75
637.392	284.75
637.598	288.75
637.804	293.75
638.009	292.75
638.215	293.75
638.421	269.75
638.626	284.75
638.832	266.75
639.037	279.75
639.243	274.75
639.448	252.75
639.654	269.75
639.859	276.75
640.065	274.75
640.27	276.75
640.475	271.75
640.681	263.75
640.886	275.75
641.091	252.75
641.297	277.75
641.502	265.75
641.707	276.75
641.913	276.75
642.118	250.75
642.323	272.75
642.528	244.75
642.733	280.75
642.939	251.75
643.144	251.75
643.349	278.75
643.554	268.75
643.759	264.75
643.964	270.75
644.169	274.75
644.374	251.75
644.579	242.75
644.784	269.75
644.989	263.75
645.194	276.75
645.399	252.75
645.604	257.75
645.809	263.75
646.014	257.75
646.219	266.75
646.423	248.75
646.628	259.75
646.833	272.75
647.038	267.75
647.243	257.75
647.447	268.75
647.652	276.75
647.857	262.75
648.062	257.75
648.266	259.75
648.471	262.75
648.676	257.75
648.88	264.75
649.085	258.75
649.289	253.75
649.494	259.75
649.698	262.75
649.903	254.75
650.107	275.75
650.312	253.75
650.516	256.75
650.721	242.75
650.925	241.75
651.13	234.75
651.334	237.75
651.539	246.75
651.743	229.75
651.947	235.75
652.152	231.75
652.356	241.75
652.56	232.75
652.764	228.75
652.969	232.75
653.173	225.75
653.377	228.75
653.581	222.75
653.785	213.75
653.99	232.75
654.194	226.75
654.398	231.75
654.602	210.75
654.806	222.75
655.01	229.75
655.214	232.75
655.418	228.75
655.622	233.75
655.826	225.75
656.03	251.75
656.234	258.75
656.438	256.75
656.642	277.75
656.846	246.75
657.049	233.75
657.253	221.75
657.457	197.75
657.661	194.75
657.865	188.75
658.068	182.75
658.272	172.75
658.476	142.75
658.68	152.75
658.883	143.75
659.087	147.75
659.291	149.75
659.494	133.75
659.698	137.75
659.901	137.75
660.105	135.75
660.309	136.75
660.512	125.75
660.716	142.75
660.919	123.75
661.123	123.75
661.326	114.75
661.53	120.75
661.733	110.75
661.936	100.75
662.14	114.75
662.343	104.75
662.546	99.75
662.75	97.75
662.953	103.75
663.156	92.75
663.36	75.75
663.563	78.75
663.766	88.75
663.969	85.75
664.173	92.75
664.376	81.75
664.579	83.75
664.782	94.75
664.985	93.75
665.188	97.75
665.391	78.75
665.594	81.75
665.797	91.75
666	88.75
666.203	84.75
666.406	82.75
666.609	94.75
666.812	89.75
667.015	82.75
667.218	92.75
667.421	87.75
667.624	79.75
667.827	87.75
668.03	84.75
668.232	83.75
668.435	79.75
668.638	75.75
668.841	82.75
669.043	102.75
669.246	97.75
669.449	84.75
669.651	81.75
669.854	72.75
670.057	92.75
670.259	86.75
670.462	85.75
670.665	63.75
670.867	76.75
671.07	71.75
671.272	71.75
671.475	89.75
671.677	82.75
671.88	83.75
672.082	83.75
672.284	65.75
672.487	84.75
672.689	77.75
672.892	86.75
