Data from WStandard_LampEnergy10_LIBS07252019.E.O._I.C._HRD10591_15-53-01-928.txt Node
Date: Thu Jul 25 15:53:01 EDT 2019
User: cochatt
Spectrometer: HR+D1059
Trigger mode: 1
Integration Time (sec): 1.000000E-1
Scans to average: 1
Electric dark correction enabled: true
Nonlinearity correction enabled: false
Boxcar width: 0
XAxis mode: Wavelengths
Number of Pixels in Spectrum: 2048
>>>>>Begin Spectral Data<<<<<
223.165	-9.12
223.4	-9.12
223.635	-9.12
223.869	-5.12
224.104	-18.12
224.338	-26.12
224.573	-8.12
224.808	0.88
225.042	-11.12
225.277	-2.12
225.511	-3.12
225.746	12.88
225.98	-8.12
226.215	6.88
226.449	10.88
226.683	15.88
226.918	26.88
227.152	16.88
227.387	40.88
227.621	31.88
227.856	44.88
228.09	54.88
228.324	52.88
228.559	66.88
228.793	91.88
229.027	119.88
229.262	144.88
229.496	156.88
229.73	156.88
229.964	159.88
230.199	172.88
230.433	175.88
230.667	181.88
230.901	183.88
231.136	169.88
231.37	181.88
231.604	179.88
231.838	186.88
232.072	177.88
232.306	185.88
232.541	184.88
232.775	183.88
233.009	214.88
233.243	215.88
233.477	198.88
233.711	183.88
233.945	218.88
234.179	201.88
234.413	214.88
234.647	223.88
234.881	195.88
235.115	191.88
235.349	197.88
235.583	207.88
235.817	197.88
236.051	205.88
236.285	188.88
236.519	204.88
236.753	240.88
236.987	246.88
237.221	212.88
237.455	250.88
237.689	233.88
237.922	219.88
238.156	232.88
238.39	240.88
238.624	223.88
238.858	263.88
239.091	243.88
239.325	264.88
239.559	280.88
239.793	321.88
240.027	305.88
240.26	307.88
240.494	265.88
240.728	241.88
240.961	240.88
241.195	243.88
241.429	262.88
241.662	264.88
241.896	235.88
242.13	267.88
242.363	278.88
242.597	294.88
242.83	271.88
243.064	284.88
243.298	289.88
243.531	262.88
243.765	299.88
243.998	264.88
244.232	264.88
244.465	250.88
244.699	291.88
244.932	296.88
245.166	328.88
245.399	324.88
245.633	284.88
245.866	291.88
246.099	291.88
246.333	289.88
246.566	327.88
246.8	329.88
247.033	338.88
247.266	325.88
247.5	312.88
247.733	319.88
247.966	324.88
248.2	378.88
248.433	380.88
248.666	371.88
248.899	415.88
249.133	447.88
249.366	463.88
249.599	417.88
249.832	373.88
250.066	362.88
250.299	383.88
250.532	364.88
250.765	340.88
250.998	322.88
251.231	367.88
251.465	365.88
251.698	344.88
251.931	365.88
252.164	370.88
252.397	380.88
252.63	375.88
252.863	355.88
253.096	328.88
253.329	351.88
253.562	359.88
253.795	376.88
254.028	354.88
254.261	330.88
254.494	325.88
254.727	347.88
254.96	335.88
255.193	399.88
255.426	403.88
255.659	428.88
255.892	463.88
256.124	397.88
256.357	383.88
256.59	414.88
256.823	436.88
257.056	424.88
257.289	477.88
257.521	509.88
257.754	479.88
257.987	463.88
258.22	479.88
258.452	452.88
258.685	409.88
258.918	412.88
259.151	390.88
259.383	375.88
259.616	370.88
259.849	384.88
260.081	416.88
260.314	454.88
260.547	477.88
260.779	468.88
261.012	442.88
261.244	415.88
261.477	405.88
261.71	406.88
261.942	406.88
262.175	421.88
262.407	403.88
262.64	404.88
262.872	388.88
263.105	393.88
263.337	377.88
263.57	384.88
263.802	381.88
264.035	367.88
264.267	323.88
264.499	368.88
264.732	379.88
264.964	395.88
265.197	437.88
265.429	422.88
265.661	468.88
265.894	505.88
266.126	491.88
266.358	473.88
266.591	492.88
266.823	503.88
267.055	465.88
267.287	457.88
267.52	439.88
267.752	467.88
267.984	465.88
268.216	473.88
268.448	451.88
268.681	460.88
268.913	453.88
269.145	423.88
269.377	437.88
269.609	469.88
269.841	536.88
270.073	589.88
270.306	643.88
270.538	639.88
270.77	571.88
271.002	503.88
271.234	485.88
271.466	484.88
271.698	542.88
271.93	594.88
272.162	592.88
272.394	550.88
272.626	532.88
272.858	489.88
273.09	434.88
273.322	416.88
273.553	409.88
273.785	399.88
274.017	424.88
274.249	447.88
274.481	481.88
274.713	428.88
274.945	428.88
275.176	436.88
275.408	415.88
275.64	407.88
275.872	428.88
276.104	439.88
276.335	520.88
276.567	548.88
276.799	533.88
277.031	489.88
277.262	485.88
277.494	504.88
277.726	547.88
277.957	517.88
278.189	473.88
278.421	435.88
278.652	421.88
278.884	463.88
279.115	414.88
279.347	456.88
279.579	421.88
279.81	421.88
280.042	465.88
280.273	526.88
280.505	523.88
280.736	507.88
280.968	489.88
281.199	431.88
281.431	419.88
281.662	431.88
281.894	446.88
282.125	445.88
282.356	460.88
282.588	464.88
282.819	461.88
283.051	501.88
283.282	502.88
283.513	476.88
283.745	442.88
283.976	419.88
284.207	431.88
284.439	454.88
284.67	460.88
284.901	453.88
285.132	464.88
285.364	465.88
285.595	470.88
285.826	478.88
286.057	455.88
286.288	449.88
286.52	471.88
286.751	499.88
286.982	505.88
287.213	500.88
287.444	451.88
287.675	453.88
287.906	489.88
288.138	493.88
288.369	476.88
288.6	462.88
288.831	428.88
289.062	446.88
289.293	455.88
289.524	462.88
289.755	473.88
289.986	469.88
290.217	454.88
290.448	433.88
290.679	475.88
290.91	488.88
291.141	485.88
291.371	497.88
291.602	484.88
291.833	496.88
292.064	501.88
292.295	497.88
292.526	514.88
292.757	507.88
292.987	492.88
293.218	486.88
293.449	526.88
293.68	604.88
293.91	604.88
294.141	558.88
294.372	559.88
294.603	576.88
294.833	571.88
295.064	550.88
295.295	507.88
295.525	485.88
295.756	449.88
295.987	443.88
296.217	472.88
296.448	455.88
296.679	472.88
296.909	481.88
297.14	442.88
297.37	473.88
297.601	505.88
297.831	558.88
298.062	541.88
298.292	467.88
298.523	463.88
298.753	490.88
298.984	488.88
299.214	476.88
299.445	494.88
299.675	513.88
299.905	491.88
300.136	451.88
300.366	470.88
300.597	458.88
300.827	502.88
301.057	489.88
301.288	539.88
301.518	521.88
301.748	527.88
301.979	575.88
302.209	560.88
302.439	589.88
302.669	584.88
302.9	560.88
303.13	527.88
303.36	519.88
303.59	519.88
303.82	509.88
304.051	537.88
304.281	526.88
304.511	539.88
304.741	580.88
304.971	613.88
305.201	645.88
305.431	567.88
305.661	481.88
305.891	473.88
306.121	473.88
306.352	519.88
306.582	534.88
306.812	544.88
307.042	557.88
307.272	589.88
307.502	572.88
307.731	634.88
307.961	645.88
308.191	591.88
308.421	531.88
308.651	513.88
308.881	512.88
309.111	515.88
309.341	491.88
309.571	514.88
309.8	522.88
310.03	459.88
310.26	493.88
310.49	507.88
310.72	529.88
310.949	549.88
311.179	566.88
311.409	551.88
311.639	517.88
311.868	501.88
312.098	521.88
312.328	490.88
312.557	521.88
312.787	501.88
313.017	543.88
313.246	570.88
313.476	535.88
313.706	541.88
313.935	569.88
314.165	570.88
314.394	585.88
314.624	603.88
314.853	619.88
315.083	628.88
315.312	617.88
315.542	588.88
315.771	540.88
316.001	558.88
316.23	585.88
316.46	587.88
316.689	549.88
316.919	541.88
317.148	531.88
317.377	569.88
317.607	581.88
317.836	647.88
318.065	651.88
318.295	641.88
318.524	600.88
318.753	572.88
318.983	586.88
319.212	559.88
319.441	550.88
319.67	563.88
319.9	577.88
320.129	618.88
320.358	627.88
320.587	639.88
320.816	621.88
321.046	613.88
321.275	583.88
321.504	614.88
321.733	640.88
321.962	596.88
322.191	575.88
322.42	555.88
322.649	571.88
322.878	580.88
323.108	553.88
323.337	586.88
323.566	590.88
323.795	585.88
324.024	582.88
324.253	580.88
324.482	557.88
324.71	531.88
324.939	539.88
325.168	564.88
325.397	565.88
325.626	575.88
325.855	574.88
326.084	574.88
326.313	559.88
326.542	576.88
326.77	603.88
326.999	563.88
327.228	558.88
327.457	545.88
327.686	547.88
327.914	553.88
328.143	590.88
328.372	576.88
328.6	568.88
328.829	560.88
329.058	540.88
329.287	564.88
329.515	569.88
329.744	595.88
329.972	600.88
330.201	633.88
330.43	617.88
330.658	609.88
330.887	600.88
331.115	608.88
331.344	602.88
331.572	599.88
331.801	601.88
332.03	598.88
332.258	592.88
332.486	619.88
332.715	627.88
332.943	600.88
333.172	612.88
333.4	627.88
333.629	624.88
333.857	673.88
334.085	763.88
334.314	857.88
334.542	832.88
334.771	776.88
334.999	704.88
335.227	662.88
335.455	631.88
335.684	653.88
335.912	660.88
336.14	641.88
336.369	632.88
336.597	619.88
336.825	628.88
337.053	651.88
337.281	675.88
337.51	690.88
337.738	733.88
337.966	674.88
338.194	605.88
338.422	613.88
338.65	602.88
338.878	599.88
339.106	578.88
339.334	587.88
339.562	598.88
339.79	603.88
340.018	613.88
340.246	639.88
340.474	647.88
340.702	633.88
340.93	645.88
341.158	619.88
341.386	641.88
341.614	625.88
341.842	591.88
342.07	600.88
342.298	611.88
342.526	623.88
342.754	599.88
342.981	600.88
343.209	599.88
343.437	611.88
343.665	605.88
343.893	611.88
344.12	661.88
344.348	636.88
344.576	630.88
344.804	602.88
345.031	599.88
345.259	599.88
345.487	566.88
345.714	571.88
345.942	555.88
346.17	561.88
346.397	561.88
346.625	577.88
346.853	560.88
347.08	548.88
347.308	535.88
347.535	592.88
347.763	576.88
347.99	585.88
348.218	564.88
348.445	579.88
348.673	612.88
348.9	600.88
349.128	606.88
349.355	622.88
349.583	608.88
349.81	560.88
350.037	548.88
350.265	541.88
350.492	540.88
350.72	567.88
350.947	571.88
351.174	578.88
351.402	549.88
351.629	561.88
351.856	523.88
352.083	537.88
352.311	537.88
352.538	555.88
352.765	593.88
352.992	579.88
353.22	557.88
353.447	555.88
353.674	576.88
353.901	583.88
354.128	558.88
354.355	539.88
354.583	611.88
354.81	604.88
355.037	601.88
355.264	574.88
355.491	557.88
355.718	561.88
355.945	576.88
356.172	532.88
356.399	551.88
356.626	575.88
356.853	611.88
357.08	656.88
357.307	685.88
357.534	641.88
357.761	588.88
357.988	541.88
358.215	529.88
358.441	528.88
358.668	546.88
358.895	560.88
359.122	575.88
359.349	651.88
359.576	637.88
359.802	568.88
360.029	569.88
360.256	559.88
360.483	566.88
360.709	574.88
360.936	623.88
361.163	653.88
361.39	694.88
361.616	720.88
361.843	720.88
362.07	637.88
362.296	571.88
362.523	571.88
362.749	592.88
362.976	606.88
363.203	593.88
363.429	587.88
363.656	564.88
363.882	593.88
364.109	657.88
364.335	660.88
364.562	655.88
364.788	631.88
365.015	605.88
365.241	577.88
365.468	595.88
365.694	591.88
365.92	639.88
366.147	585.88
366.373	573.88
366.599	570.88
366.826	570.88
367.052	567.88
367.278	577.88
367.505	598.88
367.731	600.88
367.957	610.88
368.184	645.88
368.41	649.88
368.636	680.88
368.862	680.88
369.089	689.88
369.315	646.88
369.541	609.88
369.767	618.88
369.993	605.88
370.219	604.88
370.445	608.88
370.672	662.88
370.898	699.88
371.124	667.88
371.35	636.88
371.576	660.88
371.802	661.88
372.028	672.88
372.254	645.88
372.48	605.88
372.706	597.88
372.932	593.88
373.158	620.88
373.384	649.88
373.61	654.88
373.835	659.88
374.061	667.88
374.287	632.88
374.513	632.88
374.739	634.88
374.965	663.88
375.191	645.88
375.416	657.88
375.642	677.88
375.868	741.88
376.094	727.88
376.319	680.88
376.545	647.88
376.771	687.88
376.997	711.88
377.222	692.88
377.448	697.88
377.674	697.88
377.899	697.88
378.125	713.88
378.35	708.88
378.576	645.88
378.802	649.88
379.027	634.88
379.253	651.88
379.478	665.88
379.704	639.88
379.929	660.88
380.155	657.88
380.38	647.88
380.606	663.88
380.831	687.88
381.057	731.88
381.282	698.88
381.507	703.88
381.733	745.88
381.958	729.88
382.184	675.88
382.409	693.88
382.634	687.88
382.86	682.88
383.085	704.88
383.31	735.88
383.535	832.88
383.761	819.88
383.986	767.88
384.211	757.88
384.436	763.88
384.662	777.88
384.887	768.88
385.112	745.88
385.337	756.88
385.562	760.88
385.787	731.88
386.013	789.88
386.238	755.88
386.463	781.88
386.688	861.88
386.913	870.88
387.138	837.88
387.363	785.88
387.588	788.88
387.813	773.88
388.038	807.88
388.263	836.88
388.488	768.88
388.713	761.88
388.938	741.88
389.163	749.88
389.387	749.88
389.612	748.88
389.837	771.88
390.062	771.88
390.287	784.88
390.512	773.88
390.736	747.88
390.961	750.88
391.186	757.88
391.411	756.88
391.636	765.88
391.86	756.88
392.085	764.88
392.31	779.88
392.534	762.88
392.759	775.88
392.984	793.88
393.208	770.88
393.433	821.88
393.658	823.88
393.882	825.88
394.107	797.88
394.331	757.88
394.556	778.88
394.78	805.88
395.005	804.88
395.229	839.88
395.454	888.88
395.678	905.88
395.903	821.88
396.127	819.88
396.352	825.88
396.576	857.88
396.801	858.88
397.025	844.88
397.249	838.88
397.474	837.88
397.698	816.88
397.922	880.88
398.147	893.88
398.371	923.88
398.595	899.88
398.82	894.88
399.044	905.88
399.268	933.88
399.492	996.88
399.717	1000.88
399.941	1029.88
400.165	975.88
400.389	981.88
400.613	1002.88
400.837	1146.88
401.062	1183.88
401.286	1057.88
401.51	985.88
401.734	1004.88
401.958	953.88
402.182	897.88
402.406	898.88
402.63	885.88
402.854	915.88
403.078	915.88
403.302	916.88
403.526	909.88
403.75	923.88
403.974	961.88
404.198	951.88
404.422	1004.88
404.645	1023.88
404.869	963.88
405.093	900.88
405.317	904.88
405.541	915.88
405.765	928.88
405.988	931.88
406.212	940.88
406.436	983.88
406.66	1039.88
406.883	1036.88
407.107	1156.88
407.331	1245.88
407.555	1271.88
407.778	1109.88
408.002	993.88
408.226	975.88
408.449	962.88
408.673	958.88
408.896	970.88
409.12	980.88
409.344	982.88
409.567	918.88
409.791	960.88
410.014	995.88
410.238	1019.88
410.461	1064.88
410.685	969.88
410.908	950.88
411.132	973.88
411.355	939.88
411.578	951.88
411.802	942.88
412.025	976.88
412.249	911.88
412.472	891.88
412.695	934.88
412.919	924.88
413.142	926.88
413.365	949.88
413.589	959.88
413.812	1011.88
414.035	1025.88
414.258	956.88
414.482	944.88
414.705	977.88
414.928	908.88
415.151	921.88
415.374	926.88
415.597	951.88
415.821	931.88
416.044	955.88
416.267	961.88
416.49	938.88
416.713	919.88
416.936	977.88
417.159	1002.88
417.382	999.88
417.605	932.88
417.828	949.88
418.051	977.88
418.274	964.88
418.497	908.88
418.72	963.88
418.943	910.88
419.166	957.88
419.389	977.88
419.611	949.88
419.834	954.88
420.057	971.88
420.28	965.88
420.503	988.88
420.726	997.88
420.948	968.88
421.171	934.88
421.394	960.88
421.617	961.88
421.839	1029.88
422.062	998.88
422.285	948.88
422.507	985.88
422.73	916.88
422.953	921.88
423.175	911.88
423.398	931.88
423.621	919.88
423.843	913.88
424.066	999.88
424.288	1034.88
424.511	1052.88
424.733	1019.88
424.956	939.88
425.178	931.88
425.401	916.88
425.623	981.88
425.846	953.88
426.068	983.88
426.291	995.88
426.513	963.88
426.735	951.88
426.958	1056.88
427.18	1079.88
427.402	1023.88
427.625	1052.88
427.847	1007.88
428.069	959.88
428.292	933.88
428.514	919.88
428.736	893.88
428.958	909.88
429.181	934.88
429.403	1101.88
429.625	1233.88
429.847	1063.88
430.069	972.88
430.292	1067.88
430.514	1053.88
430.736	990.88
430.958	991.88
431.18	952.88
431.402	883.88
431.624	854.88
431.846	831.88
432.068	750.88
432.29	759.88
432.512	799.88
432.734	895.88
432.956	936.88
433.178	975.88
433.4	967.88
433.622	952.88
433.844	908.88
434.066	847.88
434.287	811.88
434.509	797.88
434.731	831.88
434.953	915.88
435.175	938.88
435.397	913.88
435.618	891.88
435.84	837.88
436.062	888.88
436.284	919.88
436.505	955.88
436.727	986.88
436.949	930.88
437.17	912.88
437.392	931.88
437.614	870.88
437.835	825.88
438.057	816.88
438.278	835.88
438.5	866.88
438.721	888.88
438.943	937.88
439.165	936.88
439.386	936.88
439.608	975.88
439.829	955.88
440.05	958.88
440.272	1004.88
440.493	992.88
440.715	1000.88
440.936	1033.88
441.158	1093.88
441.379	1071.88
441.6	1047.88
441.822	1054.88
442.043	1040.88
442.264	1032.88
442.486	970.88
442.707	959.88
442.928	997.88
443.149	1007.88
443.371	1027.88
443.592	1038.88
443.813	1032.88
444.034	1041.88
444.255	1022.88
444.476	1038.88
444.698	1076.88
444.919	1041.88
445.14	1174.88
445.361	1114.88
445.582	1100.88
445.803	1064.88
446.024	1078.88
446.245	1077.88
446.466	1060.88
446.687	1035.88
446.908	1078.88
447.129	1041.88
447.35	1037.88
447.571	1032.88
447.792	953.88
448.013	944.88
448.234	993.88
448.455	976.88
448.675	1021.88
448.896	956.88
449.117	919.88
449.338	949.88
449.559	965.88
449.779	995.88
450	1025.88
450.221	1061.88
450.442	1036.88
450.662	944.88
450.883	910.88
451.104	874.88
451.324	902.88
451.545	907.88
451.766	889.88
451.986	840.88
452.207	833.88
452.428	799.88
452.648	797.88
452.869	795.88
453.089	800.88
453.31	780.88
453.53	803.88
453.751	765.88
453.971	709.88
454.192	757.88
454.412	776.88
454.633	786.88
454.853	808.88
455.073	760.88
455.294	773.88
455.514	789.88
455.734	776.88
455.955	763.88
456.175	750.88
456.395	733.88
456.616	743.88
456.836	748.88
457.056	757.88
457.276	739.88
457.497	699.88
457.717	702.88
457.937	711.88
458.157	729.88
458.377	717.88
458.598	675.88
458.818	671.88
459.038	710.88
459.258	713.88
459.478	721.88
459.698	717.88
459.918	741.88
460.138	800.88
460.358	843.88
460.578	838.88
460.798	872.88
461.018	896.88
461.238	892.88
461.458	875.88
461.678	838.88
461.898	804.88
462.118	805.88
462.338	866.88
462.558	847.88
462.777	866.88
462.997	878.88
463.217	910.88
463.437	867.88
463.657	864.88
463.876	849.88
464.096	836.88
464.316	865.88
464.536	874.88
464.755	921.88
464.975	885.88
465.195	873.88
465.414	893.88
465.634	869.88
465.854	915.88
466.073	960.88
466.293	969.88
466.512	881.88
466.732	879.88
466.951	927.88
467.171	903.88
467.391	885.88
467.61	896.88
467.829	903.88
468.049	989.88
468.268	1045.88
468.488	1000.88
468.707	948.88
468.927	921.88
469.146	925.88
469.365	903.88
469.585	934.88
469.804	952.88
470.023	936.88
470.243	940.88
470.462	957.88
470.681	940.88
470.901	959.88
471.12	943.88
471.339	965.88
471.558	933.88
471.777	918.88
471.997	918.88
472.216	877.88
472.435	804.88
472.654	790.88
472.873	793.88
473.092	861.88
473.311	843.88
473.53	834.88
473.749	831.88
473.968	844.88
474.187	849.88
474.406	857.88
474.625	889.88
474.844	880.88
475.063	891.88
475.282	894.88
475.501	853.88
475.72	844.88
475.939	897.88
476.158	889.88
476.377	865.88
476.596	859.88
476.814	832.88
477.033	838.88
477.252	860.88
477.471	915.88
477.69	931.88
477.908	952.88
478.127	996.88
478.346	1023.88
478.564	1013.88
478.783	1006.88
479.002	1047.88
479.22	1018.88
479.439	1038.88
479.658	1050.88
479.876	1016.88
480.095	930.88
480.313	908.88
480.532	886.88
480.751	867.88
480.969	842.88
481.188	828.88
481.406	800.88
481.624	765.88
481.843	800.88
482.061	839.88
482.28	897.88
482.498	901.88
482.717	883.88
482.935	897.88
483.153	995.88
483.372	1036.88
483.59	1029.88
483.808	990.88
484.027	1017.88
484.245	1005.88
484.463	1246.88
484.681	1306.88
484.9	1017.88
485.118	971.88
485.336	947.88
485.554	926.88
485.772	885.88
485.99	884.88
486.209	907.88
486.427	922.88
486.645	960.88
486.863	1032.88
487.081	1065.88
487.299	997.88
487.517	1035.88
487.735	1141.88
487.953	1205.88
488.171	1228.88
488.389	1168.88
488.607	1127.88
488.825	1163.88
489.043	1079.88
489.261	1007.88
489.479	1059.88
489.696	1087.88
489.914	1088.88
490.132	1059.88
490.35	1115.88
490.568	1180.88
490.786	1192.88
491.003	1231.88
491.221	1258.88
491.439	1268.88
491.657	1308.88
491.874	1381.88
492.092	1473.88
492.31	1549.88
492.527	1494.88
492.745	1405.88
492.963	1340.88
493.18	1368.88
493.398	1357.88
493.615	1327.88
493.833	1278.88
494.05	1241.88
494.268	1235.88
494.485	1256.88
494.703	1252.88
494.92	1236.88
495.138	1238.88
495.355	1247.88
495.573	1295.88
495.79	1331.88
496.008	1303.88
496.225	1253.88
496.442	1250.88
496.66	1253.88
496.877	1229.88
497.094	1261.88
497.312	1217.88
497.529	1239.88
497.746	1194.88
497.963	1316.88
498.181	1322.88
498.398	1282.88
498.615	1182.88
498.832	1152.88
499.049	1166.88
499.267	1179.88
499.484	1280.88
499.701	1345.88
499.918	1405.88
500.135	1474.88
500.352	1576.88
500.569	1582.88
500.786	1671.88
501.003	1555.88
501.22	1464.88
501.437	1402.88
501.654	1470.88
501.871	1391.88
502.088	1233.88
502.305	1204.88
502.522	1167.88
502.739	1103.88
502.956	1082.88
503.172	1066.88
503.389	1036.88
503.606	1037.88
503.823	1004.88
504.04	1005.88
504.256	1023.88
504.473	1023.88
504.69	1046.88
504.907	1008.88
505.123	982.88
505.34	1056.88
505.557	1395.88
505.773	1173.88
505.99	974.88
506.207	911.88
506.423	914.88
506.64	938.88
506.856	948.88
507.073	1023.88
507.289	1104.88
507.506	1058.88
507.722	905.88
507.939	886.88
508.155	876.88
508.372	858.88
508.588	838.88
508.805	806.88
509.021	759.88
509.238	793.88
509.454	781.88
509.67	765.88
509.887	748.88
510.103	752.88
510.319	736.88
510.536	774.88
510.752	791.88
510.968	761.88
511.184	814.88
511.401	783.88
511.617	707.88
511.833	717.88
512.049	712.88
512.265	728.88
512.481	742.88
512.698	766.88
512.914	793.88
513.13	773.88
513.346	713.88
513.562	723.88
513.778	727.88
513.994	752.88
514.21	784.88
514.426	778.88
514.642	823.88
514.858	771.88
515.074	702.88
515.29	713.88
515.506	743.88
515.721	750.88
515.937	748.88
516.153	809.88
516.369	804.88
516.585	737.88
516.801	737.88
517.016	755.88
517.232	771.88
517.448	753.88
517.664	795.88
517.879	808.88
518.095	817.88
518.311	780.88
518.527	762.88
518.742	753.88
518.958	736.88
519.173	775.88
519.389	792.88
519.605	786.88
519.82	800.88
520.036	810.88
520.251	781.88
520.467	803.88
520.682	824.88
520.898	801.88
521.113	713.88
521.329	731.88
521.544	759.88
521.76	757.88
521.975	733.88
522.19	716.88
522.406	737.88
522.621	934.88
522.836	875.88
523.052	742.88
523.267	760.88
523.482	753.88
523.698	750.88
523.913	746.88
524.128	790.88
524.343	819.88
524.559	814.88
524.774	785.88
524.989	781.88
525.204	787.88
525.419	761.88
525.634	765.88
525.849	723.88
526.064	718.88
526.28	704.88
526.495	688.88
526.71	652.88
526.925	637.88
527.14	646.88
527.355	653.88
527.57	643.88
527.785	668.88
527.999	665.88
528.214	679.88
528.429	707.88
528.644	738.88
528.859	809.88
529.074	843.88
529.289	900.88
529.503	879.88
529.718	837.88
529.933	728.88
530.148	695.88
530.363	666.88
530.577	633.88
530.792	641.88
531.007	631.88
531.221	630.88
531.436	628.88
531.651	656.88
531.865	678.88
532.08	653.88
532.295	627.88
532.509	640.88
532.724	611.88
532.938	649.88
533.153	710.88
533.367	713.88
533.582	749.88
533.796	737.88
534.011	708.88
534.225	653.88
534.44	648.88
534.654	657.88
534.868	667.88
535.083	683.88
535.297	709.88
535.511	693.88
535.726	669.88
535.94	666.88
536.154	660.88
536.369	617.88
536.583	617.88
536.797	613.88
537.011	633.88
537.225	620.88
537.44	627.88
537.654	655.88
537.868	630.88
538.082	607.88
538.296	590.88
538.51	651.88
538.724	675.88
538.938	720.88
539.153	754.88
539.367	739.88
539.581	715.88
539.795	695.88
540.009	642.88
540.222	639.88
540.436	679.88
540.65	752.88
540.864	801.88
541.078	825.88
541.292	861.88
541.506	894.88
541.72	956.88
541.934	1052.88
542.147	1077.88
542.361	1000.88
542.575	930.88
542.789	833.88
543.002	750.88
543.216	765.88
543.43	781.88
543.644	840.88
543.857	906.88
544.071	932.88
544.285	945.88
544.498	931.88
544.712	929.88
544.925	968.88
545.139	990.88
545.352	957.88
545.566	923.88
545.779	959.88
545.993	974.88
546.206	980.88
546.42	985.88
546.633	980.88
546.847	950.88
547.06	964.88
547.274	983.88
547.487	1035.88
547.7	1034.88
547.914	978.88
548.127	983.88
548.34	952.88
548.554	921.88
548.767	913.88
548.98	953.88
549.193	912.88
549.407	981.88
549.62	942.88
549.833	941.88
550.046	940.88
550.259	948.88
550.473	903.88
550.686	900.88
550.899	897.88
551.112	868.88
551.325	799.88
551.538	865.88
551.751	882.88
551.964	732.88
552.177	729.88
552.39	819.88
552.603	857.88
552.816	887.88
553.029	949.88
553.242	939.88
553.455	925.88
553.667	929.88
553.88	897.88
554.093	901.88
554.306	868.88
554.519	837.88
554.732	831.88
554.944	837.88
555.157	838.88
555.37	820.88
555.583	805.88
555.795	791.88
556.008	743.88
556.221	730.88
556.433	749.88
556.646	758.88
556.859	743.88
557.071	767.88
557.284	775.88
557.496	747.88
557.709	749.88
557.921	750.88
558.134	768.88
558.346	739.88
558.559	731.88
558.771	733.88
558.984	711.88
559.196	695.88
559.409	680.88
559.621	680.88
559.833	648.88
560.046	688.88
560.258	687.88
560.47	704.88
560.683	700.88
560.895	720.88
561.107	719.88
561.32	679.88
561.532	672.88
561.744	672.88
561.956	680.88
562.168	664.88
562.381	678.88
562.593	657.88
562.805	649.88
563.017	643.88
563.229	660.88
563.441	673.88
563.653	637.88
563.865	606.88
564.077	615.88
564.289	613.88
564.501	595.88
564.713	655.88
564.925	645.88
565.137	667.88
565.349	623.88
565.561	631.88
565.773	639.88
565.985	640.88
566.197	675.88
566.408	707.88
566.62	693.88
566.832	715.88
567.044	675.88
567.255	671.88
567.467	648.88
567.679	670.88
567.891	670.88
568.102	606.88
568.314	576.88
568.526	537.88
568.737	515.88
568.949	502.88
569.161	478.88
569.372	458.88
569.584	464.88
569.795	441.88
570.007	464.88
570.218	463.88
570.43	444.88
570.641	474.88
570.853	450.88
571.064	489.88
571.276	473.88
571.487	485.88
571.698	496.88
571.91	500.88
572.121	452.88
572.333	451.88
572.544	462.88
572.755	428.88
572.966	410.88
573.178	422.88
573.389	426.88
573.6	441.88
573.811	440.88
574.023	399.88
574.234	415.88
574.445	403.88
574.656	388.88
574.867	387.88
575.078	435.88
575.289	406.88
575.501	403.88
575.712	393.88
575.923	417.88
576.134	401.88
576.345	407.88
576.556	408.88
576.767	398.88
576.978	419.88
577.188	398.88
577.399	385.88
577.61	379.88
577.821	390.88
578.032	384.88
578.243	390.88
578.454	369.88
578.665	360.88
578.875	333.88
579.086	366.88
579.297	372.88
579.508	364.88
579.718	331.88
579.929	332.88
580.14	349.88
580.35	338.88
580.561	371.88
580.772	396.88
580.982	363.88
581.193	362.88
581.403	355.88
581.614	351.88
581.825	363.88
582.035	357.88
582.246	356.88
582.456	354.88
582.667	339.88
582.877	346.88
583.087	350.88
583.298	327.88
583.508	345.88
583.719	336.88
583.929	337.88
584.139	332.88
584.35	322.88
584.56	328.88
584.77	344.88
584.981	323.88
585.191	326.88
585.401	345.88
585.611	355.88
585.821	331.88
586.032	323.88
586.242	319.88
586.452	324.88
586.662	320.88
586.872	331.88
587.082	319.88
587.292	350.88
587.502	339.88
587.713	312.88
587.923	313.88
588.133	317.88
588.343	309.88
588.553	321.88
588.762	338.88
588.972	314.88
589.182	311.88
589.392	309.88
589.602	317.88
589.812	327.88
590.022	323.88
590.232	315.88
590.441	333.88
590.651	325.88
590.861	318.88
591.071	317.88
591.281	308.88
591.49	314.88
591.7	321.88
591.91	322.88
592.119	319.88
592.329	331.88
592.539	341.88
592.748	313.88
592.958	337.88
593.167	327.88
593.377	336.88
593.587	339.88
593.796	322.88
594.006	314.88
594.215	319.88
594.424	342.88
594.634	328.88
594.843	338.88
595.053	358.88
595.262	336.88
595.472	332.88
595.681	321.88
595.89	315.88
596.1	309.88
596.309	341.88
596.518	325.88
596.727	345.88
596.937	312.88
597.146	311.88
597.355	331.88
597.564	333.88
597.774	292.88
597.983	291.88
598.192	294.88
598.401	294.88
598.61	311.88
598.819	311.88
599.028	293.88
599.237	317.88
599.446	302.88
599.655	290.88
599.864	287.88
600.073	286.88
600.282	305.88
600.491	302.88
600.7	289.88
600.909	299.88
601.118	310.88
601.327	343.88
601.536	349.88
601.745	334.88
601.953	356.88
602.162	341.88
602.371	365.88
602.58	359.88
602.789	346.88
602.997	354.88
603.206	361.88
603.415	356.88
603.623	379.88
603.832	336.88
604.041	355.88
604.249	332.88
604.458	328.88
604.666	314.88
604.875	309.88
605.084	338.88
605.292	346.88
605.501	333.88
605.709	362.88
605.918	367.88
606.126	372.88
606.334	378.88
606.543	380.88
606.751	368.88
606.96	385.88
607.168	344.88
607.376	344.88
607.585	351.88
607.793	366.88
608.001	363.88
608.21	359.88
608.418	384.88
608.626	383.88
608.834	366.88
609.043	362.88
609.251	375.88
609.459	364.88
609.667	378.88
609.875	409.88
610.083	386.88
610.291	391.88
610.499	384.88
610.707	348.88
610.916	375.88
611.124	371.88
611.332	380.88
611.54	375.88
611.748	367.88
611.955	379.88
612.163	361.88
612.371	370.88
612.579	343.88
612.787	363.88
612.995	379.88
613.203	367.88
613.411	367.88
613.618	358.88
613.826	356.88
614.034	365.88
614.242	364.88
614.449	350.88
614.657	364.88
614.865	341.88
615.072	355.88
615.28	356.88
615.488	364.88
615.695	371.88
615.903	368.88
616.111	356.88
616.318	374.88
616.526	364.88
616.733	355.88
616.941	343.88
617.148	365.88
617.356	363.88
617.563	349.88
617.771	350.88
617.978	321.88
618.185	339.88
618.393	342.88
618.6	350.88
618.807	359.88
619.015	360.88
619.222	344.88
619.429	333.88
619.637	317.88
619.844	313.88
620.051	327.88
620.258	332.88
620.466	332.88
620.673	307.88
620.88	331.88
621.087	319.88
621.294	331.88
621.501	300.88
621.708	308.88
621.915	300.88
622.122	353.88
622.329	355.88
622.536	323.88
622.743	337.88
622.95	332.88
623.157	314.88
623.364	331.88
623.571	325.88
623.778	311.88
623.985	328.88
624.192	326.88
624.399	309.88
624.606	323.88
624.812	320.88
625.019	309.88
625.226	314.88
625.433	289.88
625.639	303.88
625.846	269.88
626.053	251.88
626.259	256.88
626.466	265.88
626.673	251.88
626.879	248.88
627.086	263.88
627.293	256.88
627.499	308.88
627.706	308.88
627.912	301.88
628.119	295.88
628.325	314.88
628.532	305.88
628.738	303.88
628.945	274.88
629.151	295.88
629.357	303.88
629.564	273.88
629.77	273.88
629.976	280.88
630.183	276.88
630.389	260.88
630.595	291.88
630.802	315.88
631.008	299.88
631.214	299.88
631.42	287.88
631.627	250.88
631.833	252.88
632.039	254.88
632.245	283.88
632.451	295.88
632.657	293.88
632.863	258.88
633.069	287.88
633.275	277.88
633.481	275.88
633.688	262.88
633.893	283.88
634.099	258.88
634.305	269.88
634.511	261.88
634.717	249.88
634.923	220.88
635.129	254.88
635.335	243.88
635.541	244.88
635.747	237.88
635.952	236.88
636.158	265.88
636.364	276.88
636.57	272.88
636.775	273.88
636.981	269.88
637.187	254.88
637.392	278.88
637.598	269.88
637.804	268.88
638.009	277.88
638.215	261.88
638.421	257.88
638.626	258.88
638.832	259.88
639.037	247.88
639.243	263.88
639.448	258.88
639.654	220.88
639.859	247.88
640.065	269.88
640.27	256.88
640.475	265.88
640.681	282.88
640.886	263.88
641.091	255.88
641.297	261.88
641.502	263.88
641.707	262.88
641.913	269.88
642.118	265.88
642.323	249.88
642.528	259.88
642.733	261.88
642.939	246.88
643.144	247.88
643.349	249.88
643.554	225.88
643.759	241.88
643.964	250.88
644.169	273.88
644.374	233.88
644.579	227.88
644.784	259.88
644.989	233.88
645.194	246.88
645.399	262.88
645.604	260.88
645.809	247.88
646.014	250.88
646.219	262.88
646.423	250.88
646.628	245.88
646.833	252.88
647.038	252.88
647.243	254.88
647.447	244.88
647.652	266.88
647.857	248.88
648.062	255.88
648.266	262.88
648.471	227.88
648.676	243.88
648.88	257.88
649.085	232.88
649.289	249.88
649.494	244.88
649.698	236.88
649.903	249.88
650.107	239.88
650.312	231.88
650.516	222.88
650.721	227.88
650.925	250.88
651.13	229.88
651.334	228.88
651.539	235.88
651.743	216.88
651.947	223.88
652.152	209.88
652.356	222.88
652.56	220.88
652.764	228.88
652.969	205.88
653.173	197.88
653.377	228.88
653.581	204.88
653.785	216.88
653.99	216.88
654.194	215.88
654.398	207.88
654.602	203.88
654.806	189.88
655.01	215.88
655.214	213.88
655.418	206.88
655.622	219.88
655.826	224.88
656.03	224.88
656.234	234.88
656.438	248.88
656.642	233.88
656.846	250.88
657.049	223.88
657.253	199.88
657.457	182.88
657.661	189.88
657.865	167.88
658.068	161.88
658.272	174.88
658.476	148.88
658.68	161.88
658.883	153.88
659.087	145.88
659.291	139.88
659.494	134.88
659.698	151.88
659.901	126.88
660.105	141.88
660.309	131.88
660.512	124.88
660.716	117.88
660.919	137.88
661.123	140.88
661.326	109.88
661.53	107.88
661.733	105.88
661.936	117.88
662.14	112.88
662.343	109.88
662.546	103.88
662.75	110.88
662.953	109.88
663.156	104.88
663.36	101.88
663.563	95.88
663.766	92.88
663.969	107.88
664.173	92.88
664.376	85.88
664.579	84.88
664.782	90.88
664.985	83.88
665.188	92.88
665.391	96.88
665.594	111.88
665.797	93.88
666	91.88
666.203	88.88
666.406	84.88
666.609	84.88
666.812	84.88
667.015	78.88
667.218	86.88
667.421	97.88
667.624	80.88
667.827	74.88
668.03	95.88
668.232	81.88
668.435	86.88
668.638	81.88
668.841	94.88
669.043	83.88
669.246	88.88
669.449	68.88
669.651	94.88
669.854	84.88
670.057	92.88
670.259	88.88
670.462	89.88
670.665	87.88
670.867	71.88
671.07	82.88
671.272	85.88
671.475	88.88
671.677	89.88
671.88	77.88
672.082	84.88
672.284	94.88
672.487	93.88
672.689	95.88
672.892	87.88
