Data from WStandard_LampEnergy8_LIBS07252019.E.O._I.C._HRD10591_16-00-35-929.txt Node
Date: Thu Jul 25 16:00:35 EDT 2019
User: cochatt
Spectrometer: HR+D1059
Trigger mode: 1
Integration Time (sec): 1.000000E-1
Scans to average: 1
Electric dark correction enabled: true
Nonlinearity correction enabled: false
Boxcar width: 0
XAxis mode: Wavelengths
Number of Pixels in Spectrum: 2048
>>>>>Begin Spectral Data<<<<<
223.165	-16.06
223.4	-16.06
223.635	-16.06
223.869	-11.06
224.104	-19.06
224.338	-19.06
224.573	-17.06
224.808	-9.06
225.042	-19.06
225.277	-5.06
225.511	2.94
225.746	24.94
225.98	6.94
226.215	13.94
226.449	12.94
226.683	26.94
226.918	9.94
227.152	16.94
227.387	30.94
227.621	29.94
227.856	42.94
228.09	39.94
228.324	42.94
228.559	52.94
228.793	104.94
229.027	193.94
229.262	213.94
229.496	214.94
229.73	209.94
229.964	234.94
230.199	263.94
230.433	247.94
230.667	267.94
230.901	265.94
231.136	257.94
231.37	251.94
231.604	248.94
231.838	265.94
232.072	256.94
232.306	212.94
232.541	264.94
232.775	292.94
233.009	309.94
233.243	296.94
233.477	282.94
233.711	292.94
233.945	297.94
234.179	283.94
234.413	316.94
234.647	330.94
234.881	306.94
235.115	282.94
235.349	294.94
235.583	295.94
235.817	278.94
236.051	283.94
236.285	300.94
236.519	298.94
236.753	349.94
236.987	349.94
237.221	365.94
237.455	351.94
237.689	342.94
237.922	333.94
238.156	340.94
238.39	353.94
238.624	352.94
238.858	382.94
239.091	396.94
239.325	425.94
239.559	441.94
239.793	481.94
240.027	484.94
240.26	489.94
240.494	377.94
240.728	342.94
240.961	376.94
241.195	374.94
241.429	389.94
241.662	388.94
241.896	385.94
242.13	380.94
242.363	413.94
242.597	444.94
242.83	429.94
243.064	438.94
243.298	485.94
243.531	452.94
243.765	440.94
243.998	437.94
244.232	416.94
244.465	381.94
244.699	399.94
244.932	436.94
245.166	498.94
245.399	467.94
245.633	431.94
245.866	464.94
246.099	442.94
246.333	448.94
246.566	477.94
246.8	483.94
247.033	548.94
247.266	531.94
247.5	500.94
247.733	516.94
247.966	527.94
248.2	572.94
248.433	554.94
248.666	612.94
248.899	626.94
249.133	716.94
249.366	781.94
249.599	653.94
249.832	590.94
250.066	601.94
250.299	577.94
250.532	563.94
250.765	506.94
250.998	566.94
251.231	577.94
251.465	572.94
251.698	558.94
251.931	566.94
252.164	584.94
252.397	607.94
252.63	584.94
252.863	526.94
253.096	536.94
253.329	548.94
253.562	584.94
253.795	586.94
254.028	580.94
254.261	557.94
254.494	546.94
254.727	527.94
254.96	563.94
255.193	642.94
255.426	672.94
255.659	739.94
255.892	764.94
256.124	625.94
256.357	628.94
256.59	681.94
256.823	654.94
257.056	680.94
257.289	790.94
257.521	883.94
257.754	798.94
257.987	717.94
258.22	788.94
258.452	790.94
258.685	684.94
258.918	660.94
259.151	633.94
259.383	615.94
259.616	546.94
259.849	606.94
260.081	656.94
260.314	723.94
260.547	800.94
260.779	779.94
261.012	716.94
261.244	671.94
261.477	642.94
261.71	653.94
261.942	655.94
262.175	664.94
262.407	693.94
262.64	657.94
262.872	612.94
263.105	594.94
263.337	616.94
263.57	627.94
263.802	601.94
264.035	572.94
264.267	570.94
264.499	564.94
264.732	598.94
264.964	636.94
265.197	630.94
265.429	660.94
265.661	773.94
265.894	798.94
266.126	810.94
266.358	758.94
266.591	779.94
266.823	827.94
267.055	755.94
267.287	729.94
267.52	731.94
267.752	727.94
267.984	705.94
268.216	764.94
268.448	779.94
268.681	736.94
268.913	692.94
269.145	689.94
269.377	681.94
269.609	714.94
269.841	854.94
270.073	964.94
270.306	1039.94
270.538	1082.94
270.77	918.94
271.002	803.94
271.234	774.94
271.466	780.94
271.698	891.94
271.93	1042.94
272.162	1002.94
272.394	913.94
272.626	869.94
272.858	769.94
273.09	672.94
273.322	678.94
273.553	643.94
273.785	646.94
274.017	685.94
274.249	720.94
274.481	738.94
274.713	692.94
274.945	669.94
275.176	672.94
275.408	669.94
275.64	671.94
275.872	665.94
276.104	720.94
276.335	796.94
276.567	889.94
276.799	883.94
277.031	802.94
277.262	774.94
277.494	824.94
277.726	904.94
277.957	870.94
278.189	793.94
278.421	726.94
278.652	704.94
278.884	706.94
279.115	719.94
279.347	729.94
279.579	712.94
279.81	725.94
280.042	776.94
280.273	890.94
280.505	845.94
280.736	878.94
280.968	805.94
281.199	716.94
281.431	704.94
281.662	712.94
281.894	693.94
282.125	720.94
282.356	736.94
282.588	742.94
282.819	750.94
283.051	816.94
283.282	861.94
283.513	805.94
283.745	735.94
283.976	700.94
284.207	690.94
284.439	743.94
284.67	737.94
284.901	740.94
285.132	765.94
285.364	740.94
285.595	766.94
285.826	742.94
286.057	761.94
286.288	738.94
286.52	768.94
286.751	821.94
286.982	814.94
287.213	778.94
287.444	731.94
287.675	716.94
287.906	772.94
288.138	796.94
288.369	764.94
288.6	744.94
288.831	726.94
289.062	719.94
289.293	719.94
289.524	741.94
289.755	779.94
289.986	759.94
290.217	718.94
290.448	715.94
290.679	728.94
290.91	746.94
291.141	791.94
291.371	808.94
291.602	790.94
291.833	785.94
292.064	798.94
292.295	827.94
292.526	826.94
292.757	821.94
292.987	807.94
293.218	784.94
293.449	856.94
293.68	920.94
293.91	948.94
294.141	918.94
294.372	882.94
294.603	919.94
294.833	963.94
295.064	900.94
295.295	805.94
295.525	780.94
295.756	735.94
295.987	720.94
296.217	732.94
296.448	736.94
296.679	789.94
296.909	752.94
297.14	762.94
297.37	745.94
297.601	812.94
297.831	856.94
298.062	828.94
298.292	818.94
298.523	759.94
298.753	752.94
298.984	783.94
299.214	790.94
299.445	797.94
299.675	810.94
299.905	829.94
300.136	791.94
300.366	794.94
300.597	748.94
300.827	752.94
301.057	774.94
301.288	814.94
301.518	834.94
301.748	866.94
301.979	885.94
302.209	894.94
302.439	942.94
302.669	972.94
302.9	896.94
303.13	812.94
303.36	830.94
303.59	846.94
303.82	827.94
304.051	843.94
304.281	844.94
304.511	836.94
304.741	900.94
304.971	999.94
305.201	1037.94
305.431	895.94
305.661	789.94
305.891	733.94
306.121	725.94
306.352	796.94
306.582	831.94
306.812	870.94
307.042	941.94
307.272	951.94
307.502	970.94
307.731	1030.94
307.961	1047.94
308.191	945.94
308.421	853.94
308.651	838.94
308.881	832.94
309.111	822.94
309.341	808.94
309.571	811.94
309.8	788.94
310.03	817.94
310.26	823.94
310.49	822.94
310.72	823.94
310.949	859.94
311.179	854.94
311.409	829.94
311.639	806.94
311.868	810.94
312.098	853.94
312.328	832.94
312.557	818.94
312.787	817.94
313.017	868.94
313.246	850.94
313.476	832.94
313.706	892.94
313.935	864.94
314.165	881.94
314.394	911.94
314.624	964.94
314.853	983.94
315.083	1005.94
315.312	1003.94
315.542	958.94
315.771	910.94
316.001	874.94
316.23	934.94
316.46	921.94
316.689	913.94
316.919	879.94
317.148	860.94
317.377	857.94
317.607	936.94
317.836	1011.94
318.065	1014.94
318.295	982.94
318.524	984.94
318.753	934.94
318.983	897.94
319.212	898.94
319.441	918.94
319.67	916.94
319.9	923.94
320.129	971.94
320.358	1003.94
320.587	1007.94
320.816	995.94
321.046	956.94
321.275	965.94
321.504	965.94
321.733	1016.94
321.962	951.94
322.191	917.94
322.42	948.94
322.649	918.94
322.878	918.94
323.108	894.94
323.337	944.94
323.566	903.94
323.795	951.94
324.024	913.94
324.253	905.94
324.482	917.94
324.71	874.94
324.939	867.94
325.168	892.94
325.397	906.94
325.626	947.94
325.855	949.94
326.084	927.94
326.313	892.94
326.542	961.94
326.77	956.94
326.999	974.94
327.228	900.94
327.457	858.94
327.686	868.94
327.914	880.94
328.143	916.94
328.372	889.94
328.6	892.94
328.829	923.94
329.058	873.94
329.287	896.94
329.515	920.94
329.744	945.94
329.972	987.94
330.201	1036.94
330.43	979.94
330.658	933.94
330.887	948.94
331.115	960.94
331.344	965.94
331.572	930.94
331.801	963.94
332.03	982.94
332.258	990.94
332.486	978.94
332.715	1022.94
332.943	985.94
333.172	986.94
333.4	979.94
333.629	997.94
333.857	1059.94
334.085	1180.94
334.314	1321.94
334.542	1375.94
334.771	1268.94
334.999	1157.94
335.227	1060.94
335.455	1014.94
335.684	1011.94
335.912	1068.94
336.14	1066.94
336.369	1031.94
336.597	991.94
336.825	986.94
337.053	1022.94
337.281	1096.94
337.51	1127.94
337.738	1107.94
337.966	1074.94
338.194	985.94
338.422	973.94
338.65	951.94
338.878	942.94
339.106	923.94
339.334	937.94
339.562	930.94
339.79	973.94
340.018	1014.94
340.246	1028.94
340.474	1005.94
340.702	986.94
340.93	984.94
341.158	999.94
341.386	973.94
341.614	980.94
341.842	968.94
342.07	962.94
342.298	971.94
342.526	966.94
342.754	976.94
342.981	983.94
343.209	955.94
343.437	965.94
343.665	987.94
343.893	985.94
344.12	1033.94
344.348	1032.94
344.576	978.94
344.804	970.94
345.031	953.94
345.259	949.94
345.487	929.94
345.714	873.94
345.942	894.94
346.17	896.94
346.397	933.94
346.625	912.94
346.853	883.94
347.08	838.94
347.308	890.94
347.535	920.94
347.763	922.94
347.99	923.94
348.218	889.94
348.445	895.94
348.673	928.94
348.9	937.94
349.128	970.94
349.355	981.94
349.583	965.94
349.81	893.94
350.037	880.94
350.265	868.94
350.492	857.94
350.72	865.94
350.947	926.94
351.174	935.94
351.402	867.94
351.629	868.94
351.856	844.94
352.083	834.94
352.311	874.94
352.538	892.94
352.765	946.94
352.992	933.94
353.22	904.94
353.447	885.94
353.674	921.94
353.901	901.94
354.128	895.94
354.355	888.94
354.583	925.94
354.81	997.94
355.037	928.94
355.264	913.94
355.491	927.94
355.718	938.94
355.945	876.94
356.172	879.94
356.399	886.94
356.626	869.94
356.853	910.94
357.08	1023.94
357.307	1084.94
357.534	1033.94
357.761	941.94
357.988	905.94
358.215	871.94
358.441	878.94
358.668	851.94
358.895	894.94
359.122	922.94
359.349	1030.94
359.576	951.94
359.802	894.94
360.029	874.94
360.256	883.94
360.483	912.94
360.709	928.94
360.936	965.94
361.163	998.94
361.39	1039.94
361.616	1140.94
361.843	1126.94
362.07	1044.94
362.296	936.94
362.523	921.94
362.749	892.94
362.976	910.94
363.203	929.94
363.429	920.94
363.656	852.94
363.882	957.94
364.109	1049.94
364.335	1067.94
364.562	1004.94
364.788	965.94
365.015	940.94
365.241	889.94
365.468	918.94
365.694	964.94
365.92	985.94
366.147	926.94
366.373	893.94
366.599	900.94
366.826	894.94
367.052	883.94
367.278	906.94
367.505	949.94
367.731	918.94
367.957	961.94
368.184	993.94
368.41	1030.94
368.636	1059.94
368.862	1037.94
369.089	1036.94
369.315	975.94
369.541	941.94
369.767	926.94
369.993	930.94
370.219	950.94
370.445	946.94
370.672	1021.94
370.898	1036.94
371.124	1001.94
371.35	936.94
371.576	1008.94
371.802	1029.94
372.028	974.94
372.254	983.94
372.48	926.94
372.706	933.94
372.932	919.94
373.158	950.94
373.384	978.94
373.61	1001.94
373.835	1044.94
374.061	960.94
374.287	976.94
374.513	990.94
374.739	955.94
374.965	981.94
375.191	998.94
375.416	1002.94
375.642	986.94
375.868	1085.94
376.094	1080.94
376.319	1024.94
376.545	980.94
376.771	1012.94
376.997	1051.94
377.222	1030.94
377.448	1029.94
377.674	1035.94
377.899	1036.94
378.125	1079.94
378.35	1061.94
378.576	965.94
378.802	947.94
379.027	957.94
379.253	930.94
379.478	964.94
379.704	990.94
379.929	964.94
380.155	987.94
380.38	987.94
380.606	988.94
380.831	989.94
381.057	1036.94
381.282	1052.94
381.507	1076.94
381.733	1108.94
381.958	1121.94
382.184	1030.94
382.409	1014.94
382.634	1032.94
382.86	1019.94
383.085	1031.94
383.31	1108.94
383.535	1180.94
383.761	1182.94
383.986	1139.94
384.211	1096.94
384.436	1106.94
384.662	1174.94
384.887	1192.94
385.112	1133.94
385.337	1115.94
385.562	1094.94
385.787	1070.94
386.013	1141.94
386.238	1154.94
386.463	1133.94
386.688	1256.94
386.913	1290.94
387.138	1243.94
387.363	1152.94
387.588	1132.94
387.813	1151.94
388.038	1138.94
388.263	1185.94
388.488	1111.94
388.713	1074.94
388.938	1048.94
389.163	1097.94
389.387	1139.94
389.612	1097.94
389.837	1126.94
390.062	1125.94
390.287	1112.94
390.512	1097.94
390.736	1088.94
390.961	1126.94
391.186	1066.94
391.411	1103.94
391.636	1126.94
391.86	1110.94
392.085	1100.94
392.31	1109.94
392.534	1106.94
392.759	1146.94
392.984	1124.94
393.208	1101.94
393.433	1144.94
393.658	1177.94
393.882	1182.94
394.107	1158.94
394.331	1128.94
394.556	1098.94
394.78	1138.94
395.005	1197.94
395.229	1224.94
395.454	1284.94
395.678	1257.94
395.903	1207.94
396.127	1185.94
396.352	1190.94
396.576	1219.94
396.801	1215.94
397.025	1189.94
397.249	1229.94
397.474	1236.94
397.698	1230.94
397.922	1240.94
398.147	1326.94
398.371	1343.94
398.595	1324.94
398.82	1281.94
399.044	1313.94
399.268	1396.94
399.492	1392.94
399.717	1467.94
399.941	1456.94
400.165	1456.94
400.389	1441.94
400.613	1469.94
400.837	1628.94
401.062	1757.94
401.286	1492.94
401.51	1418.94
401.734	1446.94
401.958	1389.94
402.182	1308.94
402.406	1287.94
402.63	1283.94
402.854	1271.94
403.078	1317.94
403.302	1298.94
403.526	1316.94
403.75	1314.94
403.974	1362.94
404.198	1330.94
404.422	1373.94
404.645	1465.94
404.869	1388.94
405.093	1323.94
405.317	1294.94
405.541	1336.94
405.765	1332.94
405.988	1321.94
406.212	1359.94
406.436	1374.94
406.66	1440.94
406.883	1484.94
407.107	1665.94
407.331	1784.94
407.555	1862.94
407.778	1647.94
408.002	1449.94
408.226	1412.94
408.449	1400.94
408.673	1368.94
408.896	1357.94
409.12	1351.94
409.344	1336.94
409.567	1346.94
409.791	1338.94
410.014	1397.94
410.238	1483.94
410.461	1549.94
410.685	1376.94
410.908	1316.94
411.132	1381.94
411.355	1318.94
411.578	1285.94
411.802	1324.94
412.025	1346.94
412.249	1316.94
412.472	1302.94
412.695	1256.94
412.919	1265.94
413.142	1244.94
413.365	1324.94
413.589	1344.94
413.812	1411.94
414.035	1418.94
414.258	1324.94
414.482	1273.94
414.705	1320.94
414.928	1287.94
415.151	1278.94
415.374	1290.94
415.597	1310.94
415.821	1322.94
416.044	1340.94
416.267	1297.94
416.49	1240.94
416.713	1242.94
416.936	1316.94
417.159	1382.94
417.382	1351.94
417.605	1270.94
417.828	1305.94
418.051	1308.94
418.274	1319.94
418.497	1256.94
418.72	1228.94
418.943	1276.94
419.166	1298.94
419.389	1361.94
419.611	1262.94
419.834	1290.94
420.057	1280.94
420.28	1256.94
420.503	1253.94
420.726	1323.94
420.948	1296.94
421.171	1269.94
421.394	1280.94
421.617	1320.94
421.839	1316.94
422.062	1304.94
422.285	1248.94
422.507	1257.94
422.73	1247.94
422.953	1213.94
423.175	1227.94
423.398	1283.94
423.621	1253.94
423.843	1251.94
424.066	1262.94
424.288	1346.94
424.511	1381.94
424.733	1354.94
424.956	1234.94
425.178	1234.94
425.401	1260.94
425.623	1286.94
425.846	1244.94
426.068	1314.94
426.291	1295.94
426.513	1308.94
426.735	1289.94
426.958	1383.94
427.18	1461.94
427.402	1356.94
427.625	1389.94
427.847	1365.94
428.069	1262.94
428.292	1240.94
428.514	1227.94
428.736	1203.94
428.958	1271.94
429.181	1252.94
429.403	1452.94
429.625	1694.94
429.847	1439.94
430.069	1326.94
430.292	1439.94
430.514	1419.94
430.736	1328.94
430.958	1343.94
431.18	1303.94
431.402	1188.94
431.624	1156.94
431.846	1190.94
432.068	1112.94
432.29	1133.94
432.512	1176.94
432.734	1245.94
432.956	1272.94
433.178	1314.94
433.4	1314.94
433.622	1267.94
433.844	1218.94
434.066	1193.94
434.287	1180.94
434.509	1163.94
434.731	1253.94
434.953	1356.94
435.175	1313.94
435.397	1241.94
435.618	1213.94
435.84	1239.94
436.062	1189.94
436.284	1216.94
436.505	1241.94
436.727	1281.94
436.949	1250.94
437.17	1240.94
437.392	1230.94
437.614	1188.94
437.835	1159.94
438.057	1189.94
438.278	1223.94
438.5	1188.94
438.721	1211.94
438.943	1213.94
439.165	1242.94
439.386	1181.94
439.608	1231.94
439.829	1256.94
440.05	1229.94
440.272	1197.94
440.493	1235.94
440.715	1286.94
440.936	1341.94
441.158	1404.94
441.379	1349.94
441.6	1408.94
441.822	1358.94
442.043	1321.94
442.264	1316.94
442.486	1244.94
442.707	1274.94
442.928	1228.94
443.149	1289.94
443.371	1310.94
443.592	1377.94
443.813	1353.94
444.034	1321.94
444.255	1345.94
444.476	1353.94
444.698	1357.94
444.919	1354.94
445.14	1483.94
445.361	1422.94
445.582	1444.94
445.803	1413.94
446.024	1372.94
446.245	1394.94
446.466	1375.94
446.687	1296.94
446.908	1302.94
447.129	1322.94
447.35	1282.94
447.571	1290.94
447.792	1216.94
448.013	1215.94
448.234	1250.94
448.455	1265.94
448.675	1304.94
448.896	1238.94
449.117	1170.94
449.338	1229.94
449.559	1255.94
449.779	1328.94
450	1390.94
450.221	1441.94
450.442	1412.94
450.662	1265.94
450.883	1175.94
451.104	1144.94
451.324	1191.94
451.545	1210.94
451.766	1184.94
451.986	1100.94
452.207	1111.94
452.428	1107.94
452.648	1079.94
452.869	1075.94
453.089	1139.94
453.31	1112.94
453.53	1140.94
453.751	1090.94
453.971	1034.94
454.192	1064.94
454.412	1106.94
454.633	1111.94
454.853	1076.94
455.073	1012.94
455.294	1031.94
455.514	1069.94
455.734	1045.94
455.955	1063.94
456.175	1062.94
456.395	1040.94
456.616	1065.94
456.836	1072.94
457.056	1044.94
457.276	1073.94
457.497	1022.94
457.717	1006.94
457.937	1020.94
458.157	1060.94
458.377	1024.94
458.598	1012.94
458.818	1002.94
459.038	1073.94
459.258	1138.94
459.478	1130.94
459.698	1113.94
459.918	1132.94
460.138	1190.94
460.358	1217.94
460.578	1245.94
460.798	1240.94
461.018	1328.94
461.238	1264.94
461.458	1232.94
461.678	1234.94
461.898	1234.94
462.118	1182.94
462.338	1259.94
462.558	1264.94
462.777	1251.94
462.997	1317.94
463.217	1338.94
463.437	1306.94
463.657	1226.94
463.876	1241.94
464.096	1235.94
464.316	1246.94
464.536	1290.94
464.755	1286.94
464.975	1266.94
465.195	1245.94
465.414	1312.94
465.634	1288.94
465.854	1241.94
466.073	1357.94
466.293	1318.94
466.512	1178.94
466.732	1179.94
466.951	1259.94
467.171	1225.94
467.391	1163.94
467.61	1161.94
467.829	1207.94
468.049	1288.94
468.268	1428.94
468.488	1322.94
468.707	1210.94
468.927	1213.94
469.146	1206.94
469.365	1218.94
469.585	1194.94
469.804	1189.94
470.023	1208.94
470.243	1215.94
470.462	1221.94
470.681	1205.94
470.901	1205.94
471.12	1209.94
471.339	1227.94
471.558	1194.94
471.777	1176.94
471.997	1196.94
472.216	1166.94
472.435	1104.94
472.654	1117.94
472.873	1152.94
473.092	1214.94
473.311	1174.94
473.53	1120.94
473.749	1141.94
473.968	1181.94
474.187	1198.94
474.406	1188.94
474.625	1178.94
474.844	1191.94
475.063	1212.94
475.282	1202.94
475.501	1162.94
475.72	1167.94
475.939	1269.94
476.158	1234.94
476.377	1198.94
476.596	1156.94
476.814	1165.94
477.033	1220.94
477.252	1243.94
477.471	1277.94
477.69	1283.94
477.908	1255.94
478.127	1324.94
478.346	1414.94
478.564	1372.94
478.783	1371.94
479.002	1438.94
479.22	1402.94
479.439	1430.94
479.658	1572.94
479.876	1504.94
480.095	1341.94
480.313	1329.94
480.532	1271.94
480.751	1311.94
480.969	1290.94
481.188	1270.94
481.406	1250.94
481.624	1212.94
481.843	1246.94
482.061	1270.94
482.28	1272.94
482.498	1307.94
482.717	1266.94
482.935	1284.94
483.153	1312.94
483.372	1368.94
483.59	1318.94
483.808	1293.94
484.027	1340.94
484.245	1397.94
484.463	1661.94
484.681	1837.94
484.9	1442.94
485.118	1419.94
485.336	1342.94
485.554	1338.94
485.772	1381.94
485.99	1350.94
486.209	1359.94
486.427	1369.94
486.645	1377.94
486.863	1365.94
487.081	1410.94
487.299	1440.94
487.517	1411.94
487.735	1434.94
487.953	1457.94
488.171	1472.94
488.389	1414.94
488.607	1457.94
488.825	1580.94
489.043	1484.94
489.261	1385.94
489.479	1460.94
489.696	1430.94
489.914	1466.94
490.132	1407.94
490.35	1450.94
490.568	1520.94
490.786	1472.94
491.003	1460.94
491.221	1543.94
491.439	1586.94
491.657	1548.94
491.874	1598.94
492.092	1637.94
492.31	1655.94
492.527	1645.94
492.745	1598.94
492.963	1571.94
493.18	1597.94
493.398	1670.94
493.615	1677.94
493.833	1593.94
494.05	1499.94
494.268	1542.94
494.485	1588.94
494.703	1564.94
494.92	1534.94
495.138	1508.94
495.355	1557.94
495.573	1596.94
495.79	1636.94
496.008	1665.94
496.225	1579.94
496.442	1579.94
496.66	1579.94
496.877	1597.94
497.094	1640.94
497.312	1604.94
497.529	1602.94
497.746	1644.94
497.963	1812.94
498.181	1931.94
498.398	1865.94
498.615	1805.94
498.832	1712.94
499.049	1701.94
499.267	1751.94
499.484	1858.94
499.701	2025.94
499.918	2020.94
500.135	2172.94
500.352	2363.94
500.569	2353.94
500.786	2513.94
501.003	2301.94
501.22	2077.94
501.437	2040.94
501.654	2048.94
501.871	1967.94
502.088	1750.94
502.305	1744.94
502.522	1672.94
502.739	1607.94
502.956	1536.94
503.172	1542.94
503.389	1471.94
503.606	1448.94
503.823	1472.94
504.04	1464.94
504.256	1480.94
504.473	1459.94
504.69	1496.94
504.907	1416.94
505.123	1382.94
505.34	1519.94
505.557	1942.94
505.773	1604.94
505.99	1356.94
506.207	1298.94
506.423	1250.94
506.64	1255.94
506.856	1299.94
507.073	1455.94
507.289	1520.94
507.506	1468.94
507.722	1262.94
507.939	1203.94
508.155	1221.94
508.372	1228.94
508.588	1197.94
508.805	1170.94
509.021	1147.94
509.238	1138.94
509.454	1128.94
509.67	1157.94
509.887	1128.94
510.103	1131.94
510.319	1126.94
510.536	1177.94
510.752	1184.94
510.968	1185.94
511.184	1275.94
511.401	1194.94
511.617	1104.94
511.833	1093.94
512.049	1103.94
512.265	1084.94
512.481	1109.94
512.698	1166.94
512.914	1200.94
513.13	1142.94
513.346	1129.94
513.562	1106.94
513.778	1112.94
513.994	1154.94
514.21	1170.94
514.426	1174.94
514.642	1292.94
514.858	1210.94
515.074	1130.94
515.29	1117.94
515.506	1110.94
515.721	1154.94
515.937	1170.94
516.153	1266.94
516.369	1228.94
516.585	1159.94
516.801	1146.94
517.016	1151.94
517.232	1183.94
517.448	1180.94
517.664	1186.94
517.879	1206.94
518.095	1257.94
518.311	1224.94
518.527	1188.94
518.742	1170.94
518.958	1146.94
519.173	1130.94
519.389	1155.94
519.605	1170.94
519.82	1150.94
520.036	1166.94
520.251	1108.94
520.467	1166.94
520.682	1208.94
520.898	1224.94
521.113	1133.94
521.329	1081.94
521.544	1187.94
521.76	1116.94
521.975	1098.94
522.19	1057.94
522.406	1090.94
522.621	1367.94
522.836	1310.94
523.052	1121.94
523.267	1091.94
523.482	1082.94
523.698	1052.94
523.913	1043.94
524.128	1056.94
524.343	1136.94
524.559	1155.94
524.774	1074.94
524.989	1052.94
525.204	1058.94
525.419	1031.94
525.634	1059.94
525.849	1070.94
526.064	1039.94
526.28	1078.94
526.495	968.94
526.71	973.94
526.925	977.94
527.14	962.94
527.355	977.94
527.57	980.94
527.785	1024.94
527.999	982.94
528.214	988.94
528.429	978.94
528.644	1012.94
528.859	1036.94
529.074	1065.94
529.289	1088.94
529.503	1084.94
529.718	1082.94
529.933	999.94
530.148	968.94
530.363	940.94
530.577	956.94
530.792	946.94
531.007	980.94
531.221	970.94
531.436	976.94
531.651	978.94
531.865	1025.94
532.08	998.94
532.295	954.94
532.509	904.94
532.724	929.94
532.938	992.94
533.153	1038.94
533.367	1016.94
533.582	1001.94
533.796	1005.94
534.011	1018.94
534.225	996.94
534.44	956.94
534.654	954.94
534.868	972.94
535.083	1000.94
535.297	1029.94
535.511	976.94
535.726	1010.94
535.94	965.94
536.154	966.94
536.369	923.94
536.583	908.94
536.797	900.94
537.011	940.94
537.225	901.94
537.44	894.94
537.654	968.94
537.868	931.94
538.082	947.94
538.296	864.94
538.51	881.94
538.724	922.94
538.938	931.94
539.153	1011.94
539.367	987.94
539.581	952.94
539.795	965.94
540.009	926.94
540.222	940.94
540.436	991.94
540.65	1058.94
540.864	1060.94
541.078	1042.94
541.292	1006.94
541.506	1036.94
541.72	1085.94
541.934	1115.94
542.147	1164.94
542.361	1154.94
542.575	1061.94
542.789	1024.94
543.002	938.94
543.216	958.94
543.43	999.94
543.644	1028.94
543.857	1108.94
544.071	1088.94
544.285	1102.94
544.498	1064.94
544.712	1079.94
544.925	1112.94
545.139	1124.94
545.352	1070.94
545.566	1035.94
545.779	1044.94
545.993	1071.94
546.206	1042.94
546.42	1088.94
546.633	1076.94
546.847	1050.94
547.06	1056.94
547.274	1061.94
547.487	1080.94
547.7	1081.94
547.914	1077.94
548.127	1114.94
548.34	1065.94
548.554	1054.94
548.767	1042.94
548.98	1055.94
549.193	1019.94
549.407	1068.94
549.62	1092.94
549.833	1044.94
550.046	1045.94
550.259	1077.94
550.473	1001.94
550.686	999.94
550.899	990.94
551.112	992.94
551.325	954.94
551.538	1010.94
551.751	1114.94
551.964	905.94
552.177	909.94
552.39	919.94
552.603	986.94
552.816	995.94
553.029	1048.94
553.242	1053.94
553.455	1016.94
553.667	1029.94
553.88	1047.94
554.093	1016.94
554.306	973.94
554.519	967.94
554.732	967.94
554.944	945.94
555.157	972.94
555.37	923.94
555.583	903.94
555.795	900.94
556.008	893.94
556.221	878.94
556.433	859.94
556.646	857.94
556.859	871.94
557.071	860.94
557.284	877.94
557.496	887.94
557.709	861.94
557.921	867.94
558.134	841.94
558.346	856.94
558.559	845.94
558.771	858.94
558.984	811.94
559.196	786.94
559.409	784.94
559.621	819.94
559.833	824.94
560.046	811.94
560.258	807.94
560.47	806.94
560.683	796.94
560.895	814.94
561.107	812.94
561.32	810.94
561.532	794.94
561.744	805.94
561.956	814.94
562.168	775.94
562.381	775.94
562.593	785.94
562.805	792.94
563.017	784.94
563.229	794.94
563.441	799.94
563.653	789.94
563.865	774.94
564.077	772.94
564.289	759.94
564.501	752.94
564.713	790.94
564.925	820.94
565.137	842.94
565.349	814.94
565.561	807.94
565.773	811.94
565.985	803.94
566.197	836.94
566.408	890.94
566.62	891.94
566.832	892.94
567.044	897.94
567.255	855.94
567.467	878.94
567.679	914.94
567.891	904.94
568.102	876.94
568.314	846.94
568.526	796.94
568.737	745.94
568.949	740.94
569.161	699.94
569.372	699.94
569.584	660.94
569.795	674.94
570.007	650.94
570.218	644.94
570.43	654.94
570.641	640.94
570.853	649.94
571.064	686.94
571.276	646.94
571.487	660.94
571.698	631.94
571.91	618.94
572.121	617.94
572.333	625.94
572.544	596.94
572.755	605.94
572.966	579.94
573.178	564.94
573.389	568.94
573.6	602.94
573.811	629.94
574.023	566.94
574.234	577.94
574.445	564.94
574.656	553.94
574.867	542.94
575.078	558.94
575.289	552.94
575.501	560.94
575.712	530.94
575.923	555.94
576.134	549.94
576.345	542.94
576.556	534.94
576.767	553.94
576.978	542.94
577.188	532.94
577.399	522.94
577.61	530.94
577.821	526.94
578.032	539.94
578.243	496.94
578.454	528.94
578.665	488.94
578.875	468.94
579.086	481.94
579.297	481.94
579.508	535.94
579.718	491.94
579.929	507.94
580.14	468.94
580.35	472.94
580.561	504.94
580.772	536.94
580.982	510.94
581.193	490.94
581.403	485.94
581.614	476.94
581.825	485.94
582.035	482.94
582.246	478.94
582.456	500.94
582.667	489.94
582.877	482.94
583.087	448.94
583.298	461.94
583.508	462.94
583.719	468.94
583.929	464.94
584.139	449.94
584.35	442.94
584.56	459.94
584.77	465.94
584.981	482.94
585.191	466.94
585.401	486.94
585.611	446.94
585.821	455.94
586.032	445.94
586.242	422.94
586.452	440.94
586.662	450.94
586.872	448.94
587.082	458.94
587.292	462.94
587.502	455.94
587.713	465.94
587.923	463.94
588.133	447.94
588.343	449.94
588.553	449.94
588.762	434.94
588.972	445.94
589.182	461.94
589.392	453.94
589.602	456.94
589.812	448.94
590.022	445.94
590.232	411.94
590.441	439.94
590.651	463.94
590.861	424.94
591.071	433.94
591.281	417.94
591.49	439.94
591.7	437.94
591.91	441.94
592.119	436.94
592.329	448.94
592.539	445.94
592.748	443.94
592.958	437.94
593.167	469.94
593.377	481.94
593.587	460.94
593.796	479.94
594.006	461.94
594.215	471.94
594.424	470.94
594.634	479.94
594.843	460.94
595.053	482.94
595.262	445.94
595.472	451.94
595.681	433.94
595.89	428.94
596.1	400.94
596.309	425.94
596.518	429.94
596.727	441.94
596.937	443.94
597.146	407.94
597.355	399.94
597.564	411.94
597.774	404.94
597.983	394.94
598.192	396.94
598.401	398.94
598.61	390.94
598.819	392.94
599.028	403.94
599.237	382.94
599.446	402.94
599.655	406.94
599.864	379.94
600.073	378.94
600.282	386.94
600.491	371.94
600.7	376.94
600.909	374.94
601.118	386.94
601.327	384.94
601.536	396.94
601.745	398.94
601.953	385.94
602.162	397.94
602.371	427.94
602.58	398.94
602.789	390.94
602.997	412.94
603.206	412.94
603.415	409.94
603.623	412.94
603.832	410.94
604.041	405.94
604.249	376.94
604.458	368.94
604.666	357.94
604.875	384.94
605.084	396.94
605.292	396.94
605.501	407.94
605.709	380.94
605.918	398.94
606.126	388.94
606.334	407.94
606.543	399.94
606.751	407.94
606.96	381.94
607.168	391.94
607.376	386.94
607.585	395.94
607.793	404.94
608.001	403.94
608.21	396.94
608.418	408.94
608.626	404.94
608.834	384.94
609.043	398.94
609.251	402.94
609.459	385.94
609.667	384.94
609.875	401.94
610.083	412.94
610.291	410.94
610.499	396.94
610.707	417.94
610.916	392.94
611.124	404.94
611.332	384.94
611.54	392.94
611.748	379.94
611.955	382.94
612.163	393.94
612.371	380.94
612.579	398.94
612.787	399.94
612.995	391.94
613.203	386.94
613.411	395.94
613.618	392.94
613.826	404.94
614.034	377.94
614.242	382.94
614.449	375.94
614.657	400.94
614.865	408.94
615.072	377.94
615.28	388.94
615.488	384.94
615.695	397.94
615.903	394.94
616.111	401.94
616.318	402.94
616.526	381.94
616.733	373.94
616.941	376.94
617.148	381.94
617.356	392.94
617.563	379.94
617.771	382.94
617.978	379.94
618.185	353.94
618.393	361.94
618.6	376.94
618.807	377.94
619.015	375.94
619.222	365.94
619.429	368.94
619.637	366.94
619.844	345.94
620.051	348.94
620.258	355.94
620.466	357.94
620.673	359.94
620.88	334.94
621.087	339.94
621.294	327.94
621.501	330.94
621.708	325.94
621.915	328.94
622.122	329.94
622.329	363.94
622.536	357.94
622.743	359.94
622.95	335.94
623.157	344.94
623.364	353.94
623.571	343.94
623.778	345.94
623.985	339.94
624.192	345.94
624.399	346.94
624.606	351.94
624.812	349.94
625.019	320.94
625.226	328.94
625.433	327.94
625.639	316.94
625.846	308.94
626.053	309.94
626.259	285.94
626.466	290.94
626.673	278.94
626.879	284.94
627.086	282.94
627.293	308.94
627.499	312.94
627.706	300.94
627.912	328.94
628.119	324.94
628.325	323.94
628.532	305.94
628.738	313.94
628.945	307.94
629.151	315.94
629.357	325.94
629.564	301.94
629.77	293.94
629.976	304.94
630.183	306.94
630.389	288.94
630.595	308.94
630.802	307.94
631.008	297.94
631.214	291.94
631.42	306.94
631.627	308.94
631.833	300.94
632.039	297.94
632.245	301.94
632.451	298.94
632.657	302.94
632.863	295.94
633.069	314.94
633.275	282.94
633.481	276.94
633.688	278.94
633.893	267.94
634.099	283.94
634.305	276.94
634.511	274.94
634.717	265.94
634.923	255.94
635.129	274.94
635.335	267.94
635.541	269.94
635.747	270.94
635.952	283.94
636.158	277.94
636.364	292.94
636.57	289.94
636.775	290.94
636.981	266.94
637.187	282.94
637.392	285.94
637.598	272.94
637.804	293.94
638.009	284.94
638.215	279.94
638.421	274.94
638.626	269.94
638.832	268.94
639.037	260.94
639.243	281.94
639.448	275.94
639.654	264.94
639.859	264.94
640.065	262.94
640.27	264.94
640.475	258.94
640.681	258.94
640.886	257.94
641.091	254.94
641.297	292.94
641.502	264.94
641.707	264.94
641.913	275.94
642.118	252.94
642.323	266.94
642.528	278.94
642.733	269.94
642.939	246.94
643.144	267.94
643.349	273.94
643.554	252.94
643.759	241.94
643.964	269.94
644.169	266.94
644.374	260.94
644.579	245.94
644.784	247.94
644.989	267.94
645.194	254.94
645.399	261.94
645.604	247.94
645.809	247.94
646.014	244.94
646.219	259.94
646.423	263.94
646.628	254.94
646.833	272.94
647.038	282.94
647.243	266.94
647.447	253.94
647.652	251.94
647.857	257.94
648.062	256.94
648.266	258.94
648.471	245.94
648.676	282.94
648.88	247.94
649.085	246.94
649.289	264.94
649.494	271.94
649.698	268.94
649.903	240.94
650.107	233.94
650.312	256.94
650.516	231.94
650.721	237.94
650.925	252.94
651.13	233.94
651.334	249.94
651.539	246.94
651.743	213.94
651.947	224.94
652.152	233.94
652.356	222.94
652.56	221.94
652.764	219.94
652.969	232.94
653.173	225.94
653.377	217.94
653.581	229.94
653.785	237.94
653.99	228.94
654.194	209.94
654.398	205.94
654.602	211.94
654.806	222.94
655.01	225.94
655.214	234.94
655.418	229.94
655.622	238.94
655.826	224.94
656.03	233.94
656.234	264.94
656.438	246.94
656.642	255.94
656.846	244.94
657.049	225.94
657.253	234.94
657.457	224.94
657.661	186.94
657.865	190.94
658.068	189.94
658.272	184.94
658.476	167.94
658.68	149.94
658.883	160.94
659.087	145.94
659.291	126.94
659.494	146.94
659.698	134.94
659.901	131.94
660.105	134.94
660.309	136.94
660.512	120.94
660.716	119.94
660.919	124.94
661.123	121.94
661.326	120.94
661.53	114.94
661.733	102.94
661.936	114.94
662.14	102.94
662.343	116.94
662.546	101.94
662.75	100.94
662.953	88.94
663.156	86.94
663.36	105.94
663.563	86.94
663.766	102.94
663.969	90.94
664.173	85.94
664.376	82.94
664.579	89.94
664.782	78.94
664.985	84.94
665.188	76.94
665.391	92.94
665.594	74.94
665.797	82.94
666	74.94
666.203	97.94
666.406	82.94
666.609	77.94
666.812	84.94
667.015	93.94
667.218	77.94
667.421	78.94
667.624	87.94
667.827	80.94
668.03	77.94
668.232	94.94
668.435	92.94
668.638	76.94
668.841	77.94
669.043	90.94
669.246	91.94
669.449	89.94
669.651	88.94
669.854	86.94
670.057	86.94
670.259	77.94
670.462	88.94
670.665	86.94
670.867	87.94
671.07	92.94
671.272	75.94
671.475	85.94
671.677	92.94
671.88	81.94
672.082	88.94
672.284	82.94
672.487	82.94
672.689	83.94
672.892	89.94
