Data from WStandard_LampEnergy5.5LIBS07252019.E.O._I.C._HRD10591_16-07-47-921.txt Node
Date: Thu Jul 25 16:07:47 EDT 2019
User: cochatt
Spectrometer: HR+D1059
Trigger mode: 1
Integration Time (sec): 1.000000E-1
Scans to average: 1
Electric dark correction enabled: true
Nonlinearity correction enabled: false
Boxcar width: 0
XAxis mode: Wavelengths
Number of Pixels in Spectrum: 2048
>>>>>Begin Spectral Data<<<<<
223.165	-23.88
223.4	-23.88
223.635	-23.88
223.869	-10.88
224.104	-6.88
224.338	-25.88
224.573	-6.88
224.808	-10.88
225.042	-8.88
225.277	-14.88
225.511	5.12
225.746	13.12
225.98	0.12
226.215	0.12
226.449	2.12
226.683	33.12
226.918	14.12
227.152	41.12
227.387	25.12
227.621	23.12
227.856	37.12
228.09	48.12
228.324	52.12
228.559	56.12
228.793	135.12
229.027	350.12
229.262	379.12
229.496	397.12
229.73	388.12
229.964	468.12
230.199	484.12
230.433	499.12
230.667	494.12
230.901	544.12
231.136	491.12
231.37	492.12
231.604	484.12
231.838	489.12
232.072	487.12
232.306	464.12
232.541	492.12
232.775	551.12
233.009	623.12
233.243	621.12
233.477	543.12
233.711	568.12
233.945	599.12
234.179	570.12
234.413	617.12
234.647	647.12
234.881	617.12
235.115	571.12
235.349	545.12
235.583	577.12
235.817	564.12
236.051	545.12
236.285	571.12
236.519	635.12
236.753	679.12
236.987	716.12
237.221	718.12
237.455	776.12
237.689	760.12
237.922	700.12
238.156	690.12
238.39	707.12
238.624	744.12
238.858	791.12
239.091	784.12
239.325	810.12
239.559	945.12
239.793	985.12
240.027	1076.12
240.26	1081.12
240.494	816.12
240.728	742.12
240.961	747.12
241.195	751.12
241.429	838.12
241.662	835.12
241.896	786.12
242.13	789.12
242.363	856.12
242.597	939.12
242.83	913.12
243.064	897.12
243.298	1005.12
243.531	955.12
243.765	945.12
243.998	957.12
244.232	845.12
244.465	823.12
244.699	815.12
244.932	949.12
245.166	1092.12
245.399	1036.12
245.633	933.12
245.866	908.12
246.099	986.12
246.333	977.12
246.566	1034.12
246.8	1094.12
247.033	1202.12
247.266	1106.12
247.5	1113.12
247.733	1115.12
247.966	1145.12
248.2	1248.12
248.433	1193.12
248.666	1248.12
248.899	1368.12
249.133	1599.12
249.366	1813.12
249.599	1496.12
249.832	1303.12
250.066	1321.12
250.299	1351.12
250.532	1259.12
250.765	1123.12
250.998	1177.12
251.231	1243.12
251.465	1286.12
251.698	1215.12
251.931	1205.12
252.164	1242.12
252.397	1296.12
252.63	1315.12
252.863	1149.12
253.096	1143.12
253.329	1189.12
253.562	1226.12
253.795	1334.12
254.028	1319.12
254.261	1257.12
254.494	1201.12
254.727	1156.12
254.96	1171.12
255.193	1287.12
255.426	1434.12
255.659	1748.12
255.892	1766.12
256.124	1432.12
256.357	1377.12
256.59	1473.12
256.823	1475.12
257.056	1448.12
257.289	1791.12
257.521	1979.12
257.754	1777.12
257.987	1659.12
258.22	1868.12
258.452	1796.12
258.685	1436.12
258.918	1422.12
259.151	1429.12
259.383	1374.12
259.616	1208.12
259.849	1273.12
260.081	1438.12
260.314	1633.12
260.547	1741.12
260.779	1777.12
261.012	1675.12
261.244	1498.12
261.477	1405.12
261.71	1447.12
261.942	1492.12
262.175	1409.12
262.407	1569.12
262.64	1432.12
262.872	1345.12
263.105	1283.12
263.337	1328.12
263.57	1367.12
263.802	1334.12
264.035	1282.12
264.267	1181.12
264.499	1172.12
264.732	1255.12
264.964	1351.12
265.197	1377.12
265.429	1453.12
265.661	1634.12
265.894	1812.12
266.126	1893.12
266.358	1627.12
266.591	1711.12
266.823	1888.12
267.055	1724.12
267.287	1654.12
267.52	1654.12
267.752	1582.12
267.984	1608.12
268.216	1648.12
268.448	1749.12
268.681	1750.12
268.913	1544.12
269.145	1496.12
269.377	1428.12
269.609	1559.12
269.841	1820.12
270.073	2084.12
270.306	2347.12
270.538	2567.12
270.77	2099.12
271.002	1819.12
271.234	1707.12
271.466	1704.12
271.698	1907.12
271.93	2309.12
272.162	2300.12
272.394	2084.12
272.626	1979.12
272.858	1779.12
273.09	1502.12
273.322	1521.12
273.553	1419.12
273.785	1428.12
274.017	1541.12
274.249	1665.12
274.481	1639.12
274.713	1469.12
274.945	1455.12
275.176	1462.12
275.408	1454.12
275.64	1417.12
275.872	1418.12
276.104	1508.12
276.335	1725.12
276.567	1948.12
276.799	2001.12
277.031	1761.12
277.262	1676.12
277.494	1705.12
277.726	1928.12
277.957	1964.12
278.189	1741.12
278.421	1603.12
278.652	1528.12
278.884	1508.12
279.115	1511.12
279.347	1589.12
279.579	1528.12
279.81	1505.12
280.042	1673.12
280.273	1875.12
280.505	1833.12
280.736	1856.12
280.968	1806.12
281.199	1602.12
281.431	1471.12
281.662	1523.12
281.894	1480.12
282.125	1511.12
282.356	1583.12
282.588	1640.12
282.819	1571.12
283.051	1689.12
283.282	1842.12
283.513	1838.12
283.745	1546.12
283.976	1412.12
284.207	1462.12
284.439	1511.12
284.67	1564.12
284.901	1571.12
285.132	1640.12
285.364	1599.12
285.595	1622.12
285.826	1563.12
286.057	1573.12
286.288	1537.12
286.52	1600.12
286.751	1730.12
286.982	1788.12
287.213	1665.12
287.444	1496.12
287.675	1493.12
287.906	1598.12
288.138	1699.12
288.369	1643.12
288.6	1558.12
288.831	1508.12
289.062	1525.12
289.293	1580.12
289.524	1587.12
289.755	1629.12
289.986	1588.12
290.217	1491.12
290.448	1528.12
290.679	1555.12
290.91	1577.12
291.141	1647.12
291.371	1689.12
291.602	1679.12
291.833	1651.12
292.064	1730.12
292.295	1687.12
292.526	1696.12
292.757	1780.12
292.987	1681.12
293.218	1627.12
293.449	1695.12
293.68	1933.12
293.91	2097.12
294.141	1969.12
294.372	1850.12
294.603	1865.12
294.833	1992.12
295.064	1879.12
295.295	1697.12
295.525	1638.12
295.756	1536.12
295.987	1441.12
296.217	1500.12
296.448	1527.12
296.679	1551.12
296.909	1541.12
297.14	1562.12
297.37	1564.12
297.601	1624.12
297.831	1816.12
298.062	1788.12
298.292	1631.12
298.523	1557.12
298.753	1559.12
298.984	1574.12
299.214	1603.12
299.445	1607.12
299.675	1682.12
299.905	1675.12
300.136	1634.12
300.366	1583.12
300.597	1540.12
300.827	1542.12
301.057	1590.12
301.288	1684.12
301.518	1681.12
301.748	1740.12
301.979	1797.12
302.209	1808.12
302.439	1911.12
302.669	1966.12
302.9	1894.12
303.13	1700.12
303.36	1681.12
303.59	1732.12
303.82	1692.12
304.051	1697.12
304.281	1660.12
304.511	1706.12
304.741	1795.12
304.971	1948.12
305.201	2191.12
305.431	2018.12
305.661	1691.12
305.891	1520.12
306.121	1474.12
306.352	1530.12
306.582	1653.12
306.812	1711.12
307.042	1895.12
307.272	1883.12
307.502	1911.12
307.731	2067.12
307.961	2225.12
308.191	2041.12
308.421	1757.12
308.651	1675.12
308.881	1614.12
309.111	1636.12
309.341	1583.12
309.571	1592.12
309.8	1658.12
310.03	1626.12
310.26	1579.12
310.49	1599.12
310.72	1636.12
310.949	1701.12
311.179	1728.12
311.409	1728.12
311.639	1666.12
311.868	1632.12
312.098	1651.12
312.328	1673.12
312.557	1617.12
312.787	1657.12
313.017	1736.12
313.246	1722.12
313.476	1693.12
313.706	1718.12
313.935	1733.12
314.165	1739.12
314.394	1784.12
314.624	1905.12
314.853	1968.12
315.083	2075.12
315.312	2100.12
315.542	2024.12
315.771	1716.12
316.001	1719.12
316.23	1847.12
316.46	1836.12
316.689	1829.12
316.919	1735.12
317.148	1651.12
317.377	1661.12
317.607	1855.12
317.836	2020.12
318.065	2119.12
318.295	2001.12
318.524	1908.12
318.753	1880.12
318.983	1807.12
319.212	1770.12
319.441	1764.12
319.67	1736.12
319.9	1810.12
320.129	1855.12
320.358	1962.12
320.587	2020.12
320.816	2012.12
321.046	1938.12
321.275	1840.12
321.504	1852.12
321.733	2036.12
321.962	1942.12
322.191	1821.12
322.42	1796.12
322.649	1776.12
322.878	1769.12
323.108	1746.12
323.337	1847.12
323.566	1833.12
323.795	1857.12
324.024	1809.12
324.253	1801.12
324.482	1841.12
324.71	1764.12
324.939	1691.12
325.168	1711.12
325.397	1780.12
325.626	1831.12
325.855	1877.12
326.084	1778.12
326.313	1756.12
326.542	1837.12
326.77	1830.12
326.999	1880.12
327.228	1791.12
327.457	1690.12
327.686	1686.12
327.914	1681.12
328.143	1759.12
328.372	1745.12
328.6	1763.12
328.829	1740.12
329.058	1735.12
329.287	1756.12
329.515	1787.12
329.744	1816.12
329.972	1886.12
330.201	1975.12
330.43	1932.12
330.658	1883.12
330.887	1873.12
331.115	1895.12
331.344	1907.12
331.572	1858.12
331.801	1822.12
332.03	1825.12
332.258	1875.12
332.486	1940.12
332.715	1904.12
332.943	1975.12
333.172	1861.12
333.4	1925.12
333.629	1954.12
333.857	2075.12
334.085	2189.12
334.314	2568.12
334.542	2836.12
334.771	2588.12
334.999	2287.12
335.227	2162.12
335.455	2044.12
335.684	2003.12
335.912	2028.12
336.14	2090.12
336.369	2042.12
336.597	1957.12
336.825	1915.12
337.053	1937.12
337.281	2085.12
337.51	2167.12
337.738	2269.12
337.966	2157.12
338.194	1934.12
338.422	1884.12
338.65	1923.12
338.878	1865.12
339.106	1830.12
339.334	1778.12
339.562	1767.12
339.79	1781.12
340.018	1927.12
340.246	2003.12
340.474	2004.12
340.702	1932.12
340.93	1994.12
341.158	1924.12
341.386	1866.12
341.614	1878.12
341.842	1868.12
342.07	1868.12
342.298	1881.12
342.526	1921.12
342.754	1870.12
342.981	1849.12
343.209	1847.12
343.437	1834.12
343.665	1860.12
343.893	1924.12
344.12	1948.12
344.348	2024.12
344.576	1931.12
344.804	1822.12
345.031	1878.12
345.259	1898.12
345.487	1811.12
345.714	1729.12
345.942	1721.12
346.17	1677.12
346.397	1729.12
346.625	1824.12
346.853	1691.12
347.08	1651.12
347.308	1678.12
347.535	1724.12
347.763	1768.12
347.99	1722.12
348.218	1663.12
348.445	1665.12
348.673	1739.12
348.9	1755.12
349.128	1823.12
349.355	1866.12
349.583	1841.12
349.81	1775.12
350.037	1642.12
350.265	1591.12
350.492	1615.12
350.72	1637.12
350.947	1753.12
351.174	1760.12
351.402	1700.12
351.629	1600.12
351.856	1617.12
352.083	1588.12
352.311	1594.12
352.538	1626.12
352.765	1752.12
352.992	1784.12
353.22	1727.12
353.447	1666.12
353.674	1675.12
353.901	1688.12
354.128	1725.12
354.355	1653.12
354.583	1737.12
354.81	1773.12
355.037	1839.12
355.264	1786.12
355.491	1693.12
355.718	1719.12
355.945	1700.12
356.172	1684.12
356.399	1671.12
356.626	1647.12
356.853	1700.12
357.08	1871.12
357.307	2006.12
357.534	2035.12
357.761	1811.12
357.988	1671.12
358.215	1603.12
358.441	1652.12
358.668	1623.12
358.895	1647.12
359.122	1765.12
359.349	1895.12
359.576	1929.12
359.802	1700.12
360.029	1659.12
360.256	1641.12
360.483	1657.12
360.709	1692.12
360.936	1745.12
361.163	1784.12
361.39	2000.12
361.616	2167.12
361.843	2077.12
362.07	1971.12
362.296	1752.12
362.523	1636.12
362.749	1702.12
362.976	1737.12
363.203	1775.12
363.429	1723.12
363.656	1632.12
363.882	1706.12
364.109	1880.12
364.335	2073.12
364.562	1908.12
364.788	1799.12
365.015	1742.12
365.241	1634.12
365.468	1691.12
365.694	1761.12
365.92	1836.12
366.147	1828.12
366.373	1651.12
366.599	1605.12
366.826	1611.12
367.052	1642.12
367.278	1677.12
367.505	1695.12
367.731	1740.12
367.957	1755.12
368.184	1794.12
368.41	1861.12
368.636	1878.12
368.862	1888.12
369.089	1933.12
369.315	1839.12
369.541	1777.12
369.767	1715.12
369.993	1660.12
370.219	1679.12
370.445	1737.12
370.672	1800.12
370.898	1884.12
371.124	1896.12
371.35	1776.12
371.576	1826.12
371.802	1918.12
372.028	1838.12
372.254	1775.12
372.48	1711.12
372.706	1690.12
372.932	1697.12
373.158	1740.12
373.384	1775.12
373.61	1803.12
373.835	1942.12
374.061	1824.12
374.287	1772.12
374.513	1800.12
374.739	1771.12
374.965	1818.12
375.191	1821.12
375.416	1819.12
375.642	1803.12
375.868	1944.12
376.094	1993.12
376.319	1922.12
376.545	1795.12
376.771	1846.12
376.997	1914.12
377.222	1924.12
377.448	1805.12
377.674	1840.12
377.899	1865.12
378.125	1922.12
378.35	2000.12
378.576	1773.12
378.802	1735.12
379.027	1739.12
379.253	1741.12
379.478	1795.12
379.704	1749.12
379.929	1767.12
380.155	1762.12
380.38	1806.12
380.606	1781.12
380.831	1775.12
381.057	1910.12
381.282	1908.12
381.507	1895.12
381.733	1939.12
381.958	2039.12
382.184	1904.12
382.409	1810.12
382.634	1888.12
382.86	1835.12
383.085	1851.12
383.31	1872.12
383.535	2055.12
383.761	2167.12
383.986	2065.12
384.211	2031.12
384.436	2008.12
384.662	2066.12
384.887	2152.12
385.112	2097.12
385.337	2075.12
385.562	2071.12
385.787	2031.12
386.013	2112.12
386.238	2115.12
386.463	2081.12
386.688	2214.12
386.913	2296.12
387.138	2295.12
387.363	2113.12
387.588	2167.12
387.813	2112.12
388.038	2124.12
388.263	2160.12
388.488	2161.12
388.713	1984.12
388.938	1918.12
389.163	1952.12
389.387	1988.12
389.612	1999.12
389.837	2079.12
390.062	2037.12
390.287	2086.12
390.512	1985.12
390.736	2036.12
390.961	1936.12
391.186	1926.12
391.411	1923.12
391.636	1992.12
391.86	2014.12
392.085	2050.12
392.31	1995.12
392.534	2034.12
392.759	2085.12
392.984	2065.12
393.208	2053.12
393.433	2113.12
393.658	2129.12
393.882	2200.12
394.107	2113.12
394.331	2025.12
394.556	1986.12
394.78	2070.12
395.005	2138.12
395.229	2208.12
395.454	2333.12
395.678	2367.12
395.903	2237.12
396.127	2131.12
396.352	2169.12
396.576	2232.12
396.801	2251.12
397.025	2226.12
397.249	2184.12
397.474	2219.12
397.698	2169.12
397.922	2264.12
398.147	2326.12
398.371	2412.12
398.595	2416.12
398.82	2359.12
399.044	2376.12
399.268	2461.12
399.492	2646.12
399.717	2707.12
399.941	2743.12
400.165	2696.12
400.389	2609.12
400.613	2555.12
400.837	2833.12
401.062	3297.12
401.286	2842.12
401.51	2548.12
401.734	2664.12
401.958	2599.12
402.182	2403.12
402.406	2284.12
402.63	2316.12
402.854	2256.12
403.078	2351.12
403.302	2420.12
403.526	2459.12
403.75	2405.12
403.974	2382.12
404.198	2410.12
404.422	2515.12
404.645	2618.12
404.869	2567.12
405.093	2407.12
405.317	2369.12
405.541	2423.12
405.765	2490.12
405.988	2437.12
406.212	2455.12
406.436	2493.12
406.66	2583.12
406.883	2637.12
407.107	2932.12
407.331	3196.12
407.555	3383.12
407.778	3189.12
408.002	2657.12
408.226	2561.12
408.449	2543.12
408.673	2463.12
408.896	2491.12
409.12	2540.12
409.344	2443.12
409.567	2367.12
409.791	2404.12
410.014	2487.12
410.238	2559.12
410.461	2779.12
410.685	2468.12
410.908	2379.12
411.132	2427.12
411.355	2425.12
411.578	2325.12
411.802	2334.12
412.025	2441.12
412.249	2373.12
412.472	2308.12
412.695	2287.12
412.919	2277.12
413.142	2277.12
413.365	2279.12
413.589	2365.12
413.812	2444.12
414.035	2546.12
414.258	2344.12
414.482	2281.12
414.705	2292.12
414.928	2287.12
415.151	2321.12
415.374	2348.12
415.597	2328.12
415.821	2369.12
416.044	2473.12
416.267	2437.12
416.49	2230.12
416.713	2205.12
416.936	2310.12
417.159	2396.12
417.382	2401.12
417.605	2278.12
417.828	2373.12
418.051	2359.12
418.274	2296.12
418.497	2219.12
418.72	2228.12
418.943	2225.12
419.166	2364.12
419.389	2508.12
419.611	2370.12
419.834	2281.12
420.057	2327.12
420.28	2184.12
420.503	2225.12
420.726	2257.12
420.948	2311.12
421.171	2240.12
421.394	2244.12
421.617	2333.12
421.839	2317.12
422.062	2242.12
422.285	2223.12
422.507	2236.12
422.73	2177.12
422.953	2125.12
423.175	2132.12
423.398	2212.12
423.621	2199.12
423.843	2224.12
424.066	2272.12
424.288	2349.12
424.511	2402.12
424.733	2357.12
424.956	2133.12
425.178	2159.12
425.401	2114.12
425.623	2184.12
425.846	2164.12
426.068	2282.12
426.291	2285.12
426.513	2280.12
426.735	2300.12
426.958	2365.12
427.18	2562.12
427.402	2307.12
427.625	2348.12
427.847	2402.12
428.069	2242.12
428.292	2238.12
428.514	2136.12
428.736	2138.12
428.958	2174.12
429.181	2189.12
429.403	2407.12
429.625	3064.12
429.847	2676.12
430.069	2218.12
430.292	2400.12
430.514	2567.12
430.736	2366.12
430.958	2421.12
431.18	2329.12
431.402	2172.12
431.624	2164.12
431.846	2136.12
432.068	2071.12
432.29	2128.12
432.512	2157.12
432.734	2218.12
432.956	2223.12
433.178	2293.12
433.4	2340.12
433.622	2307.12
433.844	2179.12
434.066	2165.12
434.287	2136.12
434.509	2177.12
434.731	2336.12
434.953	2471.12
435.175	2449.12
435.397	2300.12
435.618	2275.12
435.84	2301.12
436.062	2230.12
436.284	2293.12
436.505	2255.12
436.727	2281.12
436.949	2266.12
437.17	2163.12
437.392	2154.12
437.614	2195.12
437.835	2116.12
438.057	2215.12
438.278	2344.12
438.5	2228.12
438.721	2136.12
438.943	2185.12
439.165	2175.12
439.386	2092.12
439.608	2107.12
439.829	2166.12
440.05	2169.12
440.272	2149.12
440.493	2107.12
440.715	2095.12
440.936	2258.12
441.158	2521.12
441.379	2460.12
441.6	2317.12
441.822	2361.12
442.043	2390.12
442.264	2252.12
442.486	2118.12
442.707	2114.12
442.928	2146.12
443.149	2221.12
443.371	2336.12
443.592	2448.12
443.813	2351.12
444.034	2335.12
444.255	2374.12
444.476	2432.12
444.698	2462.12
444.919	2422.12
445.14	2515.12
445.361	2485.12
445.582	2598.12
445.803	2476.12
446.024	2382.12
446.245	2452.12
446.466	2380.12
446.687	2230.12
446.908	2211.12
447.129	2166.12
447.35	2213.12
447.571	2243.12
447.792	2149.12
448.013	2113.12
448.234	2186.12
448.455	2262.12
448.675	2250.12
448.896	2090.12
449.117	2016.12
449.338	2109.12
449.559	2227.12
449.779	2341.12
450	2580.12
450.221	2737.12
450.442	2700.12
450.662	2347.12
450.883	2107.12
451.104	2011.12
451.324	2084.12
451.545	2113.12
451.766	2038.12
451.986	1973.12
452.207	1982.12
452.428	1939.12
452.648	1878.12
452.869	1967.12
453.089	2157.12
453.31	2113.12
453.53	2166.12
453.751	2077.12
453.971	1982.12
454.192	2025.12
454.412	2156.12
454.633	2037.12
454.853	1984.12
455.073	1875.12
455.294	1887.12
455.514	1909.12
455.734	1871.12
455.955	1913.12
456.175	1926.12
456.395	1939.12
456.616	1977.12
456.836	2010.12
457.056	1956.12
457.276	2001.12
457.497	1915.12
457.717	1814.12
457.937	1911.12
458.157	1951.12
458.377	1937.12
458.598	1941.12
458.818	1933.12
459.038	2045.12
459.258	2214.12
459.478	2186.12
459.698	2139.12
459.918	2165.12
460.138	2205.12
460.358	2281.12
460.578	2327.12
460.798	2363.12
461.018	2521.12
461.238	2391.12
461.458	2308.12
461.678	2333.12
461.898	2229.12
462.118	2167.12
462.338	2342.12
462.558	2351.12
462.777	2329.12
462.997	2415.12
463.217	2553.12
463.437	2524.12
463.657	2340.12
463.876	2298.12
464.096	2300.12
464.316	2320.12
464.536	2391.12
464.755	2416.12
464.975	2463.12
465.195	2329.12
465.414	2440.12
465.634	2439.12
465.854	2309.12
466.073	2435.12
466.293	2419.12
466.512	2168.12
466.732	2149.12
466.951	2245.12
467.171	2161.12
467.391	2101.12
467.61	2059.12
467.829	2068.12
468.049	2249.12
468.268	2499.12
468.488	2368.12
468.707	2206.12
468.927	2167.12
469.146	2087.12
469.365	2017.12
469.585	2090.12
469.804	2091.12
470.023	2102.12
470.243	2160.12
470.462	2065.12
470.681	2019.12
470.901	2083.12
471.12	2129.12
471.339	2072.12
471.558	2073.12
471.777	2036.12
471.997	2026.12
472.216	2004.12
472.435	1987.12
472.654	2073.12
472.873	2138.12
473.092	2272.12
473.311	2167.12
473.53	2042.12
473.749	2019.12
473.968	2103.12
474.187	2179.12
474.406	2308.12
474.625	2166.12
474.844	2132.12
475.063	2108.12
475.282	2195.12
475.501	2150.12
475.72	2095.12
475.939	2234.12
476.158	2188.12
476.377	2146.12
476.596	2162.12
476.814	2194.12
477.033	2213.12
477.252	2279.12
477.471	2344.12
477.69	2250.12
477.908	2229.12
478.127	2343.12
478.346	2483.12
478.564	2576.12
478.783	2499.12
479.002	2579.12
479.22	2537.12
479.439	2615.12
479.658	2985.12
479.876	3003.12
480.095	2552.12
480.313	2449.12
480.532	2332.12
480.751	2390.12
480.969	2445.12
481.188	2383.12
481.406	2371.12
481.624	2274.12
481.843	2363.12
482.061	2387.12
482.28	2461.12
482.498	2454.12
482.717	2456.12
482.935	2341.12
483.153	2330.12
483.372	2349.12
483.59	2290.12
483.808	2389.12
484.027	2397.12
484.245	2538.12
484.463	2908.12
484.681	3351.12
484.9	2600.12
485.118	2415.12
485.336	2422.12
485.554	2494.12
485.772	2657.12
485.99	2584.12
486.209	2566.12
486.427	2546.12
486.645	2556.12
486.863	2464.12
487.081	2543.12
487.299	2641.12
487.517	2605.12
487.735	2446.12
487.953	2414.12
488.171	2403.12
488.389	2427.12
488.607	2408.12
488.825	2660.12
489.043	2723.12
489.261	2451.12
489.479	2602.12
489.696	2624.12
489.914	2612.12
490.132	2522.12
490.35	2449.12
490.568	2557.12
490.786	2497.12
491.003	2407.12
491.221	2471.12
491.439	2565.12
491.657	2508.12
491.874	2565.12
492.092	2520.12
492.31	2544.12
492.527	2549.12
492.745	2500.12
492.963	2453.12
493.18	2577.12
493.398	2748.12
493.615	2829.12
493.833	2622.12
494.05	2553.12
494.268	2536.12
494.485	2630.12
494.703	2611.12
494.92	2545.12
495.138	2559.12
495.355	2539.12
495.573	2671.12
495.79	2825.12
496.008	2845.12
496.225	2698.12
496.442	2669.12
496.66	2732.12
496.877	2690.12
497.094	2825.12
497.312	2793.12
497.529	2776.12
497.746	2892.12
497.963	3335.12
498.181	3715.12
498.398	3451.12
498.615	3352.12
498.832	3253.12
499.049	3256.12
499.267	3299.12
499.484	3463.12
499.701	3798.12
499.918	3803.12
500.135	4064.12
500.352	4436.12
500.569	4318.12
500.786	4612.12
501.003	4257.12
501.22	3936.12
501.437	3852.12
501.654	3776.12
501.871	3706.12
502.088	3229.12
502.305	3285.12
502.522	3168.12
502.739	2946.12
502.956	2838.12
503.172	2818.12
503.389	2745.12
503.606	2719.12
503.823	2699.12
504.04	2717.12
504.256	2731.12
504.473	2709.12
504.69	2875.12
504.907	2688.12
505.123	2512.12
505.34	2636.12
505.557	3485.12
505.773	2979.12
505.99	2447.12
506.207	2300.12
506.423	2289.12
506.64	2299.12
506.856	2336.12
507.073	2604.12
507.289	2803.12
507.506	2716.12
507.722	2351.12
507.939	2227.12
508.155	2250.12
508.372	2241.12
508.588	2191.12
508.805	2126.12
509.021	2137.12
509.238	2055.12
509.454	2100.12
509.67	2116.12
509.887	2069.12
510.103	2067.12
510.319	2106.12
510.536	2209.12
510.752	2227.12
510.968	2288.12
511.184	2379.12
511.401	2409.12
511.617	2076.12
511.833	2028.12
512.049	2014.12
512.265	1976.12
512.481	2032.12
512.698	2085.12
512.914	2255.12
513.13	2138.12
513.346	2078.12
513.562	2088.12
513.778	2072.12
513.994	2162.12
514.21	2207.12
514.426	2263.12
514.642	2458.12
514.858	2340.12
515.074	2168.12
515.29	2122.12
515.506	2128.12
515.721	2176.12
515.937	2199.12
516.153	2419.12
516.369	2370.12
516.585	2243.12
516.801	2143.12
517.016	2150.12
517.232	2212.12
517.448	2237.12
517.664	2281.12
517.879	2279.12
518.095	2356.12
518.311	2294.12
518.527	2155.12
518.742	2103.12
518.958	2047.12
519.173	2089.12
519.389	2106.12
519.605	2156.12
519.82	2105.12
520.036	2167.12
520.251	2095.12
520.467	2116.12
520.682	2258.12
520.898	2345.12
521.113	2101.12
521.329	2002.12
521.544	2179.12
521.76	2085.12
521.975	1981.12
522.19	1983.12
522.406	1956.12
522.621	2363.12
522.836	2416.12
523.052	1931.12
523.267	1909.12
523.482	1971.12
523.698	1867.12
523.913	1844.12
524.128	1919.12
524.343	2013.12
524.559	2009.12
524.774	1923.12
524.989	1883.12
525.204	1886.12
525.419	1841.12
525.634	1862.12
525.849	1857.12
526.064	1875.12
526.28	1891.12
526.495	1816.12
526.71	1809.12
526.925	1828.12
527.14	1832.12
527.355	1799.12
527.57	1792.12
527.785	1821.12
527.999	1767.12
528.214	1750.12
528.429	1698.12
528.644	1736.12
528.859	1781.12
529.074	1795.12
529.289	1762.12
529.503	1804.12
529.718	1815.12
529.933	1764.12
530.148	1721.12
530.363	1691.12
530.577	1768.12
530.792	1830.12
531.007	1811.12
531.221	1768.12
531.436	1780.12
531.651	1826.12
531.865	1931.12
532.08	1883.12
532.295	1753.12
532.509	1732.12
532.724	1669.12
532.938	1790.12
533.153	1910.12
533.367	1831.12
533.582	1767.12
533.796	1736.12
534.011	1753.12
534.225	1749.12
534.44	1724.12
534.654	1707.12
534.868	1741.12
535.083	1820.12
535.297	1852.12
535.511	1762.12
535.726	1754.12
535.94	1772.12
536.154	1733.12
536.369	1689.12
536.583	1708.12
536.797	1673.12
537.011	1761.12
537.225	1689.12
537.44	1636.12
537.654	1725.12
537.868	1694.12
538.082	1607.12
538.296	1585.12
538.51	1627.12
538.724	1602.12
538.938	1622.12
539.153	1692.12
539.367	1660.12
539.581	1636.12
539.795	1746.12
540.009	1711.12
540.222	1687.12
540.436	1710.12
540.65	1851.12
540.864	1868.12
541.078	1795.12
541.292	1640.12
541.506	1636.12
541.72	1686.12
541.934	1640.12
542.147	1674.12
542.361	1635.12
542.575	1583.12
542.789	1553.12
543.002	1537.12
543.216	1636.12
543.43	1700.12
543.644	1739.12
543.857	1782.12
544.071	1739.12
544.285	1652.12
544.498	1640.12
544.712	1656.12
544.925	1695.12
545.139	1715.12
545.352	1607.12
545.566	1579.12
545.779	1549.12
545.993	1585.12
546.206	1621.12
546.42	1580.12
546.633	1527.12
546.847	1525.12
547.06	1570.12
547.274	1521.12
547.487	1514.12
547.7	1554.12
547.914	1531.12
548.127	1588.12
548.34	1599.12
548.554	1574.12
548.767	1620.12
548.98	1605.12
549.193	1570.12
549.407	1623.12
549.62	1679.12
549.833	1533.12
550.046	1540.12
550.259	1564.12
550.473	1545.12
550.686	1564.12
550.899	1548.12
551.112	1472.12
551.325	1496.12
551.538	1576.12
551.751	1836.12
551.964	1515.12
552.177	1477.12
552.39	1471.12
552.603	1498.12
552.816	1548.12
553.029	1591.12
553.242	1626.12
553.455	1571.12
553.667	1539.12
553.88	1529.12
554.093	1514.12
554.306	1464.12
554.519	1473.12
554.732	1452.12
554.944	1469.12
555.157	1496.12
555.37	1461.12
555.583	1466.12
555.795	1405.12
556.008	1360.12
556.221	1371.12
556.433	1332.12
556.646	1362.12
556.859	1337.12
557.071	1299.12
557.284	1308.12
557.496	1318.12
557.709	1328.12
557.921	1311.12
558.134	1252.12
558.346	1283.12
558.559	1307.12
558.771	1305.12
558.984	1239.12
559.196	1247.12
559.409	1252.12
559.621	1288.12
559.833	1246.12
560.046	1322.12
560.258	1307.12
560.47	1245.12
560.683	1286.12
560.895	1277.12
561.107	1295.12
561.32	1303.12
561.532	1339.12
561.744	1265.12
561.956	1299.12
562.168	1237.12
562.381	1191.12
562.593	1237.12
562.805	1222.12
563.017	1225.12
563.229	1234.12
563.441	1279.12
563.653	1217.12
563.865	1226.12
564.077	1241.12
564.289	1252.12
564.501	1268.12
564.713	1315.12
564.925	1350.12
565.137	1420.12
565.349	1345.12
565.561	1333.12
565.773	1323.12
565.985	1353.12
566.197	1377.12
566.408	1500.12
566.62	1511.12
566.832	1525.12
567.044	1525.12
567.255	1543.12
567.467	1504.12
567.679	1558.12
567.891	1605.12
568.102	1573.12
568.314	1484.12
568.526	1453.12
568.737	1391.12
568.949	1360.12
569.161	1289.12
569.372	1265.12
569.584	1223.12
569.795	1266.12
570.007	1205.12
570.218	1170.12
570.43	1158.12
570.641	1140.12
570.853	1140.12
571.064	1151.12
571.276	1110.12
571.487	1122.12
571.698	1047.12
571.91	1047.12
572.121	1049.12
572.333	1027.12
572.544	1043.12
572.755	995.12
572.966	1009.12
573.178	1005.12
573.389	1034.12
573.6	1061.12
573.811	1105.12
574.023	1027.12
574.234	1036.12
574.445	968.12
574.656	952.12
574.867	948.12
575.078	934.12
575.289	947.12
575.501	937.12
575.712	929.12
575.923	948.12
576.134	943.12
576.345	919.12
576.556	900.12
576.767	897.12
576.978	893.12
577.188	911.12
577.399	893.12
577.61	877.12
577.821	859.12
578.032	881.12
578.243	877.12
578.454	863.12
578.665	880.12
578.875	865.12
579.086	847.12
579.297	871.12
579.508	888.12
579.718	907.12
579.929	856.12
580.14	826.12
580.35	821.12
580.561	856.12
580.772	930.12
580.982	863.12
581.193	840.12
581.403	841.12
581.614	816.12
581.825	825.12
582.035	836.12
582.246	797.12
582.456	817.12
582.667	800.12
582.877	796.12
583.087	792.12
583.298	787.12
583.508	810.12
583.719	802.12
583.929	806.12
584.139	818.12
584.35	797.12
584.56	785.12
584.77	802.12
584.981	798.12
585.191	799.12
585.401	860.12
585.611	793.12
585.821	783.12
586.032	785.12
586.242	795.12
586.452	747.12
586.662	782.12
586.872	769.12
587.082	764.12
587.292	768.12
587.502	802.12
587.713	799.12
587.923	772.12
588.133	756.12
588.343	742.12
588.553	767.12
588.762	753.12
588.972	767.12
589.182	793.12
589.392	741.12
589.602	763.12
589.812	783.12
590.022	757.12
590.232	725.12
590.441	773.12
590.651	780.12
590.861	747.12
591.071	739.12
591.281	752.12
591.49	744.12
591.7	745.12
591.91	743.12
592.119	757.12
592.329	747.12
592.539	820.12
592.748	790.12
592.958	778.12
593.167	788.12
593.377	782.12
593.587	789.12
593.796	796.12
594.006	808.12
594.215	802.12
594.424	763.12
594.634	770.12
594.843	783.12
595.053	813.12
595.262	763.12
595.472	729.12
595.681	757.12
595.89	732.12
596.1	717.12
596.309	717.12
596.518	703.12
596.727	720.12
596.937	709.12
597.146	680.12
597.355	672.12
597.564	695.12
597.774	678.12
597.983	665.12
598.192	648.12
598.401	644.12
598.61	668.12
598.819	649.12
599.028	640.12
599.237	634.12
599.446	617.12
599.655	625.12
599.864	610.12
600.073	608.12
600.282	597.12
600.491	633.12
600.7	616.12
600.909	603.12
601.118	607.12
601.327	625.12
601.536	627.12
601.745	630.12
601.953	620.12
602.162	619.12
602.371	617.12
602.58	625.12
602.789	596.12
602.997	587.12
603.206	603.12
603.415	593.12
603.623	605.12
603.832	590.12
604.041	593.12
604.249	591.12
604.458	577.12
604.666	595.12
604.875	594.12
605.084	588.12
605.292	580.12
605.501	599.12
605.709	570.12
605.918	564.12
606.126	573.12
606.334	550.12
606.543	550.12
606.751	545.12
606.96	561.12
607.168	577.12
607.376	579.12
607.585	575.12
607.793	551.12
608.001	579.12
608.21	555.12
608.418	577.12
608.626	557.12
608.834	544.12
609.043	549.12
609.251	545.12
609.459	547.12
609.667	559.12
609.875	550.12
610.083	559.12
610.291	581.12
610.499	548.12
610.707	552.12
610.916	544.12
611.124	548.12
611.332	538.12
611.54	531.12
611.748	522.12
611.955	542.12
612.163	530.12
612.371	538.12
612.579	514.12
612.787	507.12
612.995	522.12
613.203	547.12
613.411	545.12
613.618	546.12
613.826	537.12
614.034	543.12
614.242	537.12
614.449	540.12
614.657	528.12
614.865	537.12
615.072	539.12
615.28	523.12
615.488	536.12
615.695	554.12
615.903	542.12
616.111	537.12
616.318	547.12
616.526	528.12
616.733	523.12
616.941	522.12
617.148	512.12
617.356	499.12
617.563	523.12
617.771	513.12
617.978	487.12
618.185	510.12
618.393	497.12
618.6	504.12
618.807	518.12
619.015	516.12
619.222	504.12
619.429	491.12
619.637	484.12
619.844	491.12
620.051	472.12
620.258	487.12
620.466	471.12
620.673	497.12
620.88	459.12
621.087	465.12
621.294	459.12
621.501	459.12
621.708	471.12
621.915	464.12
622.122	493.12
622.329	482.12
622.536	483.12
622.743	474.12
622.95	469.12
623.157	456.12
623.364	453.12
623.571	466.12
623.778	451.12
623.985	471.12
624.192	471.12
624.399	447.12
624.606	460.12
624.812	439.12
625.019	422.12
625.226	440.12
625.433	447.12
625.639	437.12
625.846	433.12
626.053	440.12
626.259	427.12
626.466	417.12
626.673	405.12
626.879	428.12
627.086	410.12
627.293	414.12
627.499	420.12
627.706	432.12
627.912	412.12
628.119	420.12
628.325	425.12
628.532	417.12
628.738	411.12
628.945	419.12
629.151	425.12
629.357	434.12
629.564	417.12
629.77	411.12
629.976	404.12
630.183	386.12
630.389	400.12
630.595	402.12
630.802	380.12
631.008	414.12
631.214	387.12
631.42	374.12
631.627	376.12
631.833	388.12
632.039	380.12
632.245	389.12
632.451	389.12
632.657	372.12
632.863	388.12
633.069	383.12
633.275	362.12
633.481	358.12
633.688	390.12
633.893	362.12
634.099	359.12
634.305	355.12
634.511	363.12
634.717	371.12
634.923	353.12
635.129	345.12
635.335	365.12
635.541	365.12
635.747	363.12
635.952	358.12
636.158	365.12
636.364	338.12
636.57	390.12
636.775	361.12
636.981	351.12
637.187	355.12
637.392	367.12
637.598	365.12
637.804	360.12
638.009	367.12
638.215	369.12
638.421	339.12
638.626	354.12
638.832	352.12
639.037	347.12
639.243	356.12
639.448	337.12
639.654	340.12
639.859	339.12
640.065	344.12
640.27	357.12
640.475	347.12
640.681	352.12
640.886	329.12
641.091	346.12
641.297	311.12
641.502	324.12
641.707	333.12
641.913	338.12
642.118	333.12
642.323	315.12
642.528	330.12
642.733	321.12
642.939	341.12
643.144	323.12
643.349	333.12
643.554	328.12
643.759	337.12
643.964	335.12
644.169	325.12
644.374	311.12
644.579	311.12
644.784	329.12
644.989	308.12
645.194	337.12
645.399	315.12
645.604	318.12
645.809	336.12
646.014	332.12
646.219	320.12
646.423	300.12
646.628	305.12
646.833	318.12
647.038	324.12
647.243	315.12
647.447	301.12
647.652	311.12
647.857	327.12
648.062	333.12
648.266	318.12
648.471	319.12
648.676	324.12
648.88	324.12
649.085	333.12
649.289	315.12
649.494	300.12
649.698	307.12
649.903	313.12
650.107	319.12
650.312	297.12
650.516	303.12
650.721	292.12
650.925	296.12
651.13	291.12
651.334	303.12
651.539	302.12
651.743	267.12
651.947	279.12
652.152	262.12
652.356	260.12
652.56	276.12
652.764	271.12
652.969	269.12
653.173	255.12
653.377	251.12
653.581	259.12
653.785	255.12
653.99	270.12
654.194	263.12
654.398	249.12
654.602	235.12
654.806	246.12
655.01	241.12
655.214	229.12
655.418	259.12
655.622	241.12
655.826	256.12
656.03	265.12
656.234	250.12
656.438	275.12
656.642	267.12
656.846	276.12
657.049	255.12
657.253	232.12
657.457	213.12
657.661	197.12
657.865	191.12
658.068	184.12
658.272	187.12
658.476	151.12
658.68	163.12
658.883	136.12
659.087	155.12
659.291	135.12
659.494	140.12
659.698	135.12
659.901	131.12
660.105	133.12
660.309	116.12
660.512	118.12
660.716	115.12
660.919	123.12
661.123	110.12
661.326	111.12
661.53	93.12
661.733	102.12
661.936	94.12
662.14	99.12
662.343	94.12
662.546	91.12
662.75	99.12
662.953	98.12
663.156	84.12
663.36	88.12
663.563	99.12
663.766	84.12
663.969	81.12
664.173	76.12
664.376	76.12
664.579	90.12
664.782	85.12
664.985	83.12
665.188	76.12
665.391	92.12
665.594	82.12
665.797	76.12
666	81.12
666.203	92.12
666.406	68.12
666.609	84.12
666.812	94.12
667.015	95.12
667.218	82.12
667.421	90.12
667.624	84.12
667.827	94.12
668.03	77.12
668.232	91.12
668.435	93.12
668.638	70.12
668.841	79.12
669.043	70.12
669.246	82.12
669.449	79.12
669.651	88.12
669.854	78.12
670.057	69.12
670.259	71.12
670.462	74.12
670.665	75.12
670.867	89.12
671.07	92.12
671.272	84.12
671.475	90.12
671.677	80.12
671.88	87.12
672.082	92.12
672.284	74.12
672.487	82.12
672.689	98.12
672.892	81.12
