Data from WStandard_LampEnergy5.5LIBS07252019.E.O._I.C._HRD10591_16-06-42-920.txt Node
Date: Thu Jul 25 16:06:42 EDT 2019
User: cochatt
Spectrometer: HR+D1059
Trigger mode: 1
Integration Time (sec): 1.000000E-1
Scans to average: 1
Electric dark correction enabled: true
Nonlinearity correction enabled: false
Boxcar width: 0
XAxis mode: Wavelengths
Number of Pixels in Spectrum: 2048
>>>>>Begin Spectral Data<<<<<
223.165	-7.38
223.4	-7.38
223.635	-7.38
223.869	-25.38
224.104	-33.38
224.338	-14.38
224.573	-17.38
224.808	-3.38
225.042	-17.38
225.277	-1.38
225.511	-1.38
225.746	-3.38
225.98	9.62
226.215	4.62
226.449	14.62
226.683	32.62
226.918	26.62
227.152	36.62
227.387	31.62
227.621	40.62
227.856	51.62
228.09	37.62
228.324	44.62
228.559	63.62
228.793	178.62
229.027	346.62
229.262	368.62
229.496	369.62
229.73	369.62
229.964	450.62
230.199	440.62
230.433	473.62
230.667	474.62
230.901	523.62
231.136	465.62
231.37	445.62
231.604	460.62
231.838	449.62
232.072	464.62
232.306	438.62
232.541	468.62
232.775	526.62
233.009	590.62
233.243	547.62
233.477	521.62
233.711	558.62
233.945	540.62
234.179	572.62
234.413	591.62
234.647	643.62
234.881	592.62
235.115	556.62
235.349	535.62
235.583	548.62
235.817	551.62
236.051	544.62
236.285	534.62
236.519	576.62
236.753	662.62
236.987	673.62
237.221	679.62
237.455	709.62
237.689	693.62
237.922	672.62
238.156	646.62
238.39	641.62
238.624	714.62
238.858	742.62
239.091	778.62
239.325	771.62
239.559	933.62
239.793	967.62
240.027	1031.62
240.26	992.62
240.494	752.62
240.728	690.62
240.961	720.62
241.195	722.62
241.429	815.62
241.662	830.62
241.896	741.62
242.13	753.62
242.363	857.62
242.597	928.62
242.83	885.62
243.064	883.62
243.298	947.62
243.531	922.62
243.765	898.62
243.998	906.62
244.232	799.62
244.465	760.62
244.699	783.62
244.932	885.62
245.166	1035.62
245.399	982.62
245.633	906.62
245.866	883.62
246.099	904.62
246.333	929.62
246.566	958.62
246.8	1057.62
247.033	1121.62
247.266	1077.62
247.5	1050.62
247.733	1028.62
247.966	1099.62
248.2	1240.62
248.433	1182.62
248.666	1163.62
248.899	1312.62
249.133	1504.62
249.366	1748.62
249.599	1441.62
249.832	1223.62
250.066	1288.62
250.299	1310.62
250.532	1178.62
250.765	1082.62
250.998	1141.62
251.231	1148.62
251.465	1218.62
251.698	1175.62
251.931	1174.62
252.164	1226.62
252.397	1244.62
252.63	1251.62
252.863	1079.62
253.096	1086.62
253.329	1162.62
253.562	1200.62
253.795	1231.62
254.028	1257.62
254.261	1190.62
254.494	1136.62
254.727	1100.62
254.96	1161.62
255.193	1232.62
255.426	1409.62
255.659	1596.62
255.892	1720.62
256.124	1380.62
256.357	1314.62
256.59	1409.62
256.823	1405.62
257.056	1374.62
257.289	1667.62
257.521	1916.62
257.754	1694.62
257.987	1581.62
258.22	1759.62
258.452	1744.62
258.685	1372.62
258.918	1348.62
259.151	1375.62
259.383	1296.62
259.616	1155.62
259.849	1196.62
260.081	1375.62
260.314	1508.62
260.547	1682.62
260.779	1720.62
261.012	1567.62
261.244	1410.62
261.477	1328.62
261.71	1374.62
261.942	1364.62
262.175	1350.62
262.407	1457.62
262.64	1349.62
262.872	1259.62
263.105	1249.62
263.337	1262.62
263.57	1279.62
263.802	1286.62
264.035	1212.62
264.267	1133.62
264.499	1118.62
264.732	1194.62
264.964	1264.62
265.197	1334.62
265.429	1391.62
265.661	1568.62
265.894	1690.62
266.126	1761.62
266.358	1553.62
266.591	1646.62
266.823	1794.62
267.055	1588.62
267.287	1559.62
267.52	1537.62
267.752	1541.62
267.984	1497.62
268.216	1576.62
268.448	1667.62
268.681	1633.62
268.913	1515.62
269.145	1414.62
269.377	1392.62
269.609	1460.62
269.841	1727.62
270.073	1972.62
270.306	2233.62
270.538	2383.62
270.77	2033.62
271.002	1724.62
271.234	1612.62
271.466	1636.62
271.698	1792.62
271.93	2164.62
272.162	2176.62
272.394	1953.62
272.626	1866.62
272.858	1668.62
273.09	1404.62
273.322	1458.62
273.553	1398.62
273.785	1393.62
274.017	1425.62
274.249	1513.62
274.481	1567.62
274.713	1438.62
274.945	1349.62
275.176	1383.62
275.408	1402.62
275.64	1331.62
275.872	1342.62
276.104	1420.62
276.335	1617.62
276.567	1841.62
276.799	1880.62
277.031	1645.62
277.262	1578.62
277.494	1642.62
277.726	1815.62
277.957	1825.62
278.189	1672.62
278.421	1465.62
278.652	1487.62
278.884	1476.62
279.115	1433.62
279.347	1481.62
279.579	1465.62
279.81	1416.62
280.042	1588.62
280.273	1774.62
280.505	1759.62
280.736	1833.62
280.968	1651.62
281.199	1485.62
281.431	1404.62
281.662	1433.62
281.894	1412.62
282.125	1463.62
282.356	1496.62
282.588	1528.62
282.819	1499.62
283.051	1662.62
283.282	1790.62
283.513	1744.62
283.745	1472.62
283.976	1370.62
284.207	1412.62
284.439	1424.62
284.67	1504.62
284.901	1500.62
285.132	1535.62
285.364	1538.62
285.595	1517.62
285.826	1492.62
286.057	1454.62
286.288	1470.62
286.52	1484.62
286.751	1621.62
286.982	1727.62
287.213	1627.62
287.444	1446.62
287.675	1402.62
287.906	1510.62
288.138	1623.62
288.369	1620.62
288.6	1484.62
288.831	1432.62
289.062	1449.62
289.293	1490.62
289.524	1505.62
289.755	1562.62
289.986	1553.62
290.217	1430.62
290.448	1452.62
290.679	1497.62
290.91	1538.62
291.141	1547.62
291.371	1637.62
291.602	1584.62
291.833	1567.62
292.064	1640.62
292.295	1588.62
292.526	1608.62
292.757	1678.62
292.987	1601.62
293.218	1532.62
293.449	1641.62
293.68	1872.62
293.91	2024.62
294.141	1858.62
294.372	1742.62
294.603	1759.62
294.833	1886.62
295.064	1768.62
295.295	1615.62
295.525	1594.62
295.756	1469.62
295.987	1380.62
296.217	1406.62
296.448	1466.62
296.679	1462.62
296.909	1481.62
297.14	1430.62
297.37	1460.62
297.601	1587.62
297.831	1719.62
298.062	1714.62
298.292	1568.62
298.523	1447.62
298.753	1485.62
298.984	1500.62
299.214	1522.62
299.445	1566.62
299.675	1554.62
299.905	1570.62
300.136	1590.62
300.366	1512.62
300.597	1396.62
300.827	1452.62
301.057	1530.62
301.288	1617.62
301.518	1616.62
301.748	1599.62
301.979	1680.62
302.209	1698.62
302.439	1817.62
302.669	1942.62
302.9	1830.62
303.13	1600.62
303.36	1650.62
303.59	1656.62
303.82	1610.62
304.051	1617.62
304.281	1635.62
304.511	1628.62
304.741	1670.62
304.971	1896.62
305.201	2042.62
305.431	1926.62
305.661	1561.62
305.891	1377.62
306.121	1400.62
306.352	1472.62
306.582	1556.62
306.812	1657.62
307.042	1802.62
307.272	1774.62
307.502	1815.62
307.731	1931.62
307.961	2141.62
308.191	1950.62
308.421	1692.62
308.651	1549.62
308.881	1583.62
309.111	1561.62
309.341	1516.62
309.571	1557.62
309.8	1545.62
310.03	1548.62
310.26	1521.62
310.49	1498.62
310.72	1543.62
310.949	1637.62
311.179	1645.62
311.409	1623.62
311.639	1596.62
311.868	1573.62
312.098	1583.62
312.328	1582.62
312.557	1547.62
312.787	1646.62
313.017	1608.62
313.246	1625.62
313.476	1610.62
313.706	1660.62
313.935	1638.62
314.165	1709.62
314.394	1736.62
314.624	1793.62
314.853	1876.62
315.083	1975.62
315.312	2024.62
315.542	1933.62
315.771	1699.62
316.001	1675.62
316.23	1757.62
316.46	1757.62
316.689	1735.62
316.919	1670.62
317.148	1584.62
317.377	1631.62
317.607	1713.62
317.836	1926.62
318.065	2005.62
318.295	1948.62
318.524	1846.62
318.753	1796.62
318.983	1750.62
319.212	1716.62
319.441	1673.62
319.67	1708.62
319.9	1700.62
320.129	1848.62
320.358	1882.62
320.587	1902.62
320.816	1888.62
321.046	1896.62
321.275	1747.62
321.504	1782.62
321.733	1929.62
321.962	1896.62
322.191	1763.62
322.42	1686.62
322.649	1720.62
322.878	1673.62
323.108	1679.62
323.337	1766.62
323.566	1774.62
323.795	1736.62
324.024	1767.62
324.253	1700.62
324.482	1737.62
324.71	1682.62
324.939	1596.62
325.168	1606.62
325.397	1712.62
325.626	1726.62
325.855	1749.62
326.084	1711.62
326.313	1675.62
326.542	1752.62
326.77	1757.62
326.999	1776.62
327.228	1722.62
327.457	1593.62
327.686	1620.62
327.914	1654.62
328.143	1719.62
328.372	1706.62
328.6	1725.62
328.829	1734.62
329.058	1662.62
329.287	1648.62
329.515	1700.62
329.744	1736.62
329.972	1760.62
330.201	1922.62
330.43	1864.62
330.658	1828.62
330.887	1824.62
331.115	1761.62
331.344	1841.62
331.572	1798.62
331.801	1746.62
332.03	1776.62
332.258	1812.62
332.486	1830.62
332.715	1846.62
332.943	1864.62
333.172	1786.62
333.4	1811.62
333.629	1860.62
333.857	1959.62
334.085	2174.62
334.314	2404.62
334.542	2716.62
334.771	2502.62
334.999	2182.62
335.227	2095.62
335.455	1940.62
335.684	1956.62
335.912	1966.62
336.14	2053.62
336.369	1994.62
336.597	1907.62
336.825	1812.62
337.053	1833.62
337.281	1993.62
337.51	2057.62
337.738	2121.62
337.966	2058.62
338.194	1867.62
338.422	1796.62
338.65	1774.62
338.878	1762.62
339.106	1745.62
339.334	1702.62
339.562	1684.62
339.79	1733.62
340.018	1804.62
340.246	1870.62
340.474	1936.62
340.702	1872.62
340.93	1859.62
341.158	1858.62
341.386	1796.62
341.614	1791.62
341.842	1780.62
342.07	1796.62
342.298	1836.62
342.526	1822.62
342.754	1766.62
342.981	1751.62
343.209	1729.62
343.437	1743.62
343.665	1794.62
343.893	1827.62
344.12	1871.62
344.348	1928.62
344.576	1825.62
344.804	1772.62
345.031	1797.62
345.259	1779.62
345.487	1721.62
345.714	1670.62
345.942	1606.62
346.17	1623.62
346.397	1682.62
346.625	1711.62
346.853	1617.62
347.08	1572.62
347.308	1622.62
347.535	1671.62
347.763	1728.62
347.99	1678.62
348.218	1620.62
348.445	1622.62
348.673	1669.62
348.9	1716.62
349.128	1722.62
349.355	1793.62
349.583	1758.62
349.81	1679.62
350.037	1574.62
350.265	1537.62
350.492	1584.62
350.72	1610.62
350.947	1665.62
351.174	1676.62
351.402	1592.62
351.629	1590.62
351.856	1546.62
352.083	1559.62
352.311	1555.62
352.538	1610.62
352.765	1656.62
352.992	1694.62
353.22	1655.62
353.447	1575.62
353.674	1616.62
353.901	1642.62
354.128	1638.62
354.355	1599.62
354.583	1673.62
354.81	1689.62
355.037	1672.62
355.264	1728.62
355.491	1676.62
355.718	1684.62
355.945	1624.62
356.172	1592.62
356.399	1560.62
356.626	1571.62
356.853	1630.62
357.08	1735.62
357.307	1950.62
357.534	1964.62
357.761	1780.62
357.988	1616.62
358.215	1521.62
358.441	1541.62
358.668	1549.62
358.895	1533.62
359.122	1668.62
359.349	1840.62
359.576	1819.62
359.802	1686.62
360.029	1569.62
360.256	1570.62
360.483	1612.62
360.709	1636.62
360.936	1712.62
361.163	1726.62
361.39	1908.62
361.616	2056.62
361.843	2013.62
362.07	1900.62
362.296	1667.62
362.523	1623.62
362.749	1606.62
362.976	1638.62
363.203	1675.62
363.429	1666.62
363.656	1578.62
363.882	1602.62
364.109	1792.62
364.335	1934.62
364.562	1807.62
364.788	1737.62
365.015	1639.62
365.241	1568.62
365.468	1633.62
365.694	1700.62
365.92	1775.62
366.147	1700.62
366.373	1612.62
366.599	1593.62
366.826	1528.62
367.052	1578.62
367.278	1598.62
367.505	1645.62
367.731	1690.62
367.957	1656.62
368.184	1711.62
368.41	1786.62
368.636	1817.62
368.862	1807.62
369.089	1889.62
369.315	1796.62
369.541	1694.62
369.767	1640.62
369.993	1592.62
370.219	1604.62
370.445	1655.62
370.672	1747.62
370.898	1812.62
371.124	1817.62
371.35	1709.62
371.576	1753.62
371.802	1830.62
372.028	1778.62
372.254	1670.62
372.48	1615.62
372.706	1604.62
372.932	1614.62
373.158	1598.62
373.384	1684.62
373.61	1712.62
373.835	1816.62
374.061	1766.62
374.287	1707.62
374.513	1729.62
374.739	1715.62
374.965	1730.62
375.191	1742.62
375.416	1755.62
375.642	1746.62
375.868	1867.62
376.094	1902.62
376.319	1856.62
376.545	1729.62
376.771	1713.62
376.997	1839.62
377.222	1777.62
377.448	1788.62
377.674	1826.62
377.899	1755.62
378.125	1876.62
378.35	1888.62
378.576	1684.62
378.802	1639.62
379.027	1640.62
379.253	1689.62
379.478	1720.62
379.704	1726.62
379.929	1705.62
380.155	1694.62
380.38	1748.62
380.606	1745.62
380.831	1707.62
381.057	1778.62
381.282	1829.62
381.507	1751.62
381.733	1861.62
381.958	1980.62
382.184	1865.62
382.409	1724.62
382.634	1814.62
382.86	1728.62
383.085	1753.62
383.31	1808.62
383.535	1959.62
383.761	2037.62
383.986	1996.62
384.211	1907.62
384.436	1884.62
384.662	1977.62
384.887	2108.62
385.112	1968.62
385.337	1950.62
385.562	1967.62
385.787	1940.62
386.013	2007.62
386.238	2046.62
386.463	1927.62
386.688	2076.62
386.913	2213.62
387.138	2218.62
387.363	2053.62
387.588	2028.62
387.813	1998.62
388.038	1993.62
388.263	2123.62
388.488	2017.62
388.713	1856.62
388.938	1798.62
389.163	1860.62
389.387	1926.62
389.612	1916.62
389.837	1986.62
390.062	1994.62
390.287	1953.62
390.512	1952.62
390.736	1893.62
390.961	1871.62
391.186	1842.62
391.411	1890.62
391.636	1916.62
391.86	1976.62
392.085	1996.62
392.31	1935.62
392.534	1933.62
392.759	1977.62
392.984	1913.62
393.208	1944.62
393.433	2058.62
393.658	2135.62
393.882	2135.62
394.107	1987.62
394.331	1920.62
394.556	1948.62
394.78	1950.62
395.005	2014.62
395.229	2062.62
395.454	2230.62
395.678	2237.62
395.903	2166.62
396.127	2062.62
396.352	2094.62
396.576	2141.62
396.801	2158.62
397.025	2156.62
397.249	2136.62
397.474	2089.62
397.698	2117.62
397.922	2182.62
398.147	2218.62
398.371	2319.62
398.595	2320.62
398.82	2192.62
399.044	2263.62
399.268	2360.62
399.492	2483.62
399.717	2620.62
399.941	2614.62
400.165	2556.62
400.389	2526.62
400.613	2472.62
400.837	2656.62
401.062	3110.62
401.286	2692.62
401.51	2373.62
401.734	2543.62
401.958	2480.62
402.182	2297.62
402.406	2230.62
402.63	2210.62
402.854	2201.62
403.078	2258.62
403.302	2324.62
403.526	2352.62
403.75	2272.62
403.974	2330.62
404.198	2280.62
404.422	2412.62
404.645	2495.62
404.869	2452.62
405.093	2228.62
405.317	2258.62
405.541	2350.62
405.765	2361.62
405.988	2361.62
406.212	2317.62
406.436	2418.62
406.66	2462.62
406.883	2451.62
407.107	2759.62
407.331	3010.62
407.555	3248.62
407.778	3013.62
408.002	2517.62
408.226	2419.62
408.449	2486.62
408.673	2384.62
408.896	2338.62
409.12	2432.62
409.344	2391.62
409.567	2348.62
409.791	2300.62
410.014	2376.62
410.238	2467.62
410.461	2654.62
410.685	2384.62
410.908	2245.62
411.132	2278.62
411.355	2258.62
411.578	2239.62
411.802	2224.62
412.025	2323.62
412.249	2245.62
412.472	2254.62
412.695	2179.62
412.919	2186.62
413.142	2160.62
413.365	2202.62
413.589	2316.62
413.812	2339.62
414.035	2460.62
414.258	2257.62
414.482	2215.62
414.705	2268.62
414.928	2220.62
415.151	2170.62
415.374	2197.62
415.597	2224.62
415.821	2272.62
416.044	2349.62
416.267	2367.62
416.49	2145.62
416.713	2102.62
416.936	2168.62
417.159	2295.62
417.382	2280.62
417.605	2158.62
417.828	2232.62
418.051	2239.62
418.274	2188.62
418.497	2114.62
418.72	2129.62
418.943	2120.62
419.166	2243.62
419.389	2382.62
419.611	2223.62
419.834	2180.62
420.057	2215.62
420.28	2141.62
420.503	2134.62
420.726	2196.62
420.948	2204.62
421.171	2135.62
421.394	2119.62
421.617	2234.62
421.839	2156.62
422.062	2158.62
422.285	2112.62
422.507	2098.62
422.73	2065.62
422.953	2055.62
423.175	2048.62
423.398	2119.62
423.621	2108.62
423.843	2100.62
424.066	2160.62
424.288	2233.62
424.511	2272.62
424.733	2200.62
424.956	2021.62
425.178	1977.62
425.401	2065.62
425.623	2087.62
425.846	2044.62
426.068	2202.62
426.291	2211.62
426.513	2172.62
426.735	2170.62
426.958	2310.62
427.18	2467.62
427.402	2208.62
427.625	2329.62
427.847	2324.62
428.069	2145.62
428.292	2072.62
428.514	2034.62
428.736	2017.62
428.958	2049.62
429.181	2103.62
429.403	2325.62
429.625	2892.62
429.847	2526.62
430.069	2122.62
430.292	2312.62
430.514	2457.62
430.736	2285.62
430.958	2312.62
431.18	2227.62
431.402	2036.62
431.624	1996.62
431.846	2001.62
432.068	2012.62
432.29	2026.62
432.512	2087.62
432.734	2128.62
432.956	2157.62
433.178	2279.62
433.4	2268.62
433.622	2256.62
433.844	2104.62
434.066	1993.62
434.287	2025.62
434.509	2146.62
434.731	2245.62
434.953	2336.62
435.175	2333.62
435.397	2184.62
435.618	2199.62
435.84	2190.62
436.062	2177.62
436.284	2186.62
436.505	2197.62
436.727	2235.62
436.949	2127.62
437.17	2064.62
437.392	2084.62
437.614	2118.62
437.835	2009.62
438.057	2161.62
438.278	2202.62
438.5	2080.62
438.721	2017.62
438.943	2099.62
439.165	2043.62
439.386	2021.62
439.608	2032.62
439.829	2077.62
440.05	2049.62
440.272	2024.62
440.493	1989.62
440.715	2032.62
440.936	2147.62
441.158	2434.62
441.379	2342.62
441.6	2245.62
441.822	2248.62
442.043	2220.62
442.264	2139.62
442.486	2047.62
442.707	2040.62
442.928	2042.62
443.149	2166.62
443.371	2263.62
443.592	2322.62
443.813	2237.62
444.034	2232.62
444.255	2259.62
444.476	2280.62
444.698	2356.62
444.919	2346.62
445.14	2426.62
445.361	2422.62
445.582	2455.62
445.803	2350.62
446.024	2272.62
446.245	2332.62
446.466	2280.62
446.687	2147.62
446.908	2124.62
447.129	2120.62
447.35	2097.62
447.571	2133.62
447.792	2044.62
448.013	2002.62
448.234	2052.62
448.455	2160.62
448.675	2156.62
448.896	1959.62
449.117	1960.62
449.338	1984.62
449.559	2114.62
449.779	2224.62
450	2398.62
450.221	2652.62
450.442	2567.62
450.662	2236.62
450.883	1972.62
451.104	1933.62
451.324	2004.62
451.545	2053.62
451.766	2004.62
451.986	1876.62
452.207	1893.62
452.428	1861.62
452.648	1822.62
452.869	1864.62
453.089	2029.62
453.31	2019.62
453.53	2084.62
453.751	1968.62
453.971	1893.62
454.192	1912.62
454.412	2014.62
454.633	1988.62
454.853	1926.62
455.073	1794.62
455.294	1776.62
455.514	1790.62
455.734	1817.62
455.955	1864.62
456.175	1822.62
456.395	1830.62
456.616	1864.62
456.836	1967.62
457.056	1873.62
457.276	1886.62
457.497	1848.62
457.717	1784.62
457.937	1833.62
458.157	1887.62
458.377	1821.62
458.598	1842.62
458.818	1846.62
459.038	1931.62
459.258	2106.62
459.478	2098.62
459.698	2072.62
459.918	2069.62
460.138	2157.62
460.358	2185.62
460.578	2184.62
460.798	2326.62
461.018	2418.62
461.238	2352.62
461.458	2215.62
461.678	2232.62
461.898	2159.62
462.118	2068.62
462.338	2217.62
462.558	2218.62
462.777	2150.62
462.997	2305.62
463.217	2468.62
463.437	2430.62
463.657	2260.62
463.876	2222.62
464.096	2236.62
464.316	2169.62
464.536	2324.62
464.755	2313.62
464.975	2332.62
465.195	2252.62
465.414	2336.62
465.634	2364.62
465.854	2172.62
466.073	2303.62
466.293	2255.62
466.512	2009.62
466.732	2037.62
466.951	2102.62
467.171	2102.62
467.391	1975.62
467.61	1972.62
467.829	1982.62
468.049	2135.62
468.268	2430.62
468.488	2232.62
468.707	2168.62
468.927	2046.62
469.146	2030.62
469.365	2015.62
469.585	2030.62
469.804	1976.62
470.023	1981.62
470.243	2012.62
470.462	2033.62
470.681	1954.62
470.901	2004.62
471.12	1995.62
471.339	2001.62
471.558	1967.62
471.777	1935.62
471.997	1961.62
472.216	2020.62
472.435	1935.62
472.654	1893.62
472.873	1964.62
473.092	2148.62
473.311	2023.62
473.53	1901.62
473.749	1906.62
473.968	1991.62
474.187	2034.62
474.406	2190.62
474.625	2076.62
474.844	2074.62
475.063	2026.62
475.282	2112.62
475.501	2037.62
475.72	2024.62
475.939	2140.62
476.158	2093.62
476.377	2017.62
476.596	2076.62
476.814	2093.62
477.033	2084.62
477.252	2240.62
477.471	2243.62
477.69	2172.62
477.908	2131.62
478.127	2227.62
478.346	2428.62
478.564	2461.62
478.783	2353.62
479.002	2478.62
479.22	2422.62
479.439	2515.62
479.658	2837.62
479.876	2810.62
480.095	2456.62
480.313	2373.62
480.532	2244.62
480.751	2263.62
480.969	2321.62
481.188	2269.62
481.406	2259.62
481.624	2194.62
481.843	2223.62
482.061	2299.62
482.28	2302.62
482.498	2380.62
482.717	2349.62
482.935	2195.62
483.153	2223.62
483.372	2226.62
483.59	2204.62
483.808	2215.62
484.027	2293.62
484.245	2428.62
484.463	2804.62
484.681	3233.62
484.9	2499.62
485.118	2243.62
485.336	2268.62
485.554	2368.62
485.772	2480.62
485.99	2417.62
486.209	2444.62
486.427	2421.62
486.645	2376.62
486.863	2372.62
487.081	2408.62
487.299	2510.62
487.517	2484.62
487.735	2307.62
487.953	2298.62
488.171	2340.62
488.389	2367.62
488.607	2326.62
488.825	2562.62
489.043	2605.62
489.261	2341.62
489.479	2493.62
489.696	2530.62
489.914	2490.62
490.132	2425.62
490.35	2388.62
490.568	2420.62
490.786	2337.62
491.003	2260.62
491.221	2321.62
491.439	2452.62
491.657	2440.62
491.874	2466.62
492.092	2510.62
492.31	2465.62
492.527	2425.62
492.745	2368.62
492.963	2404.62
493.18	2494.62
493.398	2647.62
493.615	2712.62
493.833	2572.62
494.05	2468.62
494.268	2447.62
494.485	2540.62
494.703	2486.62
494.92	2432.62
495.138	2448.62
495.355	2432.62
495.573	2523.62
495.79	2759.62
496.008	2738.62
496.225	2557.62
496.442	2571.62
496.66	2601.62
496.877	2565.62
497.094	2652.62
497.312	2692.62
497.529	2657.62
497.746	2743.62
497.963	3205.62
498.181	3575.62
498.398	3327.62
498.615	3240.62
498.832	3132.62
499.049	3104.62
499.267	3127.62
499.484	3304.62
499.701	3578.62
499.918	3607.62
500.135	3886.62
500.352	4188.62
500.569	4078.62
500.786	4396.62
501.003	4120.62
501.22	3700.62
501.437	3623.62
501.654	3644.62
501.871	3512.62
502.088	3126.62
502.305	3092.62
502.522	3031.62
502.739	2808.62
502.956	2737.62
503.172	2708.62
503.389	2644.62
503.606	2598.62
503.823	2618.62
504.04	2628.62
504.256	2598.62
504.473	2575.62
504.69	2679.62
504.907	2547.62
505.123	2431.62
505.34	2514.62
505.557	3319.62
505.773	2868.62
505.99	2348.62
506.207	2209.62
506.423	2236.62
506.64	2186.62
506.856	2217.62
507.073	2516.62
507.289	2725.62
507.506	2591.62
507.722	2241.62
507.939	2117.62
508.155	2119.62
508.372	2126.62
508.588	2092.62
508.805	2061.62
509.021	2054.62
509.238	2007.62
509.454	1983.62
509.67	2047.62
509.887	1999.62
510.103	1989.62
510.319	1991.62
510.536	2129.62
510.752	2153.62
510.968	2162.62
511.184	2338.62
511.401	2301.62
511.617	1989.62
511.833	1945.62
512.049	1948.62
512.265	1916.62
512.481	1919.62
512.698	1996.62
512.914	2178.62
513.13	2102.62
513.346	1973.62
513.562	1910.62
513.778	1943.62
513.994	2036.62
514.21	2153.62
514.426	2148.62
514.642	2391.62
514.858	2226.62
515.074	2032.62
515.29	1982.62
515.506	2045.62
515.721	2070.62
515.937	2094.62
516.153	2344.62
516.369	2289.62
516.585	2132.62
516.801	2002.62
517.016	2048.62
517.232	2085.62
517.448	2158.62
517.664	2192.62
517.879	2162.62
518.095	2298.62
518.311	2177.62
518.527	2066.62
518.742	1998.62
518.958	2001.62
519.173	1976.62
519.389	2004.62
519.605	2057.62
519.82	2040.62
520.036	2045.62
520.251	1980.62
520.467	1977.62
520.682	2161.62
520.898	2266.62
521.113	2012.62
521.329	1964.62
521.544	2074.62
521.76	2001.62
521.975	1908.62
522.19	1878.62
522.406	1877.62
522.621	2246.62
522.836	2286.62
523.052	1829.62
523.267	1862.62
523.482	1873.62
523.698	1768.62
523.913	1746.62
524.128	1778.62
524.343	1930.62
524.559	1953.62
524.774	1837.62
524.989	1827.62
525.204	1796.62
525.419	1790.62
525.634	1749.62
525.849	1802.62
526.064	1778.62
526.28	1813.62
526.495	1751.62
526.71	1723.62
526.925	1741.62
527.14	1696.62
527.355	1716.62
527.57	1676.62
527.785	1757.62
527.999	1720.62
528.214	1679.62
528.429	1612.62
528.644	1650.62
528.859	1660.62
529.074	1704.62
529.289	1708.62
529.503	1730.62
529.718	1737.62
529.933	1702.62
530.148	1644.62
530.363	1635.62
530.577	1653.62
530.792	1712.62
531.007	1720.62
531.221	1700.62
531.436	1735.62
531.651	1793.62
531.865	1894.62
532.08	1765.62
532.295	1672.62
532.509	1630.62
532.724	1631.62
532.938	1748.62
533.153	1825.62
533.367	1764.62
533.582	1657.62
533.796	1670.62
534.011	1714.62
534.225	1697.62
534.44	1654.62
534.654	1636.62
534.868	1640.62
535.083	1736.62
535.297	1750.62
535.511	1688.62
535.726	1695.62
535.94	1675.62
536.154	1673.62
536.369	1592.62
536.583	1625.62
536.797	1598.62
537.011	1653.62
537.225	1619.62
537.44	1586.62
537.654	1658.62
537.868	1569.62
538.082	1526.62
538.296	1496.62
538.51	1493.62
538.724	1557.62
538.938	1551.62
539.153	1580.62
539.367	1630.62
539.581	1600.62
539.795	1672.62
540.009	1624.62
540.222	1592.62
540.436	1638.62
540.65	1768.62
540.864	1796.62
541.078	1696.62
541.292	1535.62
541.506	1566.62
541.72	1575.62
541.934	1618.62
542.147	1631.62
542.361	1587.62
542.575	1530.62
542.789	1490.62
543.002	1494.62
543.216	1528.62
543.43	1636.62
543.644	1697.62
543.857	1733.62
544.071	1640.62
544.285	1603.62
544.498	1538.62
544.712	1551.62
544.925	1633.62
545.139	1657.62
545.352	1577.62
545.566	1498.62
545.779	1491.62
545.993	1510.62
546.206	1539.62
546.42	1502.62
546.633	1492.62
546.847	1474.62
547.06	1475.62
547.274	1466.62
547.487	1510.62
547.7	1484.62
547.914	1519.62
548.127	1556.62
548.34	1493.62
548.554	1511.62
548.767	1528.62
548.98	1477.62
549.193	1488.62
549.407	1587.62
549.62	1582.62
549.833	1504.62
550.046	1484.62
550.259	1483.62
550.473	1486.62
550.686	1494.62
550.899	1456.62
551.112	1417.62
551.325	1413.62
551.538	1550.62
551.751	1763.62
551.964	1456.62
552.177	1421.62
552.39	1408.62
552.603	1460.62
552.816	1448.62
553.029	1547.62
553.242	1618.62
553.455	1513.62
553.667	1465.62
553.88	1493.62
554.093	1500.62
554.306	1449.62
554.519	1394.62
554.732	1393.62
554.944	1380.62
555.157	1414.62
555.37	1375.62
555.583	1425.62
555.795	1352.62
556.008	1287.62
556.221	1329.62
556.433	1279.62
556.646	1282.62
556.859	1280.62
557.071	1304.62
557.284	1294.62
557.496	1292.62
557.709	1247.62
557.921	1261.62
558.134	1212.62
558.346	1242.62
558.559	1240.62
558.771	1207.62
558.984	1208.62
559.196	1151.62
559.409	1201.62
559.621	1217.62
559.833	1206.62
560.046	1286.62
560.258	1236.62
560.47	1212.62
560.683	1219.62
560.895	1229.62
561.107	1223.62
561.32	1240.62
561.532	1238.62
561.744	1228.62
561.956	1252.62
562.168	1185.62
562.381	1156.62
562.593	1181.62
562.805	1178.62
563.017	1188.62
563.229	1202.62
563.441	1213.62
563.653	1178.62
563.865	1208.62
564.077	1203.62
564.289	1178.62
564.501	1222.62
564.713	1217.62
564.925	1277.62
565.137	1383.62
565.349	1237.62
565.561	1252.62
565.773	1278.62
565.985	1272.62
566.197	1356.62
566.408	1435.62
566.62	1472.62
566.832	1429.62
567.044	1474.62
567.255	1480.62
567.467	1433.62
567.679	1491.62
567.891	1548.62
568.102	1514.62
568.314	1426.62
568.526	1401.62
568.737	1337.62
568.949	1272.62
569.161	1269.62
569.372	1159.62
569.584	1161.62
569.795	1162.62
570.007	1186.62
570.218	1107.62
570.43	1081.62
570.641	1113.62
570.853	1073.62
571.064	1079.62
571.276	1075.62
571.487	1090.62
571.698	1014.62
571.91	1002.62
572.121	983.62
572.333	994.62
572.544	999.62
572.755	957.62
572.966	956.62
573.178	935.62
573.389	961.62
573.6	1019.62
573.811	1088.62
574.023	965.62
574.234	968.62
574.445	942.62
574.656	902.62
574.867	930.62
575.078	928.62
575.289	899.62
575.501	892.62
575.712	869.62
575.923	890.62
576.134	929.62
576.345	881.62
576.556	910.62
576.767	879.62
576.978	888.62
577.188	890.62
577.399	828.62
577.61	846.62
577.821	845.62
578.032	818.62
578.243	844.62
578.454	878.62
578.665	857.62
578.875	841.62
579.086	810.62
579.297	792.62
579.508	849.62
579.718	858.62
579.929	844.62
580.14	803.62
580.35	772.62
580.561	815.62
580.772	906.62
580.982	818.62
581.193	812.62
581.403	802.62
581.614	786.62
581.825	777.62
582.035	798.62
582.246	773.62
582.456	765.62
582.667	797.62
582.877	762.62
583.087	743.62
583.298	760.62
583.508	746.62
583.719	779.62
583.929	785.62
584.139	797.62
584.35	752.62
584.56	770.62
584.77	799.62
584.981	773.62
585.191	768.62
585.401	802.62
585.611	780.62
585.821	762.62
586.032	741.62
586.242	721.62
586.452	737.62
586.662	764.62
586.872	734.62
587.082	712.62
587.292	760.62
587.502	750.62
587.713	780.62
587.923	736.62
588.133	742.62
588.343	768.62
588.553	716.62
588.762	730.62
588.972	733.62
589.182	761.62
589.392	732.62
589.602	762.62
589.812	752.62
590.022	719.62
590.232	732.62
590.441	719.62
590.651	733.62
590.861	731.62
591.071	712.62
591.281	698.62
591.49	711.62
591.7	711.62
591.91	727.62
592.119	725.62
592.329	719.62
592.539	752.62
592.748	756.62
592.958	752.62
593.167	749.62
593.377	748.62
593.587	781.62
593.796	784.62
594.006	754.62
594.215	765.62
594.424	745.62
594.634	740.62
594.843	737.62
595.053	784.62
595.262	752.62
595.472	710.62
595.681	696.62
595.89	710.62
596.1	678.62
596.309	687.62
596.518	681.62
596.727	679.62
596.937	672.62
597.146	656.62
597.355	633.62
597.564	675.62
597.774	621.62
597.983	640.62
598.192	635.62
598.401	632.62
598.61	605.62
598.819	608.62
599.028	606.62
599.237	628.62
599.446	609.62
599.655	613.62
599.864	590.62
600.073	600.62
600.282	591.62
600.491	596.62
600.7	576.62
600.909	600.62
601.118	581.62
601.327	606.62
601.536	631.62
601.745	588.62
601.953	580.62
602.162	590.62
602.371	601.62
602.58	586.62
602.789	569.62
602.997	578.62
603.206	584.62
603.415	583.62
603.623	589.62
603.832	566.62
604.041	556.62
604.249	581.62
604.458	564.62
604.666	586.62
604.875	578.62
605.084	568.62
605.292	570.62
605.501	563.62
605.709	561.62
605.918	531.62
606.126	544.62
606.334	540.62
606.543	552.62
606.751	580.62
606.96	558.62
607.168	562.62
607.376	529.62
607.585	538.62
607.793	532.62
608.001	541.62
608.21	554.62
608.418	560.62
608.626	545.62
608.834	540.62
609.043	519.62
609.251	533.62
609.459	536.62
609.667	529.62
609.875	553.62
610.083	557.62
610.291	544.62
610.499	563.62
610.707	550.62
610.916	534.62
611.124	540.62
611.332	534.62
611.54	522.62
611.748	519.62
611.955	508.62
612.163	500.62
612.371	502.62
612.579	514.62
612.787	513.62
612.995	511.62
613.203	541.62
613.411	516.62
613.618	521.62
613.826	487.62
614.034	531.62
614.242	515.62
614.449	526.62
614.657	510.62
614.865	526.62
615.072	538.62
615.28	515.62
615.488	522.62
615.695	515.62
615.903	490.62
616.111	516.62
616.318	496.62
616.526	530.62
616.733	506.62
616.941	522.62
617.148	470.62
617.356	508.62
617.563	508.62
617.771	515.62
617.978	471.62
618.185	490.62
618.393	482.62
618.6	461.62
618.807	503.62
619.015	498.62
619.222	497.62
619.429	485.62
619.637	473.62
619.844	468.62
620.051	465.62
620.258	503.62
620.466	467.62
620.673	441.62
620.88	458.62
621.087	451.62
621.294	437.62
621.501	451.62
621.708	463.62
621.915	466.62
622.122	464.62
622.329	481.62
622.536	456.62
622.743	432.62
622.95	455.62
623.157	462.62
623.364	455.62
623.571	446.62
623.778	423.62
623.985	437.62
624.192	467.62
624.399	419.62
624.606	421.62
624.812	414.62
625.019	422.62
625.226	441.62
625.433	426.62
625.639	422.62
625.846	412.62
626.053	420.62
626.259	440.62
626.466	395.62
626.673	418.62
626.879	384.62
627.086	398.62
627.293	402.62
627.499	414.62
627.706	416.62
627.912	410.62
628.119	412.62
628.325	398.62
628.532	403.62
628.738	410.62
628.945	402.62
629.151	414.62
629.357	392.62
629.564	415.62
629.77	384.62
629.976	400.62
630.183	386.62
630.389	400.62
630.595	411.62
630.802	389.62
631.008	389.62
631.214	383.62
631.42	376.62
631.627	361.62
631.833	364.62
632.039	374.62
632.245	393.62
632.451	383.62
632.657	361.62
632.863	366.62
633.069	386.62
633.275	375.62
633.481	345.62
633.688	336.62
633.893	355.62
634.099	343.62
634.305	343.62
634.511	346.62
634.717	339.62
634.923	352.62
635.129	336.62
635.335	354.62
635.541	349.62
635.747	356.62
635.952	367.62
636.158	358.62
636.364	354.62
636.57	352.62
636.775	353.62
636.981	353.62
637.187	325.62
637.392	345.62
637.598	342.62
637.804	341.62
638.009	361.62
638.215	338.62
638.421	333.62
638.626	316.62
638.832	354.62
639.037	356.62
639.243	337.62
639.448	315.62
639.654	313.62
639.859	309.62
640.065	312.62
640.27	335.62
640.475	326.62
640.681	325.62
640.886	314.62
641.091	308.62
641.297	306.62
641.502	321.62
641.707	331.62
641.913	324.62
642.118	304.62
642.323	329.62
642.528	293.62
642.733	320.62
642.939	332.62
643.144	317.62
643.349	306.62
643.554	328.62
643.759	305.62
643.964	306.62
644.169	311.62
644.374	324.62
644.579	324.62
644.784	317.62
644.989	326.62
645.194	295.62
645.399	317.62
645.604	302.62
645.809	311.62
646.014	298.62
646.219	297.62
646.423	304.62
646.628	300.62
646.833	321.62
647.038	316.62
647.243	298.62
647.447	304.62
647.652	323.62
647.857	319.62
648.062	302.62
648.266	319.62
648.471	342.62
648.676	337.62
648.88	305.62
649.085	297.62
649.289	295.62
649.494	302.62
649.698	290.62
649.903	302.62
650.107	308.62
650.312	294.62
650.516	293.62
650.721	293.62
650.925	281.62
651.13	279.62
651.334	288.62
651.539	271.62
651.743	277.62
651.947	265.62
652.152	266.62
652.356	264.62
652.56	256.62
652.764	259.62
652.969	270.62
653.173	254.62
653.377	266.62
653.581	245.62
653.785	238.62
653.99	250.62
654.194	233.62
654.398	229.62
654.602	240.62
654.806	234.62
655.01	244.62
655.214	248.62
655.418	226.62
655.622	241.62
655.826	248.62
656.03	232.62
656.234	256.62
656.438	267.62
656.642	262.62
656.846	236.62
657.049	224.62
657.253	201.62
657.457	208.62
657.661	180.62
657.865	181.62
658.068	171.62
658.272	153.62
658.476	154.62
658.68	150.62
658.883	132.62
659.087	137.62
659.291	140.62
659.494	129.62
659.698	137.62
659.901	111.62
660.105	119.62
660.309	116.62
660.512	116.62
660.716	113.62
660.919	105.62
661.123	111.62
661.326	102.62
661.53	105.62
661.733	98.62
661.936	98.62
662.14	86.62
662.343	100.62
662.546	85.62
662.75	93.62
662.953	79.62
663.156	83.62
663.36	80.62
663.563	87.62
663.766	74.62
663.969	96.62
664.173	93.62
664.376	92.62
664.579	83.62
664.782	95.62
664.985	87.62
665.188	68.62
665.391	80.62
665.594	75.62
665.797	78.62
666	101.62
666.203	73.62
666.406	80.62
666.609	87.62
666.812	76.62
667.015	94.62
667.218	76.62
667.421	77.62
667.624	80.62
667.827	87.62
668.03	80.62
668.232	69.62
668.435	84.62
668.638	74.62
668.841	78.62
669.043	70.62
669.246	75.62
669.449	63.62
669.651	76.62
669.854	83.62
670.057	73.62
670.259	81.62
670.462	79.62
670.665	65.62
670.867	76.62
671.07	80.62
671.272	74.62
671.475	73.62
671.677	67.62
671.88	75.62
672.082	74.62
672.284	78.62
672.487	91.62
672.689	73.62
672.892	70.62
