Data from WStandard_LampEnergy5.5LIBS07252019.E.O._I.C._HRD10591_16-07-19-920.txt Node
Date: Thu Jul 25 16:07:19 EDT 2019
User: cochatt
Spectrometer: HR+D1059
Trigger mode: 1
Integration Time (sec): 1.000000E-1
Scans to average: 1
Electric dark correction enabled: true
Nonlinearity correction enabled: false
Boxcar width: 0
XAxis mode: Wavelengths
Number of Pixels in Spectrum: 2048
>>>>>Begin Spectral Data<<<<<
223.165	-19.56
223.4	-19.56
223.635	-19.56
223.869	-10.56
224.104	-23.56
224.338	-16.56
224.573	-1.56
224.808	-9.56
225.042	-4.56
225.277	-1.56
225.511	-13.56
225.746	-6.56
225.98	10.44
226.215	2.44
226.449	13.44
226.683	35.44
226.918	21.44
227.152	24.44
227.387	29.44
227.621	38.44
227.856	50.44
228.09	46.44
228.324	45.44
228.559	62.44
228.793	138.44
229.027	363.44
229.262	371.44
229.496	387.44
229.73	410.44
229.964	462.44
230.199	463.44
230.433	474.44
230.667	518.44
230.901	548.44
231.136	485.44
231.37	478.44
231.604	460.44
231.838	476.44
232.072	465.44
232.306	452.44
232.541	473.44
232.775	569.44
233.009	634.44
233.243	602.44
233.477	516.44
233.711	575.44
233.945	581.44
234.179	543.44
234.413	589.44
234.647	669.44
234.881	625.44
235.115	556.44
235.349	567.44
235.583	586.44
235.817	558.44
236.051	551.44
236.285	535.44
236.519	585.44
236.753	638.44
236.987	718.44
237.221	679.44
237.455	764.44
237.689	719.44
237.922	669.44
238.156	662.44
238.39	684.44
238.624	748.44
238.858	778.44
239.091	795.44
239.325	833.44
239.559	931.44
239.793	991.44
240.027	1082.44
240.26	1055.44
240.494	790.44
240.728	751.44
240.961	743.44
241.195	746.44
241.429	799.44
241.662	819.44
241.896	779.44
242.13	777.44
242.363	892.44
242.597	934.44
242.83	878.44
243.064	921.44
243.298	993.44
243.531	965.44
243.765	955.44
243.998	983.44
244.232	836.44
244.465	764.44
244.699	809.44
244.932	947.44
245.166	1092.44
245.399	989.44
245.633	910.44
245.866	886.44
246.099	945.44
246.333	981.44
246.566	992.44
246.8	1083.44
247.033	1192.44
247.266	1089.44
247.5	1057.44
247.733	1077.44
247.966	1143.44
248.2	1246.44
248.433	1188.44
248.666	1259.44
248.899	1377.44
249.133	1557.44
249.366	1801.44
249.599	1462.44
249.832	1274.44
250.066	1293.44
250.299	1268.44
250.532	1219.44
250.765	1121.44
250.998	1187.44
251.231	1220.44
251.465	1279.44
251.698	1211.44
251.931	1211.44
252.164	1215.44
252.397	1255.44
252.63	1291.44
252.863	1113.44
253.096	1130.44
253.329	1184.44
253.562	1248.44
253.795	1324.44
254.028	1306.44
254.261	1217.44
254.494	1167.44
254.727	1127.44
254.96	1181.44
255.193	1299.44
255.426	1419.44
255.659	1663.44
255.892	1671.44
256.124	1385.44
256.357	1329.44
256.59	1453.44
256.823	1474.44
257.056	1427.44
257.289	1773.44
257.521	1949.44
257.754	1771.44
257.987	1664.44
258.22	1796.44
258.452	1771.44
258.685	1436.44
258.918	1417.44
259.151	1429.44
259.383	1367.44
259.616	1205.44
259.849	1272.44
260.081	1444.44
260.314	1614.44
260.547	1772.44
260.779	1797.44
261.012	1654.44
261.244	1465.44
261.477	1376.44
261.71	1444.44
261.942	1470.44
262.175	1377.44
262.407	1506.44
262.64	1437.44
262.872	1327.44
263.105	1297.44
263.337	1338.44
263.57	1302.44
263.802	1294.44
264.035	1281.44
264.267	1200.44
264.499	1173.44
264.732	1240.44
264.964	1291.44
265.197	1381.44
265.429	1447.44
265.661	1597.44
265.894	1775.44
266.126	1838.44
266.358	1629.44
266.591	1682.44
266.823	1849.44
267.055	1656.44
267.287	1627.44
267.52	1576.44
267.752	1589.44
267.984	1557.44
268.216	1672.44
268.448	1663.44
268.681	1715.44
268.913	1548.44
269.145	1423.44
269.377	1410.44
269.609	1539.44
269.841	1788.44
270.073	2109.44
270.306	2341.44
270.538	2496.44
270.77	2095.44
271.002	1749.44
271.234	1693.44
271.466	1662.44
271.698	1871.44
271.93	2233.44
272.162	2311.44
272.394	2043.44
272.626	1947.44
272.858	1705.44
273.09	1477.44
273.322	1454.44
273.553	1411.44
273.785	1443.44
274.017	1505.44
274.249	1585.44
274.481	1630.44
274.713	1492.44
274.945	1427.44
275.176	1435.44
275.408	1409.44
275.64	1418.44
275.872	1395.44
276.104	1468.44
276.335	1667.44
276.567	1963.44
276.799	1962.44
277.031	1767.44
277.262	1604.44
277.494	1709.44
277.726	1919.44
277.957	1937.44
278.189	1739.44
278.421	1595.44
278.652	1522.44
278.884	1510.44
279.115	1498.44
279.347	1527.44
279.579	1523.44
279.81	1491.44
280.042	1620.44
280.273	1839.44
280.505	1852.44
280.736	1859.44
280.968	1764.44
281.199	1553.44
281.431	1471.44
281.662	1473.44
281.894	1463.44
282.125	1508.44
282.356	1578.44
282.588	1601.44
282.819	1564.44
283.051	1733.44
283.282	1841.44
283.513	1828.44
283.745	1564.44
283.976	1466.44
284.207	1450.44
284.439	1471.44
284.67	1496.44
284.901	1564.44
285.132	1595.44
285.364	1543.44
285.595	1534.44
285.826	1586.44
286.057	1540.44
286.288	1545.44
286.52	1589.44
286.751	1730.44
286.982	1766.44
287.213	1642.44
287.444	1483.44
287.675	1465.44
287.906	1561.44
288.138	1718.44
288.369	1634.44
288.6	1569.44
288.831	1484.44
289.062	1498.44
289.293	1567.44
289.524	1538.44
289.755	1579.44
289.986	1603.44
290.217	1497.44
290.448	1484.44
290.679	1561.44
290.91	1539.44
291.141	1603.44
291.371	1634.44
291.602	1672.44
291.833	1632.44
292.064	1707.44
292.295	1652.44
292.526	1688.44
292.757	1771.44
292.987	1661.44
293.218	1596.44
293.449	1659.44
293.68	1918.44
293.91	2090.44
294.141	1970.44
294.372	1849.44
294.603	1859.44
294.833	1976.44
295.064	1856.44
295.295	1638.44
295.525	1655.44
295.756	1537.44
295.987	1423.44
296.217	1514.44
296.448	1521.44
296.679	1527.44
296.909	1552.44
297.14	1534.44
297.37	1554.44
297.601	1609.44
297.831	1760.44
298.062	1807.44
298.292	1629.44
298.523	1514.44
298.753	1567.44
298.984	1557.44
299.214	1531.44
299.445	1615.44
299.675	1675.44
299.905	1649.44
300.136	1591.44
300.366	1575.44
300.597	1502.44
300.827	1496.44
301.057	1573.44
301.288	1672.44
301.518	1635.44
301.748	1686.44
301.979	1767.44
302.209	1795.44
302.439	1883.44
302.669	2026.44
302.9	1902.44
303.13	1671.44
303.36	1661.44
303.59	1697.44
303.82	1716.44
304.051	1667.44
304.281	1667.44
304.511	1668.44
304.741	1743.44
304.971	2002.44
305.201	2141.44
305.431	1995.44
305.661	1617.44
305.891	1491.44
306.121	1473.44
306.352	1554.44
306.582	1595.44
306.812	1701.44
307.042	1874.44
307.272	1866.44
307.502	1879.44
307.731	2064.44
307.961	2187.44
308.191	2036.44
308.421	1755.44
308.651	1649.44
308.881	1603.44
309.111	1631.44
309.341	1608.44
309.571	1613.44
309.8	1615.44
310.03	1592.44
310.26	1565.44
310.49	1559.44
310.72	1630.44
310.949	1701.44
311.179	1729.44
311.409	1691.44
311.639	1627.44
311.868	1628.44
312.098	1682.44
312.328	1653.44
312.557	1603.44
312.787	1646.44
313.017	1741.44
313.246	1711.44
313.476	1674.44
313.706	1743.44
313.935	1719.44
314.165	1733.44
314.394	1798.44
314.624	1833.44
314.853	1959.44
315.083	2049.44
315.312	2140.44
315.542	1985.44
315.771	1775.44
316.001	1772.44
316.23	1865.44
316.46	1837.44
316.689	1826.44
316.919	1733.44
317.148	1656.44
317.377	1661.44
317.607	1781.44
317.836	2000.44
318.065	2086.44
318.295	2009.44
318.524	1917.44
318.753	1839.44
318.983	1857.44
319.212	1792.44
319.441	1738.44
319.67	1730.44
319.9	1781.44
320.129	1853.44
320.358	1962.44
320.587	1935.44
320.816	1938.44
321.046	1959.44
321.275	1831.44
321.504	1841.44
321.733	2005.44
321.962	1917.44
322.191	1762.44
322.42	1777.44
322.649	1745.44
322.878	1733.44
323.108	1779.44
323.337	1831.44
323.566	1820.44
323.795	1810.44
324.024	1854.44
324.253	1766.44
324.482	1819.44
324.71	1779.44
324.939	1658.44
325.168	1671.44
325.397	1741.44
325.626	1813.44
325.855	1851.44
326.084	1764.44
326.313	1780.44
326.542	1814.44
326.77	1867.44
326.999	1873.44
327.228	1842.44
327.457	1699.44
327.686	1659.44
327.914	1708.44
328.143	1789.44
328.372	1747.44
328.6	1769.44
328.829	1752.44
329.058	1739.44
329.287	1725.44
329.515	1799.44
329.744	1800.44
329.972	1857.44
330.201	1979.44
330.43	1921.44
330.658	1891.44
330.887	1881.44
331.115	1839.44
331.344	1902.44
331.572	1890.44
331.801	1854.44
332.03	1822.44
332.258	1867.44
332.486	1917.44
332.715	1933.44
332.943	1928.44
333.172	1869.44
333.4	1829.44
333.629	1902.44
333.857	2031.44
334.085	2226.44
334.314	2510.44
334.542	2795.44
334.771	2570.44
334.999	2250.44
335.227	2124.44
335.455	2007.44
335.684	2019.44
335.912	2075.44
336.14	2135.44
336.369	2043.44
336.597	1908.44
336.825	1897.44
337.053	1983.44
337.281	2082.44
337.51	2131.44
337.738	2231.44
337.966	2115.44
338.194	1923.44
338.422	1850.44
338.65	1832.44
338.878	1836.44
339.106	1807.44
339.334	1739.44
339.562	1744.44
339.79	1797.44
340.018	1902.44
340.246	1972.44
340.474	2000.44
340.702	1915.44
340.93	1940.44
341.158	1949.44
341.386	1880.44
341.614	1870.44
341.842	1838.44
342.07	1833.44
342.298	1866.44
342.526	1923.44
342.754	1803.44
342.981	1800.44
343.209	1829.44
343.437	1831.44
343.665	1807.44
343.893	1893.44
344.12	1950.44
344.348	1971.44
344.576	1922.44
344.804	1840.44
345.031	1797.44
345.259	1860.44
345.487	1778.44
345.714	1708.44
345.942	1701.44
346.17	1722.44
346.397	1713.44
346.625	1785.44
346.853	1674.44
347.08	1636.44
347.308	1659.44
347.535	1717.44
347.763	1751.44
347.99	1717.44
348.218	1661.44
348.445	1676.44
348.673	1730.44
348.9	1734.44
349.128	1793.44
349.355	1909.44
349.583	1815.44
349.81	1740.44
350.037	1623.44
350.265	1599.44
350.492	1630.44
350.72	1666.44
350.947	1698.44
351.174	1716.44
351.402	1688.44
351.629	1595.44
351.856	1599.44
352.083	1556.44
352.311	1607.44
352.538	1660.44
352.765	1716.44
352.992	1801.44
353.22	1741.44
353.447	1665.44
353.674	1658.44
353.901	1691.44
354.128	1637.44
354.355	1624.44
354.583	1739.44
354.81	1748.44
355.037	1754.44
355.264	1806.44
355.491	1704.44
355.718	1671.44
355.945	1679.44
356.172	1631.44
356.399	1627.44
356.626	1627.44
356.853	1674.44
357.08	1815.44
357.307	1994.44
357.534	2087.44
357.761	1805.44
357.988	1668.44
358.215	1579.44
358.441	1638.44
358.668	1610.44
358.895	1584.44
359.122	1694.44
359.349	1890.44
359.576	1867.44
359.802	1721.44
360.029	1656.44
360.256	1621.44
360.483	1651.44
360.709	1698.44
360.936	1748.44
361.163	1774.44
361.39	1952.44
361.616	2136.44
361.843	2079.44
362.07	1976.44
362.296	1735.44
362.523	1671.44
362.749	1650.44
362.976	1705.44
363.203	1737.44
363.429	1678.44
363.656	1623.44
363.882	1670.44
364.109	1853.44
364.335	2025.44
364.562	1863.44
364.788	1790.44
365.015	1718.44
365.241	1626.44
365.468	1677.44
365.694	1773.44
365.92	1832.44
366.147	1756.44
366.373	1653.44
366.599	1649.44
366.826	1643.44
367.052	1616.44
367.278	1661.44
367.505	1697.44
367.731	1730.44
367.957	1753.44
368.184	1763.44
368.41	1892.44
368.636	1924.44
368.862	1910.44
369.089	1907.44
369.315	1859.44
369.541	1765.44
369.767	1744.44
369.993	1667.44
370.219	1652.44
370.445	1696.44
370.672	1804.44
370.898	1912.44
371.124	1895.44
371.35	1739.44
371.576	1783.44
371.802	1889.44
372.028	1822.44
372.254	1758.44
372.48	1734.44
372.706	1691.44
372.932	1699.44
373.158	1732.44
373.384	1742.44
373.61	1751.44
373.835	1851.44
374.061	1748.44
374.287	1754.44
374.513	1754.44
374.739	1769.44
374.965	1772.44
375.191	1782.44
375.416	1822.44
375.642	1859.44
375.868	1934.44
376.094	2003.44
376.319	1925.44
376.545	1699.44
376.771	1797.44
376.997	1922.44
377.222	1891.44
377.448	1813.44
377.674	1893.44
377.899	1807.44
378.125	1973.44
378.35	1949.44
378.576	1783.44
378.802	1706.44
379.027	1715.44
379.253	1756.44
379.478	1781.44
379.704	1746.44
379.929	1727.44
380.155	1769.44
380.38	1765.44
380.606	1797.44
380.831	1770.44
381.057	1894.44
381.282	1858.44
381.507	1826.44
381.733	1938.44
381.958	2075.44
382.184	1928.44
382.409	1795.44
382.634	1857.44
382.86	1811.44
383.085	1831.44
383.31	1879.44
383.535	2013.44
383.761	2156.44
383.986	2110.44
384.211	2004.44
384.436	1971.44
384.662	2049.44
384.887	2155.44
385.112	2024.44
385.337	2070.44
385.562	2019.44
385.787	2013.44
386.013	2080.44
386.238	2101.44
386.463	2059.44
386.688	2198.44
386.913	2298.44
387.138	2330.44
387.363	2080.44
387.588	2076.44
387.813	2101.44
388.038	2040.44
388.263	2181.44
388.488	2091.44
388.713	1905.44
388.938	1933.44
389.163	1953.44
389.387	1984.44
389.612	1999.44
389.837	2036.44
390.062	2009.44
390.287	2037.44
390.512	1991.44
390.736	1981.44
390.961	1918.44
391.186	1928.44
391.411	1916.44
391.636	1969.44
391.86	2025.44
392.085	2053.44
392.31	2015.44
392.534	2023.44
392.759	2065.44
392.984	2007.44
393.208	2005.44
393.433	2076.44
393.658	2172.44
393.882	2188.44
394.107	2065.44
394.331	2037.44
394.556	1987.44
394.78	2060.44
395.005	2125.44
395.229	2171.44
395.454	2276.44
395.678	2369.44
395.903	2248.44
396.127	2107.44
396.352	2165.44
396.576	2191.44
396.801	2245.44
397.025	2250.44
397.249	2188.44
397.474	2154.44
397.698	2133.44
397.922	2216.44
398.147	2284.44
398.371	2431.44
398.595	2388.44
398.82	2345.44
399.044	2348.44
399.268	2476.44
399.492	2585.44
399.717	2689.44
399.941	2723.44
400.165	2714.44
400.389	2580.44
400.613	2554.44
400.837	2821.44
401.062	3280.44
401.286	2755.44
401.51	2498.44
401.734	2654.44
401.958	2558.44
402.182	2339.44
402.406	2310.44
402.63	2254.44
402.854	2250.44
403.078	2329.44
403.302	2404.44
403.526	2414.44
403.75	2413.44
403.974	2434.44
404.198	2361.44
404.422	2485.44
404.645	2579.44
404.869	2631.44
405.093	2337.44
405.317	2325.44
405.541	2397.44
405.765	2447.44
405.988	2385.44
406.212	2447.44
406.436	2493.44
406.66	2524.44
406.883	2543.44
407.107	2853.44
407.331	3158.44
407.555	3389.44
407.778	3164.44
408.002	2619.44
408.226	2526.44
408.449	2551.44
408.673	2470.44
408.896	2470.44
409.12	2516.44
409.344	2465.44
409.567	2375.44
409.791	2391.44
410.014	2445.44
410.238	2570.44
410.461	2703.44
410.685	2443.44
410.908	2319.44
411.132	2387.44
411.355	2365.44
411.578	2317.44
411.802	2346.44
412.025	2395.44
412.249	2350.44
412.472	2318.44
412.695	2257.44
412.919	2294.44
413.142	2272.44
413.365	2290.44
413.589	2380.44
413.812	2403.44
414.035	2533.44
414.258	2331.44
414.482	2263.44
414.705	2264.44
414.928	2276.44
415.151	2236.44
415.374	2355.44
415.597	2321.44
415.821	2360.44
416.044	2426.44
416.267	2460.44
416.49	2210.44
416.713	2225.44
416.936	2273.44
417.159	2377.44
417.382	2359.44
417.605	2231.44
417.828	2285.44
418.051	2331.44
418.274	2248.44
418.497	2142.44
418.72	2182.44
418.943	2234.44
419.166	2345.44
419.389	2399.44
419.611	2293.44
419.834	2236.44
420.057	2257.44
420.28	2221.44
420.503	2161.44
420.726	2251.44
420.948	2256.44
421.171	2198.44
421.394	2198.44
421.617	2276.44
421.839	2238.44
422.062	2241.44
422.285	2189.44
422.507	2145.44
422.73	2120.44
422.953	2105.44
423.175	2109.44
423.398	2152.44
423.621	2207.44
423.843	2175.44
424.066	2257.44
424.288	2319.44
424.511	2426.44
424.733	2280.44
424.956	2130.44
425.178	2106.44
425.401	2123.44
425.623	2145.44
425.846	2151.44
426.068	2237.44
426.291	2345.44
426.513	2294.44
426.735	2228.44
426.958	2403.44
427.18	2527.44
427.402	2313.44
427.625	2409.44
427.847	2425.44
428.069	2245.44
428.292	2190.44
428.514	2117.44
428.736	2097.44
428.958	2147.44
429.181	2177.44
429.403	2402.44
429.625	2971.44
429.847	2649.44
430.069	2182.44
430.292	2451.44
430.514	2533.44
430.736	2295.44
430.958	2428.44
431.18	2299.44
431.402	2135.44
431.624	2111.44
431.846	2159.44
432.068	2091.44
432.29	2135.44
432.512	2166.44
432.734	2177.44
432.956	2220.44
433.178	2329.44
433.4	2296.44
433.622	2346.44
433.844	2232.44
434.066	2110.44
434.287	2117.44
434.509	2178.44
434.731	2345.44
434.953	2477.44
435.175	2409.44
435.397	2245.44
435.618	2289.44
435.84	2266.44
436.062	2233.44
436.284	2198.44
436.505	2241.44
436.727	2321.44
436.949	2241.44
437.17	2156.44
437.392	2141.44
437.614	2180.44
437.835	2120.44
438.057	2232.44
438.278	2358.44
438.5	2148.44
438.721	2113.44
438.943	2145.44
439.165	2121.44
439.386	2070.44
439.608	2093.44
439.829	2143.44
440.05	2118.44
440.272	2077.44
440.493	2047.44
440.715	2085.44
440.936	2217.44
441.158	2455.44
441.379	2405.44
441.6	2345.44
441.822	2326.44
442.043	2257.44
442.264	2236.44
442.486	2138.44
442.707	2118.44
442.928	2098.44
443.149	2150.44
443.371	2305.44
443.592	2415.44
443.813	2336.44
444.034	2303.44
444.255	2338.44
444.476	2417.44
444.698	2456.44
444.919	2353.44
445.14	2507.44
445.361	2473.44
445.582	2507.44
445.803	2426.44
446.024	2316.44
446.245	2443.44
446.466	2314.44
446.687	2216.44
446.908	2180.44
447.129	2171.44
447.35	2212.44
447.571	2222.44
447.792	2111.44
448.013	1999.44
448.234	2090.44
448.455	2243.44
448.675	2229.44
448.896	2071.44
449.117	1999.44
449.338	2094.44
449.559	2153.44
449.779	2336.44
450	2519.44
450.221	2711.44
450.442	2657.44
450.662	2290.44
450.883	2018.44
451.104	1973.44
451.324	2049.44
451.545	2139.44
451.766	2107.44
451.986	1966.44
452.207	1989.44
452.428	1911.44
452.648	1900.44
452.869	1923.44
453.089	2053.44
453.31	2118.44
453.53	2169.44
453.751	2041.44
453.971	1955.44
454.192	1972.44
454.412	2113.44
454.633	2038.44
454.853	2013.44
455.073	1851.44
455.294	1839.44
455.514	1855.44
455.734	1857.44
455.955	1878.44
456.175	1863.44
456.395	1917.44
456.616	2011.44
456.836	2023.44
457.056	1949.44
457.276	1939.44
457.497	1881.44
457.717	1803.44
457.937	1876.44
458.157	1942.44
458.377	1898.44
458.598	1886.44
458.818	1939.44
459.038	2074.44
459.258	2208.44
459.478	2181.44
459.698	2078.44
459.918	2121.44
460.138	2233.44
460.358	2294.44
460.578	2269.44
460.798	2382.44
461.018	2498.44
461.238	2423.44
461.458	2312.44
461.678	2341.44
461.898	2282.44
462.118	2149.44
462.338	2258.44
462.558	2273.44
462.777	2305.44
462.997	2405.44
463.217	2506.44
463.437	2522.44
463.657	2314.44
463.876	2341.44
464.096	2280.44
464.316	2318.44
464.536	2379.44
464.755	2375.44
464.975	2414.44
465.195	2317.44
465.414	2387.44
465.634	2419.44
465.854	2292.44
466.073	2387.44
466.293	2442.44
466.512	2090.44
466.732	2108.44
466.951	2199.44
467.171	2169.44
467.391	2086.44
467.61	2019.44
467.829	2054.44
468.049	2235.44
468.268	2549.44
468.488	2368.44
468.707	2188.44
468.927	2096.44
469.146	2074.44
469.365	2056.44
469.585	2129.44
469.804	2064.44
470.023	2078.44
470.243	2163.44
470.462	2084.44
470.681	2040.44
470.901	2095.44
471.12	2103.44
471.339	2082.44
471.558	1995.44
471.777	1984.44
471.997	2022.44
472.216	2030.44
472.435	1966.44
472.654	2025.44
472.873	2108.44
473.092	2216.44
473.311	2134.44
473.53	2018.44
473.749	1975.44
473.968	2073.44
474.187	2184.44
474.406	2265.44
474.625	2158.44
474.844	2129.44
475.063	2123.44
475.282	2177.44
475.501	2105.44
475.72	2037.44
475.939	2228.44
476.158	2186.44
476.377	2064.44
476.596	2112.44
476.814	2193.44
477.033	2172.44
477.252	2252.44
477.471	2338.44
477.69	2227.44
477.908	2204.44
478.127	2305.44
478.346	2510.44
478.564	2526.44
478.783	2495.44
479.002	2604.44
479.22	2475.44
479.439	2565.44
479.658	2906.44
479.876	2996.44
480.095	2557.44
480.313	2379.44
480.532	2309.44
480.751	2372.44
480.969	2414.44
481.188	2397.44
481.406	2326.44
481.624	2252.44
481.843	2343.44
482.061	2374.44
482.28	2422.44
482.498	2411.44
482.717	2445.44
482.935	2315.44
483.153	2314.44
483.372	2349.44
483.59	2285.44
483.808	2340.44
484.027	2348.44
484.245	2520.44
484.463	2875.44
484.681	3400.44
484.9	2598.44
485.118	2420.44
485.336	2330.44
485.554	2418.44
485.772	2570.44
485.99	2500.44
486.209	2506.44
486.427	2530.44
486.645	2479.44
486.863	2495.44
487.081	2510.44
487.299	2629.44
487.517	2540.44
487.735	2419.44
487.953	2404.44
488.171	2364.44
488.389	2377.44
488.607	2400.44
488.825	2664.44
489.043	2770.44
489.261	2492.44
489.479	2593.44
489.696	2613.44
489.914	2584.44
490.132	2507.44
490.35	2430.44
490.568	2546.44
490.786	2501.44
491.003	2380.44
491.221	2415.44
491.439	2574.44
491.657	2523.44
491.874	2531.44
492.092	2522.44
492.31	2513.44
492.527	2487.44
492.745	2471.44
492.963	2500.44
493.18	2573.44
493.398	2798.44
493.615	2798.44
493.833	2611.44
494.05	2519.44
494.268	2519.44
494.485	2617.44
494.703	2530.44
494.92	2464.44
495.138	2507.44
495.355	2551.44
495.573	2677.44
495.79	2859.44
496.008	2833.44
496.225	2683.44
496.442	2662.44
496.66	2721.44
496.877	2661.44
497.094	2790.44
497.312	2800.44
497.529	2752.44
497.746	2874.44
497.963	3258.44
498.181	3654.44
498.398	3431.44
498.615	3420.44
498.832	3289.44
499.049	3245.44
499.267	3188.44
499.484	3423.44
499.701	3756.44
499.918	3728.44
500.135	4025.44
500.352	4329.44
500.569	4313.44
500.786	4619.44
501.003	4332.44
501.22	3889.44
501.437	3763.44
501.654	3777.44
501.871	3653.44
502.088	3253.44
502.305	3263.44
502.522	3062.44
502.739	2898.44
502.956	2829.44
503.172	2821.44
503.389	2750.44
503.606	2679.44
503.823	2699.44
504.04	2673.44
504.256	2677.44
504.473	2719.44
504.69	2782.44
504.907	2663.44
505.123	2525.44
505.34	2682.44
505.557	3506.44
505.773	3055.44
505.99	2456.44
506.207	2377.44
506.423	2285.44
506.64	2263.44
506.856	2318.44
507.073	2607.44
507.289	2861.44
507.506	2753.44
507.722	2332.44
507.939	2218.44
508.155	2216.44
508.372	2257.44
508.588	2162.44
508.805	2135.44
509.021	2109.44
509.238	2087.44
509.454	2083.44
509.67	2114.44
509.887	2080.44
510.103	2087.44
510.319	2038.44
510.536	2236.44
510.752	2273.44
510.968	2249.44
511.184	2378.44
511.401	2407.44
511.617	2100.44
511.833	1979.44
512.049	2049.44
512.265	1998.44
512.481	1957.44
512.698	2082.44
512.914	2247.44
513.13	2175.44
513.346	2034.44
513.562	2003.44
513.778	2034.44
513.994	2150.44
514.21	2198.44
514.426	2227.44
514.642	2433.44
514.858	2299.44
515.074	2130.44
515.29	2061.44
515.506	2130.44
515.721	2185.44
515.937	2189.44
516.153	2443.44
516.369	2344.44
516.585	2198.44
516.801	2093.44
517.016	2149.44
517.232	2160.44
517.448	2269.44
517.664	2274.44
517.879	2214.44
518.095	2331.44
518.311	2275.44
518.527	2169.44
518.742	2111.44
518.958	2010.44
519.173	2036.44
519.389	2099.44
519.605	2128.44
519.82	2081.44
520.036	2059.44
520.251	2039.44
520.467	2071.44
520.682	2215.44
520.898	2337.44
521.113	2057.44
521.329	2042.44
521.544	2196.44
521.76	2101.44
521.975	2006.44
522.19	1957.44
522.406	1912.44
522.621	2390.44
522.836	2402.44
523.052	1898.44
523.267	1939.44
523.482	1951.44
523.698	1863.44
523.913	1816.44
524.128	1859.44
524.343	1949.44
524.559	2057.44
524.774	1903.44
524.989	1883.44
525.204	1835.44
525.419	1851.44
525.634	1849.44
525.849	1850.44
526.064	1867.44
526.28	1894.44
526.495	1799.44
526.71	1798.44
526.925	1829.44
527.14	1765.44
527.355	1763.44
527.57	1760.44
527.785	1839.44
527.999	1774.44
528.214	1741.44
528.429	1689.44
528.644	1718.44
528.859	1765.44
529.074	1749.44
529.289	1787.44
529.503	1833.44
529.718	1783.44
529.933	1790.44
530.148	1678.44
530.363	1733.44
530.577	1753.44
530.792	1752.44
531.007	1803.44
531.221	1773.44
531.436	1831.44
531.651	1836.44
531.865	1930.44
532.08	1837.44
532.295	1753.44
532.509	1651.44
532.724	1741.44
532.938	1781.44
533.153	1872.44
533.367	1853.44
533.582	1795.44
533.796	1734.44
534.011	1756.44
534.225	1760.44
534.44	1717.44
534.654	1742.44
534.868	1698.44
535.083	1808.44
535.297	1835.44
535.511	1758.44
535.726	1739.44
535.94	1736.44
536.154	1702.44
536.369	1713.44
536.583	1641.44
536.797	1644.44
537.011	1734.44
537.225	1669.44
537.44	1638.44
537.654	1729.44
537.868	1645.44
538.082	1569.44
538.296	1551.44
538.51	1584.44
538.724	1602.44
538.938	1595.44
539.153	1682.44
539.367	1666.44
539.581	1620.44
539.795	1718.44
540.009	1659.44
540.222	1660.44
540.436	1675.44
540.65	1794.44
540.864	1808.44
541.078	1748.44
541.292	1618.44
541.506	1635.44
541.72	1658.44
541.934	1658.44
542.147	1700.44
542.361	1667.44
542.575	1590.44
542.789	1567.44
543.002	1554.44
543.216	1558.44
543.43	1666.44
543.644	1740.44
543.857	1813.44
544.071	1714.44
544.285	1701.44
544.498	1629.44
544.712	1663.44
544.925	1635.44
545.139	1722.44
545.352	1593.44
545.566	1543.44
545.779	1559.44
545.993	1578.44
546.206	1570.44
546.42	1514.44
546.633	1541.44
546.847	1551.44
547.06	1530.44
547.274	1515.44
547.487	1523.44
547.7	1537.44
547.914	1545.44
548.127	1582.44
548.34	1570.44
548.554	1586.44
548.767	1533.44
548.98	1593.44
549.193	1545.44
549.407	1628.44
549.62	1651.44
549.833	1585.44
550.046	1570.44
550.259	1574.44
550.473	1542.44
550.686	1510.44
550.899	1515.44
551.112	1494.44
551.325	1484.44
551.538	1585.44
551.751	1866.44
551.964	1518.44
552.177	1480.44
552.39	1450.44
552.603	1547.44
552.816	1545.44
553.029	1582.44
553.242	1615.44
553.455	1579.44
553.667	1537.44
553.88	1548.44
554.093	1513.44
554.306	1486.44
554.519	1428.44
554.732	1404.44
554.944	1451.44
555.157	1469.44
555.37	1455.44
555.583	1502.44
555.795	1368.44
556.008	1417.44
556.221	1381.44
556.433	1337.44
556.646	1308.44
556.859	1323.44
557.071	1315.44
557.284	1290.44
557.496	1354.44
557.709	1302.44
557.921	1351.44
558.134	1269.44
558.346	1295.44
558.559	1251.44
558.771	1314.44
558.984	1259.44
559.196	1250.44
559.409	1213.44
559.621	1229.44
559.833	1251.44
560.046	1333.44
560.258	1293.44
560.47	1264.44
560.683	1267.44
560.895	1271.44
561.107	1278.44
561.32	1286.44
561.532	1307.44
561.744	1294.44
561.956	1288.44
562.168	1220.44
562.381	1193.44
562.593	1222.44
562.805	1205.44
563.017	1204.44
563.229	1245.44
563.441	1294.44
563.653	1258.44
563.865	1242.44
564.077	1237.44
564.289	1285.44
564.501	1286.44
564.713	1295.44
564.925	1326.44
565.137	1404.44
565.349	1319.44
565.561	1286.44
565.773	1339.44
565.985	1339.44
566.197	1406.44
566.408	1490.44
566.62	1514.44
566.832	1512.44
567.044	1538.44
567.255	1515.44
567.467	1489.44
567.679	1565.44
567.891	1567.44
568.102	1575.44
568.314	1481.44
568.526	1474.44
568.737	1364.44
568.949	1347.44
569.161	1281.44
569.372	1224.44
569.584	1204.44
569.795	1219.44
570.007	1185.44
570.218	1145.44
570.43	1103.44
570.641	1126.44
570.853	1151.44
571.064	1123.44
571.276	1128.44
571.487	1077.44
571.698	1057.44
571.91	1063.44
572.121	1059.44
572.333	1010.44
572.544	1037.44
572.755	1002.44
572.966	982.44
573.178	977.44
573.389	1033.44
573.6	1074.44
573.811	1110.44
574.023	1043.44
574.234	1015.44
574.445	974.44
574.656	940.44
574.867	941.44
575.078	947.44
575.289	953.44
575.501	923.44
575.712	926.44
575.923	950.44
576.134	931.44
576.345	941.44
576.556	922.44
576.767	890.44
576.978	885.44
577.188	905.44
577.399	872.44
577.61	876.44
577.821	884.44
578.032	862.44
578.243	874.44
578.454	879.44
578.665	844.44
578.875	839.44
579.086	841.44
579.297	864.44
579.508	896.44
579.718	857.44
579.929	845.44
580.14	852.44
580.35	801.44
580.561	859.44
580.772	943.44
580.982	886.44
581.193	821.44
581.403	828.44
581.614	818.44
581.825	780.44
582.035	822.44
582.246	813.44
582.456	847.44
582.667	818.44
582.877	826.44
583.087	796.44
583.298	775.44
583.508	796.44
583.719	812.44
583.929	807.44
584.139	798.44
584.35	770.44
584.56	774.44
584.77	797.44
584.981	812.44
585.191	814.44
585.401	807.44
585.611	798.44
585.821	781.44
586.032	747.44
586.242	759.44
586.452	769.44
586.662	765.44
586.872	782.44
587.082	754.44
587.292	764.44
587.502	827.44
587.713	834.44
587.923	769.44
588.133	785.44
588.343	768.44
588.553	760.44
588.762	758.44
588.972	742.44
589.182	779.44
589.392	789.44
589.602	773.44
589.812	774.44
590.022	739.44
590.232	725.44
590.441	742.44
590.651	775.44
590.861	771.44
591.071	735.44
591.281	733.44
591.49	756.44
591.7	737.44
591.91	730.44
592.119	758.44
592.329	770.44
592.539	796.44
592.748	773.44
592.958	771.44
593.167	787.44
593.377	790.44
593.587	812.44
593.796	819.44
594.006	787.44
594.215	796.44
594.424	779.44
594.634	774.44
594.843	781.44
595.053	807.44
595.262	744.44
595.472	759.44
595.681	731.44
595.89	742.44
596.1	711.44
596.309	734.44
596.518	707.44
596.727	719.44
596.937	675.44
597.146	680.44
597.355	664.44
597.564	669.44
597.774	666.44
597.983	650.44
598.192	651.44
598.401	646.44
598.61	647.44
598.819	646.44
599.028	651.44
599.237	647.44
599.446	631.44
599.655	638.44
599.864	633.44
600.073	629.44
600.282	608.44
600.491	637.44
600.7	628.44
600.909	614.44
601.118	615.44
601.327	617.44
601.536	631.44
601.745	600.44
601.953	611.44
602.162	599.44
602.371	632.44
602.58	606.44
602.789	607.44
602.997	582.44
603.206	621.44
603.415	582.44
603.623	595.44
603.832	594.44
604.041	582.44
604.249	591.44
604.458	589.44
604.666	567.44
604.875	573.44
605.084	590.44
605.292	625.44
605.501	596.44
605.709	593.44
605.918	566.44
606.126	555.44
606.334	561.44
606.543	572.44
606.751	601.44
606.96	569.44
607.168	582.44
607.376	551.44
607.585	565.44
607.793	563.44
608.001	568.44
608.21	552.44
608.418	536.44
608.626	562.44
608.834	555.44
609.043	572.44
609.251	562.44
609.459	564.44
609.667	532.44
609.875	540.44
610.083	577.44
610.291	577.44
610.499	569.44
610.707	551.44
610.916	540.44
611.124	543.44
611.332	554.44
611.54	540.44
611.748	555.44
611.955	527.44
612.163	525.44
612.371	546.44
612.579	523.44
612.787	537.44
612.995	537.44
613.203	561.44
613.411	545.44
613.618	528.44
613.826	527.44
614.034	512.44
614.242	526.44
614.449	532.44
614.657	556.44
614.865	533.44
615.072	538.44
615.28	516.44
615.488	548.44
615.695	561.44
615.903	561.44
616.111	530.44
616.318	533.44
616.526	541.44
616.733	515.44
616.941	517.44
617.148	536.44
617.356	508.44
617.563	494.44
617.771	515.44
617.978	483.44
618.185	521.44
618.393	495.44
618.6	524.44
618.807	511.44
619.015	509.44
619.222	493.44
619.429	513.44
619.637	485.44
619.844	501.44
620.051	498.44
620.258	503.44
620.466	482.44
620.673	485.44
620.88	467.44
621.087	472.44
621.294	483.44
621.501	490.44
621.708	475.44
621.915	466.44
622.122	509.44
622.329	488.44
622.536	450.44
622.743	491.44
622.95	471.44
623.157	474.44
623.364	461.44
623.571	454.44
623.778	478.44
623.985	464.44
624.192	473.44
624.399	442.44
624.606	446.44
624.812	439.44
625.019	464.44
625.226	455.44
625.433	449.44
625.639	447.44
625.846	442.44
626.053	442.44
626.259	412.44
626.466	399.44
626.673	419.44
626.879	415.44
627.086	410.44
627.293	400.44
627.499	443.44
627.706	419.44
627.912	432.44
628.119	417.44
628.325	425.44
628.532	438.44
628.738	439.44
628.945	421.44
629.151	435.44
629.357	424.44
629.564	422.44
629.77	404.44
629.976	411.44
630.183	426.44
630.389	387.44
630.595	415.44
630.802	407.44
631.008	383.44
631.214	393.44
631.42	393.44
631.627	400.44
631.833	399.44
632.039	389.44
632.245	368.44
632.451	392.44
632.657	400.44
632.863	387.44
633.069	383.44
633.275	373.44
633.481	365.44
633.688	355.44
633.893	387.44
634.099	362.44
634.305	376.44
634.511	350.44
634.717	369.44
634.923	373.44
635.129	362.44
635.335	358.44
635.541	365.44
635.747	389.44
635.952	362.44
636.158	375.44
636.364	347.44
636.57	359.44
636.775	379.44
636.981	360.44
637.187	353.44
637.392	369.44
637.598	371.44
637.804	374.44
638.009	350.44
638.215	350.44
638.421	335.44
638.626	349.44
638.832	351.44
639.037	340.44
639.243	342.44
639.448	352.44
639.654	338.44
639.859	344.44
640.065	340.44
640.27	351.44
640.475	345.44
640.681	344.44
640.886	353.44
641.091	343.44
641.297	346.44
641.502	323.44
641.707	345.44
641.913	345.44
642.118	335.44
642.323	339.44
642.528	323.44
642.733	341.44
642.939	348.44
643.144	331.44
643.349	341.44
643.554	341.44
643.759	318.44
643.964	325.44
644.169	338.44
644.374	310.44
644.579	335.44
644.784	333.44
644.989	327.44
645.194	323.44
645.399	331.44
645.604	329.44
645.809	311.44
646.014	324.44
646.219	332.44
646.423	318.44
646.628	329.44
646.833	327.44
647.038	325.44
647.243	321.44
647.447	310.44
647.652	317.44
647.857	315.44
648.062	308.44
648.266	320.44
648.471	333.44
648.676	313.44
648.88	328.44
649.085	340.44
649.289	310.44
649.494	329.44
649.698	299.44
649.903	311.44
650.107	313.44
650.312	298.44
650.516	319.44
650.721	305.44
650.925	297.44
651.13	282.44
651.334	301.44
651.539	295.44
651.743	297.44
651.947	281.44
652.152	280.44
652.356	270.44
652.56	254.44
652.764	267.44
652.969	275.44
653.173	260.44
653.377	252.44
653.581	264.44
653.785	247.44
653.99	230.44
654.194	247.44
654.398	250.44
654.602	248.44
654.806	236.44
655.01	244.44
655.214	250.44
655.418	245.44
655.622	260.44
655.826	260.44
656.03	264.44
656.234	251.44
656.438	286.44
656.642	289.44
656.846	261.44
657.049	258.44
657.253	237.44
657.457	206.44
657.661	188.44
657.865	191.44
658.068	196.44
658.272	187.44
658.476	168.44
658.68	161.44
658.883	161.44
659.087	140.44
659.291	138.44
659.494	143.44
659.698	149.44
659.901	136.44
660.105	123.44
660.309	125.44
660.512	114.44
660.716	105.44
660.919	115.44
661.123	120.44
661.326	114.44
661.53	114.44
661.733	109.44
661.936	110.44
662.14	118.44
662.343	89.44
662.546	101.44
662.75	88.44
662.953	109.44
663.156	80.44
663.36	102.44
663.563	89.44
663.766	104.44
663.969	96.44
664.173	104.44
664.376	85.44
664.579	89.44
664.782	88.44
664.985	95.44
665.188	90.44
665.391	85.44
665.594	91.44
665.797	79.44
666	89.44
666.203	93.44
666.406	86.44
666.609	91.44
666.812	88.44
667.015	93.44
667.218	95.44
667.421	89.44
667.624	82.44
667.827	89.44
668.03	82.44
668.232	89.44
668.435	83.44
668.638	76.44
668.841	99.44
669.043	79.44
669.246	81.44
669.449	93.44
669.651	87.44
669.854	82.44
670.057	95.44
670.259	90.44
670.462	83.44
670.665	88.44
670.867	91.44
671.07	88.44
671.272	86.44
671.475	98.44
671.677	100.44
671.88	87.44
672.082	90.44
672.284	77.44
672.487	79.44
672.689	98.44
672.892	97.44
