Data from WStandard_LampEnergy5.5LIBS07252019.E.O._I.C._HRD10591_16-08-10-920.txt Node
Date: Thu Jul 25 16:08:10 EDT 2019
User: cochatt
Spectrometer: HR+D1059
Trigger mode: 1
Integration Time (sec): 1.000000E-1
Scans to average: 1
Electric dark correction enabled: true
Nonlinearity correction enabled: false
Boxcar width: 0
XAxis mode: Wavelengths
Number of Pixels in Spectrum: 2048
>>>>>Begin Spectral Data<<<<<
223.165	-11.94
223.4	-11.94
223.635	-11.94
223.869	-26.94
224.104	-13.94
224.338	-17.94
224.573	-0.94
224.808	-14.94
225.042	-22.94
225.277	-6.94
225.511	-2.94
225.746	-5.94
225.98	9.06
226.215	19.06
226.449	26.06
226.683	27.06
226.918	16.06
227.152	28.06
227.387	20.06
227.621	42.06
227.856	44.06
228.09	52.06
228.324	52.06
228.559	39.06
228.793	154.06
229.027	344.06
229.262	389.06
229.496	396.06
229.73	389.06
229.964	443.06
230.199	466.06
230.433	478.06
230.667	500.06
230.901	554.06
231.136	479.06
231.37	465.06
231.604	454.06
231.838	467.06
232.072	443.06
232.306	449.06
232.541	465.06
232.775	537.06
233.009	587.06
233.243	600.06
233.477	533.06
233.711	552.06
233.945	582.06
234.179	561.06
234.413	578.06
234.647	641.06
234.881	599.06
235.115	547.06
235.349	541.06
235.583	543.06
235.817	554.06
236.051	539.06
236.285	546.06
236.519	577.06
236.753	655.06
236.987	691.06
237.221	657.06
237.455	759.06
237.689	730.06
237.922	676.06
238.156	671.06
238.39	667.06
238.624	692.06
238.858	739.06
239.091	789.06
239.325	795.06
239.559	934.06
239.793	949.06
240.027	1058.06
240.26	1037.06
240.494	797.06
240.728	715.06
240.961	725.06
241.195	749.06
241.429	818.06
241.662	838.06
241.896	756.06
242.13	798.06
242.363	855.06
242.597	930.06
242.83	904.06
243.064	915.06
243.298	949.06
243.531	943.06
243.765	953.06
243.998	929.06
244.232	831.06
244.465	796.06
244.699	797.06
244.932	924.06
245.166	1060.06
245.399	997.06
245.633	904.06
245.866	879.06
246.099	941.06
246.333	961.06
246.566	953.06
246.8	1056.06
247.033	1195.06
247.266	1091.06
247.5	1061.06
247.733	1021.06
247.966	1115.06
248.2	1277.06
248.433	1203.06
248.666	1224.06
248.899	1325.06
249.133	1539.06
249.366	1769.06
249.599	1434.06
249.832	1251.06
250.066	1298.06
250.299	1304.06
250.532	1223.06
250.765	1088.06
250.998	1152.06
251.231	1197.06
251.465	1259.06
251.698	1197.06
251.931	1207.06
252.164	1189.06
252.397	1285.06
252.63	1267.06
252.863	1122.06
253.096	1113.06
253.329	1157.06
253.562	1193.06
253.795	1310.06
254.028	1272.06
254.261	1187.06
254.494	1177.06
254.727	1114.06
254.96	1134.06
255.193	1292.06
255.426	1401.06
255.659	1647.06
255.892	1699.06
256.124	1388.06
256.357	1326.06
256.59	1455.06
256.823	1406.06
257.056	1412.06
257.289	1701.06
257.521	1931.06
257.754	1713.06
257.987	1608.06
258.22	1783.06
258.452	1711.06
258.685	1417.06
258.918	1407.06
259.151	1420.06
259.383	1333.06
259.616	1180.06
259.849	1237.06
260.081	1388.06
260.314	1559.06
260.547	1724.06
260.779	1718.06
261.012	1631.06
261.244	1445.06
261.477	1358.06
261.71	1449.06
261.942	1417.06
262.175	1366.06
262.407	1485.06
262.64	1367.06
262.872	1306.06
263.105	1268.06
263.337	1287.06
263.57	1267.06
263.802	1319.06
264.035	1256.06
264.267	1177.06
264.499	1127.06
264.732	1233.06
264.964	1279.06
265.197	1355.06
265.429	1431.06
265.661	1595.06
265.894	1797.06
266.126	1845.06
266.358	1626.06
266.591	1660.06
266.823	1819.06
267.055	1601.06
267.287	1609.06
267.52	1604.06
267.752	1579.06
267.984	1577.06
268.216	1650.06
268.448	1684.06
268.681	1653.06
268.913	1555.06
269.145	1457.06
269.377	1418.06
269.609	1533.06
269.841	1737.06
270.073	2057.06
270.306	2235.06
270.538	2459.06
270.77	2070.06
271.002	1761.06
271.234	1703.06
271.466	1669.06
271.698	1845.06
271.93	2201.06
272.162	2240.06
272.394	1954.06
272.626	1994.06
272.858	1688.06
273.09	1502.06
273.322	1493.06
273.553	1405.06
273.785	1411.06
274.017	1445.06
274.249	1621.06
274.481	1601.06
274.713	1447.06
274.945	1414.06
275.176	1424.06
275.408	1403.06
275.64	1370.06
275.872	1381.06
276.104	1469.06
276.335	1665.06
276.567	1897.06
276.799	1936.06
277.031	1738.06
277.262	1624.06
277.494	1660.06
277.726	1885.06
277.957	1858.06
278.189	1684.06
278.421	1559.06
278.652	1508.06
278.884	1488.06
279.115	1493.06
279.347	1528.06
279.579	1475.06
279.81	1472.06
280.042	1649.06
280.273	1773.06
280.505	1775.06
280.736	1877.06
280.968	1693.06
281.199	1575.06
281.431	1423.06
281.662	1435.06
281.894	1465.06
282.125	1516.06
282.356	1550.06
282.588	1569.06
282.819	1521.06
283.051	1642.06
283.282	1835.06
283.513	1794.06
283.745	1538.06
283.976	1444.06
284.207	1460.06
284.439	1485.06
284.67	1532.06
284.901	1547.06
285.132	1587.06
285.364	1527.06
285.595	1577.06
285.826	1507.06
286.057	1499.06
286.288	1528.06
286.52	1561.06
286.751	1722.06
286.982	1775.06
287.213	1642.06
287.444	1493.06
287.675	1474.06
287.906	1573.06
288.138	1673.06
288.369	1615.06
288.6	1531.06
288.831	1470.06
289.062	1484.06
289.293	1522.06
289.524	1543.06
289.755	1568.06
289.986	1604.06
290.217	1464.06
290.448	1486.06
290.679	1547.06
290.91	1559.06
291.141	1579.06
291.371	1615.06
291.602	1598.06
291.833	1606.06
292.064	1634.06
292.295	1635.06
292.526	1658.06
292.757	1733.06
292.987	1663.06
293.218	1554.06
293.449	1664.06
293.68	1881.06
293.91	2035.06
294.141	1885.06
294.372	1791.06
294.603	1867.06
294.833	1961.06
295.064	1853.06
295.295	1665.06
295.525	1616.06
295.756	1500.06
295.987	1437.06
296.217	1457.06
296.448	1517.06
296.679	1503.06
296.909	1542.06
297.14	1509.06
297.37	1523.06
297.601	1649.06
297.831	1749.06
298.062	1742.06
298.292	1595.06
298.523	1520.06
298.753	1556.06
298.984	1579.06
299.214	1580.06
299.445	1580.06
299.675	1648.06
299.905	1630.06
300.136	1595.06
300.366	1548.06
300.597	1478.06
300.827	1473.06
301.057	1548.06
301.288	1652.06
301.518	1607.06
301.748	1687.06
301.979	1742.06
302.209	1749.06
302.439	1937.06
302.669	1991.06
302.9	1851.06
303.13	1677.06
303.36	1661.06
303.59	1701.06
303.82	1675.06
304.051	1671.06
304.281	1660.06
304.511	1669.06
304.741	1723.06
304.971	1946.06
305.201	2112.06
305.431	1975.06
305.661	1585.06
305.891	1471.06
306.121	1428.06
306.352	1487.06
306.582	1601.06
306.812	1713.06
307.042	1861.06
307.272	1802.06
307.502	1885.06
307.731	2018.06
307.961	2165.06
308.191	2010.06
308.421	1714.06
308.651	1630.06
308.881	1575.06
309.111	1610.06
309.341	1584.06
309.571	1558.06
309.8	1597.06
310.03	1582.06
310.26	1522.06
310.49	1583.06
310.72	1605.06
310.949	1692.06
311.179	1698.06
311.409	1679.06
311.639	1624.06
311.868	1587.06
312.098	1616.06
312.328	1614.06
312.557	1631.06
312.787	1630.06
313.017	1686.06
313.246	1645.06
313.476	1655.06
313.706	1713.06
313.935	1658.06
314.165	1709.06
314.394	1719.06
314.624	1866.06
314.853	1962.06
315.083	1993.06
315.312	2092.06
315.542	1942.06
315.771	1733.06
316.001	1661.06
316.23	1807.06
316.46	1832.06
316.689	1755.06
316.919	1689.06
317.148	1619.06
317.377	1650.06
317.607	1749.06
317.836	2018.06
318.065	2069.06
318.295	1958.06
318.524	1858.06
318.753	1800.06
318.983	1770.06
319.212	1760.06
319.441	1730.06
319.67	1744.06
319.9	1724.06
320.129	1826.06
320.358	1938.06
320.587	1891.06
320.816	1894.06
321.046	1897.06
321.275	1784.06
321.504	1776.06
321.733	1965.06
321.962	1909.06
322.191	1772.06
322.42	1729.06
322.649	1722.06
322.878	1724.06
323.108	1732.06
323.337	1820.06
323.566	1814.06
323.795	1797.06
324.024	1789.06
324.253	1754.06
324.482	1794.06
324.71	1751.06
324.939	1676.06
325.168	1653.06
325.397	1707.06
325.626	1828.06
325.855	1809.06
326.084	1709.06
326.313	1766.06
326.542	1742.06
326.77	1806.06
326.999	1832.06
327.228	1740.06
327.457	1671.06
327.686	1663.06
327.914	1670.06
328.143	1743.06
328.372	1693.06
328.6	1760.06
328.829	1762.06
329.058	1721.06
329.287	1684.06
329.515	1700.06
329.744	1785.06
329.972	1864.06
330.201	1909.06
330.43	1937.06
330.658	1867.06
330.887	1853.06
331.115	1800.06
331.344	1870.06
331.572	1851.06
331.801	1803.06
332.03	1826.06
332.258	1837.06
332.486	1885.06
332.715	1866.06
332.943	1887.06
333.172	1834.06
333.4	1841.06
333.629	1883.06
333.857	2010.06
334.085	2205.06
334.314	2488.06
334.542	2737.06
334.771	2521.06
334.999	2210.06
335.227	2062.06
335.455	1971.06
335.684	1951.06
335.912	1980.06
336.14	2075.06
336.369	2034.06
336.597	1930.06
336.825	1873.06
337.053	1907.06
337.281	2019.06
337.51	2095.06
337.738	2221.06
337.966	2142.06
338.194	1938.06
338.422	1845.06
338.65	1827.06
338.878	1825.06
339.106	1782.06
339.334	1765.06
339.562	1715.06
339.79	1764.06
340.018	1865.06
340.246	1951.06
340.474	1937.06
340.702	1892.06
340.93	1874.06
341.158	1841.06
341.386	1851.06
341.614	1861.06
341.842	1817.06
342.07	1806.06
342.298	1814.06
342.526	1859.06
342.754	1775.06
342.981	1789.06
343.209	1801.06
343.437	1761.06
343.665	1809.06
343.893	1830.06
344.12	1977.06
344.348	1949.06
344.576	1848.06
344.804	1785.06
345.031	1813.06
345.259	1831.06
345.487	1789.06
345.714	1703.06
345.942	1671.06
346.17	1697.06
346.397	1719.06
346.625	1731.06
346.853	1671.06
347.08	1626.06
347.308	1669.06
347.535	1681.06
347.763	1746.06
347.99	1720.06
348.218	1652.06
348.445	1670.06
348.673	1648.06
348.9	1743.06
349.128	1800.06
349.355	1830.06
349.583	1809.06
349.81	1713.06
350.037	1586.06
350.265	1548.06
350.492	1615.06
350.72	1633.06
350.947	1677.06
351.174	1794.06
351.402	1651.06
351.629	1610.06
351.856	1573.06
352.083	1540.06
352.311	1575.06
352.538	1632.06
352.765	1691.06
352.992	1745.06
353.22	1701.06
353.447	1625.06
353.674	1652.06
353.901	1665.06
354.128	1638.06
354.355	1616.06
354.583	1678.06
354.81	1699.06
355.037	1751.06
355.264	1745.06
355.491	1687.06
355.718	1680.06
355.945	1656.06
356.172	1637.06
356.399	1632.06
356.626	1608.06
356.853	1673.06
357.08	1779.06
357.307	1935.06
357.534	2017.06
357.761	1781.06
357.988	1615.06
358.215	1585.06
358.441	1581.06
358.668	1591.06
358.895	1627.06
359.122	1721.06
359.349	1933.06
359.576	1885.06
359.802	1701.06
360.029	1644.06
360.256	1575.06
360.483	1603.06
360.709	1624.06
360.936	1761.06
361.163	1765.06
361.39	1924.06
361.616	2103.06
361.843	2072.06
362.07	1979.06
362.296	1675.06
362.523	1624.06
362.749	1657.06
362.976	1663.06
363.203	1661.06
363.429	1665.06
363.656	1607.06
363.882	1670.06
364.109	1825.06
364.335	2002.06
364.562	1859.06
364.788	1781.06
365.015	1692.06
365.241	1622.06
365.468	1641.06
365.694	1742.06
365.92	1767.06
366.147	1710.06
366.373	1657.06
366.599	1573.06
366.826	1595.06
367.052	1612.06
367.278	1599.06
367.505	1681.06
367.731	1693.06
367.957	1737.06
368.184	1726.06
368.41	1843.06
368.636	1885.06
368.862	1879.06
369.089	1852.06
369.315	1823.06
369.541	1745.06
369.767	1707.06
369.993	1641.06
370.219	1622.06
370.445	1677.06
370.672	1759.06
370.898	1890.06
371.124	1849.06
371.35	1755.06
371.576	1815.06
371.802	1890.06
372.028	1797.06
372.254	1740.06
372.48	1671.06
372.706	1659.06
372.932	1683.06
373.158	1687.06
373.384	1700.06
373.61	1753.06
373.835	1874.06
374.061	1764.06
374.287	1772.06
374.513	1742.06
374.739	1727.06
374.965	1772.06
375.191	1796.06
375.416	1798.06
375.642	1792.06
375.868	1874.06
376.094	1974.06
376.319	1857.06
376.545	1795.06
376.771	1777.06
376.997	1819.06
377.222	1826.06
377.448	1797.06
377.674	1822.06
377.899	1800.06
378.125	1903.06
378.35	1919.06
378.576	1798.06
378.802	1731.06
379.027	1713.06
379.253	1725.06
379.478	1720.06
379.704	1683.06
379.929	1731.06
380.155	1750.06
380.38	1762.06
380.606	1771.06
380.831	1745.06
381.057	1816.06
381.282	1845.06
381.507	1849.06
381.733	1942.06
381.958	2009.06
382.184	1892.06
382.409	1801.06
382.634	1830.06
382.86	1810.06
383.085	1813.06
383.31	1890.06
383.535	2007.06
383.761	2147.06
383.986	2017.06
384.211	1965.06
384.436	1946.06
384.662	2057.06
384.887	2109.06
385.112	2031.06
385.337	2020.06
385.562	1952.06
385.787	2005.06
386.013	2044.06
386.238	2070.06
386.463	2010.06
386.688	2150.06
386.913	2276.06
387.138	2241.06
387.363	2073.06
387.588	2067.06
387.813	2041.06
388.038	2052.06
388.263	2133.06
388.488	2088.06
388.713	1950.06
388.938	1889.06
389.163	1924.06
389.387	1990.06
389.612	1982.06
389.837	1973.06
390.062	2034.06
390.287	2008.06
390.512	1982.06
390.736	1938.06
390.961	1907.06
391.186	1874.06
391.411	1912.06
391.636	1957.06
391.86	2019.06
392.085	2009.06
392.31	1965.06
392.534	1980.06
392.759	1975.06
392.984	1998.06
393.208	2016.06
393.433	2029.06
393.658	2151.06
393.882	2181.06
394.107	2047.06
394.331	2009.06
394.556	1937.06
394.78	2021.06
395.005	2081.06
395.229	2140.06
395.454	2255.06
395.678	2284.06
395.903	2224.06
396.127	2113.06
396.352	2066.06
396.576	2177.06
396.801	2195.06
397.025	2150.06
397.249	2155.06
397.474	2107.06
397.698	2125.06
397.922	2216.06
398.147	2293.06
398.371	2393.06
398.595	2358.06
398.82	2300.06
399.044	2325.06
399.268	2422.06
399.492	2591.06
399.717	2621.06
399.941	2740.06
400.165	2653.06
400.389	2548.06
400.613	2571.06
400.837	2786.06
401.062	3222.06
401.286	2806.06
401.51	2465.06
401.734	2597.06
401.958	2561.06
402.182	2385.06
402.406	2256.06
402.63	2236.06
402.854	2236.06
403.078	2309.06
403.302	2334.06
403.526	2369.06
403.75	2386.06
403.974	2367.06
404.198	2363.06
404.422	2455.06
404.645	2547.06
404.869	2536.06
405.093	2349.06
405.317	2299.06
405.541	2403.06
405.765	2387.06
405.988	2390.06
406.212	2411.06
406.436	2483.06
406.66	2529.06
406.883	2569.06
407.107	2826.06
407.331	3083.06
407.555	3317.06
407.778	3098.06
408.002	2583.06
408.226	2489.06
408.449	2538.06
408.673	2403.06
408.896	2491.06
409.12	2478.06
409.344	2437.06
409.567	2424.06
409.791	2355.06
410.014	2446.06
410.238	2530.06
410.461	2763.06
410.685	2472.06
410.908	2300.06
411.132	2388.06
411.355	2368.06
411.578	2346.06
411.802	2317.06
412.025	2398.06
412.249	2341.06
412.472	2244.06
412.695	2229.06
412.919	2267.06
413.142	2263.06
413.365	2271.06
413.589	2357.06
413.812	2399.06
414.035	2516.06
414.258	2330.06
414.482	2270.06
414.705	2276.06
414.928	2276.06
415.151	2277.06
415.374	2285.06
415.597	2316.06
415.821	2354.06
416.044	2379.06
416.267	2401.06
416.49	2233.06
416.713	2171.06
416.936	2230.06
417.159	2333.06
417.382	2335.06
417.605	2248.06
417.828	2290.06
418.051	2277.06
418.274	2298.06
418.497	2149.06
418.72	2240.06
418.943	2174.06
419.166	2337.06
419.389	2454.06
419.611	2281.06
419.834	2260.06
420.057	2256.06
420.28	2154.06
420.503	2183.06
420.726	2211.06
420.948	2254.06
421.171	2145.06
421.394	2198.06
421.617	2235.06
421.839	2242.06
422.062	2184.06
422.285	2157.06
422.507	2164.06
422.73	2071.06
422.953	2139.06
423.175	2092.06
423.398	2151.06
423.621	2143.06
423.843	2162.06
424.066	2213.06
424.288	2323.06
424.511	2346.06
424.733	2292.06
424.956	2114.06
425.178	2095.06
425.401	2084.06
425.623	2103.06
425.846	2115.06
426.068	2238.06
426.291	2253.06
426.513	2199.06
426.735	2214.06
426.958	2330.06
427.18	2499.06
427.402	2309.06
427.625	2401.06
427.847	2325.06
428.069	2217.06
428.292	2133.06
428.514	2052.06
428.736	2091.06
428.958	2094.06
429.181	2149.06
429.403	2390.06
429.625	2963.06
429.847	2606.06
430.069	2166.06
430.292	2384.06
430.514	2447.06
430.736	2251.06
430.958	2422.06
431.18	2307.06
431.402	2150.06
431.624	2097.06
431.846	2108.06
432.068	2058.06
432.29	2121.06
432.512	2117.06
432.734	2165.06
432.956	2170.06
433.178	2298.06
433.4	2259.06
433.622	2287.06
433.844	2143.06
434.066	2078.06
434.287	2062.06
434.509	2154.06
434.731	2264.06
434.953	2425.06
435.175	2401.06
435.397	2220.06
435.618	2245.06
435.84	2266.06
436.062	2225.06
436.284	2181.06
436.505	2260.06
436.727	2259.06
436.949	2217.06
437.17	2153.06
437.392	2082.06
437.614	2135.06
437.835	2047.06
438.057	2228.06
438.278	2353.06
438.5	2150.06
438.721	2115.06
438.943	2129.06
439.165	2095.06
439.386	2056.06
439.608	2121.06
439.829	2059.06
440.05	2117.06
440.272	2062.06
440.493	2038.06
440.715	2093.06
440.936	2225.06
441.158	2486.06
441.379	2366.06
441.6	2325.06
441.822	2318.06
442.043	2251.06
442.264	2223.06
442.486	2109.06
442.707	2080.06
442.928	2102.06
443.149	2184.06
443.371	2317.06
443.592	2392.06
443.813	2325.06
444.034	2286.06
444.255	2313.06
444.476	2339.06
444.698	2409.06
444.919	2350.06
445.14	2476.06
445.361	2406.06
445.582	2586.06
445.803	2404.06
446.024	2339.06
446.245	2392.06
446.466	2309.06
446.687	2227.06
446.908	2201.06
447.129	2126.06
447.35	2173.06
447.571	2171.06
447.792	2054.06
448.013	2033.06
448.234	2091.06
448.455	2213.06
448.675	2214.06
448.896	2025.06
449.117	1981.06
449.338	2076.06
449.559	2123.06
449.779	2256.06
450	2493.06
450.221	2623.06
450.442	2606.06
450.662	2278.06
450.883	2017.06
451.104	1975.06
451.324	2010.06
451.545	2088.06
451.766	2089.06
451.986	1971.06
452.207	1999.06
452.428	1924.06
452.648	1905.06
452.869	1950.06
453.089	2022.06
453.31	2063.06
453.53	2121.06
453.751	2061.06
453.971	1923.06
454.192	1963.06
454.412	2082.06
454.633	1999.06
454.853	1953.06
455.073	1847.06
455.294	1814.06
455.514	1855.06
455.734	1851.06
455.955	1892.06
456.175	1910.06
456.395	1899.06
456.616	1950.06
456.836	1987.06
457.056	1948.06
457.276	1924.06
457.497	1892.06
457.717	1820.06
457.937	1831.06
458.157	1913.06
458.377	1901.06
458.598	1864.06
458.818	1862.06
459.038	2027.06
459.258	2135.06
459.478	2114.06
459.698	2103.06
459.918	2094.06
460.138	2245.06
460.358	2300.06
460.578	2261.06
460.798	2336.06
461.018	2469.06
461.238	2389.06
461.458	2274.06
461.678	2230.06
461.898	2199.06
462.118	2126.06
462.338	2220.06
462.558	2294.06
462.777	2270.06
462.997	2369.06
463.217	2516.06
463.437	2495.06
463.657	2349.06
463.876	2249.06
464.096	2269.06
464.316	2302.06
464.536	2320.06
464.755	2373.06
464.975	2404.06
465.195	2297.06
465.414	2419.06
465.634	2393.06
465.854	2253.06
466.073	2388.06
466.293	2358.06
466.512	2076.06
466.732	2070.06
466.951	2175.06
467.171	2165.06
467.391	2021.06
467.61	2033.06
467.829	2028.06
468.049	2176.06
468.268	2445.06
468.488	2283.06
468.707	2127.06
468.927	2101.06
469.146	2055.06
469.365	2040.06
469.585	2053.06
469.804	2003.06
470.023	2073.06
470.243	2099.06
470.462	2085.06
470.681	1991.06
470.901	2069.06
471.12	2093.06
471.339	2039.06
471.558	1990.06
471.777	1914.06
471.997	2033.06
472.216	2012.06
472.435	1969.06
472.654	2005.06
472.873	2109.06
473.092	2178.06
473.311	2110.06
473.53	1953.06
473.749	1983.06
473.968	2019.06
474.187	2128.06
474.406	2267.06
474.625	2112.06
474.844	2041.06
475.063	2088.06
475.282	2139.06
475.501	2090.06
475.72	2091.06
475.939	2224.06
476.158	2165.06
476.377	2109.06
476.596	2089.06
476.814	2154.06
477.033	2182.06
477.252	2206.06
477.471	2302.06
477.69	2233.06
477.908	2175.06
478.127	2269.06
478.346	2505.06
478.564	2549.06
478.783	2471.06
479.002	2532.06
479.22	2485.06
479.439	2584.06
479.658	2887.06
479.876	2869.06
480.095	2471.06
480.313	2408.06
480.532	2255.06
480.751	2306.06
480.969	2393.06
481.188	2361.06
481.406	2342.06
481.624	2230.06
481.843	2282.06
482.061	2375.06
482.28	2390.06
482.498	2444.06
482.717	2411.06
482.935	2313.06
483.153	2282.06
483.372	2290.06
483.59	2282.06
483.808	2317.06
484.027	2343.06
484.245	2514.06
484.463	2901.06
484.681	3287.06
484.9	2535.06
485.118	2410.06
485.336	2348.06
485.554	2417.06
485.772	2595.06
485.99	2530.06
486.209	2540.06
486.427	2499.06
486.645	2469.06
486.863	2431.06
487.081	2529.06
487.299	2567.06
487.517	2497.06
487.735	2348.06
487.953	2385.06
488.171	2412.06
488.389	2379.06
488.607	2387.06
488.825	2658.06
489.043	2686.06
489.261	2389.06
489.479	2510.06
489.696	2574.06
489.914	2553.06
490.132	2487.06
490.35	2387.06
490.568	2517.06
490.786	2453.06
491.003	2331.06
491.221	2426.06
491.439	2512.06
491.657	2490.06
491.874	2471.06
492.092	2485.06
492.31	2513.06
492.527	2496.06
492.745	2422.06
492.963	2470.06
493.18	2495.06
493.398	2719.06
493.615	2849.06
493.833	2572.06
494.05	2459.06
494.268	2467.06
494.485	2573.06
494.703	2559.06
494.92	2442.06
495.138	2474.06
495.355	2528.06
495.573	2625.06
495.79	2741.06
496.008	2784.06
496.225	2601.06
496.442	2571.06
496.66	2734.06
496.877	2679.06
497.094	2773.06
497.312	2779.06
497.529	2708.06
497.746	2819.06
497.963	3249.06
498.181	3659.06
498.398	3408.06
498.615	3333.06
498.832	3192.06
499.049	3197.06
499.267	3169.06
499.484	3433.06
499.701	3669.06
499.918	3727.06
500.135	3979.06
500.352	4311.06
500.569	4258.06
500.786	4465.06
501.003	4137.06
501.22	3831.06
501.437	3713.06
501.654	3724.06
501.871	3603.06
502.088	3163.06
502.305	3184.06
502.522	3059.06
502.739	2894.06
502.956	2775.06
503.172	2770.06
503.389	2722.06
503.606	2648.06
503.823	2637.06
504.04	2654.06
504.256	2655.06
504.473	2624.06
504.69	2791.06
504.907	2613.06
505.123	2505.06
505.34	2566.06
505.557	3413.06
505.773	2889.06
505.99	2391.06
506.207	2299.06
506.423	2290.06
506.64	2254.06
506.856	2283.06
507.073	2555.06
507.289	2785.06
507.506	2681.06
507.722	2279.06
507.939	2191.06
508.155	2216.06
508.372	2228.06
508.588	2162.06
508.805	2097.06
509.021	2078.06
509.238	2083.06
509.454	2060.06
509.67	2065.06
509.887	2053.06
510.103	2055.06
510.319	2099.06
510.536	2181.06
510.752	2228.06
510.968	2248.06
511.184	2367.06
511.401	2337.06
511.617	2072.06
511.833	1994.06
512.049	1998.06
512.265	1983.06
512.481	1954.06
512.698	2079.06
512.914	2221.06
513.13	2140.06
513.346	2006.06
513.562	1971.06
513.778	2029.06
513.994	2083.06
514.21	2225.06
514.426	2208.06
514.642	2402.06
514.858	2290.06
515.074	2127.06
515.29	2019.06
515.506	2057.06
515.721	2134.06
515.937	2172.06
516.153	2441.06
516.369	2357.06
516.585	2161.06
516.801	2116.06
517.016	2073.06
517.232	2190.06
517.448	2223.06
517.664	2233.06
517.879	2259.06
518.095	2330.06
518.311	2238.06
518.527	2138.06
518.742	2105.06
518.958	2002.06
519.173	2025.06
519.389	2068.06
519.605	2059.06
519.82	2050.06
520.036	2114.06
520.251	1984.06
520.467	2020.06
520.682	2236.06
520.898	2296.06
521.113	2085.06
521.329	2028.06
521.544	2175.06
521.76	2073.06
521.975	1964.06
522.19	1918.06
522.406	1926.06
522.621	2324.06
522.836	2345.06
523.052	1940.06
523.267	1921.06
523.482	1917.06
523.698	1810.06
523.913	1814.06
524.128	1865.06
524.343	1957.06
524.559	2019.06
524.774	1881.06
524.989	1835.06
525.204	1810.06
525.419	1780.06
525.634	1795.06
525.849	1866.06
526.064	1828.06
526.28	1872.06
526.495	1811.06
526.71	1775.06
526.925	1821.06
527.14	1773.06
527.355	1782.06
527.57	1709.06
527.785	1766.06
527.999	1766.06
528.214	1725.06
528.429	1650.06
528.644	1707.06
528.859	1766.06
529.074	1728.06
529.289	1717.06
529.503	1774.06
529.718	1793.06
529.933	1729.06
530.148	1705.06
530.363	1708.06
530.577	1702.06
530.792	1741.06
531.007	1756.06
531.221	1742.06
531.436	1763.06
531.651	1813.06
531.865	1903.06
532.08	1819.06
532.295	1719.06
532.509	1690.06
532.724	1691.06
532.938	1757.06
533.153	1895.06
533.367	1794.06
533.582	1813.06
533.796	1725.06
534.011	1735.06
534.225	1740.06
534.44	1689.06
534.654	1687.06
534.868	1666.06
535.083	1788.06
535.297	1771.06
535.511	1719.06
535.726	1694.06
535.94	1730.06
536.154	1715.06
536.369	1693.06
536.583	1612.06
536.797	1608.06
537.011	1698.06
537.225	1620.06
537.44	1589.06
537.654	1691.06
537.868	1631.06
538.082	1538.06
538.296	1597.06
538.51	1578.06
538.724	1584.06
538.938	1570.06
539.153	1614.06
539.367	1635.06
539.581	1628.06
539.795	1677.06
540.009	1673.06
540.222	1648.06
540.436	1677.06
540.65	1799.06
540.864	1832.06
541.078	1742.06
541.292	1610.06
541.506	1636.06
541.72	1633.06
541.934	1591.06
542.147	1663.06
542.361	1639.06
542.575	1592.06
542.789	1522.06
543.002	1494.06
543.216	1566.06
543.43	1662.06
543.644	1735.06
543.857	1746.06
544.071	1679.06
544.285	1621.06
544.498	1605.06
544.712	1613.06
544.925	1640.06
545.139	1671.06
545.352	1597.06
545.566	1521.06
545.779	1522.06
545.993	1571.06
546.206	1592.06
546.42	1558.06
546.633	1513.06
546.847	1477.06
547.06	1521.06
547.274	1498.06
547.487	1501.06
547.7	1521.06
547.914	1537.06
548.127	1562.06
548.34	1581.06
548.554	1572.06
548.767	1543.06
548.98	1513.06
549.193	1549.06
549.407	1657.06
549.62	1645.06
549.833	1565.06
550.046	1545.06
550.259	1589.06
550.473	1534.06
550.686	1546.06
550.899	1459.06
551.112	1423.06
551.325	1446.06
551.538	1537.06
551.751	1782.06
551.964	1468.06
552.177	1437.06
552.39	1458.06
552.603	1485.06
552.816	1521.06
553.029	1635.06
553.242	1623.06
553.455	1519.06
553.667	1539.06
553.88	1574.06
554.093	1499.06
554.306	1433.06
554.519	1446.06
554.732	1415.06
554.944	1413.06
555.157	1480.06
555.37	1448.06
555.583	1431.06
555.795	1403.06
556.008	1347.06
556.221	1340.06
556.433	1309.06
556.646	1313.06
556.859	1341.06
557.071	1312.06
557.284	1315.06
557.496	1304.06
557.709	1276.06
557.921	1263.06
558.134	1270.06
558.346	1276.06
558.559	1277.06
558.771	1285.06
558.984	1245.06
559.196	1230.06
559.409	1248.06
559.621	1255.06
559.833	1242.06
560.046	1285.06
560.258	1281.06
560.47	1255.06
560.683	1255.06
560.895	1234.06
561.107	1255.06
561.32	1249.06
561.532	1252.06
561.744	1230.06
561.956	1268.06
562.168	1216.06
562.381	1178.06
562.593	1217.06
562.805	1231.06
563.017	1211.06
563.229	1227.06
563.441	1273.06
563.653	1205.06
563.865	1219.06
564.077	1226.06
564.289	1229.06
564.501	1235.06
564.713	1263.06
564.925	1291.06
565.137	1401.06
565.349	1320.06
565.561	1309.06
565.773	1310.06
565.985	1349.06
566.197	1382.06
566.408	1484.06
566.62	1501.06
566.832	1494.06
567.044	1486.06
567.255	1493.06
567.467	1508.06
567.679	1543.06
567.891	1575.06
568.102	1558.06
568.314	1470.06
568.526	1401.06
568.737	1343.06
568.949	1309.06
569.161	1236.06
569.372	1228.06
569.584	1209.06
569.795	1201.06
570.007	1198.06
570.218	1143.06
570.43	1130.06
570.641	1116.06
570.853	1102.06
571.064	1125.06
571.276	1104.06
571.487	1092.06
571.698	1075.06
571.91	1066.06
572.121	1040.06
572.333	1012.06
572.544	1005.06
572.755	989.06
572.966	968.06
573.178	999.06
573.389	1010.06
573.6	1025.06
573.811	1106.06
574.023	999.06
574.234	965.06
574.445	950.06
574.656	958.06
574.867	944.06
575.078	958.06
575.289	973.06
575.501	933.06
575.712	910.06
575.923	915.06
576.134	939.06
576.345	895.06
576.556	903.06
576.767	878.06
576.978	895.06
577.188	871.06
577.399	864.06
577.61	876.06
577.821	853.06
578.032	855.06
578.243	849.06
578.454	835.06
578.665	852.06
578.875	838.06
579.086	812.06
579.297	828.06
579.508	870.06
579.718	849.06
579.929	865.06
580.14	812.06
580.35	839.06
580.561	855.06
580.772	898.06
580.982	843.06
581.193	820.06
581.403	813.06
581.614	795.06
581.825	793.06
582.035	780.06
582.246	805.06
582.456	833.06
582.667	843.06
582.877	823.06
583.087	779.06
583.298	795.06
583.508	814.06
583.719	810.06
583.929	819.06
584.139	797.06
584.35	781.06
584.56	748.06
584.77	789.06
584.981	790.06
585.191	804.06
585.401	818.06
585.611	775.06
585.821	797.06
586.032	753.06
586.242	762.06
586.452	753.06
586.662	773.06
586.872	757.06
587.082	732.06
587.292	782.06
587.502	753.06
587.713	780.06
587.923	744.06
588.133	783.06
588.343	775.06
588.553	764.06
588.762	751.06
588.972	735.06
589.182	792.06
589.392	753.06
589.602	751.06
589.812	754.06
590.022	731.06
590.232	737.06
590.441	744.06
590.651	739.06
590.861	717.06
591.071	724.06
591.281	710.06
591.49	740.06
591.7	756.06
591.91	763.06
592.119	731.06
592.329	743.06
592.539	775.06
592.748	775.06
592.958	770.06
593.167	783.06
593.377	764.06
593.587	800.06
593.796	803.06
594.006	776.06
594.215	795.06
594.424	754.06
594.634	787.06
594.843	761.06
595.053	780.06
595.262	754.06
595.472	747.06
595.681	735.06
595.89	707.06
596.1	710.06
596.309	709.06
596.518	699.06
596.727	685.06
596.937	702.06
597.146	657.06
597.355	659.06
597.564	682.06
597.774	641.06
597.983	657.06
598.192	645.06
598.401	656.06
598.61	649.06
598.819	641.06
599.028	641.06
599.237	633.06
599.446	632.06
599.655	615.06
599.864	604.06
600.073	613.06
600.282	617.06
600.491	620.06
600.7	615.06
600.909	599.06
601.118	599.06
601.327	594.06
601.536	613.06
601.745	596.06
601.953	610.06
602.162	613.06
602.371	633.06
602.58	595.06
602.789	611.06
602.997	605.06
603.206	571.06
603.415	593.06
603.623	595.06
603.832	601.06
604.041	586.06
604.249	587.06
604.458	583.06
604.666	602.06
604.875	579.06
605.084	589.06
605.292	587.06
605.501	585.06
605.709	585.06
605.918	548.06
606.126	549.06
606.334	555.06
606.543	574.06
606.751	578.06
606.96	586.06
607.168	552.06
607.376	524.06
607.585	564.06
607.793	583.06
608.001	541.06
608.21	561.06
608.418	558.06
608.626	556.06
608.834	563.06
609.043	538.06
609.251	577.06
609.459	567.06
609.667	558.06
609.875	541.06
610.083	574.06
610.291	597.06
610.499	566.06
610.707	550.06
610.916	548.06
611.124	545.06
611.332	544.06
611.54	533.06
611.748	548.06
611.955	542.06
612.163	525.06
612.371	524.06
612.579	510.06
612.787	507.06
612.995	516.06
613.203	558.06
613.411	534.06
613.618	526.06
613.826	547.06
614.034	525.06
614.242	521.06
614.449	540.06
614.657	524.06
614.865	520.06
615.072	532.06
615.28	552.06
615.488	524.06
615.695	536.06
615.903	541.06
616.111	521.06
616.318	526.06
616.526	537.06
616.733	502.06
616.941	503.06
617.148	505.06
617.356	518.06
617.563	478.06
617.771	513.06
617.978	493.06
618.185	499.06
618.393	500.06
618.6	494.06
618.807	493.06
619.015	511.06
619.222	502.06
619.429	499.06
619.637	478.06
619.844	481.06
620.051	488.06
620.258	476.06
620.466	458.06
620.673	463.06
620.88	456.06
621.087	445.06
621.294	446.06
621.501	469.06
621.708	466.06
621.915	487.06
622.122	465.06
622.329	485.06
622.536	456.06
622.743	465.06
622.95	470.06
623.157	452.06
623.364	447.06
623.571	474.06
623.778	454.06
623.985	440.06
624.192	454.06
624.399	443.06
624.606	453.06
624.812	438.06
625.019	433.06
625.226	442.06
625.433	431.06
625.639	439.06
625.846	433.06
626.053	409.06
626.259	428.06
626.466	410.06
626.673	393.06
626.879	414.06
627.086	421.06
627.293	442.06
627.499	403.06
627.706	416.06
627.912	447.06
628.119	426.06
628.325	420.06
628.532	425.06
628.738	438.06
628.945	413.06
629.151	430.06
629.357	414.06
629.564	419.06
629.77	393.06
629.976	410.06
630.183	395.06
630.389	389.06
630.595	415.06
630.802	394.06
631.008	383.06
631.214	388.06
631.42	372.06
631.627	392.06
631.833	373.06
632.039	380.06
632.245	389.06
632.451	374.06
632.657	372.06
632.863	380.06
633.069	403.06
633.275	356.06
633.481	382.06
633.688	365.06
633.893	376.06
634.099	359.06
634.305	352.06
634.511	366.06
634.717	355.06
634.923	358.06
635.129	360.06
635.335	372.06
635.541	362.06
635.747	360.06
635.952	383.06
636.158	371.06
636.364	361.06
636.57	361.06
636.775	365.06
636.981	377.06
637.187	345.06
637.392	366.06
637.598	337.06
637.804	353.06
638.009	346.06
638.215	344.06
638.421	332.06
638.626	350.06
638.832	341.06
639.037	342.06
639.243	340.06
639.448	331.06
639.654	340.06
639.859	325.06
640.065	324.06
640.27	332.06
640.475	349.06
640.681	326.06
640.886	332.06
641.091	347.06
641.297	319.06
641.502	314.06
641.707	329.06
641.913	314.06
642.118	339.06
642.323	350.06
642.528	327.06
642.733	318.06
642.939	340.06
643.144	319.06
643.349	344.06
643.554	317.06
643.759	326.06
643.964	319.06
644.169	314.06
644.374	301.06
644.579	319.06
644.784	321.06
644.989	305.06
645.194	312.06
645.399	333.06
645.604	325.06
645.809	321.06
646.014	324.06
646.219	318.06
646.423	315.06
646.628	313.06
646.833	317.06
647.038	297.06
647.243	320.06
647.447	331.06
647.652	314.06
647.857	323.06
648.062	318.06
648.266	307.06
648.471	316.06
648.676	326.06
648.88	326.06
649.085	339.06
649.289	302.06
649.494	303.06
649.698	314.06
649.903	294.06
650.107	321.06
650.312	295.06
650.516	300.06
650.721	298.06
650.925	279.06
651.13	289.06
651.334	277.06
651.539	280.06
651.743	305.06
651.947	287.06
652.152	284.06
652.356	261.06
652.56	271.06
652.764	249.06
652.969	267.06
653.173	260.06
653.377	255.06
653.581	249.06
653.785	244.06
653.99	246.06
654.194	234.06
654.398	245.06
654.602	234.06
654.806	251.06
655.01	253.06
655.214	240.06
655.418	254.06
655.622	253.06
655.826	262.06
656.03	277.06
656.234	289.06
656.438	257.06
656.642	277.06
656.846	279.06
657.049	248.06
657.253	228.06
657.457	213.06
657.661	206.06
657.865	193.06
658.068	188.06
658.272	187.06
658.476	173.06
658.68	165.06
658.883	161.06
659.087	163.06
659.291	151.06
659.494	155.06
659.698	141.06
659.901	135.06
660.105	133.06
660.309	133.06
660.512	122.06
660.716	125.06
660.919	113.06
661.123	123.06
661.326	111.06
661.53	93.06
661.733	111.06
661.936	114.06
662.14	116.06
662.343	97.06
662.546	93.06
662.75	79.06
662.953	93.06
663.156	78.06
663.36	87.06
663.563	90.06
663.766	96.06
663.969	103.06
664.173	90.06
664.376	94.06
664.579	90.06
664.782	81.06
664.985	94.06
665.188	90.06
665.391	96.06
665.594	73.06
665.797	84.06
666	75.06
666.203	89.06
666.406	79.06
666.609	83.06
666.812	93.06
667.015	100.06
667.218	88.06
667.421	87.06
667.624	84.06
667.827	88.06
668.03	87.06
668.232	84.06
668.435	86.06
668.638	83.06
668.841	71.06
669.043	84.06
669.246	94.06
669.449	70.06
669.651	86.06
669.854	78.06
670.057	73.06
670.259	86.06
670.462	81.06
670.665	81.06
670.867	77.06
671.07	88.06
671.272	85.06
671.475	93.06
671.677	87.06
671.88	79.06
672.082	86.06
672.284	81.06
672.487	85.06
672.689	85.06
672.892	85.06
