Data from WStandard_LampEnergy10_LIBS07252019.E.O._I.C._HRD10591_15-54-29-928.txt Node
Date: Thu Jul 25 15:54:29 EDT 2019
User: cochatt
Spectrometer: HR+D1059
Trigger mode: 1
Integration Time (sec): 1.000000E-1
Scans to average: 1
Electric dark correction enabled: true
Nonlinearity correction enabled: false
Boxcar width: 0
XAxis mode: Wavelengths
Number of Pixels in Spectrum: 2048
>>>>>Begin Spectral Data<<<<<
223.165	-38.75
223.4	-38.75
223.635	-38.75
223.869	-21.75
224.104	-11.75
224.338	-22.75
224.573	-20.75
224.808	-12.75
225.042	-1.75
225.277	0.25
225.511	-4.75
225.746	0.25
225.98	15.25
226.215	23.25
226.449	19.25
226.683	3.25
226.918	31.25
227.152	42.25
227.387	45.25
227.621	48.25
227.856	48.25
228.09	41.25
228.324	49.25
228.559	60.25
228.793	88.25
229.027	133.25
229.262	148.25
229.496	135.25
229.73	142.25
229.964	172.25
230.199	169.25
230.433	177.25
230.667	195.25
230.901	194.25
231.136	172.25
231.37	169.25
231.604	154.25
231.838	184.25
232.072	169.25
232.306	173.25
232.541	185.25
232.775	196.25
233.009	202.25
233.243	192.25
233.477	188.25
233.711	222.25
233.945	213.25
234.179	203.25
234.413	202.25
234.647	219.25
234.881	210.25
235.115	196.25
235.349	199.25
235.583	207.25
235.817	194.25
236.051	194.25
236.285	193.25
236.519	192.25
236.753	221.25
236.987	224.25
237.221	218.25
237.455	241.25
237.689	225.25
237.922	213.25
238.156	204.25
238.39	230.25
238.624	213.25
238.858	234.25
239.091	248.25
239.325	275.25
239.559	284.25
239.793	298.25
240.027	313.25
240.26	298.25
240.494	228.25
240.728	252.25
240.961	237.25
241.195	242.25
241.429	252.25
241.662	249.25
241.896	245.25
242.13	245.25
242.363	263.25
242.597	282.25
242.83	273.25
243.064	284.25
243.298	291.25
243.531	295.25
243.765	280.25
243.998	273.25
244.232	244.25
244.465	246.25
244.699	237.25
244.932	264.25
245.166	293.25
245.399	298.25
245.633	277.25
245.866	275.25
246.099	291.25
246.333	273.25
246.566	293.25
246.8	339.25
247.033	346.25
247.266	318.25
247.5	299.25
247.733	327.25
247.966	307.25
248.2	364.25
248.433	366.25
248.666	371.25
248.899	398.25
249.133	426.25
249.366	477.25
249.599	396.25
249.832	355.25
250.066	390.25
250.299	381.25
250.532	357.25
250.765	340.25
250.998	332.25
251.231	348.25
251.465	360.25
251.698	344.25
251.931	346.25
252.164	342.25
252.397	358.25
252.63	353.25
252.863	339.25
253.096	331.25
253.329	341.25
253.562	332.25
253.795	369.25
254.028	376.25
254.261	342.25
254.494	326.25
254.727	350.25
254.96	338.25
255.193	377.25
255.426	416.25
255.659	448.25
255.892	444.25
256.124	384.25
256.357	376.25
256.59	391.25
256.823	417.25
257.056	426.25
257.289	472.25
257.521	517.25
257.754	452.25
257.987	440.25
258.22	498.25
258.452	442.25
258.685	409.25
258.918	404.25
259.151	404.25
259.383	361.25
259.616	348.25
259.849	367.25
260.081	410.25
260.314	454.25
260.547	458.25
260.779	472.25
261.012	452.25
261.244	400.25
261.477	398.25
261.71	436.25
261.942	397.25
262.175	374.25
262.407	403.25
262.64	386.25
262.872	371.25
263.105	364.25
263.337	371.25
263.57	364.25
263.802	386.25
264.035	347.25
264.267	327.25
264.499	325.25
264.732	382.25
264.964	394.25
265.197	412.25
265.429	417.25
265.661	448.25
265.894	502.25
266.126	509.25
266.358	462.25
266.591	470.25
266.823	498.25
267.055	456.25
267.287	432.25
267.52	447.25
267.752	435.25
267.984	436.25
268.216	464.25
268.448	481.25
268.681	459.25
268.913	446.25
269.145	402.25
269.377	426.25
269.609	454.25
269.841	509.25
270.073	586.25
270.306	632.25
270.538	611.25
270.77	532.25
271.002	489.25
271.234	490.25
271.466	483.25
271.698	526.25
271.93	621.25
272.162	581.25
272.394	524.25
272.626	508.25
272.858	453.25
273.09	412.25
273.322	401.25
273.553	395.25
273.785	426.25
274.017	400.25
274.249	432.25
274.481	434.25
274.713	393.25
274.945	404.25
275.176	405.25
275.408	387.25
275.64	432.25
275.872	404.25
276.104	418.25
276.335	499.25
276.567	529.25
276.799	527.25
277.031	483.25
277.262	475.25
277.494	515.25
277.726	536.25
277.957	519.25
278.189	471.25
278.421	442.25
278.652	441.25
278.884	434.25
279.115	429.25
279.347	436.25
279.579	444.25
279.81	448.25
280.042	464.25
280.273	500.25
280.505	513.25
280.736	518.25
280.968	472.25
281.199	408.25
281.431	421.25
281.662	441.25
281.894	420.25
282.125	439.25
282.356	460.25
282.588	435.25
282.819	463.25
283.051	484.25
283.282	494.25
283.513	496.25
283.745	457.25
283.976	418.25
284.207	435.25
284.439	456.25
284.67	454.25
284.901	459.25
285.132	469.25
285.364	454.25
285.595	446.25
285.826	451.25
286.057	448.25
286.288	457.25
286.52	463.25
286.751	493.25
286.982	501.25
287.213	474.25
287.444	432.25
287.675	434.25
287.906	462.25
288.138	498.25
288.369	461.25
288.6	444.25
288.831	418.25
289.062	457.25
289.293	436.25
289.524	460.25
289.755	443.25
289.986	451.25
290.217	442.25
290.448	442.25
290.679	473.25
290.91	456.25
291.141	454.25
291.371	475.25
291.602	461.25
291.833	468.25
292.064	514.25
292.295	484.25
292.526	493.25
292.757	498.25
292.987	506.25
293.218	482.25
293.449	504.25
293.68	573.25
293.91	588.25
294.141	571.25
294.372	556.25
294.603	558.25
294.833	573.25
295.064	527.25
295.295	517.25
295.525	466.25
295.756	443.25
295.987	441.25
296.217	461.25
296.448	445.25
296.679	454.25
296.909	464.25
297.14	444.25
297.37	487.25
297.601	512.25
297.831	523.25
298.062	521.25
298.292	482.25
298.523	471.25
298.753	468.25
298.984	464.25
299.214	482.25
299.445	489.25
299.675	500.25
299.905	491.25
300.136	490.25
300.366	459.25
300.597	466.25
300.827	478.25
301.057	497.25
301.288	519.25
301.518	508.25
301.748	541.25
301.979	534.25
302.209	550.25
302.439	564.25
302.669	598.25
302.9	565.25
303.13	510.25
303.36	516.25
303.59	515.25
303.82	515.25
304.051	531.25
304.281	542.25
304.511	544.25
304.741	561.25
304.971	611.25
305.201	626.25
305.431	560.25
305.661	488.25
305.891	458.25
306.121	466.25
306.352	495.25
306.582	528.25
306.812	534.25
307.042	549.25
307.272	571.25
307.502	593.25
307.731	621.25
307.961	627.25
308.191	568.25
308.421	517.25
308.651	496.25
308.881	512.25
309.111	491.25
309.341	496.25
309.571	513.25
309.8	480.25
310.03	489.25
310.26	475.25
310.49	496.25
310.72	479.25
310.949	520.25
311.179	523.25
311.409	528.25
311.639	509.25
311.868	481.25
312.098	499.25
312.328	510.25
312.557	500.25
312.787	522.25
313.017	522.25
313.246	501.25
313.476	514.25
313.706	520.25
313.935	522.25
314.165	548.25
314.394	566.25
314.624	579.25
314.853	617.25
315.083	647.25
315.312	628.25
315.542	573.25
315.771	542.25
316.001	539.25
316.23	577.25
316.46	547.25
316.689	567.25
316.919	512.25
317.148	505.25
317.377	561.25
317.607	588.25
317.836	622.25
318.065	644.25
318.295	596.25
318.524	605.25
318.753	580.25
318.983	580.25
319.212	572.25
319.441	557.25
319.67	546.25
319.9	580.25
320.129	611.25
320.358	638.25
320.587	620.25
320.816	607.25
321.046	596.25
321.275	609.25
321.504	590.25
321.733	625.25
321.962	609.25
322.191	545.25
322.42	566.25
322.649	551.25
322.878	546.25
323.108	575.25
323.337	589.25
323.566	584.25
323.795	563.25
324.024	568.25
324.253	568.25
324.482	580.25
324.71	548.25
324.939	528.25
325.168	542.25
325.397	582.25
325.626	598.25
325.855	581.25
326.084	551.25
326.313	603.25
326.542	560.25
326.77	601.25
326.999	585.25
327.228	555.25
327.457	542.25
327.686	534.25
327.914	549.25
328.143	566.25
328.372	570.25
328.6	564.25
328.829	552.25
329.058	562.25
329.287	538.25
329.515	577.25
329.744	594.25
329.972	601.25
330.201	606.25
330.43	591.25
330.658	572.25
330.887	584.25
331.115	580.25
331.344	615.25
331.572	589.25
331.801	570.25
332.03	593.25
332.258	609.25
332.486	598.25
332.715	602.25
332.943	593.25
333.172	589.25
333.4	601.25
333.629	618.25
333.857	672.25
334.085	742.25
334.314	807.25
334.542	824.25
334.771	764.25
334.999	672.25
335.227	636.25
335.455	632.25
335.684	646.25
335.912	664.25
336.14	660.25
336.369	634.25
336.597	607.25
336.825	596.25
337.053	637.25
337.281	666.25
337.51	699.25
337.738	694.25
337.966	678.25
338.194	601.25
338.422	598.25
338.65	576.25
338.878	557.25
339.106	563.25
339.334	566.25
339.562	561.25
339.79	577.25
340.018	619.25
340.246	625.25
340.474	650.25
340.702	599.25
340.93	613.25
341.158	632.25
341.386	603.25
341.614	605.25
341.842	590.25
342.07	565.25
342.298	610.25
342.526	592.25
342.754	583.25
342.981	600.25
343.209	580.25
343.437	567.25
343.665	569.25
343.893	608.25
344.12	634.25
344.348	624.25
344.576	603.25
344.804	593.25
345.031	604.25
345.259	595.25
345.487	583.25
345.714	540.25
345.942	562.25
346.17	585.25
346.397	582.25
346.625	601.25
346.853	560.25
347.08	548.25
347.308	560.25
347.535	580.25
347.763	590.25
347.99	549.25
348.218	544.25
348.445	532.25
348.673	566.25
348.9	608.25
349.128	595.25
349.355	602.25
349.583	592.25
349.81	558.25
350.037	512.25
350.265	529.25
350.492	548.25
350.72	556.25
350.947	603.25
351.174	566.25
351.402	534.25
351.629	547.25
351.856	504.25
352.083	506.25
352.311	535.25
352.538	560.25
352.765	580.25
352.992	565.25
353.22	560.25
353.447	554.25
353.674	567.25
353.901	564.25
354.128	559.25
354.355	560.25
354.583	574.25
354.81	582.25
355.037	564.25
355.264	574.25
355.491	573.25
355.718	576.25
355.945	573.25
356.172	532.25
356.399	534.25
356.626	558.25
356.853	589.25
357.08	654.25
357.307	671.25
357.534	653.25
357.761	568.25
357.988	534.25
358.215	549.25
358.441	568.25
358.668	558.25
358.895	581.25
359.122	597.25
359.349	641.25
359.576	627.25
359.802	557.25
360.029	562.25
360.256	544.25
360.483	576.25
360.709	568.25
360.936	572.25
361.163	644.25
361.39	677.25
361.616	694.25
361.843	698.25
362.07	643.25
362.296	565.25
362.523	554.25
362.749	574.25
362.976	572.25
363.203	579.25
363.429	566.25
363.656	552.25
363.882	587.25
364.109	649.25
364.335	667.25
364.562	622.25
364.788	587.25
365.015	548.25
365.241	555.25
365.468	599.25
365.694	620.25
365.92	599.25
366.147	584.25
366.373	542.25
366.599	548.25
366.826	557.25
367.052	572.25
367.278	568.25
367.505	583.25
367.731	597.25
367.957	616.25
368.184	621.25
368.41	685.25
368.636	655.25
368.862	650.25
369.089	674.25
369.315	648.25
369.541	592.25
369.767	585.25
369.993	587.25
370.219	566.25
370.445	608.25
370.672	653.25
370.898	658.25
371.124	663.25
371.35	625.25
371.576	640.25
371.802	651.25
372.028	656.25
372.254	598.25
372.48	597.25
372.706	626.25
372.932	621.25
373.158	608.25
373.384	646.25
373.61	635.25
373.835	644.25
374.061	651.25
374.287	605.25
374.513	640.25
374.739	605.25
374.965	607.25
375.191	623.25
375.416	653.25
375.642	640.25
375.868	697.25
376.094	691.25
376.319	662.25
376.545	650.25
376.771	667.25
376.997	692.25
377.222	692.25
377.448	657.25
377.674	650.25
377.899	648.25
378.125	711.25
378.35	717.25
378.576	637.25
378.802	618.25
379.027	622.25
379.253	641.25
379.478	642.25
379.704	649.25
379.929	635.25
380.155	660.25
380.38	642.25
380.606	661.25
380.831	667.25
381.057	724.25
381.282	699.25
381.507	692.25
381.733	721.25
381.958	728.25
382.184	674.25
382.409	655.25
382.634	684.25
382.86	660.25
383.085	684.25
383.31	729.25
383.535	802.25
383.761	800.25
383.986	771.25
384.211	724.25
384.436	733.25
384.662	757.25
384.887	756.25
385.112	732.25
385.337	708.25
385.562	726.25
385.787	714.25
386.013	736.25
386.238	754.25
386.463	776.25
386.688	832.25
386.913	844.25
387.138	844.25
387.363	765.25
387.588	797.25
387.813	770.25
388.038	780.25
388.263	768.25
388.488	756.25
388.713	716.25
388.938	737.25
389.163	745.25
389.387	737.25
389.612	746.25
389.837	772.25
390.062	734.25
390.287	757.25
390.512	717.25
390.736	731.25
390.961	741.25
391.186	722.25
391.411	746.25
391.636	745.25
391.86	741.25
392.085	740.25
392.31	758.25
392.534	749.25
392.759	769.25
392.984	759.25
393.208	784.25
393.433	788.25
393.658	811.25
393.882	796.25
394.107	789.25
394.331	754.25
394.556	768.25
394.78	761.25
395.005	797.25
395.229	832.25
395.454	856.25
395.678	886.25
395.903	816.25
396.127	794.25
396.352	815.25
396.576	856.25
396.801	833.25
397.025	833.25
397.249	842.25
397.474	819.25
397.698	810.25
397.922	857.25
398.147	882.25
398.371	914.25
398.595	903.25
398.82	864.25
399.044	917.25
399.268	905.25
399.492	944.25
399.717	989.25
399.941	993.25
400.165	974.25
400.389	958.25
400.613	962.25
400.837	1125.25
401.062	1204.25
401.286	1006.25
401.51	978.25
401.734	956.25
401.958	928.25
402.182	896.25
402.406	871.25
402.63	889.25
402.854	869.25
403.078	892.25
403.302	887.25
403.526	920.25
403.75	910.25
403.974	916.25
404.198	942.25
404.422	964.25
404.645	976.25
404.869	969.25
405.093	896.25
405.317	874.25
405.541	924.25
405.765	933.25
405.988	923.25
406.212	940.25
406.436	971.25
406.66	991.25
406.883	993.25
407.107	1141.25
407.331	1210.25
407.555	1267.25
407.778	1149.25
408.002	985.25
408.226	958.25
408.449	952.25
408.673	947.25
408.896	965.25
409.12	960.25
409.344	930.25
409.567	914.25
409.791	911.25
410.014	961.25
410.238	1026.25
410.461	1039.25
410.685	929.25
410.908	915.25
411.132	953.25
411.355	956.25
411.578	924.25
411.802	936.25
412.025	945.25
412.249	924.25
412.472	892.25
412.695	900.25
412.919	916.25
413.142	917.25
413.365	930.25
413.589	920.25
413.812	981.25
414.035	992.25
414.258	934.25
414.482	916.25
414.705	911.25
414.928	919.25
415.151	937.25
415.374	934.25
415.597	945.25
415.821	946.25
416.044	924.25
416.267	908.25
416.49	885.25
416.713	897.25
416.936	932.25
417.159	978.25
417.382	945.25
417.605	924.25
417.828	925.25
418.051	921.25
418.274	952.25
418.497	935.25
418.72	933.25
418.943	916.25
419.166	940.25
419.389	976.25
419.611	956.25
419.834	958.25
420.057	937.25
420.28	964.25
420.503	954.25
420.726	959.25
420.948	935.25
421.171	920.25
421.394	928.25
421.617	989.25
421.839	1002.25
422.062	1003.25
422.285	923.25
422.507	924.25
422.73	907.25
422.953	858.25
423.175	886.25
423.398	924.25
423.621	925.25
423.843	930.25
424.066	983.25
424.288	1004.25
424.511	1052.25
424.733	980.25
424.956	922.25
425.178	905.25
425.401	946.25
425.623	932.25
425.846	934.25
426.068	984.25
426.291	1000.25
426.513	957.25
426.735	924.25
426.958	1042.25
427.18	1061.25
427.402	989.25
427.625	1016.25
427.847	981.25
428.069	938.25
428.292	927.25
428.514	890.25
428.736	890.25
428.958	902.25
429.181	935.25
429.403	1059.25
429.625	1243.25
429.847	1034.25
430.069	950.25
430.292	1045.25
430.514	1022.25
430.736	964.25
430.958	1000.25
431.18	932.25
431.402	859.25
431.624	832.25
431.846	775.25
432.068	732.25
432.29	754.25
432.512	792.25
432.734	904.25
432.956	941.25
433.178	965.25
433.4	994.25
433.622	977.25
433.844	916.25
434.066	850.25
434.287	782.25
434.509	760.25
434.731	818.25
434.953	897.25
435.175	946.25
435.397	921.25
435.618	877.25
435.84	855.25
436.062	862.25
436.284	895.25
436.505	926.25
436.727	941.25
436.949	926.25
437.17	910.25
437.392	870.25
437.614	863.25
437.835	812.25
438.057	809.25
438.278	830.25
438.5	852.25
438.721	890.25
438.943	909.25
439.165	896.25
439.386	900.25
439.608	976.25
439.829	935.25
440.05	956.25
440.272	937.25
440.493	951.25
440.715	992.25
440.936	1032.25
441.158	1066.25
441.379	1047.25
441.6	1030.25
441.822	1028.25
442.043	993.25
442.264	964.25
442.486	920.25
442.707	916.25
442.928	936.25
443.149	982.25
443.371	973.25
443.592	1030.25
443.813	1001.25
444.034	966.25
444.255	998.25
444.476	1013.25
444.698	1021.25
444.919	1020.25
445.14	1149.25
445.361	1108.25
445.582	1064.25
445.803	1033.25
446.024	1020.25
446.245	1056.25
446.466	1032.25
446.687	1053.25
446.908	1037.25
447.129	1026.25
447.35	1027.25
447.571	998.25
447.792	982.25
448.013	945.25
448.234	967.25
448.455	973.25
448.675	983.25
448.896	941.25
449.117	917.25
449.338	933.25
449.559	968.25
449.779	972.25
450	1037.25
450.221	1054.25
450.442	1019.25
450.662	946.25
450.883	870.25
451.104	856.25
451.324	864.25
451.545	910.25
451.766	874.25
451.986	861.25
452.207	840.25
452.428	792.25
452.648	779.25
452.869	796.25
453.089	802.25
453.31	796.25
453.53	742.25
453.751	730.25
453.971	720.25
454.192	710.25
454.412	783.25
454.633	757.25
454.853	769.25
455.073	768.25
455.294	782.25
455.514	758.25
455.734	769.25
455.955	761.25
456.175	732.25
456.395	732.25
456.616	730.25
456.836	754.25
457.056	760.25
457.276	732.25
457.497	690.25
457.717	683.25
457.937	716.25
458.157	702.25
458.377	712.25
458.598	684.25
458.818	670.25
459.038	706.25
459.258	700.25
459.478	712.25
459.698	704.25
459.918	731.25
460.138	803.25
460.358	839.25
460.578	842.25
460.798	875.25
461.018	893.25
461.238	870.25
461.458	842.25
461.678	837.25
461.898	813.25
462.118	783.25
462.338	825.25
462.558	844.25
462.777	855.25
462.997	862.25
463.217	899.25
463.437	869.25
463.657	864.25
463.876	822.25
464.096	845.25
464.316	849.25
464.536	865.25
464.755	866.25
464.975	859.25
465.195	844.25
465.414	894.25
465.634	848.25
465.854	878.25
466.073	974.25
466.293	919.25
466.512	883.25
466.732	894.25
466.951	931.25
467.171	897.25
467.391	854.25
467.61	881.25
467.829	895.25
468.049	978.25
468.268	1048.25
468.488	954.25
468.707	920.25
468.927	891.25
469.146	903.25
469.365	897.25
469.585	926.25
469.804	890.25
470.023	939.25
470.243	949.25
470.462	943.25
470.681	939.25
470.901	928.25
471.12	937.25
471.339	939.25
471.558	906.25
471.777	922.25
471.997	896.25
472.216	846.25
472.435	788.25
472.654	762.25
472.873	776.25
473.092	857.25
473.311	839.25
473.53	812.25
473.749	818.25
473.968	850.25
474.187	849.25
474.406	843.25
474.625	882.25
474.844	902.25
475.063	894.25
475.282	867.25
475.501	808.25
475.72	846.25
475.939	890.25
476.158	873.25
476.377	846.25
476.596	865.25
476.814	829.25
477.033	806.25
477.252	860.25
477.471	898.25
477.69	902.25
477.908	944.25
478.127	966.25
478.346	980.25
478.564	992.25
478.783	1001.25
479.002	1013.25
479.22	1000.25
479.439	1012.25
479.658	1074.25
479.876	982.25
480.095	895.25
480.313	889.25
480.532	897.25
480.751	876.25
480.969	832.25
481.188	828.25
481.406	797.25
481.624	766.25
481.843	802.25
482.061	833.25
482.28	884.25
482.498	869.25
482.717	856.25
482.935	906.25
483.153	954.25
483.372	995.25
483.59	1015.25
483.808	968.25
484.027	967.25
484.245	995.25
484.463	1233.25
484.681	1283.25
484.9	1026.25
485.118	968.25
485.336	928.25
485.554	896.25
485.772	910.25
485.99	876.25
486.209	884.25
486.427	928.25
486.645	915.25
486.863	989.25
487.081	1044.25
487.299	1035.25
487.517	1017.25
487.735	1134.25
487.953	1170.25
488.171	1191.25
488.389	1120.25
488.607	1080.25
488.825	1141.25
489.043	1084.25
489.261	993.25
489.479	1055.25
489.696	1042.25
489.914	1053.25
490.132	1048.25
490.35	1079.25
490.568	1167.25
490.786	1178.25
491.003	1183.25
491.221	1238.25
491.439	1269.25
491.657	1314.25
491.874	1386.25
492.092	1439.25
492.31	1492.25
492.527	1456.25
492.745	1380.25
492.963	1330.25
493.18	1273.25
493.398	1362.25
493.615	1337.25
493.833	1278.25
494.05	1207.25
494.268	1241.25
494.485	1234.25
494.703	1188.25
494.92	1208.25
495.138	1212.25
495.355	1249.25
495.573	1267.25
495.79	1292.25
496.008	1320.25
496.225	1224.25
496.442	1216.25
496.66	1271.25
496.877	1231.25
497.094	1213.25
497.312	1198.25
497.529	1194.25
497.746	1187.25
497.963	1284.25
498.181	1328.25
498.398	1247.25
498.615	1238.25
498.832	1152.25
499.049	1149.25
499.267	1144.25
499.484	1242.25
499.701	1348.25
499.918	1369.25
500.135	1481.25
500.352	1526.25
500.569	1563.25
500.786	1677.25
501.003	1551.25
501.22	1439.25
501.437	1406.25
501.654	1400.25
501.871	1324.25
502.088	1204.25
502.305	1163.25
502.522	1131.25
502.739	1046.25
502.956	1068.25
503.172	1078.25
503.389	1036.25
503.606	998.25
503.823	1001.25
504.04	977.25
504.256	1010.25
504.473	1014.25
504.69	1026.25
504.907	940.25
505.123	944.25
505.34	1075.25
505.557	1335.25
505.773	1104.25
505.99	956.25
506.207	914.25
506.423	887.25
506.64	898.25
506.856	918.25
507.073	1035.25
507.289	1069.25
507.506	1024.25
507.722	882.25
507.939	883.25
508.155	860.25
508.372	839.25
508.588	834.25
508.805	814.25
509.021	770.25
509.238	770.25
509.454	768.25
509.67	740.25
509.887	765.25
510.103	729.25
510.319	715.25
510.536	806.25
510.752	784.25
510.968	770.25
511.184	792.25
511.401	778.25
511.617	726.25
511.833	704.25
512.049	703.25
512.265	725.25
512.481	692.25
512.698	760.25
512.914	766.25
513.13	752.25
513.346	715.25
513.562	696.25
513.778	714.25
513.994	739.25
514.21	745.25
514.426	793.25
514.642	806.25
514.858	782.25
515.074	713.25
515.29	739.25
515.506	754.25
515.721	742.25
515.937	757.25
516.153	796.25
516.369	765.25
516.585	744.25
516.801	732.25
517.016	748.25
517.232	744.25
517.448	760.25
517.664	781.25
517.879	774.25
518.095	816.25
518.311	784.25
518.527	746.25
518.742	767.25
518.958	722.25
519.173	757.25
519.389	760.25
519.605	779.25
519.82	767.25
520.036	794.25
520.251	756.25
520.467	797.25
520.682	819.25
520.898	794.25
521.113	741.25
521.329	714.25
521.544	787.25
521.76	742.25
521.975	702.25
522.19	713.25
522.406	733.25
522.621	927.25
522.836	864.25
523.052	711.25
523.267	748.25
523.482	766.25
523.698	721.25
523.913	736.25
524.128	755.25
524.343	785.25
524.559	839.25
524.774	803.25
524.989	745.25
525.204	770.25
525.419	749.25
525.634	730.25
525.849	733.25
526.064	706.25
526.28	689.25
526.495	663.25
526.71	644.25
526.925	657.25
527.14	638.25
527.355	624.25
527.57	640.25
527.785	669.25
527.999	644.25
528.214	666.25
528.429	672.25
528.644	759.25
528.859	794.25
529.074	842.25
529.289	860.25
529.503	894.25
529.718	784.25
529.933	713.25
530.148	668.25
530.363	638.25
530.577	665.25
530.792	636.25
531.007	630.25
531.221	602.25
531.436	626.25
531.651	639.25
531.865	673.25
532.08	647.25
532.295	629.25
532.509	598.25
532.724	617.25
532.938	658.25
533.153	727.25
533.367	692.25
533.582	742.25
533.796	712.25
534.011	702.25
534.225	636.25
534.44	621.25
534.654	653.25
534.868	657.25
535.083	672.25
535.297	686.25
535.511	688.25
535.726	712.25
535.94	698.25
536.154	651.25
536.369	606.25
536.583	606.25
536.797	603.25
537.011	622.25
537.225	604.25
537.44	596.25
537.654	652.25
537.868	614.25
538.082	575.25
538.296	619.25
538.51	635.25
538.724	652.25
538.938	705.25
539.153	726.25
539.367	732.25
539.581	702.25
539.795	673.25
540.009	642.25
540.222	659.25
540.436	675.25
540.65	757.25
540.864	798.25
541.078	819.25
541.292	844.25
541.506	911.25
541.72	956.25
541.934	1039.25
542.147	1081.25
542.361	1029.25
542.575	902.25
542.789	846.25
543.002	760.25
543.216	726.25
543.43	760.25
543.644	816.25
543.857	877.25
544.071	896.25
544.285	910.25
544.498	912.25
544.712	932.25
544.925	953.25
545.139	924.25
545.352	924.25
545.566	921.25
545.779	909.25
545.993	963.25
546.206	969.25
546.42	972.25
546.633	903.25
546.847	960.25
547.06	956.25
547.274	958.25
547.487	957.25
547.7	983.25
547.914	949.25
548.127	957.25
548.34	928.25
548.554	928.25
548.767	935.25
548.98	941.25
549.193	940.25
549.407	964.25
549.62	950.25
549.833	915.25
550.046	905.25
550.259	898.25
550.473	896.25
550.686	869.25
550.899	862.25
551.112	818.25
551.325	842.25
551.538	832.25
551.751	841.25
551.964	692.25
552.177	744.25
552.39	826.25
552.603	855.25
552.816	868.25
553.029	912.25
553.242	902.25
553.455	897.25
553.667	893.25
553.88	892.25
554.093	867.25
554.306	871.25
554.519	836.25
554.732	830.25
554.944	816.25
555.157	813.25
555.37	825.25
555.583	822.25
555.795	798.25
556.008	725.25
556.221	708.25
556.433	719.25
556.646	739.25
556.859	742.25
557.071	732.25
557.284	755.25
557.496	748.25
557.709	739.25
557.921	754.25
558.134	743.25
558.346	721.25
558.559	715.25
558.771	726.25
558.984	699.25
559.196	672.25
559.409	668.25
559.621	648.25
559.833	642.25
560.046	661.25
560.258	685.25
560.47	694.25
560.683	691.25
560.895	693.25
561.107	680.25
561.32	667.25
561.532	671.25
561.744	686.25
561.956	694.25
562.168	667.25
562.381	646.25
562.593	651.25
562.805	655.25
563.017	669.25
563.229	666.25
563.441	650.25
563.653	620.25
563.865	619.25
564.077	633.25
564.289	632.25
564.501	602.25
564.713	621.25
564.925	617.25
565.137	672.25
565.349	612.25
565.561	606.25
565.773	602.25
565.985	638.25
566.197	662.25
566.408	655.25
566.62	670.25
566.832	654.25
567.044	664.25
567.255	653.25
567.467	663.25
567.679	667.25
567.891	657.25
568.102	611.25
568.314	604.25
568.526	535.25
568.737	505.25
568.949	493.25
569.161	459.25
569.372	451.25
569.584	450.25
569.795	450.25
570.007	461.25
570.218	434.25
570.43	448.25
570.641	439.25
570.853	450.25
571.064	465.25
571.276	478.25
571.487	476.25
571.698	492.25
571.91	456.25
572.121	433.25
572.333	440.25
572.544	426.25
572.755	410.25
572.966	403.25
573.178	390.25
573.389	382.25
573.6	407.25
573.811	429.25
574.023	388.25
574.234	398.25
574.445	388.25
574.656	380.25
574.867	397.25
575.078	399.25
575.289	410.25
575.501	360.25
575.712	392.25
575.923	405.25
576.134	414.25
576.345	405.25
576.556	414.25
576.767	413.25
576.978	398.25
577.188	398.25
577.399	376.25
577.61	363.25
577.821	361.25
578.032	375.25
578.243	362.25
578.454	366.25
578.665	349.25
578.875	350.25
579.086	359.25
579.297	334.25
579.508	368.25
579.718	357.25
579.929	344.25
580.14	339.25
580.35	348.25
580.561	346.25
580.772	368.25
580.982	361.25
581.193	342.25
581.403	358.25
581.614	334.25
581.825	336.25
582.035	346.25
582.246	336.25
582.456	361.25
582.667	368.25
582.877	347.25
583.087	340.25
583.298	336.25
583.508	325.25
583.719	328.25
583.929	325.25
584.139	329.25
584.35	318.25
584.56	343.25
584.77	324.25
584.981	329.25
585.191	330.25
585.401	326.25
585.611	328.25
585.821	339.25
586.032	312.25
586.242	319.25
586.452	321.25
586.662	326.25
586.872	313.25
587.082	312.25
587.292	301.25
587.502	320.25
587.713	312.25
587.923	314.25
588.133	305.25
588.343	313.25
588.553	315.25
588.762	319.25
588.972	305.25
589.182	319.25
589.392	294.25
589.602	284.25
589.812	327.25
590.022	309.25
590.232	301.25
590.441	304.25
590.651	306.25
590.861	312.25
591.071	310.25
591.281	297.25
591.49	301.25
591.7	313.25
591.91	312.25
592.119	313.25
592.329	304.25
592.539	317.25
592.748	348.25
592.958	325.25
593.167	341.25
593.377	326.25
593.587	342.25
593.796	337.25
594.006	333.25
594.215	330.25
594.424	339.25
594.634	348.25
594.843	331.25
595.053	341.25
595.262	318.25
595.472	312.25
595.681	316.25
595.89	313.25
596.1	304.25
596.309	310.25
596.518	310.25
596.727	338.25
596.937	340.25
597.146	317.25
597.355	317.25
597.564	319.25
597.774	313.25
597.983	290.25
598.192	277.25
598.401	285.25
598.61	286.25
598.819	277.25
599.028	293.25
599.237	291.25
599.446	289.25
599.655	274.25
599.864	278.25
600.073	285.25
600.282	299.25
600.491	306.25
600.7	295.25
600.909	302.25
601.118	309.25
601.327	324.25
601.536	352.25
601.745	357.25
601.953	337.25
602.162	342.25
602.371	363.25
602.58	359.25
602.789	356.25
602.997	352.25
603.206	351.25
603.415	340.25
603.623	345.25
603.832	347.25
604.041	344.25
604.249	308.25
604.458	309.25
604.666	306.25
604.875	322.25
605.084	307.25
605.292	343.25
605.501	353.25
605.709	362.25
605.918	352.25
606.126	368.25
606.334	362.25
606.543	371.25
606.751	377.25
606.96	359.25
607.168	351.25
607.376	353.25
607.585	341.25
607.793	356.25
608.001	358.25
608.21	360.25
608.418	358.25
608.626	372.25
608.834	385.25
609.043	345.25
609.251	354.25
609.459	352.25
609.667	354.25
609.875	361.25
610.083	393.25
610.291	374.25
610.499	355.25
610.707	375.25
610.916	341.25
611.124	360.25
611.332	376.25
611.54	370.25
611.748	356.25
611.955	366.25
612.163	356.25
612.371	365.25
612.579	358.25
612.787	359.25
612.995	356.25
613.203	348.25
613.411	370.25
613.618	352.25
613.826	354.25
614.034	371.25
614.242	361.25
614.449	362.25
614.657	340.25
614.865	342.25
615.072	360.25
615.28	338.25
615.488	355.25
615.695	373.25
615.903	365.25
616.111	358.25
616.318	365.25
616.526	340.25
616.733	360.25
616.941	355.25
617.148	352.25
617.356	332.25
617.563	329.25
617.771	348.25
617.978	323.25
618.185	334.25
618.393	350.25
618.6	348.25
618.807	337.25
619.015	357.25
619.222	338.25
619.429	332.25
619.637	311.25
619.844	286.25
620.051	323.25
620.258	310.25
620.466	336.25
620.673	332.25
620.88	306.25
621.087	309.25
621.294	317.25
621.501	333.25
621.708	314.25
621.915	297.25
622.122	312.25
622.329	311.25
622.536	338.25
622.743	329.25
622.95	328.25
623.157	309.25
623.364	306.25
623.571	309.25
623.778	321.25
623.985	325.25
624.192	321.25
624.399	322.25
624.606	315.25
624.812	311.25
625.019	305.25
625.226	303.25
625.433	275.25
625.639	280.25
625.846	271.25
626.053	260.25
626.259	230.25
626.466	240.25
626.673	230.25
626.879	220.25
627.086	258.25
627.293	276.25
627.499	282.25
627.706	300.25
627.912	298.25
628.119	300.25
628.325	300.25
628.532	305.25
628.738	298.25
628.945	268.25
629.151	280.25
629.357	284.25
629.564	283.25
629.77	296.25
629.976	268.25
630.183	257.25
630.389	268.25
630.595	283.25
630.802	265.25
631.008	281.25
631.214	270.25
631.42	271.25
631.627	276.25
631.833	257.25
632.039	280.25
632.245	264.25
632.451	265.25
632.657	270.25
632.863	274.25
633.069	278.25
633.275	262.25
633.481	256.25
633.688	253.25
633.893	252.25
634.099	235.25
634.305	248.25
634.511	256.25
634.717	240.25
634.923	222.25
635.129	245.25
635.335	250.25
635.541	231.25
635.747	248.25
635.952	258.25
636.158	261.25
636.364	245.25
636.57	262.25
636.775	266.25
636.981	262.25
637.187	257.25
637.392	270.25
637.598	263.25
637.804	260.25
638.009	258.25
638.215	260.25
638.421	263.25
638.626	255.25
638.832	243.25
639.037	252.25
639.243	244.25
639.448	230.25
639.654	265.25
639.859	231.25
640.065	240.25
640.27	258.25
640.475	248.25
640.681	251.25
640.886	256.25
641.091	251.25
641.297	240.25
641.502	242.25
641.707	277.25
641.913	237.25
642.118	253.25
642.323	254.25
642.528	237.25
642.733	255.25
642.939	256.25
643.144	225.25
643.349	248.25
643.554	254.25
643.759	232.25
643.964	224.25
644.169	238.25
644.374	234.25
644.579	243.25
644.784	219.25
644.989	225.25
645.194	244.25
645.399	240.25
645.604	260.25
645.809	250.25
646.014	249.25
646.219	245.25
646.423	240.25
646.628	236.25
646.833	238.25
647.038	260.25
647.243	245.25
647.447	246.25
647.652	235.25
647.857	229.25
648.062	245.25
648.266	219.25
648.471	225.25
648.676	249.25
648.88	238.25
649.085	233.25
649.289	242.25
649.494	249.25
649.698	233.25
649.903	212.25
650.107	224.25
650.312	231.25
650.516	220.25
650.721	234.25
650.925	232.25
651.13	219.25
651.334	227.25
651.539	211.25
651.743	220.25
651.947	232.25
652.152	218.25
652.356	196.25
652.56	201.25
652.764	209.25
652.969	230.25
653.173	212.25
653.377	199.25
653.581	208.25
653.785	204.25
653.99	211.25
654.194	212.25
654.398	215.25
654.602	199.25
654.806	208.25
655.01	192.25
655.214	197.25
655.418	204.25
655.622	206.25
655.826	216.25
656.03	215.25
656.234	217.25
656.438	233.25
656.642	236.25
656.846	229.25
657.049	221.25
657.253	189.25
657.457	189.25
657.661	181.25
657.865	179.25
658.068	171.25
658.272	155.25
658.476	143.25
658.68	154.25
658.883	137.25
659.087	130.25
659.291	135.25
659.494	137.25
659.698	137.25
659.901	139.25
660.105	128.25
660.309	144.25
660.512	126.25
660.716	128.25
660.919	104.25
661.123	118.25
661.326	126.25
661.53	105.25
661.733	98.25
661.936	99.25
662.14	103.25
662.343	122.25
662.546	96.25
662.75	86.25
662.953	94.25
663.156	97.25
663.36	98.25
663.563	81.25
663.766	92.25
663.969	82.25
664.173	92.25
664.376	85.25
664.579	74.25
664.782	92.25
664.985	103.25
665.188	98.25
665.391	84.25
665.594	84.25
665.797	93.25
666	102.25
666.203	75.25
666.406	81.25
666.609	77.25
666.812	83.25
667.015	80.25
667.218	83.25
667.421	94.25
667.624	86.25
667.827	90.25
668.03	98.25
668.232	85.25
668.435	79.25
668.638	78.25
668.841	80.25
669.043	82.25
669.246	72.25
669.449	93.25
669.651	98.25
669.854	85.25
670.057	75.25
670.259	70.25
670.462	87.25
670.665	80.25
670.867	90.25
671.07	81.25
671.272	89.25
671.475	100.25
671.677	82.25
671.88	80.25
672.082	72.25
672.284	80.25
672.487	97.25
672.689	85.25
672.892	87.25
