Data from WStandard_LampEnergy5.5LIBS07252019.E.O._I.C._HRD10591_16-07-07-920.txt Node
Date: Thu Jul 25 16:07:07 EDT 2019
User: cochatt
Spectrometer: HR+D1059
Trigger mode: 1
Integration Time (sec): 1.000000E-1
Scans to average: 1
Electric dark correction enabled: true
Nonlinearity correction enabled: false
Boxcar width: 0
XAxis mode: Wavelengths
Number of Pixels in Spectrum: 2048
>>>>>Begin Spectral Data<<<<<
223.165	-12.12
223.4	-12.12
223.635	-12.12
223.869	-33.12
224.104	-6.12
224.338	-10.12
224.573	-7.12
224.808	-21.12
225.042	-9.12
225.277	7.88
225.511	-12.12
225.746	-6.12
225.98	-2.12
226.215	-2.12
226.449	25.88
226.683	13.88
226.918	29.88
227.152	43.88
227.387	29.88
227.621	27.88
227.856	31.88
228.09	33.88
228.324	49.88
228.559	60.88
228.793	153.88
229.027	367.88
229.262	392.88
229.496	401.88
229.73	438.88
229.964	475.88
230.199	493.88
230.433	506.88
230.667	543.88
230.901	582.88
231.136	534.88
231.37	468.88
231.604	485.88
231.838	506.88
232.072	492.88
232.306	463.88
232.541	511.88
232.775	589.88
233.009	658.88
233.243	637.88
233.477	580.88
233.711	580.88
233.945	608.88
234.179	587.88
234.413	609.88
234.647	679.88
234.881	650.88
235.115	574.88
235.349	595.88
235.583	616.88
235.817	617.88
236.051	576.88
236.285	565.88
236.519	618.88
236.753	703.88
236.987	723.88
237.221	746.88
237.455	829.88
237.689	765.88
237.922	708.88
238.156	706.88
238.39	729.88
238.624	747.88
238.858	807.88
239.091	845.88
239.325	872.88
239.559	1028.88
239.793	1057.88
240.027	1135.88
240.26	1121.88
240.494	834.88
240.728	785.88
240.961	803.88
241.195	776.88
241.429	896.88
241.662	923.88
241.896	812.88
242.13	832.88
242.363	923.88
242.597	1003.88
242.83	977.88
243.064	951.88
243.298	1050.88
243.531	1020.88
243.765	995.88
243.998	1000.88
244.232	857.88
244.465	849.88
244.699	825.88
244.932	969.88
245.166	1139.88
245.399	1076.88
245.633	977.88
245.866	957.88
246.099	1012.88
246.333	1030.88
246.566	998.88
246.8	1099.88
247.033	1298.88
247.266	1159.88
247.5	1138.88
247.733	1129.88
247.966	1184.88
248.2	1342.88
248.433	1268.88
248.666	1339.88
248.899	1444.88
249.133	1656.88
249.366	1931.88
249.599	1548.88
249.832	1356.88
250.066	1374.88
250.299	1416.88
250.532	1309.88
250.765	1145.88
250.998	1238.88
251.231	1281.88
251.465	1344.88
251.698	1249.88
251.931	1274.88
252.164	1297.88
252.397	1356.88
252.63	1353.88
252.863	1193.88
253.096	1167.88
253.329	1235.88
253.562	1269.88
253.795	1415.88
254.028	1400.88
254.261	1277.88
254.494	1246.88
254.727	1175.88
254.96	1228.88
255.193	1392.88
255.426	1515.88
255.659	1779.88
255.892	1862.88
256.124	1488.88
256.357	1459.88
256.59	1546.88
256.823	1557.88
257.056	1499.88
257.289	1885.88
257.521	2085.88
257.754	1829.88
257.987	1721.88
258.22	1967.88
258.452	1915.88
258.685	1532.88
258.918	1467.88
259.151	1508.88
259.383	1433.88
259.616	1234.88
259.849	1334.88
260.081	1506.88
260.314	1681.88
260.547	1839.88
260.779	1867.88
261.012	1727.88
261.244	1542.88
261.477	1464.88
261.71	1557.88
261.942	1524.88
262.175	1479.88
262.407	1583.88
262.64	1513.88
262.872	1361.88
263.105	1362.88
263.337	1363.88
263.57	1377.88
263.802	1398.88
264.035	1333.88
264.267	1240.88
264.499	1199.88
264.732	1290.88
264.964	1399.88
265.197	1443.88
265.429	1500.88
265.661	1685.88
265.894	1886.88
266.126	1983.88
266.358	1751.88
266.591	1755.88
266.823	1933.88
267.055	1753.88
267.287	1722.88
267.52	1700.88
267.752	1677.88
267.984	1643.88
268.216	1730.88
268.448	1809.88
268.681	1767.88
268.913	1623.88
269.145	1541.88
269.377	1479.88
269.609	1612.88
269.841	1904.88
270.073	2187.88
270.306	2466.88
270.538	2632.88
270.77	2277.88
271.002	1885.88
271.234	1809.88
271.466	1727.88
271.698	1981.88
271.93	2428.88
272.162	2439.88
272.394	2176.88
272.626	2092.88
272.858	1825.88
273.09	1599.88
273.322	1525.88
273.553	1449.88
273.785	1488.88
274.017	1539.88
274.249	1708.88
274.481	1704.88
274.713	1572.88
274.945	1501.88
275.176	1474.88
275.408	1499.88
275.64	1479.88
275.872	1484.88
276.104	1526.88
276.335	1794.88
276.567	2074.88
276.799	2113.88
277.031	1863.88
277.262	1740.88
277.494	1820.88
277.726	2015.88
277.957	1956.88
278.189	1783.88
278.421	1655.88
278.652	1607.88
278.884	1576.88
279.115	1587.88
279.347	1649.88
279.579	1571.88
279.81	1554.88
280.042	1709.88
280.273	1891.88
280.505	1895.88
280.736	1973.88
280.968	1847.88
281.199	1603.88
281.431	1546.88
281.662	1520.88
281.894	1528.88
282.125	1575.88
282.356	1639.88
282.588	1681.88
282.819	1652.88
283.051	1803.88
283.282	1948.88
283.513	1874.88
283.745	1623.88
283.976	1494.88
284.207	1510.88
284.439	1581.88
284.67	1565.88
284.901	1602.88
285.132	1651.88
285.364	1623.88
285.595	1652.88
285.826	1608.88
286.057	1593.88
286.288	1604.88
286.52	1634.88
286.751	1805.88
286.982	1868.88
287.213	1695.88
287.444	1553.88
287.675	1523.88
287.906	1618.88
288.138	1772.88
288.369	1711.88
288.6	1612.88
288.831	1561.88
289.062	1549.88
289.293	1604.88
289.524	1603.88
289.755	1656.88
289.986	1713.88
290.217	1473.88
290.448	1563.88
290.679	1645.88
290.91	1637.88
291.141	1686.88
291.371	1746.88
291.602	1708.88
291.833	1687.88
292.064	1733.88
292.295	1701.88
292.526	1747.88
292.757	1861.88
292.987	1784.88
293.218	1640.88
293.449	1794.88
293.68	2001.88
293.91	2239.88
294.141	2042.88
294.372	1857.88
294.603	1955.88
294.833	2048.88
295.064	1956.88
295.295	1742.88
295.525	1721.88
295.756	1596.88
295.987	1467.88
296.217	1510.88
296.448	1601.88
296.679	1589.88
296.909	1575.88
297.14	1607.88
297.37	1604.88
297.601	1684.88
297.831	1853.88
298.062	1827.88
298.292	1680.88
298.523	1599.88
298.753	1599.88
298.984	1638.88
299.214	1627.88
299.445	1644.88
299.675	1729.88
299.905	1715.88
300.136	1657.88
300.366	1634.88
300.597	1557.88
300.827	1571.88
301.057	1642.88
301.288	1720.88
301.518	1704.88
301.748	1732.88
301.979	1836.88
302.209	1857.88
302.439	1972.88
302.669	2096.88
302.9	1955.88
303.13	1740.88
303.36	1745.88
303.59	1793.88
303.82	1755.88
304.051	1743.88
304.281	1735.88
304.511	1766.88
304.741	1850.88
304.971	2025.88
305.201	2241.88
305.431	2088.88
305.661	1665.88
305.891	1537.88
306.121	1514.88
306.352	1519.88
306.582	1655.88
306.812	1805.88
307.042	1960.88
307.272	1985.88
307.502	1961.88
307.731	2130.88
307.961	2347.88
308.191	2143.88
308.421	1828.88
308.651	1695.88
308.881	1700.88
309.111	1670.88
309.341	1650.88
309.571	1675.88
309.8	1707.88
310.03	1643.88
310.26	1671.88
310.49	1641.88
310.72	1681.88
310.949	1756.88
311.179	1813.88
311.409	1769.88
311.639	1715.88
311.868	1665.88
312.098	1690.88
312.328	1648.88
312.557	1638.88
312.787	1711.88
313.017	1729.88
313.246	1712.88
313.476	1733.88
313.706	1764.88
313.935	1768.88
314.165	1776.88
314.394	1853.88
314.624	1976.88
314.853	2063.88
315.083	2092.88
315.312	2239.88
315.542	2053.88
315.771	1811.88
316.001	1754.88
316.23	1877.88
316.46	1907.88
316.689	1846.88
316.919	1759.88
317.148	1714.88
317.377	1699.88
317.607	1855.88
317.836	2101.88
318.065	2189.88
318.295	2059.88
318.524	2003.88
318.753	1876.88
318.983	1913.88
319.212	1871.88
319.441	1828.88
319.67	1739.88
319.9	1825.88
320.129	1916.88
320.358	2031.88
320.587	2067.88
320.816	2053.88
321.046	2000.88
321.275	1890.88
321.504	1873.88
321.733	2089.88
321.962	2021.88
322.191	1841.88
322.42	1865.88
322.649	1814.88
322.878	1788.88
323.108	1810.88
323.337	1908.88
323.566	1907.88
323.795	1857.88
324.024	1905.88
324.253	1842.88
324.482	1858.88
324.71	1809.88
324.939	1726.88
325.168	1763.88
325.397	1807.88
325.626	1889.88
325.855	1919.88
326.084	1821.88
326.313	1842.88
326.542	1837.88
326.77	1903.88
326.999	1933.88
327.228	1857.88
327.457	1731.88
327.686	1681.88
327.914	1787.88
328.143	1791.88
328.372	1842.88
328.6	1815.88
328.829	1799.88
329.058	1766.88
329.287	1744.88
329.515	1836.88
329.744	1859.88
329.972	1931.88
330.201	2024.88
330.43	1996.88
330.658	1931.88
330.887	1884.88
331.115	1918.88
331.344	1954.88
331.572	1890.88
331.801	1873.88
332.03	1907.88
332.258	1894.88
332.486	1980.88
332.715	1976.88
332.943	1948.88
333.172	1882.88
333.4	1980.88
333.629	1962.88
333.857	2084.88
334.085	2280.88
334.314	2670.88
334.542	2916.88
334.771	2649.88
334.999	2371.88
335.227	2199.88
335.455	2055.88
335.684	2035.88
335.912	2117.88
336.14	2177.88
336.369	2183.88
336.597	2007.88
336.825	1948.88
337.053	2033.88
337.281	2131.88
337.51	2249.88
337.738	2348.88
337.966	2214.88
338.194	1988.88
338.422	1900.88
338.65	1915.88
338.878	1860.88
339.106	1819.88
339.334	1845.88
339.562	1813.88
339.79	1818.88
340.018	1951.88
340.246	2018.88
340.474	2065.88
340.702	1988.88
340.93	2003.88
341.158	1959.88
341.386	1904.88
341.614	1933.88
341.842	1881.88
342.07	1932.88
342.298	1949.88
342.526	1938.88
342.754	1894.88
342.981	1848.88
343.209	1884.88
343.437	1845.88
343.665	1882.88
343.893	1921.88
344.12	2052.88
344.348	2056.88
344.576	1988.88
344.804	1890.88
345.031	1909.88
345.259	1928.88
345.487	1825.88
345.714	1744.88
345.942	1723.88
346.17	1766.88
346.397	1802.88
346.625	1812.88
346.853	1711.88
347.08	1668.88
347.308	1651.88
347.535	1751.88
347.763	1827.88
347.99	1762.88
348.218	1745.88
348.445	1717.88
348.673	1744.88
348.9	1802.88
349.128	1869.88
349.355	1945.88
349.583	1903.88
349.81	1796.88
350.037	1641.88
350.265	1585.88
350.492	1668.88
350.72	1640.88
350.947	1738.88
351.174	1841.88
351.402	1696.88
351.629	1664.88
351.856	1597.88
352.083	1641.88
352.311	1622.88
352.538	1658.88
352.765	1779.88
352.992	1843.88
353.22	1777.88
353.447	1655.88
353.674	1682.88
353.901	1759.88
354.128	1729.88
354.355	1690.88
354.583	1755.88
354.81	1773.88
355.037	1746.88
355.264	1821.88
355.491	1721.88
355.718	1777.88
355.945	1743.88
356.172	1716.88
356.399	1716.88
356.626	1628.88
356.853	1750.88
357.08	1898.88
357.307	2052.88
357.534	2128.88
357.761	1833.88
357.988	1706.88
358.215	1622.88
358.441	1659.88
358.668	1663.88
358.895	1661.88
359.122	1756.88
359.349	1994.88
359.576	1993.88
359.802	1752.88
360.029	1673.88
360.256	1694.88
360.483	1679.88
360.709	1712.88
360.936	1800.88
361.163	1883.88
361.39	2007.88
361.616	2252.88
361.843	2127.88
362.07	2018.88
362.296	1759.88
362.523	1681.88
362.749	1696.88
362.976	1742.88
363.203	1799.88
363.429	1723.88
363.656	1673.88
363.882	1720.88
364.109	1929.88
364.335	2101.88
364.562	1967.88
364.788	1874.88
365.015	1763.88
365.241	1670.88
365.468	1713.88
365.694	1790.88
365.92	1882.88
366.147	1834.88
366.373	1701.88
366.599	1643.88
366.826	1695.88
367.052	1680.88
367.278	1694.88
367.505	1726.88
367.731	1784.88
367.957	1795.88
368.184	1811.88
368.41	1939.88
368.636	1969.88
368.862	1955.88
369.089	1965.88
369.315	1884.88
369.541	1834.88
369.767	1813.88
369.993	1678.88
370.219	1691.88
370.445	1779.88
370.672	1859.88
370.898	1926.88
371.124	1951.88
371.35	1853.88
371.576	1896.88
371.802	1957.88
372.028	1885.88
372.254	1803.88
372.48	1739.88
372.706	1699.88
372.932	1728.88
373.158	1759.88
373.384	1762.88
373.61	1791.88
373.835	1939.88
374.061	1848.88
374.287	1822.88
374.513	1807.88
374.739	1835.88
374.965	1821.88
375.191	1850.88
375.416	1854.88
375.642	1861.88
375.868	1945.88
376.094	2011.88
376.319	1972.88
376.545	1813.88
376.771	1834.88
376.997	1932.88
377.222	1911.88
377.448	1878.88
377.674	1882.88
377.899	1882.88
378.125	2021.88
378.35	2004.88
378.576	1829.88
378.802	1754.88
379.027	1748.88
379.253	1768.88
379.478	1815.88
379.704	1807.88
379.929	1819.88
380.155	1772.88
380.38	1815.88
380.606	1788.88
380.831	1801.88
381.057	1954.88
381.282	1935.88
381.507	1870.88
381.733	1985.88
381.958	2085.88
382.184	1901.88
382.409	1845.88
382.634	1889.88
382.86	1887.88
383.085	1899.88
383.31	1939.88
383.535	2106.88
383.761	2225.88
383.986	2133.88
384.211	2028.88
384.436	1985.88
384.662	2103.88
384.887	2214.88
385.112	2117.88
385.337	2102.88
385.562	2059.88
385.787	2083.88
386.013	2117.88
386.238	2125.88
386.463	2129.88
386.688	2240.88
386.913	2387.88
387.138	2335.88
387.363	2132.88
387.588	2150.88
387.813	2128.88
388.038	2107.88
388.263	2163.88
388.488	2160.88
388.713	1958.88
388.938	1941.88
389.163	1979.88
389.387	2020.88
389.612	2027.88
389.837	2075.88
390.062	2124.88
390.287	2102.88
390.512	2031.88
390.736	2018.88
390.961	1975.88
391.186	1968.88
391.411	1971.88
391.636	2026.88
391.86	2042.88
392.085	2069.88
392.31	2024.88
392.534	2059.88
392.759	2077.88
392.984	2063.88
393.208	2095.88
393.433	2128.88
393.658	2250.88
393.882	2253.88
394.107	2091.88
394.331	2063.88
394.556	2007.88
394.78	2115.88
395.005	2145.88
395.229	2190.88
395.454	2389.88
395.678	2400.88
395.903	2295.88
396.127	2201.88
396.352	2175.88
396.576	2274.88
396.801	2305.88
397.025	2268.88
397.249	2268.88
397.474	2251.88
397.698	2189.88
397.922	2246.88
398.147	2332.88
398.371	2451.88
398.595	2483.88
398.82	2370.88
399.044	2380.88
399.268	2481.88
399.492	2632.88
399.717	2731.88
399.941	2769.88
400.165	2715.88
400.389	2648.88
400.613	2625.88
400.837	2860.88
401.062	3342.88
401.286	2859.88
401.51	2559.88
401.734	2676.88
401.958	2643.88
402.182	2433.88
402.406	2385.88
402.63	2331.88
402.854	2326.88
403.078	2346.88
403.302	2445.88
403.526	2418.88
403.75	2440.88
403.974	2524.88
404.198	2435.88
404.422	2532.88
404.645	2648.88
404.869	2650.88
405.093	2425.88
405.317	2359.88
405.541	2459.88
405.765	2464.88
405.988	2426.88
406.212	2485.88
406.436	2567.88
406.66	2583.88
406.883	2689.88
407.107	2998.88
407.331	3194.88
407.555	3472.88
407.778	3231.88
408.002	2680.88
408.226	2588.88
408.449	2569.88
408.673	2487.88
408.896	2517.88
409.12	2571.88
409.344	2509.88
409.567	2410.88
409.791	2479.88
410.014	2524.88
410.238	2608.88
410.461	2783.88
410.685	2490.88
410.908	2396.88
411.132	2422.88
411.355	2420.88
411.578	2358.88
411.802	2386.88
412.025	2448.88
412.249	2429.88
412.472	2316.88
412.695	2304.88
412.919	2338.88
413.142	2319.88
413.365	2348.88
413.589	2424.88
413.812	2524.88
414.035	2640.88
414.258	2394.88
414.482	2309.88
414.705	2384.88
414.928	2361.88
415.151	2334.88
415.374	2354.88
415.597	2343.88
415.821	2402.88
416.044	2492.88
416.267	2471.88
416.49	2271.88
416.713	2197.88
416.936	2239.88
417.159	2429.88
417.382	2457.88
417.605	2260.88
417.828	2363.88
418.051	2396.88
418.274	2324.88
418.497	2262.88
418.72	2257.88
418.943	2257.88
419.166	2408.88
419.389	2490.88
419.611	2323.88
419.834	2261.88
420.057	2338.88
420.28	2291.88
420.503	2259.88
420.726	2332.88
420.948	2353.88
421.171	2240.88
421.394	2288.88
421.617	2376.88
421.839	2332.88
422.062	2269.88
422.285	2205.88
422.507	2275.88
422.73	2234.88
422.953	2167.88
423.175	2184.88
423.398	2248.88
423.621	2269.88
423.843	2258.88
424.066	2300.88
424.288	2369.88
424.511	2445.88
424.733	2372.88
424.956	2135.88
425.178	2185.88
425.401	2172.88
425.623	2187.88
425.846	2168.88
426.068	2278.88
426.291	2329.88
426.513	2321.88
426.735	2375.88
426.958	2465.88
427.18	2613.88
427.402	2424.88
427.625	2467.88
427.847	2459.88
428.069	2333.88
428.292	2224.88
428.514	2124.88
428.736	2145.88
428.958	2189.88
429.181	2201.88
429.403	2491.88
429.625	3091.88
429.847	2725.88
430.069	2256.88
430.292	2479.88
430.514	2619.88
430.736	2406.88
430.958	2519.88
431.18	2359.88
431.402	2195.88
431.624	2154.88
431.846	2206.88
432.068	2139.88
432.29	2166.88
432.512	2165.88
432.734	2239.88
432.956	2280.88
433.178	2358.88
433.4	2315.88
433.622	2385.88
433.844	2247.88
434.066	2210.88
434.287	2169.88
434.509	2213.88
434.731	2411.88
434.953	2517.88
435.175	2450.88
435.397	2330.88
435.618	2369.88
435.84	2351.88
436.062	2265.88
436.284	2307.88
436.505	2342.88
436.727	2361.88
436.949	2304.88
437.17	2184.88
437.392	2188.88
437.614	2250.88
437.835	2157.88
438.057	2295.88
438.278	2410.88
438.5	2200.88
438.721	2169.88
438.943	2173.88
439.165	2175.88
439.386	2170.88
439.608	2168.88
439.829	2161.88
440.05	2154.88
440.272	2150.88
440.493	2146.88
440.715	2165.88
440.936	2359.88
441.158	2596.88
441.379	2527.88
441.6	2441.88
441.822	2344.88
442.043	2372.88
442.264	2253.88
442.486	2157.88
442.707	2168.88
442.928	2131.88
443.149	2223.88
443.371	2425.88
443.592	2471.88
443.813	2440.88
444.034	2378.88
444.255	2387.88
444.476	2428.88
444.698	2521.88
444.919	2482.88
445.14	2530.88
445.361	2539.88
445.582	2655.88
445.803	2542.88
446.024	2399.88
446.245	2507.88
446.466	2452.88
446.687	2299.88
446.908	2245.88
447.129	2255.88
447.35	2280.88
447.571	2239.88
447.792	2143.88
448.013	2158.88
448.234	2156.88
448.455	2359.88
448.675	2288.88
448.896	2086.88
449.117	2095.88
449.338	2119.88
449.559	2243.88
449.779	2417.88
450	2601.88
450.221	2852.88
450.442	2763.88
450.662	2380.88
450.883	2100.88
451.104	2023.88
451.324	2120.88
451.545	2199.88
451.766	2179.88
451.986	2051.88
452.207	2011.88
452.428	1970.88
452.648	1913.88
452.869	1980.88
453.089	2133.88
453.31	2137.88
453.53	2271.88
453.751	2151.88
453.971	2007.88
454.192	2035.88
454.412	2202.88
454.633	2103.88
454.853	2052.88
455.073	1932.88
455.294	1906.88
455.514	1906.88
455.734	1922.88
455.955	1964.88
456.175	1981.88
456.395	2002.88
456.616	2054.88
456.836	2071.88
457.056	2025.88
457.276	1993.88
457.497	1959.88
457.717	1895.88
457.937	1919.88
458.157	2003.88
458.377	1991.88
458.598	1911.88
458.818	1953.88
459.038	2093.88
459.258	2251.88
459.478	2240.88
459.698	2159.88
459.918	2200.88
460.138	2327.88
460.358	2310.88
460.578	2342.88
460.798	2411.88
461.018	2594.88
461.238	2480.88
461.458	2363.88
461.678	2362.88
461.898	2292.88
462.118	2217.88
462.338	2337.88
462.558	2323.88
462.777	2333.88
462.997	2426.88
463.217	2601.88
463.437	2550.88
463.657	2404.88
463.876	2355.88
464.096	2377.88
464.316	2308.88
464.536	2434.88
464.755	2422.88
464.975	2473.88
465.195	2395.88
465.414	2532.88
465.634	2481.88
465.854	2351.88
466.073	2502.88
466.293	2455.88
466.512	2167.88
466.732	2149.88
466.951	2239.88
467.171	2252.88
467.391	2114.88
467.61	2060.88
467.829	2081.88
468.049	2288.88
468.268	2612.88
468.488	2443.88
468.707	2293.88
468.927	2212.88
469.146	2143.88
469.365	2119.88
469.585	2143.88
469.804	2132.88
470.023	2137.88
470.243	2172.88
470.462	2147.88
470.681	2057.88
470.901	2131.88
471.12	2146.88
471.339	2128.88
471.558	2063.88
471.777	2071.88
471.997	2059.88
472.216	2103.88
472.435	2043.88
472.654	2047.88
472.873	2205.88
473.092	2344.88
473.311	2177.88
473.53	2019.88
473.749	2035.88
473.968	2126.88
474.187	2207.88
474.406	2376.88
474.625	2219.88
474.844	2126.88
475.063	2137.88
475.282	2242.88
475.501	2165.88
475.72	2164.88
475.939	2290.88
476.158	2265.88
476.377	2168.88
476.596	2187.88
476.814	2267.88
477.033	2264.88
477.252	2344.88
477.471	2435.88
477.69	2284.88
477.908	2293.88
478.127	2388.88
478.346	2638.88
478.564	2604.88
478.783	2601.88
479.002	2658.88
479.22	2547.88
479.439	2657.88
479.658	3029.88
479.876	3025.88
480.095	2646.88
480.313	2457.88
480.532	2390.88
480.751	2402.88
480.969	2477.88
481.188	2450.88
481.406	2421.88
481.624	2332.88
481.843	2361.88
482.061	2452.88
482.28	2521.88
482.498	2517.88
482.717	2526.88
482.935	2382.88
483.153	2375.88
483.372	2373.88
483.59	2352.88
483.808	2397.88
484.027	2430.88
484.245	2616.88
484.463	2980.88
484.681	3473.88
484.9	2635.88
485.118	2464.88
485.336	2444.88
485.554	2519.88
485.772	2689.88
485.99	2585.88
486.209	2652.88
486.427	2571.88
486.645	2590.88
486.863	2549.88
487.081	2617.88
487.299	2719.88
487.517	2596.88
487.735	2526.88
487.953	2455.88
488.171	2457.88
488.389	2453.88
488.607	2502.88
488.825	2740.88
489.043	2795.88
489.261	2484.88
489.479	2657.88
489.696	2685.88
489.914	2683.88
490.132	2584.88
490.35	2546.88
490.568	2646.88
490.786	2522.88
491.003	2418.88
491.221	2538.88
491.439	2653.88
491.657	2584.88
491.874	2575.88
492.092	2598.88
492.31	2616.88
492.527	2589.88
492.745	2571.88
492.963	2553.88
493.18	2634.88
493.398	2877.88
493.615	2965.88
493.833	2660.88
494.05	2597.88
494.268	2605.88
494.485	2693.88
494.703	2659.88
494.92	2553.88
495.138	2563.88
495.355	2654.88
495.573	2708.88
495.79	2905.88
496.008	2944.88
496.225	2709.88
496.442	2746.88
496.66	2757.88
496.877	2748.88
497.094	2899.88
497.312	2863.88
497.529	2787.88
497.746	2869.88
497.963	3368.88
498.181	3859.88
498.398	3588.88
498.615	3479.88
498.832	3335.88
499.049	3313.88
499.267	3292.88
499.484	3534.88
499.701	3827.88
499.918	3848.88
500.135	4078.88
500.352	4476.88
500.569	4356.88
500.786	4661.88
501.003	4383.88
501.22	3931.88
501.437	3894.88
501.654	3784.88
501.871	3800.88
502.088	3289.88
502.305	3341.88
502.522	3175.88
502.739	2932.88
502.956	2866.88
503.172	2848.88
503.389	2783.88
503.606	2774.88
503.823	2742.88
504.04	2760.88
504.256	2781.88
504.473	2796.88
504.69	2881.88
504.907	2682.88
505.123	2583.88
505.34	2701.88
505.557	3539.88
505.773	3048.88
505.99	2525.88
506.207	2374.88
506.423	2363.88
506.64	2320.88
506.856	2360.88
507.073	2678.88
507.289	2930.88
507.506	2812.88
507.722	2351.88
507.939	2291.88
508.155	2299.88
508.372	2343.88
508.588	2249.88
508.805	2173.88
509.021	2131.88
509.238	2108.88
509.454	2116.88
509.67	2140.88
509.887	2091.88
510.103	2147.88
510.319	2157.88
510.536	2252.88
510.752	2339.88
510.968	2325.88
511.184	2506.88
511.401	2511.88
511.617	2100.88
511.833	2089.88
512.049	2090.88
512.265	2079.88
512.481	2034.88
512.698	2158.88
512.914	2332.88
513.13	2224.88
513.346	2106.88
513.562	2103.88
513.778	2093.88
513.994	2235.88
514.21	2282.88
514.426	2309.88
514.642	2548.88
514.858	2419.88
515.074	2179.88
515.29	2107.88
515.506	2225.88
515.721	2225.88
515.937	2243.88
516.153	2542.88
516.369	2443.88
516.585	2256.88
516.801	2156.88
517.016	2144.88
517.232	2220.88
517.448	2314.88
517.664	2307.88
517.879	2318.88
518.095	2457.88
518.311	2320.88
518.527	2198.88
518.742	2157.88
518.958	2069.88
519.173	2077.88
519.389	2167.88
519.605	2165.88
519.82	2157.88
520.036	2213.88
520.251	2089.88
520.467	2138.88
520.682	2291.88
520.898	2423.88
521.113	2106.88
521.329	2077.88
521.544	2262.88
521.76	2167.88
521.975	2031.88
522.19	2021.88
522.406	1971.88
522.621	2444.88
522.836	2469.88
523.052	2019.88
523.267	2006.88
523.482	2015.88
523.698	1943.88
523.913	1811.88
524.128	1955.88
524.343	2052.88
524.559	2107.88
524.774	1932.88
524.989	1940.88
525.204	1911.88
525.419	1831.88
525.634	1852.88
525.849	1918.88
526.064	1949.88
526.28	1948.88
526.495	1845.88
526.71	1849.88
526.925	1830.88
527.14	1868.88
527.355	1803.88
527.57	1779.88
527.785	1855.88
527.999	1809.88
528.214	1772.88
528.429	1750.88
528.644	1792.88
528.859	1816.88
529.074	1802.88
529.289	1779.88
529.503	1816.88
529.718	1851.88
529.933	1779.88
530.148	1753.88
530.363	1727.88
530.577	1796.88
530.792	1791.88
531.007	1827.88
531.221	1771.88
531.436	1831.88
531.651	1917.88
531.865	1999.88
532.08	1902.88
532.295	1787.88
532.509	1735.88
532.724	1725.88
532.938	1856.88
533.153	1960.88
533.367	1899.88
533.582	1835.88
533.796	1803.88
534.011	1783.88
534.225	1842.88
534.44	1754.88
534.654	1765.88
534.868	1778.88
535.083	1860.88
535.297	1877.88
535.511	1747.88
535.726	1786.88
535.94	1741.88
536.154	1775.88
536.369	1690.88
536.583	1702.88
536.797	1707.88
537.011	1772.88
537.225	1677.88
537.44	1680.88
537.654	1764.88
537.868	1706.88
538.082	1632.88
538.296	1585.88
538.51	1596.88
538.724	1647.88
538.938	1640.88
539.153	1711.88
539.367	1687.88
539.581	1650.88
539.795	1801.88
540.009	1711.88
540.222	1727.88
540.436	1737.88
540.65	1881.88
540.864	1915.88
541.078	1795.88
541.292	1679.88
541.506	1658.88
541.72	1666.88
541.934	1706.88
542.147	1733.88
542.361	1675.88
542.575	1634.88
542.789	1611.88
543.002	1581.88
543.216	1639.88
543.43	1735.88
543.644	1798.88
543.857	1849.88
544.071	1745.88
544.285	1713.88
544.498	1658.88
544.712	1670.88
544.925	1727.88
545.139	1742.88
545.352	1621.88
545.566	1562.88
545.779	1588.88
545.993	1626.88
546.206	1641.88
546.42	1573.88
546.633	1540.88
546.847	1601.88
547.06	1584.88
547.274	1560.88
547.487	1536.88
547.7	1538.88
547.914	1575.88
548.127	1603.88
548.34	1612.88
548.554	1643.88
548.767	1565.88
548.98	1608.88
549.193	1610.88
549.407	1659.88
549.62	1704.88
549.833	1611.88
550.046	1586.88
550.259	1600.88
550.473	1564.88
550.686	1560.88
550.899	1556.88
551.112	1530.88
551.325	1459.88
551.538	1610.88
551.751	1913.88
551.964	1551.88
552.177	1483.88
552.39	1539.88
552.603	1578.88
552.816	1561.88
553.029	1650.88
553.242	1688.88
553.455	1603.88
553.667	1577.88
553.88	1572.88
554.093	1545.88
554.306	1499.88
554.519	1459.88
554.732	1465.88
554.944	1470.88
555.157	1505.88
555.37	1449.88
555.583	1451.88
555.795	1452.88
556.008	1417.88
556.221	1403.88
556.433	1392.88
556.646	1386.88
556.859	1371.88
557.071	1354.88
557.284	1371.88
557.496	1338.88
557.709	1342.88
557.921	1305.88
558.134	1343.88
558.346	1327.88
558.559	1328.88
558.771	1355.88
558.984	1222.88
559.196	1253.88
559.409	1241.88
559.621	1237.88
559.833	1298.88
560.046	1341.88
560.258	1324.88
560.47	1311.88
560.683	1298.88
560.895	1293.88
561.107	1316.88
561.32	1276.88
561.532	1339.88
561.744	1271.88
561.956	1315.88
562.168	1257.88
562.381	1255.88
562.593	1229.88
562.805	1274.88
563.017	1267.88
563.229	1263.88
563.441	1300.88
563.653	1243.88
563.865	1269.88
564.077	1268.88
564.289	1228.88
564.501	1301.88
564.713	1324.88
564.925	1365.88
565.137	1455.88
565.349	1353.88
565.561	1320.88
565.773	1361.88
565.985	1367.88
566.197	1467.88
566.408	1547.88
566.62	1539.88
566.832	1524.88
567.044	1519.88
567.255	1531.88
567.467	1532.88
567.679	1615.88
567.891	1645.88
568.102	1601.88
568.314	1536.88
568.526	1450.88
568.737	1427.88
568.949	1330.88
569.161	1304.88
569.372	1236.88
569.584	1236.88
569.795	1226.88
570.007	1233.88
570.218	1165.88
570.43	1162.88
570.641	1141.88
570.853	1167.88
571.064	1158.88
571.276	1135.88
571.487	1130.88
571.698	1068.88
571.91	1093.88
572.121	1067.88
572.333	1055.88
572.544	1061.88
572.755	1005.88
572.966	1003.88
573.178	1008.88
573.389	1002.88
573.6	1066.88
573.811	1150.88
574.023	1088.88
574.234	1036.88
574.445	995.88
574.656	977.88
574.867	981.88
575.078	975.88
575.289	976.88
575.501	953.88
575.712	915.88
575.923	937.88
576.134	976.88
576.345	936.88
576.556	919.88
576.767	930.88
576.978	936.88
577.188	891.88
577.399	887.88
577.61	908.88
577.821	909.88
578.032	905.88
578.243	907.88
578.454	888.88
578.665	879.88
578.875	875.88
579.086	853.88
579.297	888.88
579.508	919.88
579.718	905.88
579.929	880.88
580.14	849.88
580.35	858.88
580.561	886.88
580.772	937.88
580.982	871.88
581.193	841.88
581.403	823.88
581.614	826.88
581.825	825.88
582.035	807.88
582.246	820.88
582.456	840.88
582.667	841.88
582.877	807.88
583.087	781.88
583.298	791.88
583.508	804.88
583.719	821.88
583.929	819.88
584.139	816.88
584.35	757.88
584.56	776.88
584.77	819.88
584.981	800.88
585.191	808.88
585.401	825.88
585.611	809.88
585.821	806.88
586.032	780.88
586.242	758.88
586.452	769.88
586.662	794.88
586.872	776.88
587.082	768.88
587.292	821.88
587.502	823.88
587.713	800.88
587.923	754.88
588.133	771.88
588.343	801.88
588.553	738.88
588.762	785.88
588.972	771.88
589.182	798.88
589.392	792.88
589.602	806.88
589.812	789.88
590.022	749.88
590.232	734.88
590.441	759.88
590.651	773.88
590.861	778.88
591.071	751.88
591.281	739.88
591.49	748.88
591.7	765.88
591.91	759.88
592.119	767.88
592.329	772.88
592.539	823.88
592.748	771.88
592.958	804.88
593.167	791.88
593.377	787.88
593.587	824.88
593.796	782.88
594.006	799.88
594.215	785.88
594.424	782.88
594.634	775.88
594.843	785.88
595.053	804.88
595.262	770.88
595.472	727.88
595.681	764.88
595.89	748.88
596.1	700.88
596.309	740.88
596.518	716.88
596.727	748.88
596.937	707.88
597.146	710.88
597.355	696.88
597.564	676.88
597.774	681.88
597.983	659.88
598.192	658.88
598.401	662.88
598.61	677.88
598.819	646.88
599.028	610.88
599.237	649.88
599.446	630.88
599.655	643.88
599.864	643.88
600.073	626.88
600.282	624.88
600.491	612.88
600.7	632.88
600.909	615.88
601.118	627.88
601.327	613.88
601.536	651.88
601.745	620.88
601.953	615.88
602.162	613.88
602.371	647.88
602.58	630.88
602.789	613.88
602.997	600.88
603.206	627.88
603.415	611.88
603.623	610.88
603.832	621.88
604.041	589.88
604.249	597.88
604.458	607.88
604.666	597.88
604.875	599.88
605.084	613.88
605.292	610.88
605.501	586.88
605.709	594.88
605.918	575.88
606.126	587.88
606.334	562.88
606.543	579.88
606.751	585.88
606.96	597.88
607.168	598.88
607.376	579.88
607.585	592.88
607.793	551.88
608.001	571.88
608.21	570.88
608.418	573.88
608.626	556.88
608.834	557.88
609.043	550.88
609.251	559.88
609.459	550.88
609.667	594.88
609.875	565.88
610.083	580.88
610.291	588.88
610.499	580.88
610.707	571.88
610.916	557.88
611.124	561.88
611.332	551.88
611.54	552.88
611.748	552.88
611.955	567.88
612.163	531.88
612.371	520.88
612.579	511.88
612.787	534.88
612.995	541.88
613.203	549.88
613.411	532.88
613.618	554.88
613.826	551.88
614.034	540.88
614.242	522.88
614.449	522.88
614.657	538.88
614.865	543.88
615.072	542.88
615.28	539.88
615.488	519.88
615.695	581.88
615.903	552.88
616.111	534.88
616.318	530.88
616.526	514.88
616.733	524.88
616.941	516.88
617.148	516.88
617.356	516.88
617.563	519.88
617.771	535.88
617.978	503.88
618.185	517.88
618.393	484.88
618.6	527.88
618.807	517.88
619.015	517.88
619.222	516.88
619.429	521.88
619.637	484.88
619.844	487.88
620.051	509.88
620.258	487.88
620.466	492.88
620.673	466.88
620.88	484.88
621.087	459.88
621.294	484.88
621.501	469.88
621.708	485.88
621.915	484.88
622.122	480.88
622.329	488.88
622.536	481.88
622.743	474.88
622.95	459.88
623.157	454.88
623.364	463.88
623.571	468.88
623.778	495.88
623.985	458.88
624.192	448.88
624.399	468.88
624.606	467.88
624.812	450.88
625.019	456.88
625.226	451.88
625.433	444.88
625.639	460.88
625.846	434.88
626.053	435.88
626.259	429.88
626.466	425.88
626.673	418.88
626.879	441.88
627.086	443.88
627.293	422.88
627.499	431.88
627.706	441.88
627.912	415.88
628.119	403.88
628.325	425.88
628.532	404.88
628.738	420.88
628.945	426.88
629.151	400.88
629.357	419.88
629.564	415.88
629.77	405.88
629.976	403.88
630.183	421.88
630.389	395.88
630.595	413.88
630.802	405.88
631.008	398.88
631.214	389.88
631.42	403.88
631.627	376.88
631.833	378.88
632.039	375.88
632.245	392.88
632.451	405.88
632.657	395.88
632.863	387.88
633.069	384.88
633.275	384.88
633.481	367.88
633.688	386.88
633.893	375.88
634.099	345.88
634.305	392.88
634.511	387.88
634.717	385.88
634.923	370.88
635.129	361.88
635.335	357.88
635.541	353.88
635.747	361.88
635.952	380.88
636.158	374.88
636.364	373.88
636.57	367.88
636.775	368.88
636.981	381.88
637.187	372.88
637.392	373.88
637.598	351.88
637.804	354.88
638.009	367.88
638.215	344.88
638.421	355.88
638.626	362.88
638.832	346.88
639.037	348.88
639.243	342.88
639.448	348.88
639.654	346.88
639.859	346.88
640.065	336.88
640.27	355.88
640.475	348.88
640.681	348.88
640.886	326.88
641.091	334.88
641.297	348.88
641.502	350.88
641.707	330.88
641.913	319.88
642.118	327.88
642.323	343.88
642.528	329.88
642.733	320.88
642.939	317.88
643.144	319.88
643.349	333.88
643.554	333.88
643.759	329.88
643.964	323.88
644.169	324.88
644.374	323.88
644.579	320.88
644.784	341.88
644.989	343.88
645.194	322.88
645.399	325.88
645.604	327.88
645.809	324.88
646.014	319.88
646.219	331.88
646.423	324.88
646.628	311.88
646.833	319.88
647.038	344.88
647.243	319.88
647.447	323.88
647.652	340.88
647.857	335.88
648.062	304.88
648.266	311.88
648.471	334.88
648.676	325.88
648.88	327.88
649.085	300.88
649.289	342.88
649.494	318.88
649.698	289.88
649.903	307.88
650.107	313.88
650.312	292.88
650.516	323.88
650.721	308.88
650.925	298.88
651.13	294.88
651.334	276.88
651.539	269.88
651.743	295.88
651.947	270.88
652.152	271.88
652.356	262.88
652.56	279.88
652.764	249.88
652.969	249.88
653.173	254.88
653.377	274.88
653.581	260.88
653.785	250.88
653.99	272.88
654.194	236.88
654.398	249.88
654.602	237.88
654.806	245.88
655.01	262.88
655.214	253.88
655.418	235.88
655.622	252.88
655.826	244.88
656.03	253.88
656.234	264.88
656.438	267.88
656.642	256.88
656.846	263.88
657.049	243.88
657.253	230.88
657.457	222.88
657.661	195.88
657.865	187.88
658.068	175.88
658.272	169.88
658.476	164.88
658.68	159.88
658.883	161.88
659.087	144.88
659.291	154.88
659.494	129.88
659.698	139.88
659.901	117.88
660.105	123.88
660.309	117.88
660.512	118.88
660.716	105.88
660.919	111.88
661.123	101.88
661.326	119.88
661.53	101.88
661.733	106.88
661.936	98.88
662.14	104.88
662.343	100.88
662.546	103.88
662.75	103.88
662.953	96.88
663.156	89.88
663.36	106.88
663.563	75.88
663.766	89.88
663.969	82.88
664.173	88.88
664.376	93.88
664.579	89.88
664.782	86.88
664.985	74.88
665.188	91.88
665.391	86.88
665.594	79.88
665.797	85.88
666	87.88
666.203	84.88
666.406	80.88
666.609	76.88
666.812	83.88
667.015	85.88
667.218	92.88
667.421	69.88
667.624	81.88
667.827	90.88
668.03	92.88
668.232	91.88
668.435	72.88
668.638	85.88
668.841	86.88
669.043	86.88
669.246	78.88
669.449	73.88
669.651	73.88
669.854	90.88
670.057	90.88
670.259	73.88
670.462	73.88
670.665	65.88
670.867	71.88
671.07	85.88
671.272	91.88
671.475	84.88
671.677	93.88
671.88	83.88
672.082	84.88
672.284	79.88
672.487	75.88
672.689	80.88
672.892	72.88
