Data from WStandard_LampEnergy8_LIBS07252019.E.O._I.C._HRD10591_16-00-36-929.txt Node
Date: Thu Jul 25 16:00:36 EDT 2019
User: cochatt
Spectrometer: HR+D1059
Trigger mode: 1
Integration Time (sec): 1.000000E-1
Scans to average: 1
Electric dark correction enabled: true
Nonlinearity correction enabled: false
Boxcar width: 0
XAxis mode: Wavelengths
Number of Pixels in Spectrum: 2048
>>>>>Begin Spectral Data<<<<<
223.165	-9.5
223.4	-9.5
223.635	-9.5
223.869	-19.5
224.104	-15.5
224.338	-16.5
224.573	-23.5
224.808	-16.5
225.042	-22.5
225.277	-0.5
225.511	21.5
225.746	12.5
225.98	5.5
226.215	5.5
226.449	6.5
226.683	13.5
226.918	24.5
227.152	34.5
227.387	31.5
227.621	24.5
227.856	52.5
228.09	38.5
228.324	47.5
228.559	61.5
228.793	98.5
229.027	187.5
229.262	221.5
229.496	199.5
229.73	230.5
229.964	247.5
230.199	258.5
230.433	257.5
230.667	264.5
230.901	289.5
231.136	257.5
231.37	262.5
231.604	254.5
231.838	245.5
232.072	250.5
232.306	249.5
232.541	260.5
232.775	304.5
233.009	339.5
233.243	328.5
233.477	283.5
233.711	277.5
233.945	307.5
234.179	316.5
234.413	299.5
234.647	331.5
234.881	307.5
235.115	285.5
235.349	303.5
235.583	290.5
235.817	315.5
236.051	279.5
236.285	295.5
236.519	322.5
236.753	334.5
236.987	361.5
237.221	364.5
237.455	386.5
237.689	354.5
237.922	353.5
238.156	349.5
238.39	360.5
238.624	375.5
238.858	369.5
239.091	379.5
239.325	408.5
239.559	466.5
239.793	472.5
240.027	520.5
240.26	486.5
240.494	390.5
240.728	357.5
240.961	370.5
241.195	385.5
241.429	413.5
241.662	423.5
241.896	379.5
242.13	389.5
242.363	409.5
242.597	448.5
242.83	444.5
243.064	454.5
243.298	474.5
243.531	425.5
243.765	443.5
243.998	471.5
244.232	409.5
244.465	382.5
244.699	409.5
244.932	445.5
245.166	481.5
245.399	485.5
245.633	457.5
245.866	435.5
246.099	469.5
246.333	481.5
246.566	490.5
246.8	539.5
247.033	551.5
247.266	506.5
247.5	523.5
247.733	519.5
247.966	549.5
248.2	598.5
248.433	579.5
248.666	586.5
248.899	644.5
249.133	725.5
249.366	787.5
249.599	659.5
249.832	591.5
250.066	604.5
250.299	610.5
250.532	573.5
250.765	541.5
250.998	553.5
251.231	554.5
251.465	590.5
251.698	585.5
251.931	577.5
252.164	610.5
252.397	601.5
252.63	577.5
252.863	510.5
253.096	527.5
253.329	538.5
253.562	568.5
253.795	593.5
254.028	604.5
254.261	562.5
254.494	531.5
254.727	523.5
254.96	566.5
255.193	621.5
255.426	669.5
255.659	760.5
255.892	750.5
256.124	659.5
256.357	634.5
256.59	668.5
256.823	664.5
257.056	690.5
257.289	811.5
257.521	858.5
257.754	787.5
257.987	748.5
258.22	808.5
258.452	753.5
258.685	654.5
258.918	651.5
259.151	658.5
259.383	631.5
259.616	556.5
259.849	615.5
260.081	684.5
260.314	723.5
260.547	801.5
260.779	781.5
261.012	727.5
261.244	664.5
261.477	647.5
261.71	674.5
261.942	675.5
262.175	660.5
262.407	678.5
262.64	646.5
262.872	631.5
263.105	594.5
263.337	629.5
263.57	632.5
263.802	622.5
264.035	595.5
264.267	549.5
264.499	561.5
264.732	599.5
264.964	639.5
265.197	660.5
265.429	680.5
265.661	760.5
265.894	820.5
266.126	827.5
266.358	749.5
266.591	788.5
266.823	817.5
267.055	753.5
267.287	761.5
267.52	741.5
267.752	734.5
267.984	744.5
268.216	782.5
268.448	809.5
268.681	762.5
268.913	699.5
269.145	674.5
269.377	655.5
269.609	747.5
269.841	841.5
270.073	991.5
270.306	1053.5
270.538	1087.5
270.77	916.5
271.002	820.5
271.234	775.5
271.466	763.5
271.698	907.5
271.93	1037.5
272.162	1005.5
272.394	947.5
272.626	887.5
272.858	773.5
273.09	692.5
273.322	686.5
273.553	669.5
273.785	695.5
274.017	707.5
274.249	718.5
274.481	745.5
274.713	701.5
274.945	691.5
275.176	689.5
275.408	680.5
275.64	673.5
275.872	661.5
276.104	731.5
276.335	823.5
276.567	858.5
276.799	892.5
277.031	809.5
277.262	815.5
277.494	845.5
277.726	867.5
277.957	829.5
278.189	780.5
278.421	708.5
278.652	686.5
278.884	717.5
279.115	727.5
279.347	742.5
279.579	729.5
279.81	725.5
280.042	779.5
280.273	844.5
280.505	856.5
280.736	858.5
280.968	805.5
281.199	722.5
281.431	709.5
281.662	693.5
281.894	692.5
282.125	748.5
282.356	732.5
282.588	758.5
282.819	758.5
283.051	804.5
283.282	862.5
283.513	825.5
283.745	738.5
283.976	706.5
284.207	707.5
284.439	736.5
284.67	738.5
284.901	765.5
285.132	772.5
285.364	730.5
285.595	758.5
285.826	744.5
286.057	723.5
286.288	753.5
286.52	758.5
286.751	826.5
286.982	836.5
287.213	761.5
287.444	711.5
287.675	742.5
287.906	760.5
288.138	838.5
288.369	788.5
288.6	729.5
288.831	718.5
289.062	731.5
289.293	733.5
289.524	754.5
289.755	778.5
289.986	764.5
290.217	702.5
290.448	750.5
290.679	773.5
290.91	771.5
291.141	761.5
291.371	825.5
291.602	794.5
291.833	808.5
292.064	823.5
292.295	791.5
292.526	833.5
292.757	860.5
292.987	803.5
293.218	799.5
293.449	867.5
293.68	942.5
293.91	976.5
294.141	955.5
294.372	921.5
294.603	927.5
294.833	949.5
295.064	909.5
295.295	826.5
295.525	757.5
295.756	730.5
295.987	709.5
296.217	747.5
296.448	760.5
296.679	767.5
296.909	778.5
297.14	725.5
297.37	778.5
297.601	819.5
297.831	862.5
298.062	860.5
298.292	783.5
298.523	769.5
298.753	773.5
298.984	793.5
299.214	795.5
299.445	809.5
299.675	830.5
299.905	836.5
300.136	812.5
300.366	793.5
300.597	757.5
300.827	777.5
301.057	817.5
301.288	838.5
301.518	831.5
301.748	865.5
301.979	887.5
302.209	919.5
302.439	950.5
302.669	974.5
302.9	930.5
303.13	847.5
303.36	841.5
303.59	858.5
303.82	833.5
304.051	841.5
304.281	865.5
304.511	879.5
304.741	925.5
304.971	998.5
305.201	1038.5
305.431	932.5
305.661	799.5
305.891	726.5
306.121	772.5
306.352	790.5
306.582	832.5
306.812	890.5
307.042	957.5
307.272	918.5
307.502	976.5
307.731	1030.5
307.961	1069.5
308.191	956.5
308.421	861.5
308.651	817.5
308.881	830.5
309.111	821.5
309.341	809.5
309.571	824.5
309.8	829.5
310.03	801.5
310.26	784.5
310.49	801.5
310.72	842.5
310.949	878.5
311.179	868.5
311.409	833.5
311.639	841.5
311.868	839.5
312.098	843.5
312.328	843.5
312.557	812.5
312.787	836.5
313.017	857.5
313.246	853.5
313.476	839.5
313.706	873.5
313.935	879.5
314.165	869.5
314.394	904.5
314.624	951.5
314.853	1010.5
315.083	1066.5
315.312	1036.5
315.542	953.5
315.771	895.5
316.001	925.5
316.23	952.5
316.46	926.5
316.689	936.5
316.919	890.5
317.148	865.5
317.377	885.5
317.607	951.5
317.836	1027.5
318.065	1057.5
318.295	1004.5
318.524	968.5
318.753	947.5
318.983	916.5
319.212	917.5
319.441	902.5
319.67	891.5
319.9	903.5
320.129	944.5
320.358	1013.5
320.587	1022.5
320.816	1012.5
321.046	986.5
321.275	965.5
321.504	993.5
321.733	1026.5
321.962	977.5
322.191	911.5
322.42	898.5
322.649	912.5
322.878	887.5
323.108	905.5
323.337	933.5
323.566	947.5
323.795	938.5
324.024	945.5
324.253	911.5
324.482	906.5
324.71	895.5
324.939	870.5
325.168	876.5
325.397	917.5
325.626	934.5
325.855	922.5
326.084	910.5
326.313	906.5
326.542	962.5
326.77	932.5
326.999	957.5
327.228	909.5
327.457	889.5
327.686	887.5
327.914	909.5
328.143	937.5
328.372	935.5
328.6	929.5
328.829	907.5
329.058	891.5
329.287	907.5
329.515	912.5
329.744	953.5
329.972	1014.5
330.201	1017.5
330.43	961.5
330.658	974.5
330.887	968.5
331.115	940.5
331.344	984.5
331.572	974.5
331.801	949.5
332.03	989.5
332.258	986.5
332.486	960.5
332.715	1005.5
332.943	986.5
333.172	981.5
333.4	972.5
333.629	1021.5
333.857	1067.5
334.085	1209.5
334.314	1335.5
334.542	1396.5
334.771	1261.5
334.999	1139.5
335.227	1059.5
335.455	1046.5
335.684	1049.5
335.912	1062.5
336.14	1102.5
336.369	1052.5
336.597	1007.5
336.825	998.5
337.053	1034.5
337.281	1081.5
337.51	1133.5
337.738	1132.5
337.966	1114.5
338.194	1017.5
338.422	981.5
338.65	976.5
338.878	956.5
339.106	926.5
339.334	931.5
339.562	895.5
339.79	955.5
340.018	1010.5
340.246	1010.5
340.474	1030.5
340.702	999.5
340.93	994.5
341.158	987.5
341.386	987.5
341.614	985.5
341.842	979.5
342.07	963.5
342.298	968.5
342.526	985.5
342.754	958.5
342.981	965.5
343.209	963.5
343.437	957.5
343.665	955.5
343.893	1003.5
344.12	1029.5
344.348	1027.5
344.576	1015.5
344.804	988.5
345.031	1005.5
345.259	969.5
345.487	954.5
345.714	921.5
345.942	884.5
346.17	903.5
346.397	907.5
346.625	932.5
346.853	887.5
347.08	895.5
347.308	880.5
347.535	877.5
347.763	959.5
347.99	893.5
348.218	867.5
348.445	911.5
348.673	890.5
348.9	942.5
349.128	972.5
349.355	989.5
349.583	968.5
349.81	915.5
350.037	874.5
350.265	846.5
350.492	871.5
350.72	914.5
350.947	935.5
351.174	956.5
351.402	924.5
351.629	872.5
351.856	843.5
352.083	833.5
352.311	869.5
352.538	885.5
352.765	928.5
352.992	892.5
353.22	929.5
353.447	895.5
353.674	916.5
353.901	910.5
354.128	910.5
354.355	916.5
354.583	916.5
354.81	954.5
355.037	948.5
355.264	926.5
355.491	937.5
355.718	899.5
355.945	909.5
356.172	887.5
356.399	882.5
356.626	889.5
356.853	947.5
357.08	1011.5
357.307	1109.5
357.534	1032.5
357.761	936.5
357.988	875.5
358.215	841.5
358.441	872.5
358.668	883.5
358.895	886.5
359.122	979.5
359.349	1026.5
359.576	990.5
359.802	899.5
360.029	886.5
360.256	893.5
360.483	907.5
360.709	933.5
360.936	942.5
361.163	986.5
361.39	1086.5
361.616	1127.5
361.843	1110.5
362.07	1025.5
362.296	907.5
362.523	894.5
362.749	920.5
362.976	917.5
363.203	937.5
363.429	910.5
363.656	877.5
363.882	944.5
364.109	1031.5
364.335	1055.5
364.562	1000.5
364.788	971.5
365.015	893.5
365.241	893.5
365.468	915.5
365.694	980.5
365.92	985.5
366.147	933.5
366.373	891.5
366.599	906.5
366.826	890.5
367.052	878.5
367.278	903.5
367.505	930.5
367.731	964.5
367.957	962.5
368.184	1010.5
368.41	1059.5
368.636	1020.5
368.862	1052.5
369.089	1062.5
369.315	1010.5
369.541	945.5
369.767	931.5
369.993	925.5
370.219	921.5
370.445	952.5
370.672	1023.5
370.898	1039.5
371.124	1022.5
371.35	976.5
371.576	1027.5
371.802	1038.5
372.028	972.5
372.254	957.5
372.48	945.5
372.706	928.5
372.932	945.5
373.158	950.5
373.384	981.5
373.61	1015.5
373.835	1052.5
374.061	990.5
374.287	967.5
374.513	1007.5
374.739	1012.5
374.965	977.5
375.191	1007.5
375.416	991.5
375.642	1020.5
375.868	1060.5
376.094	1114.5
376.319	1074.5
376.545	969.5
376.771	1013.5
376.997	1061.5
377.222	1014.5
377.448	1022.5
377.674	1016.5
377.899	1064.5
378.125	1107.5
378.35	1073.5
378.576	970.5
378.802	925.5
379.027	948.5
379.253	957.5
379.478	985.5
379.704	962.5
379.929	986.5
380.155	988.5
380.38	970.5
380.606	954.5
380.831	1002.5
381.057	1052.5
381.282	1043.5
381.507	1074.5
381.733	1116.5
381.958	1119.5
382.184	1051.5
382.409	1022.5
382.634	1029.5
382.86	1003.5
383.085	1047.5
383.31	1051.5
383.535	1171.5
383.761	1218.5
383.986	1164.5
384.211	1105.5
384.436	1065.5
384.662	1162.5
384.887	1153.5
385.112	1132.5
385.337	1132.5
385.562	1112.5
385.787	1102.5
386.013	1148.5
386.238	1154.5
386.463	1149.5
386.688	1242.5
386.913	1311.5
387.138	1237.5
387.363	1158.5
387.588	1153.5
387.813	1132.5
388.038	1166.5
388.263	1203.5
388.488	1148.5
388.713	1071.5
388.938	1080.5
389.163	1083.5
389.387	1129.5
389.612	1102.5
389.837	1150.5
390.062	1113.5
390.287	1139.5
390.512	1092.5
390.736	1102.5
390.961	1075.5
391.186	1071.5
391.411	1087.5
391.636	1082.5
391.86	1142.5
392.085	1145.5
392.31	1153.5
392.534	1142.5
392.759	1138.5
392.984	1148.5
393.208	1123.5
393.433	1149.5
393.658	1197.5
393.882	1192.5
394.107	1155.5
394.331	1099.5
394.556	1085.5
394.78	1150.5
395.005	1177.5
395.229	1215.5
395.454	1303.5
395.678	1307.5
395.903	1233.5
396.127	1199.5
396.352	1223.5
396.576	1214.5
396.801	1239.5
397.025	1257.5
397.249	1189.5
397.474	1197.5
397.698	1164.5
397.922	1230.5
398.147	1309.5
398.371	1345.5
398.595	1331.5
398.82	1299.5
399.044	1326.5
399.268	1411.5
399.492	1443.5
399.717	1468.5
399.941	1465.5
400.165	1482.5
400.389	1422.5
400.613	1457.5
400.837	1623.5
401.062	1786.5
401.286	1470.5
401.51	1404.5
401.734	1453.5
401.958	1394.5
402.182	1331.5
402.406	1272.5
402.63	1297.5
402.854	1259.5
403.078	1297.5
403.302	1317.5
403.526	1320.5
403.75	1314.5
403.974	1353.5
404.198	1344.5
404.422	1426.5
404.645	1464.5
404.869	1386.5
405.093	1315.5
405.317	1305.5
405.541	1327.5
405.765	1377.5
405.988	1367.5
406.212	1390.5
406.436	1375.5
406.66	1445.5
406.883	1473.5
407.107	1695.5
407.331	1799.5
407.555	1911.5
407.778	1673.5
408.002	1437.5
408.226	1415.5
408.449	1419.5
408.673	1329.5
408.896	1391.5
409.12	1405.5
409.344	1339.5
409.567	1333.5
409.791	1348.5
410.014	1397.5
410.238	1473.5
410.461	1510.5
410.685	1384.5
410.908	1315.5
411.132	1320.5
411.355	1332.5
411.578	1335.5
411.802	1316.5
412.025	1341.5
412.249	1315.5
412.472	1276.5
412.695	1285.5
412.919	1281.5
413.142	1314.5
413.365	1340.5
413.589	1329.5
413.812	1411.5
414.035	1411.5
414.258	1301.5
414.482	1317.5
414.705	1299.5
414.928	1301.5
415.151	1257.5
415.374	1293.5
415.597	1293.5
415.821	1316.5
416.044	1348.5
416.267	1309.5
416.49	1269.5
416.713	1262.5
416.936	1320.5
417.159	1359.5
417.382	1380.5
417.605	1299.5
417.828	1333.5
418.051	1333.5
418.274	1246.5
418.497	1275.5
418.72	1256.5
418.943	1279.5
419.166	1294.5
419.389	1340.5
419.611	1289.5
419.834	1310.5
420.057	1335.5
420.28	1277.5
420.503	1285.5
420.726	1335.5
420.948	1310.5
421.171	1240.5
421.394	1290.5
421.617	1281.5
421.839	1316.5
422.062	1305.5
422.285	1279.5
422.507	1253.5
422.73	1239.5
422.953	1202.5
423.175	1227.5
423.398	1285.5
423.621	1236.5
423.843	1257.5
424.066	1330.5
424.288	1363.5
424.511	1414.5
424.733	1337.5
424.956	1254.5
425.178	1203.5
425.401	1267.5
425.623	1244.5
425.846	1237.5
426.068	1351.5
426.291	1305.5
426.513	1309.5
426.735	1344.5
426.958	1427.5
427.18	1441.5
427.402	1372.5
427.625	1394.5
427.847	1319.5
428.069	1261.5
428.292	1236.5
428.514	1211.5
428.736	1223.5
428.958	1221.5
429.181	1266.5
429.403	1477.5
429.625	1723.5
429.847	1444.5
430.069	1303.5
430.292	1421.5
430.514	1443.5
430.736	1346.5
430.958	1383.5
431.18	1280.5
431.402	1196.5
431.624	1193.5
431.846	1172.5
432.068	1134.5
432.29	1163.5
432.512	1168.5
432.734	1217.5
432.956	1275.5
433.178	1323.5
433.4	1323.5
433.622	1285.5
433.844	1275.5
434.066	1182.5
434.287	1190.5
434.509	1178.5
434.731	1255.5
434.953	1315.5
435.175	1324.5
435.397	1254.5
435.618	1305.5
435.84	1236.5
436.062	1218.5
436.284	1246.5
436.505	1274.5
436.727	1313.5
436.949	1253.5
437.17	1246.5
437.392	1198.5
437.614	1190.5
437.835	1178.5
438.057	1228.5
438.278	1210.5
438.5	1205.5
438.721	1213.5
438.943	1227.5
439.165	1226.5
439.386	1181.5
439.608	1274.5
439.829	1214.5
440.05	1251.5
440.272	1255.5
440.493	1242.5
440.715	1261.5
440.936	1319.5
441.158	1407.5
441.379	1363.5
441.6	1358.5
441.822	1342.5
442.043	1326.5
442.264	1303.5
442.486	1208.5
442.707	1233.5
442.928	1251.5
443.149	1291.5
443.371	1352.5
443.592	1379.5
443.813	1381.5
444.034	1389.5
444.255	1338.5
444.476	1362.5
444.698	1407.5
444.919	1374.5
445.14	1457.5
445.361	1437.5
445.582	1429.5
445.803	1382.5
446.024	1344.5
446.245	1385.5
446.466	1324.5
446.687	1318.5
446.908	1337.5
447.129	1276.5
447.35	1320.5
447.571	1293.5
447.792	1238.5
448.013	1214.5
448.234	1239.5
448.455	1304.5
448.675	1313.5
448.896	1213.5
449.117	1171.5
449.338	1197.5
449.559	1230.5
449.779	1318.5
450	1390.5
450.221	1491.5
450.442	1435.5
450.662	1301.5
450.883	1146.5
451.104	1132.5
451.324	1151.5
451.545	1191.5
451.766	1171.5
451.986	1083.5
452.207	1118.5
452.428	1086.5
452.648	1113.5
452.869	1107.5
453.089	1126.5
453.31	1105.5
453.53	1128.5
453.751	1096.5
453.971	1077.5
454.192	1077.5
454.412	1113.5
454.633	1121.5
454.853	1101.5
455.073	1058.5
455.294	1056.5
455.514	1077.5
455.734	1085.5
455.955	1076.5
456.175	1070.5
456.395	1064.5
456.616	1088.5
456.836	1068.5
457.056	1052.5
457.276	1075.5
457.497	1019.5
457.717	1018.5
457.937	1019.5
458.157	1059.5
458.377	1028.5
458.598	1056.5
458.818	1034.5
459.038	1087.5
459.258	1153.5
459.478	1132.5
459.698	1100.5
459.918	1157.5
460.138	1205.5
460.358	1224.5
460.578	1237.5
460.798	1272.5
461.018	1299.5
461.238	1294.5
461.458	1242.5
461.678	1247.5
461.898	1208.5
462.118	1198.5
462.338	1248.5
462.558	1249.5
462.777	1230.5
462.997	1309.5
463.217	1383.5
463.437	1325.5
463.657	1225.5
463.876	1221.5
464.096	1239.5
464.316	1241.5
464.536	1261.5
464.755	1285.5
464.975	1269.5
465.195	1256.5
465.414	1291.5
465.634	1272.5
465.854	1262.5
466.073	1381.5
466.293	1301.5
466.512	1185.5
466.732	1188.5
466.951	1259.5
467.171	1212.5
467.391	1207.5
467.61	1197.5
467.829	1186.5
468.049	1313.5
468.268	1409.5
468.488	1288.5
468.707	1228.5
468.927	1201.5
469.146	1221.5
469.365	1219.5
469.585	1223.5
469.804	1198.5
470.023	1225.5
470.243	1265.5
470.462	1238.5
470.681	1209.5
470.901	1223.5
471.12	1218.5
471.339	1229.5
471.558	1209.5
471.777	1179.5
471.997	1189.5
472.216	1181.5
472.435	1103.5
472.654	1148.5
472.873	1142.5
473.092	1213.5
473.311	1171.5
473.53	1143.5
473.749	1102.5
473.968	1161.5
474.187	1206.5
474.406	1237.5
474.625	1198.5
474.844	1187.5
475.063	1197.5
475.282	1171.5
475.501	1146.5
475.72	1209.5
475.939	1252.5
476.158	1215.5
476.377	1201.5
476.596	1210.5
476.814	1219.5
477.033	1196.5
477.252	1238.5
477.471	1309.5
477.69	1290.5
477.908	1279.5
478.127	1358.5
478.346	1413.5
478.564	1405.5
478.783	1381.5
479.002	1425.5
479.22	1407.5
479.439	1453.5
479.658	1545.5
479.876	1469.5
480.095	1359.5
480.313	1301.5
480.532	1263.5
480.751	1310.5
480.969	1274.5
481.188	1280.5
481.406	1226.5
481.624	1214.5
481.843	1230.5
482.061	1270.5
482.28	1319.5
482.498	1375.5
482.717	1287.5
482.935	1281.5
483.153	1342.5
483.372	1382.5
483.59	1362.5
483.808	1337.5
484.027	1332.5
484.245	1407.5
484.463	1723.5
484.681	1858.5
484.9	1439.5
485.118	1336.5
485.336	1308.5
485.554	1363.5
485.772	1385.5
485.99	1327.5
486.209	1365.5
486.427	1352.5
486.645	1400.5
486.863	1410.5
487.081	1450.5
487.299	1498.5
487.517	1430.5
487.735	1460.5
487.953	1499.5
488.171	1491.5
488.389	1470.5
488.607	1443.5
488.825	1586.5
489.043	1479.5
489.261	1413.5
489.479	1429.5
489.696	1436.5
489.914	1471.5
490.132	1416.5
490.35	1418.5
490.568	1552.5
490.786	1517.5
491.003	1474.5
491.221	1521.5
491.439	1565.5
491.657	1577.5
491.874	1638.5
492.092	1642.5
492.31	1677.5
492.527	1597.5
492.745	1601.5
492.963	1552.5
493.18	1565.5
493.398	1697.5
493.615	1665.5
493.833	1604.5
494.05	1545.5
494.268	1533.5
494.485	1555.5
494.703	1549.5
494.92	1533.5
495.138	1501.5
495.355	1515.5
495.573	1586.5
495.79	1638.5
496.008	1621.5
496.225	1564.5
496.442	1576.5
496.66	1617.5
496.877	1603.5
497.094	1625.5
497.312	1652.5
497.529	1569.5
497.746	1667.5
497.963	1864.5
498.181	1933.5
498.398	1841.5
498.615	1826.5
498.832	1739.5
499.049	1771.5
499.267	1750.5
499.484	1867.5
499.701	2022.5
499.918	2025.5
500.135	2201.5
500.352	2309.5
500.569	2327.5
500.786	2511.5
501.003	2298.5
501.22	2080.5
501.437	2074.5
501.654	2052.5
501.871	1953.5
502.088	1754.5
502.305	1756.5
502.522	1724.5
502.739	1566.5
502.956	1596.5
503.172	1542.5
503.389	1476.5
503.606	1456.5
503.823	1443.5
504.04	1461.5
504.256	1465.5
504.473	1473.5
504.69	1476.5
504.907	1454.5
505.123	1394.5
505.34	1557.5
505.557	1952.5
505.773	1624.5
505.99	1382.5
506.207	1309.5
506.423	1299.5
506.64	1259.5
506.856	1313.5
507.073	1474.5
507.289	1530.5
507.506	1465.5
507.722	1301.5
507.939	1227.5
508.155	1217.5
508.372	1246.5
508.588	1190.5
508.805	1172.5
509.021	1166.5
509.238	1153.5
509.454	1121.5
509.67	1155.5
509.887	1081.5
510.103	1114.5
510.319	1150.5
510.536	1185.5
510.752	1203.5
510.968	1150.5
511.184	1255.5
511.401	1215.5
511.617	1141.5
511.833	1077.5
512.049	1087.5
512.265	1098.5
512.481	1097.5
512.698	1149.5
512.914	1219.5
513.13	1127.5
513.346	1128.5
513.562	1093.5
513.778	1100.5
513.994	1142.5
514.21	1160.5
514.426	1211.5
514.642	1294.5
514.858	1203.5
515.074	1141.5
515.29	1121.5
515.506	1145.5
515.721	1151.5
515.937	1191.5
516.153	1270.5
516.369	1212.5
516.585	1165.5
516.801	1139.5
517.016	1171.5
517.232	1209.5
517.448	1219.5
517.664	1213.5
517.879	1238.5
518.095	1244.5
518.311	1184.5
518.527	1151.5
518.742	1151.5
518.958	1137.5
519.173	1140.5
519.389	1132.5
519.605	1147.5
519.82	1154.5
520.036	1153.5
520.251	1101.5
520.467	1118.5
520.682	1242.5
520.898	1231.5
521.113	1094.5
521.329	1123.5
521.544	1192.5
521.76	1104.5
521.975	1077.5
522.19	1074.5
522.406	1110.5
522.621	1393.5
522.836	1287.5
523.052	1087.5
523.267	1074.5
523.482	1081.5
523.698	1064.5
523.913	1041.5
524.128	1081.5
524.343	1123.5
524.559	1142.5
524.774	1067.5
524.989	1073.5
525.204	1043.5
525.419	1036.5
525.634	1046.5
525.849	1043.5
526.064	1055.5
526.28	1061.5
526.495	993.5
526.71	980.5
526.925	986.5
527.14	989.5
527.355	964.5
527.57	950.5
527.785	1011.5
527.999	964.5
528.214	999.5
528.429	959.5
528.644	996.5
528.859	1053.5
529.074	1061.5
529.289	1108.5
529.503	1113.5
529.718	1037.5
529.933	1010.5
530.148	979.5
530.363	981.5
530.577	933.5
530.792	980.5
531.007	975.5
531.221	960.5
531.436	973.5
531.651	1024.5
531.865	1044.5
532.08	1012.5
532.295	966.5
532.509	934.5
532.724	961.5
532.938	985.5
533.153	1070.5
533.367	1009.5
533.582	1025.5
533.796	1006.5
534.011	1002.5
534.225	998.5
534.44	977.5
534.654	966.5
534.868	949.5
535.083	1023.5
535.297	1046.5
535.511	1002.5
535.726	987.5
535.94	990.5
536.154	988.5
536.369	947.5
536.583	953.5
536.797	953.5
537.011	932.5
537.225	913.5
537.44	889.5
537.654	959.5
537.868	954.5
538.082	919.5
538.296	888.5
538.51	918.5
538.724	929.5
538.938	948.5
539.153	967.5
539.367	977.5
539.581	929.5
539.795	1003.5
540.009	949.5
540.222	941.5
540.436	945.5
540.65	1041.5
540.864	1063.5
541.078	1031.5
541.292	1031.5
541.506	1047.5
541.72	1087.5
541.934	1127.5
542.147	1179.5
542.361	1114.5
542.575	1060.5
542.789	997.5
543.002	958.5
543.216	940.5
543.43	1038.5
543.644	1055.5
543.857	1109.5
544.071	1077.5
544.285	1081.5
544.498	1066.5
544.712	1089.5
544.925	1080.5
545.139	1114.5
545.352	1091.5
545.566	1046.5
545.779	1044.5
545.993	1057.5
546.206	1073.5
546.42	1053.5
546.633	1037.5
546.847	1048.5
547.06	1076.5
547.274	1064.5
547.487	1097.5
547.7	1074.5
547.914	1057.5
548.127	1126.5
548.34	1077.5
548.554	1042.5
548.767	1057.5
548.98	1067.5
549.193	1063.5
549.407	1102.5
549.62	1115.5
549.833	1025.5
550.046	1006.5
550.259	1023.5
550.473	1025.5
550.686	1027.5
550.899	995.5
551.112	979.5
551.325	974.5
551.538	1037.5
551.751	1107.5
551.964	935.5
552.177	894.5
552.39	966.5
552.603	986.5
552.816	985.5
553.029	1072.5
553.242	1080.5
553.455	1049.5
553.667	1026.5
553.88	1011.5
554.093	1028.5
554.306	1017.5
554.519	966.5
554.732	935.5
554.944	945.5
555.157	964.5
555.37	953.5
555.583	949.5
555.795	905.5
556.008	901.5
556.221	855.5
556.433	863.5
556.646	857.5
556.859	855.5
557.071	871.5
557.284	882.5
557.496	875.5
557.709	859.5
557.921	860.5
558.134	866.5
558.346	868.5
558.559	863.5
558.771	842.5
558.984	820.5
559.196	814.5
559.409	806.5
559.621	791.5
559.833	815.5
560.046	842.5
560.258	803.5
560.47	795.5
560.683	841.5
560.895	820.5
561.107	820.5
561.32	824.5
561.532	804.5
561.744	823.5
561.956	792.5
562.168	801.5
562.381	789.5
562.593	807.5
562.805	765.5
563.017	762.5
563.229	806.5
563.441	783.5
563.653	768.5
563.865	749.5
564.077	768.5
564.289	774.5
564.501	795.5
564.713	813.5
564.925	798.5
565.137	861.5
565.349	814.5
565.561	804.5
565.773	805.5
565.985	825.5
566.197	853.5
566.408	885.5
566.62	893.5
566.832	902.5
567.044	874.5
567.255	891.5
567.467	885.5
567.679	929.5
567.891	912.5
568.102	892.5
568.314	853.5
568.526	804.5
568.737	763.5
568.949	724.5
569.161	704.5
569.372	679.5
569.584	661.5
569.795	695.5
570.007	677.5
570.218	650.5
570.43	636.5
570.641	684.5
570.853	650.5
571.064	650.5
571.276	670.5
571.487	655.5
571.698	661.5
571.91	648.5
572.121	631.5
572.333	623.5
572.544	587.5
572.755	577.5
572.966	587.5
573.178	579.5
573.389	584.5
573.6	599.5
573.811	645.5
574.023	579.5
574.234	563.5
574.445	571.5
574.656	551.5
574.867	566.5
575.078	542.5
575.289	537.5
575.501	548.5
575.712	558.5
575.923	562.5
576.134	566.5
576.345	530.5
576.556	546.5
576.767	549.5
576.978	555.5
577.188	547.5
577.399	527.5
577.61	514.5
577.821	518.5
578.032	500.5
578.243	517.5
578.454	512.5
578.665	508.5
578.875	502.5
579.086	481.5
579.297	507.5
579.508	506.5
579.718	506.5
579.929	508.5
580.14	485.5
580.35	485.5
580.561	523.5
580.772	558.5
580.982	537.5
581.193	505.5
581.403	497.5
581.614	455.5
581.825	479.5
582.035	480.5
582.246	490.5
582.456	499.5
582.667	489.5
582.877	487.5
583.087	471.5
583.298	459.5
583.508	475.5
583.719	471.5
583.929	475.5
584.139	442.5
584.35	436.5
584.56	449.5
584.77	460.5
584.981	481.5
585.191	465.5
585.401	472.5
585.611	452.5
585.821	457.5
586.032	444.5
586.242	445.5
586.452	436.5
586.662	456.5
586.872	453.5
587.082	450.5
587.292	452.5
587.502	449.5
587.713	452.5
587.923	457.5
588.133	449.5
588.343	470.5
588.553	451.5
588.762	447.5
588.972	417.5
589.182	433.5
589.392	430.5
589.602	448.5
589.812	455.5
590.022	436.5
590.232	416.5
590.441	466.5
590.651	439.5
590.861	435.5
591.071	425.5
591.281	430.5
591.49	430.5
591.7	420.5
591.91	453.5
592.119	439.5
592.329	437.5
592.539	467.5
592.748	461.5
592.958	448.5
593.167	474.5
593.377	457.5
593.587	463.5
593.796	462.5
594.006	432.5
594.215	463.5
594.424	466.5
594.634	461.5
594.843	467.5
595.053	478.5
595.262	443.5
595.472	430.5
595.681	430.5
595.89	437.5
596.1	437.5
596.309	451.5
596.518	423.5
596.727	424.5
596.937	433.5
597.146	405.5
597.355	419.5
597.564	413.5
597.774	412.5
597.983	389.5
598.192	393.5
598.401	373.5
598.61	408.5
598.819	393.5
599.028	404.5
599.237	379.5
599.446	390.5
599.655	379.5
599.864	394.5
600.073	378.5
600.282	388.5
600.491	385.5
600.7	387.5
600.909	385.5
601.118	389.5
601.327	390.5
601.536	420.5
601.745	411.5
601.953	418.5
602.162	423.5
602.371	425.5
602.58	382.5
602.789	434.5
602.997	411.5
603.206	431.5
603.415	401.5
603.623	417.5
603.832	401.5
604.041	409.5
604.249	411.5
604.458	375.5
604.666	375.5
604.875	399.5
605.084	393.5
605.292	384.5
605.501	399.5
605.709	399.5
605.918	407.5
606.126	402.5
606.334	403.5
606.543	418.5
606.751	399.5
606.96	422.5
607.168	411.5
607.376	395.5
607.585	394.5
607.793	403.5
608.001	408.5
608.21	372.5
608.418	406.5
608.626	381.5
608.834	395.5
609.043	388.5
609.251	390.5
609.459	400.5
609.667	420.5
609.875	412.5
610.083	381.5
610.291	431.5
610.499	407.5
610.707	400.5
610.916	378.5
611.124	388.5
611.332	394.5
611.54	381.5
611.748	382.5
611.955	373.5
612.163	366.5
612.371	389.5
612.579	407.5
612.787	391.5
612.995	395.5
613.203	405.5
613.411	384.5
613.618	389.5
613.826	383.5
614.034	400.5
614.242	377.5
614.449	377.5
614.657	398.5
614.865	380.5
615.072	393.5
615.28	368.5
615.488	389.5
615.695	406.5
615.903	401.5
616.111	388.5
616.318	376.5
616.526	377.5
616.733	383.5
616.941	386.5
617.148	375.5
617.356	381.5
617.563	364.5
617.771	354.5
617.978	385.5
618.185	373.5
618.393	375.5
618.6	373.5
618.807	389.5
619.015	378.5
619.222	357.5
619.429	359.5
619.637	360.5
619.844	347.5
620.051	358.5
620.258	337.5
620.466	339.5
620.673	359.5
620.88	342.5
621.087	337.5
621.294	337.5
621.501	328.5
621.708	349.5
621.915	321.5
622.122	360.5
622.329	364.5
622.536	364.5
622.743	353.5
622.95	351.5
623.157	338.5
623.364	330.5
623.571	344.5
623.778	344.5
623.985	351.5
624.192	362.5
624.399	351.5
624.606	334.5
624.812	325.5
625.019	338.5
625.226	333.5
625.433	329.5
625.639	311.5
625.846	314.5
626.053	302.5
626.259	287.5
626.466	301.5
626.673	283.5
626.879	272.5
627.086	292.5
627.293	303.5
627.499	319.5
627.706	310.5
627.912	331.5
628.119	325.5
628.325	319.5
628.532	328.5
628.738	311.5
628.945	334.5
629.151	305.5
629.357	320.5
629.564	301.5
629.77	312.5
629.976	306.5
630.183	281.5
630.389	298.5
630.595	312.5
630.802	315.5
631.008	294.5
631.214	298.5
631.42	307.5
631.627	281.5
631.833	295.5
632.039	272.5
632.245	307.5
632.451	287.5
632.657	293.5
632.863	294.5
633.069	280.5
633.275	277.5
633.481	271.5
633.688	275.5
633.893	261.5
634.099	279.5
634.305	272.5
634.511	266.5
634.717	284.5
634.923	261.5
635.129	265.5
635.335	267.5
635.541	270.5
635.747	276.5
635.952	274.5
636.158	277.5
636.364	285.5
636.57	276.5
636.775	281.5
636.981	268.5
637.187	286.5
637.392	284.5
637.598	275.5
637.804	281.5
638.009	266.5
638.215	286.5
638.421	265.5
638.626	250.5
638.832	287.5
639.037	277.5
639.243	257.5
639.448	256.5
639.654	260.5
639.859	247.5
640.065	252.5
640.27	253.5
640.475	274.5
640.681	261.5
640.886	265.5
641.091	271.5
641.297	263.5
641.502	278.5
641.707	260.5
641.913	250.5
642.118	273.5
642.323	249.5
642.528	259.5
642.733	254.5
642.939	270.5
643.144	253.5
643.349	274.5
643.554	271.5
643.759	267.5
643.964	258.5
644.169	232.5
644.374	257.5
644.579	253.5
644.784	267.5
644.989	255.5
645.194	248.5
645.399	244.5
645.604	243.5
645.809	250.5
646.014	245.5
646.219	239.5
646.423	268.5
646.628	252.5
646.833	261.5
647.038	233.5
647.243	261.5
647.447	237.5
647.652	257.5
647.857	255.5
648.062	263.5
648.266	263.5
648.471	261.5
648.676	271.5
648.88	254.5
649.085	263.5
649.289	247.5
649.494	245.5
649.698	271.5
649.903	242.5
650.107	260.5
650.312	253.5
650.516	246.5
650.721	243.5
650.925	235.5
651.13	244.5
651.334	241.5
651.539	243.5
651.743	245.5
651.947	239.5
652.152	215.5
652.356	222.5
652.56	222.5
652.764	227.5
652.969	228.5
653.173	219.5
653.377	217.5
653.581	226.5
653.785	214.5
653.99	222.5
654.194	227.5
654.398	218.5
654.602	219.5
654.806	225.5
655.01	205.5
655.214	217.5
655.418	236.5
655.622	238.5
655.826	219.5
656.03	215.5
656.234	253.5
656.438	255.5
656.642	259.5
656.846	257.5
657.049	241.5
657.253	220.5
657.457	207.5
657.661	178.5
657.865	177.5
658.068	188.5
658.272	181.5
658.476	170.5
658.68	175.5
658.883	151.5
659.087	139.5
659.291	128.5
659.494	133.5
659.698	141.5
659.901	149.5
660.105	134.5
660.309	127.5
660.512	123.5
660.716	133.5
660.919	125.5
661.123	135.5
661.326	116.5
661.53	93.5
661.733	108.5
661.936	106.5
662.14	110.5
662.343	108.5
662.546	97.5
662.75	89.5
662.953	87.5
663.156	103.5
663.36	110.5
663.563	98.5
663.766	85.5
663.969	81.5
664.173	93.5
664.376	91.5
664.579	85.5
664.782	75.5
664.985	86.5
665.188	87.5
665.391	77.5
665.594	85.5
665.797	85.5
666	83.5
666.203	91.5
666.406	77.5
666.609	89.5
666.812	89.5
667.015	97.5
667.218	89.5
667.421	100.5
667.624	82.5
667.827	77.5
668.03	91.5
668.232	74.5
668.435	75.5
668.638	89.5
668.841	97.5
669.043	80.5
669.246	77.5
669.449	82.5
669.651	81.5
669.854	73.5
670.057	92.5
670.259	84.5
670.462	77.5
670.665	74.5
670.867	82.5
671.07	85.5
671.272	79.5
671.475	85.5
671.677	80.5
671.88	74.5
672.082	86.5
672.284	93.5
672.487	90.5
672.689	79.5
672.892	79.5
