Data from WStandard_LampEnergy10_LIBS07252019.E.O._I.C._HRD10591_15-53-17-927.txt Node
Date: Thu Jul 25 15:53:17 EDT 2019
User: cochatt
Spectrometer: HR+D1059
Trigger mode: 1
Integration Time (sec): 1.000000E-1
Scans to average: 1
Electric dark correction enabled: true
Nonlinearity correction enabled: false
Boxcar width: 0
XAxis mode: Wavelengths
Number of Pixels in Spectrum: 2048
>>>>>Begin Spectral Data<<<<<
223.165	-16.44
223.4	-16.44
223.635	-16.44
223.869	-4.44
224.104	-12.44
224.338	-26.44
224.573	-27.44
224.808	-14.44
225.042	-20.44
225.277	-0.44
225.511	-0.44
225.746	17.56
225.98	7.56
226.215	9.56
226.449	10.56
226.683	18.56
226.918	30.56
227.152	28.56
227.387	18.56
227.621	37.56
227.856	35.56
228.09	47.56
228.324	45.56
228.559	51.56
228.793	87.56
229.027	128.56
229.262	149.56
229.496	150.56
229.73	149.56
229.964	151.56
230.199	173.56
230.433	185.56
230.667	182.56
230.901	178.56
231.136	177.56
231.37	182.56
231.604	170.56
231.838	173.56
232.072	180.56
232.306	181.56
232.541	177.56
232.775	191.56
233.009	208.56
233.243	216.56
233.477	197.56
233.711	198.56
233.945	210.56
234.179	207.56
234.413	205.56
234.647	220.56
234.881	202.56
235.115	214.56
235.349	207.56
235.583	201.56
235.817	207.56
236.051	199.56
236.285	196.56
236.519	228.56
236.753	235.56
236.987	231.56
237.221	225.56
237.455	250.56
237.689	235.56
237.922	222.56
238.156	227.56
238.39	242.56
238.624	230.56
238.858	247.56
239.091	265.56
239.325	273.56
239.559	294.56
239.793	314.56
240.027	314.56
240.26	293.56
240.494	235.56
240.728	216.56
240.961	233.56
241.195	256.56
241.429	263.56
241.662	255.56
241.896	245.56
242.13	259.56
242.363	287.56
242.597	290.56
242.83	279.56
243.064	309.56
243.298	293.56
243.531	297.56
243.765	270.56
243.998	289.56
244.232	261.56
244.465	262.56
244.699	253.56
244.932	300.56
245.166	303.56
245.399	307.56
245.633	299.56
245.866	274.56
246.099	277.56
246.333	298.56
246.566	315.56
246.8	317.56
247.033	333.56
247.266	326.56
247.5	335.56
247.733	338.56
247.966	341.56
248.2	384.56
248.433	377.56
248.666	374.56
248.899	387.56
249.133	445.56
249.366	471.56
249.599	418.56
249.832	372.56
250.066	389.56
250.299	373.56
250.532	373.56
250.765	335.56
250.998	353.56
251.231	349.56
251.465	350.56
251.698	350.56
251.931	358.56
252.164	383.56
252.397	358.56
252.63	371.56
252.863	311.56
253.096	324.56
253.329	362.56
253.562	376.56
253.795	396.56
254.028	379.56
254.261	353.56
254.494	349.56
254.727	340.56
254.96	367.56
255.193	403.56
255.426	434.56
255.659	476.56
255.892	477.56
256.124	403.56
256.357	407.56
256.59	438.56
256.823	427.56
257.056	437.56
257.289	495.56
257.521	521.56
257.754	494.56
257.987	478.56
258.22	495.56
258.452	482.56
258.685	433.56
258.918	399.56
259.151	403.56
259.383	387.56
259.616	383.56
259.849	379.56
260.081	426.56
260.314	477.56
260.547	480.56
260.779	482.56
261.012	443.56
261.244	400.56
261.477	393.56
261.71	413.56
261.942	411.56
262.175	408.56
262.407	424.56
262.64	384.56
262.872	368.56
263.105	371.56
263.337	395.56
263.57	402.56
263.802	379.56
264.035	369.56
264.267	360.56
264.499	343.56
264.732	395.56
264.964	391.56
265.197	396.56
265.429	449.56
265.661	458.56
265.894	498.56
266.126	542.56
266.358	476.56
266.591	468.56
266.823	495.56
267.055	459.56
267.287	449.56
267.52	459.56
267.752	449.56
267.984	458.56
268.216	468.56
268.448	493.56
268.681	475.56
268.913	432.56
269.145	399.56
269.377	434.56
269.609	468.56
269.841	530.56
270.073	590.56
270.306	647.56
270.538	637.56
270.77	562.56
271.002	493.56
271.234	472.56
271.466	498.56
271.698	544.56
271.93	617.56
272.162	631.56
272.394	573.56
272.626	525.56
272.858	472.56
273.09	452.56
273.322	412.56
273.553	413.56
273.785	400.56
274.017	427.56
274.249	468.56
274.481	466.56
274.713	435.56
274.945	416.56
275.176	427.56
275.408	414.56
275.64	415.56
275.872	413.56
276.104	463.56
276.335	495.56
276.567	542.56
276.799	557.56
277.031	503.56
277.262	484.56
277.494	527.56
277.726	546.56
277.957	548.56
278.189	480.56
278.421	461.56
278.652	426.56
278.884	460.56
279.115	435.56
279.347	472.56
279.579	453.56
279.81	440.56
280.042	473.56
280.273	528.56
280.505	530.56
280.736	541.56
280.968	487.56
281.199	454.56
281.431	439.56
281.662	421.56
281.894	454.56
282.125	455.56
282.356	473.56
282.588	464.56
282.819	483.56
283.051	502.56
283.282	518.56
283.513	519.56
283.745	451.56
283.976	439.56
284.207	431.56
284.439	457.56
284.67	457.56
284.901	467.56
285.132	447.56
285.364	451.56
285.595	471.56
285.826	472.56
286.057	444.56
286.288	460.56
286.52	472.56
286.751	518.56
286.982	495.56
287.213	493.56
287.444	441.56
287.675	457.56
287.906	478.56
288.138	517.56
288.369	483.56
288.6	468.56
288.831	463.56
289.062	459.56
289.293	453.56
289.524	471.56
289.755	477.56
289.986	476.56
290.217	436.56
290.448	472.56
290.679	473.56
290.91	471.56
291.141	497.56
291.371	509.56
291.602	501.56
291.833	491.56
292.064	487.56
292.295	503.56
292.526	498.56
292.757	531.56
292.987	499.56
293.218	493.56
293.449	541.56
293.68	571.56
293.91	602.56
294.141	593.56
294.372	569.56
294.603	591.56
294.833	606.56
295.064	554.56
295.295	512.56
295.525	450.56
295.756	457.56
295.987	457.56
296.217	448.56
296.448	458.56
296.679	452.56
296.909	461.56
297.14	456.56
297.37	495.56
297.601	505.56
297.831	548.56
298.062	540.56
298.292	505.56
298.523	474.56
298.753	462.56
298.984	499.56
299.214	511.56
299.445	522.56
299.675	531.56
299.905	508.56
300.136	502.56
300.366	482.56
300.597	466.56
300.827	470.56
301.057	490.56
301.288	523.56
301.518	534.56
301.748	545.56
301.979	576.56
302.209	576.56
302.439	623.56
302.669	618.56
302.9	575.56
303.13	533.56
303.36	549.56
303.59	515.56
303.82	539.56
304.051	526.56
304.281	527.56
304.511	528.56
304.741	562.56
304.971	629.56
305.201	633.56
305.431	567.56
305.661	493.56
305.891	447.56
306.121	481.56
306.352	490.56
306.582	516.56
306.812	563.56
307.042	550.56
307.272	586.56
307.502	622.56
307.731	646.56
307.961	648.56
308.191	621.56
308.421	525.56
308.651	517.56
308.881	525.56
309.111	522.56
309.341	501.56
309.571	518.56
309.8	513.56
310.03	491.56
310.26	506.56
310.49	512.56
310.72	513.56
310.949	536.56
311.179	537.56
311.409	521.56
311.639	519.56
311.868	524.56
312.098	533.56
312.328	519.56
312.557	536.56
312.787	545.56
313.017	531.56
313.246	539.56
313.476	544.56
313.706	545.56
313.935	558.56
314.165	551.56
314.394	577.56
314.624	632.56
314.853	642.56
315.083	667.56
315.312	641.56
315.542	608.56
315.771	559.56
316.001	583.56
316.23	602.56
316.46	600.56
316.689	571.56
316.919	552.56
317.148	544.56
317.377	544.56
317.607	596.56
317.836	672.56
318.065	682.56
318.295	627.56
318.524	612.56
318.753	592.56
318.983	603.56
319.212	576.56
319.441	557.56
319.67	563.56
319.9	573.56
320.129	601.56
320.358	622.56
320.587	629.56
320.816	667.56
321.046	632.56
321.275	600.56
321.504	618.56
321.733	634.56
321.962	631.56
322.191	581.56
322.42	572.56
322.649	554.56
322.878	562.56
323.108	578.56
323.337	601.56
323.566	623.56
323.795	579.56
324.024	599.56
324.253	587.56
324.482	599.56
324.71	561.56
324.939	535.56
325.168	551.56
325.397	570.56
325.626	602.56
325.855	591.56
326.084	573.56
326.313	588.56
326.542	595.56
326.77	619.56
326.999	585.56
327.228	545.56
327.457	543.56
327.686	531.56
327.914	576.56
328.143	541.56
328.372	580.56
328.6	577.56
328.829	542.56
329.058	569.56
329.287	581.56
329.515	595.56
329.744	596.56
329.972	616.56
330.201	631.56
330.43	643.56
330.658	622.56
330.887	607.56
331.115	612.56
331.344	615.56
331.572	615.56
331.801	623.56
332.03	603.56
332.258	633.56
332.486	611.56
332.715	635.56
332.943	607.56
333.172	600.56
333.4	614.56
333.629	644.56
333.857	673.56
334.085	739.56
334.314	841.56
334.542	887.56
334.771	799.56
334.999	722.56
335.227	657.56
335.455	657.56
335.684	674.56
335.912	693.56
336.14	674.56
336.369	611.56
336.597	615.56
336.825	623.56
337.053	631.56
337.281	687.56
337.51	707.56
337.738	718.56
337.966	654.56
338.194	625.56
338.422	621.56
338.65	613.56
338.878	594.56
339.106	597.56
339.334	585.56
339.562	584.56
339.79	614.56
340.018	628.56
340.246	646.56
340.474	644.56
340.702	638.56
340.93	641.56
341.158	636.56
341.386	600.56
341.614	610.56
341.842	602.56
342.07	606.56
342.298	640.56
342.526	588.56
342.754	605.56
342.981	587.56
343.209	599.56
343.437	602.56
343.665	627.56
343.893	671.56
344.12	653.56
344.348	649.56
344.576	626.56
344.804	581.56
345.031	612.56
345.259	615.56
345.487	600.56
345.714	563.56
345.942	571.56
346.17	586.56
346.397	577.56
346.625	598.56
346.853	550.56
347.08	560.56
347.308	573.56
347.535	606.56
347.763	590.56
347.99	591.56
348.218	565.56
348.445	594.56
348.673	572.56
348.9	630.56
349.128	631.56
349.355	626.56
349.583	624.56
349.81	578.56
350.037	579.56
350.265	549.56
350.492	548.56
350.72	574.56
350.947	599.56
351.174	602.56
351.402	559.56
351.629	559.56
351.856	524.56
352.083	535.56
352.311	530.56
352.538	558.56
352.765	589.56
352.992	587.56
353.22	565.56
353.447	565.56
353.674	580.56
353.901	562.56
354.128	568.56
354.355	557.56
354.583	578.56
354.81	595.56
355.037	577.56
355.264	586.56
355.491	600.56
355.718	592.56
355.945	574.56
356.172	569.56
356.399	568.56
356.626	568.56
356.853	622.56
357.08	668.56
357.307	700.56
357.534	687.56
357.761	578.56
357.988	568.56
358.215	550.56
358.441	583.56
358.668	565.56
358.895	583.56
359.122	637.56
359.349	666.56
359.576	612.56
359.802	557.56
360.029	559.56
360.256	578.56
360.483	578.56
360.709	586.56
360.936	612.56
361.163	640.56
361.39	707.56
361.616	746.56
361.843	715.56
362.07	654.56
362.296	588.56
362.523	600.56
362.749	601.56
362.976	609.56
363.203	607.56
363.429	568.56
363.656	564.56
363.882	612.56
364.109	691.56
364.335	675.56
364.562	656.56
364.788	608.56
365.015	574.56
365.241	583.56
365.468	591.56
365.694	632.56
365.92	642.56
366.147	582.56
366.373	580.56
366.599	560.56
366.826	566.56
367.052	572.56
367.278	602.56
367.505	608.56
367.731	625.56
367.957	630.56
368.184	639.56
368.41	682.56
368.636	693.56
368.862	701.56
369.089	678.56
369.315	669.56
369.541	646.56
369.767	604.56
369.993	591.56
370.219	615.56
370.445	641.56
370.672	679.56
370.898	694.56
371.124	661.56
371.35	653.56
371.576	678.56
371.802	681.56
372.028	642.56
372.254	625.56
372.48	615.56
372.706	609.56
372.932	598.56
373.158	617.56
373.384	657.56
373.61	665.56
373.835	679.56
374.061	656.56
374.287	647.56
374.513	643.56
374.739	661.56
374.965	674.56
375.191	664.56
375.416	674.56
375.642	701.56
375.868	725.56
376.094	725.56
376.319	668.56
376.545	668.56
376.771	703.56
376.997	717.56
377.222	703.56
377.448	677.56
377.674	695.56
377.899	694.56
378.125	749.56
378.35	721.56
378.576	643.56
378.802	647.56
379.027	649.56
379.253	640.56
379.478	672.56
379.704	659.56
379.929	663.56
380.155	670.56
380.38	685.56
380.606	681.56
380.831	680.56
381.057	749.56
381.282	744.56
381.507	708.56
381.733	759.56
381.958	754.56
382.184	708.56
382.409	681.56
382.634	690.56
382.86	691.56
383.085	702.56
383.31	733.56
383.535	801.56
383.761	840.56
383.986	760.56
384.211	734.56
384.436	742.56
384.662	779.56
384.887	790.56
385.112	785.56
385.337	771.56
385.562	738.56
385.787	773.56
386.013	787.56
386.238	778.56
386.463	762.56
386.688	853.56
386.913	870.56
387.138	808.56
387.363	806.56
387.588	789.56
387.813	782.56
388.038	798.56
388.263	810.56
388.488	763.56
388.713	724.56
388.938	758.56
389.163	737.56
389.387	755.56
389.612	764.56
389.837	781.56
390.062	776.56
390.287	777.56
390.512	774.56
390.736	759.56
390.961	738.56
391.186	728.56
391.411	754.56
391.636	781.56
391.86	754.56
392.085	762.56
392.31	773.56
392.534	772.56
392.759	795.56
392.984	793.56
393.208	795.56
393.433	818.56
393.658	852.56
393.882	841.56
394.107	793.56
394.331	772.56
394.556	803.56
394.78	795.56
395.005	849.56
395.229	848.56
395.454	885.56
395.678	872.56
395.903	832.56
396.127	818.56
396.352	857.56
396.576	861.56
396.801	886.56
397.025	881.56
397.249	881.56
397.474	833.56
397.698	856.56
397.922	870.56
398.147	927.56
398.371	941.56
398.595	878.56
398.82	883.56
399.044	907.56
399.268	936.56
399.492	994.56
399.717	1012.56
399.941	1019.56
400.165	1022.56
400.389	991.56
400.613	1001.56
400.837	1117.56
401.062	1201.56
401.286	1053.56
401.51	1015.56
401.734	986.56
401.958	991.56
402.182	912.56
402.406	887.56
402.63	890.56
402.854	932.56
403.078	917.56
403.302	948.56
403.526	941.56
403.75	937.56
403.974	958.56
404.198	954.56
404.422	1030.56
404.645	1036.56
404.869	983.56
405.093	907.56
405.317	912.56
405.541	972.56
405.765	966.56
405.988	951.56
406.212	954.56
406.436	990.56
406.66	1010.56
406.883	1043.56
407.107	1150.56
407.331	1247.56
407.555	1288.56
407.778	1147.56
408.002	1000.56
408.226	1017.56
408.449	1002.56
408.673	983.56
408.896	974.56
409.12	978.56
409.344	961.56
409.567	936.56
409.791	994.56
410.014	989.56
410.238	1034.56
410.461	1068.56
410.685	974.56
410.908	949.56
411.132	989.56
411.355	942.56
411.578	942.56
411.802	955.56
412.025	995.56
412.249	943.56
412.472	922.56
412.695	936.56
412.919	929.56
413.142	929.56
413.365	946.56
413.589	964.56
413.812	1029.56
414.035	1050.56
414.258	951.56
414.482	969.56
414.705	958.56
414.928	933.56
415.151	953.56
415.374	954.56
415.597	983.56
415.821	962.56
416.044	964.56
416.267	949.56
416.49	908.56
416.713	934.56
416.936	985.56
417.159	991.56
417.382	1006.56
417.605	945.56
417.828	970.56
418.051	949.56
418.274	947.56
418.497	929.56
418.72	941.56
418.943	964.56
419.166	981.56
419.389	1015.56
419.611	962.56
419.834	965.56
420.057	971.56
420.28	953.56
420.503	986.56
420.726	965.56
420.948	972.56
421.171	931.56
421.394	988.56
421.617	1002.56
421.839	1021.56
422.062	991.56
422.285	943.56
422.507	963.56
422.73	903.56
422.953	895.56
423.175	914.56
423.398	966.56
423.621	934.56
423.843	925.56
424.066	983.56
424.288	1029.56
424.511	1060.56
424.733	1033.56
424.956	941.56
425.178	987.56
425.401	956.56
425.623	982.56
425.846	953.56
426.068	984.56
426.291	998.56
426.513	998.56
426.735	997.56
426.958	1080.56
427.18	1047.56
427.402	1033.56
427.625	1057.56
427.847	983.56
428.069	958.56
428.292	899.56
428.514	921.56
428.736	902.56
428.958	936.56
429.181	950.56
429.403	1064.56
429.625	1240.56
429.847	1060.56
430.069	956.56
430.292	1070.56
430.514	1077.56
430.736	1021.56
430.958	981.56
431.18	950.56
431.402	886.56
431.624	876.56
431.846	834.56
432.068	765.56
432.29	729.56
432.512	835.56
432.734	900.56
432.956	961.56
433.178	993.56
433.4	977.56
433.622	994.56
433.844	945.56
434.066	878.56
434.287	814.56
434.509	802.56
434.731	873.56
434.953	915.56
435.175	957.56
435.397	938.56
435.618	930.56
435.84	854.56
436.062	849.56
436.284	912.56
436.505	953.56
436.727	971.56
436.949	919.56
437.17	911.56
437.392	913.56
437.614	878.56
437.835	825.56
438.057	829.56
438.278	855.56
438.5	900.56
438.721	903.56
438.943	975.56
439.165	956.56
439.386	953.56
439.608	954.56
439.829	953.56
440.05	984.56
440.272	991.56
440.493	977.56
440.715	997.56
440.936	1041.56
441.158	1097.56
441.379	1062.56
441.6	1061.56
441.822	1087.56
442.043	1025.56
442.264	994.56
442.486	963.56
442.707	975.56
442.928	987.56
443.149	1026.56
443.371	1033.56
443.592	1032.56
443.813	1051.56
444.034	1061.56
444.255	1027.56
444.476	1085.56
444.698	1067.56
444.919	1062.56
445.14	1161.56
445.361	1105.56
445.582	1105.56
445.803	1072.56
446.024	1084.56
446.245	1106.56
446.466	1086.56
446.687	1080.56
446.908	1073.56
447.129	1041.56
447.35	1055.56
447.571	1051.56
447.792	997.56
448.013	981.56
448.234	960.56
448.455	1002.56
448.675	1018.56
448.896	935.56
449.117	919.56
449.338	951.56
449.559	997.56
449.779	994.56
450	1085.56
450.221	1079.56
450.442	1045.56
450.662	961.56
450.883	923.56
451.104	897.56
451.324	903.56
451.545	926.56
451.766	899.56
451.986	857.56
452.207	842.56
452.428	825.56
452.648	811.56
452.869	786.56
453.089	824.56
453.31	791.56
453.53	785.56
453.751	740.56
453.971	708.56
454.192	736.56
454.412	803.56
454.633	830.56
454.853	822.56
455.073	786.56
455.294	768.56
455.514	795.56
455.734	802.56
455.955	771.56
456.175	760.56
456.395	749.56
456.616	730.56
456.836	794.56
457.056	728.56
457.276	749.56
457.497	721.56
457.717	697.56
457.937	712.56
458.157	707.56
458.377	692.56
458.598	693.56
458.818	673.56
459.038	738.56
459.258	746.56
459.478	733.56
459.698	722.56
459.918	769.56
460.138	839.56
460.358	841.56
460.578	855.56
460.798	854.56
461.018	913.56
461.238	904.56
461.458	886.56
461.678	846.56
461.898	861.56
462.118	833.56
462.338	863.56
462.558	847.56
462.777	853.56
462.997	909.56
463.217	928.56
463.437	869.56
463.657	868.56
463.876	853.56
464.096	836.56
464.316	852.56
464.536	904.56
464.755	901.56
464.975	896.56
465.195	882.56
465.414	899.56
465.634	896.56
465.854	923.56
466.073	976.56
466.293	954.56
466.512	907.56
466.732	913.56
466.951	895.56
467.171	914.56
467.391	877.56
467.61	902.56
467.829	931.56
468.049	1011.56
468.268	1091.56
468.488	1001.56
468.707	954.56
468.927	921.56
469.146	955.56
469.365	951.56
469.585	952.56
469.804	914.56
470.023	989.56
470.243	969.56
470.462	961.56
470.681	902.56
470.901	920.56
471.12	945.56
471.339	937.56
471.558	961.56
471.777	922.56
471.997	919.56
472.216	896.56
472.435	797.56
472.654	781.56
472.873	791.56
473.092	887.56
473.311	854.56
473.53	825.56
473.749	842.56
473.968	858.56
474.187	895.56
474.406	869.56
474.625	915.56
474.844	886.56
475.063	891.56
475.282	864.56
475.501	841.56
475.72	858.56
475.939	927.56
476.158	928.56
476.377	897.56
476.596	875.56
476.814	847.56
477.033	869.56
477.252	872.56
477.471	908.56
477.69	949.56
477.908	945.56
478.127	1042.56
478.346	1050.56
478.564	1060.56
478.783	1017.56
479.002	1073.56
479.22	1056.56
479.439	1041.56
479.658	1077.56
479.876	1032.56
480.095	924.56
480.313	926.56
480.532	894.56
480.751	861.56
480.969	855.56
481.188	783.56
481.406	787.56
481.624	818.56
481.843	833.56
482.061	852.56
482.28	897.56
482.498	933.56
482.717	879.56
482.935	950.56
483.153	1017.56
483.372	1063.56
483.59	1052.56
483.808	998.56
484.027	957.56
484.245	1039.56
484.463	1263.56
484.681	1320.56
484.9	1058.56
485.118	993.56
485.336	964.56
485.554	952.56
485.772	913.56
485.99	907.56
486.209	913.56
486.427	937.56
486.645	986.56
486.863	1024.56
487.081	1087.56
487.299	1073.56
487.517	1041.56
487.735	1141.56
487.953	1187.56
488.171	1214.56
488.389	1167.56
488.607	1131.56
488.825	1227.56
489.043	1109.56
489.261	1005.56
489.479	1079.56
489.696	1055.56
489.914	1069.56
490.132	1063.56
490.35	1085.56
490.568	1199.56
490.786	1238.56
491.003	1199.56
491.221	1309.56
491.439	1331.56
491.657	1343.56
491.874	1402.56
492.092	1479.56
492.31	1542.56
492.527	1502.56
492.745	1414.56
492.963	1349.56
493.18	1341.56
493.398	1390.56
493.615	1374.56
493.833	1302.56
494.05	1258.56
494.268	1272.56
494.485	1279.56
494.703	1261.56
494.92	1253.56
495.138	1257.56
495.355	1240.56
495.573	1313.56
495.79	1335.56
496.008	1329.56
496.225	1276.56
496.442	1267.56
496.66	1262.56
496.877	1252.56
497.094	1279.56
497.312	1294.56
497.529	1237.56
497.746	1234.56
497.963	1329.56
498.181	1355.56
498.398	1295.56
498.615	1275.56
498.832	1205.56
499.049	1194.56
499.267	1209.56
499.484	1249.56
499.701	1373.56
499.918	1385.56
500.135	1498.56
500.352	1581.56
500.569	1655.56
500.786	1721.56
501.003	1630.56
501.22	1471.56
501.437	1451.56
501.654	1461.56
501.871	1381.56
502.088	1225.56
502.305	1235.56
502.522	1155.56
502.739	1125.56
502.956	1127.56
503.172	1069.56
503.389	1018.56
503.606	1049.56
503.823	1041.56
504.04	1011.56
504.256	1034.56
504.473	1018.56
504.69	1046.56
504.907	1034.56
505.123	1007.56
505.34	1109.56
505.557	1409.56
505.773	1145.56
505.99	963.56
506.207	929.56
506.423	933.56
506.64	910.56
506.856	929.56
507.073	1091.56
507.289	1108.56
507.506	1061.56
507.722	929.56
507.939	901.56
508.155	872.56
508.372	888.56
508.588	853.56
508.805	803.56
509.021	817.56
509.238	794.56
509.454	793.56
509.67	758.56
509.887	749.56
510.103	744.56
510.319	771.56
510.536	803.56
510.752	816.56
510.968	775.56
511.184	823.56
511.401	806.56
511.617	756.56
511.833	713.56
512.049	716.56
512.265	737.56
512.481	744.56
512.698	777.56
512.914	803.56
513.13	790.56
513.346	743.56
513.562	726.56
513.778	719.56
513.994	768.56
514.21	793.56
514.426	780.56
514.642	831.56
514.858	805.56
515.074	755.56
515.29	729.56
515.506	744.56
515.721	771.56
515.937	774.56
516.153	827.56
516.369	831.56
516.585	741.56
516.801	737.56
517.016	762.56
517.232	793.56
517.448	830.56
517.664	811.56
517.879	805.56
518.095	841.56
518.311	790.56
518.527	767.56
518.742	766.56
518.958	760.56
519.173	790.56
519.389	803.56
519.605	816.56
519.82	834.56
520.036	806.56
520.251	782.56
520.467	805.56
520.682	836.56
520.898	809.56
521.113	728.56
521.329	726.56
521.544	779.56
521.76	753.56
521.975	744.56
522.19	735.56
522.406	767.56
522.621	956.56
522.836	908.56
523.052	759.56
523.267	761.56
523.482	805.56
523.698	745.56
523.913	745.56
524.128	772.56
524.343	827.56
524.559	842.56
524.774	815.56
524.989	805.56
525.204	799.56
525.419	753.56
525.634	754.56
525.849	742.56
526.064	769.56
526.28	737.56
526.495	704.56
526.71	656.56
526.925	655.56
527.14	659.56
527.355	655.56
527.57	655.56
527.785	695.56
527.999	674.56
528.214	695.56
528.429	721.56
528.644	784.56
528.859	828.56
529.074	863.56
529.289	907.56
529.503	899.56
529.718	831.56
529.933	770.56
530.148	697.56
530.363	641.56
530.577	669.56
530.792	672.56
531.007	658.56
531.221	664.56
531.436	642.56
531.651	659.56
531.865	685.56
532.08	667.56
532.295	629.56
532.509	625.56
532.724	624.56
532.938	671.56
533.153	726.56
533.367	754.56
533.582	754.56
533.796	758.56
534.011	729.56
534.225	681.56
534.44	660.56
534.654	653.56
534.868	654.56
535.083	705.56
535.297	733.56
535.511	718.56
535.726	707.56
535.94	694.56
536.154	664.56
536.369	654.56
536.583	621.56
536.797	610.56
537.011	637.56
537.225	613.56
537.44	641.56
537.654	648.56
537.868	642.56
538.082	606.56
538.296	613.56
538.51	650.56
538.724	689.56
538.938	735.56
539.153	760.56
539.367	760.56
539.581	717.56
539.795	695.56
540.009	670.56
540.222	645.56
540.436	679.56
540.65	775.56
540.864	822.56
541.078	851.56
541.292	852.56
541.506	922.56
541.72	985.56
541.934	1061.56
542.147	1094.56
542.361	1049.56
542.575	944.56
542.789	871.56
543.002	788.56
543.216	783.56
543.43	802.56
543.644	838.56
543.857	892.56
544.071	928.56
544.285	972.56
544.498	955.56
544.712	945.56
544.925	963.56
545.139	958.56
545.352	977.56
545.566	958.56
545.779	962.56
545.993	989.56
546.206	1007.56
546.42	976.56
546.633	976.56
546.847	976.56
547.06	966.56
547.274	983.56
547.487	993.56
547.7	1044.56
547.914	979.56
548.127	999.56
548.34	984.56
548.554	961.56
548.767	949.56
548.98	968.56
549.193	965.56
549.407	998.56
549.62	983.56
549.833	938.56
550.046	911.56
550.259	909.56
550.473	917.56
550.686	908.56
550.899	891.56
551.112	855.56
551.325	865.56
551.538	912.56
551.751	885.56
551.964	740.56
552.177	744.56
552.39	804.56
552.603	873.56
552.816	888.56
553.029	930.56
553.242	945.56
553.455	959.56
553.667	963.56
553.88	943.56
554.093	890.56
554.306	880.56
554.519	850.56
554.732	844.56
554.944	842.56
555.157	845.56
555.37	839.56
555.583	832.56
555.795	775.56
556.008	774.56
556.221	752.56
556.433	740.56
556.646	751.56
556.859	750.56
557.071	756.56
557.284	746.56
557.496	765.56
557.709	723.56
557.921	757.56
558.134	774.56
558.346	748.56
558.559	736.56
558.771	728.56
558.984	705.56
559.196	692.56
559.409	703.56
559.621	685.56
559.833	688.56
560.046	692.56
560.258	703.56
560.47	699.56
560.683	703.56
560.895	704.56
561.107	702.56
561.32	697.56
561.532	695.56
561.744	692.56
561.956	683.56
562.168	655.56
562.381	636.56
562.593	683.56
562.805	685.56
563.017	679.56
563.229	657.56
563.441	650.56
563.653	629.56
563.865	638.56
564.077	643.56
564.289	638.56
564.501	646.56
564.713	657.56
564.925	681.56
565.137	672.56
565.349	632.56
565.561	627.56
565.773	632.56
565.985	652.56
566.197	646.56
566.408	713.56
566.62	698.56
566.832	672.56
567.044	698.56
567.255	665.56
567.467	666.56
567.679	656.56
567.891	694.56
568.102	631.56
568.314	581.56
568.526	542.56
568.737	527.56
568.949	511.56
569.161	469.56
569.372	467.56
569.584	449.56
569.795	511.56
570.007	469.56
570.218	444.56
570.43	445.56
570.641	470.56
570.853	463.56
571.064	488.56
571.276	493.56
571.487	505.56
571.698	488.56
571.91	493.56
572.121	467.56
572.333	466.56
572.544	457.56
572.755	441.56
572.966	420.56
573.178	401.56
573.389	403.56
573.6	410.56
573.811	452.56
574.023	414.56
574.234	395.56
574.445	383.56
574.656	398.56
574.867	407.56
575.078	429.56
575.289	410.56
575.501	391.56
575.712	398.56
575.923	401.56
576.134	411.56
576.345	407.56
576.556	403.56
576.767	438.56
576.978	389.56
577.188	395.56
577.399	389.56
577.61	390.56
577.821	381.56
578.032	380.56
578.243	385.56
578.454	375.56
578.665	365.56
578.875	360.56
579.086	337.56
579.297	356.56
579.508	363.56
579.718	342.56
579.929	356.56
580.14	354.56
580.35	330.56
580.561	365.56
580.772	411.56
580.982	375.56
581.193	359.56
581.403	353.56
581.614	351.56
581.825	350.56
582.035	362.56
582.246	347.56
582.456	378.56
582.667	349.56
582.877	337.56
583.087	342.56
583.298	343.56
583.508	324.56
583.719	343.56
583.929	315.56
584.139	350.56
584.35	327.56
584.56	342.56
584.77	335.56
584.981	339.56
585.191	345.56
585.401	341.56
585.611	350.56
585.821	347.56
586.032	348.56
586.242	340.56
586.452	303.56
586.662	334.56
586.872	319.56
587.082	336.56
587.292	324.56
587.502	334.56
587.713	327.56
587.923	307.56
588.133	321.56
588.343	334.56
588.553	314.56
588.762	331.56
588.972	328.56
589.182	331.56
589.392	325.56
589.602	323.56
589.812	320.56
590.022	311.56
590.232	321.56
590.441	321.56
590.651	326.56
590.861	306.56
591.071	310.56
591.281	326.56
591.49	306.56
591.7	333.56
591.91	318.56
592.119	307.56
592.329	323.56
592.539	331.56
592.748	339.56
592.958	329.56
593.167	321.56
593.377	336.56
593.587	349.56
593.796	328.56
594.006	322.56
594.215	336.56
594.424	344.56
594.634	331.56
594.843	358.56
595.053	354.56
595.262	338.56
595.472	326.56
595.681	313.56
595.89	326.56
596.1	330.56
596.309	316.56
596.518	330.56
596.727	328.56
596.937	343.56
597.146	299.56
597.355	326.56
597.564	320.56
597.774	303.56
597.983	276.56
598.192	298.56
598.401	301.56
598.61	283.56
598.819	298.56
599.028	318.56
599.237	305.56
599.446	310.56
599.655	298.56
599.864	322.56
600.073	295.56
600.282	308.56
600.491	281.56
600.7	290.56
600.909	291.56
601.118	325.56
601.327	325.56
601.536	342.56
601.745	347.56
601.953	354.56
602.162	364.56
602.371	378.56
602.58	358.56
602.789	349.56
602.997	350.56
603.206	345.56
603.415	335.56
603.623	361.56
603.832	334.56
604.041	353.56
604.249	329.56
604.458	324.56
604.666	297.56
604.875	323.56
605.084	318.56
605.292	334.56
605.501	348.56
605.709	361.56
605.918	360.56
606.126	369.56
606.334	382.56
606.543	361.56
606.751	371.56
606.96	379.56
607.168	374.56
607.376	348.56
607.585	351.56
607.793	362.56
608.001	361.56
608.21	376.56
608.418	385.56
608.626	339.56
608.834	365.56
609.043	353.56
609.251	348.56
609.459	350.56
609.667	376.56
609.875	380.56
610.083	384.56
610.291	380.56
610.499	371.56
610.707	381.56
610.916	372.56
611.124	362.56
611.332	367.56
611.54	377.56
611.748	372.56
611.955	378.56
612.163	355.56
612.371	359.56
612.579	362.56
612.787	366.56
612.995	365.56
613.203	376.56
613.411	344.56
613.618	357.56
613.826	370.56
614.034	366.56
614.242	350.56
614.449	343.56
614.657	360.56
614.865	374.56
615.072	338.56
615.28	355.56
615.488	359.56
615.695	363.56
615.903	372.56
616.111	355.56
616.318	356.56
616.526	361.56
616.733	369.56
616.941	369.56
617.148	372.56
617.356	359.56
617.563	347.56
617.771	341.56
617.978	329.56
618.185	352.56
618.393	359.56
618.6	356.56
618.807	383.56
619.015	371.56
619.222	356.56
619.429	326.56
619.637	310.56
619.844	309.56
620.051	308.56
620.258	311.56
620.466	333.56
620.673	340.56
620.88	308.56
621.087	311.56
621.294	310.56
621.501	307.56
621.708	295.56
621.915	328.56
622.122	329.56
622.329	338.56
622.536	330.56
622.743	339.56
622.95	304.56
623.157	332.56
623.364	315.56
623.571	322.56
623.778	338.56
623.985	342.56
624.192	336.56
624.399	327.56
624.606	326.56
624.812	294.56
625.019	283.56
625.226	303.56
625.433	323.56
625.639	304.56
625.846	268.56
626.053	268.56
626.259	264.56
626.466	256.56
626.673	246.56
626.879	230.56
627.086	262.56
627.293	268.56
627.499	287.56
627.706	283.56
627.912	309.56
628.119	314.56
628.325	309.56
628.532	305.56
628.738	303.56
628.945	289.56
629.151	271.56
629.357	291.56
629.564	274.56
629.77	297.56
629.976	285.56
630.183	260.56
630.389	267.56
630.595	274.56
630.802	283.56
631.008	301.56
631.214	276.56
631.42	281.56
631.627	273.56
631.833	268.56
632.039	265.56
632.245	269.56
632.451	273.56
632.657	272.56
632.863	274.56
633.069	267.56
633.275	271.56
633.481	266.56
633.688	252.56
633.893	243.56
634.099	271.56
634.305	272.56
634.511	253.56
634.717	259.56
634.923	244.56
635.129	249.56
635.335	239.56
635.541	224.56
635.747	257.56
635.952	267.56
636.158	259.56
636.364	259.56
636.57	257.56
636.775	275.56
636.981	281.56
637.187	276.56
637.392	273.56
637.598	259.56
637.804	261.56
638.009	273.56
638.215	257.56
638.421	245.56
638.626	265.56
638.832	267.56
639.037	253.56
639.243	262.56
639.448	258.56
639.654	258.56
639.859	248.56
640.065	229.56
640.27	241.56
640.475	241.56
640.681	247.56
640.886	267.56
641.091	265.56
641.297	246.56
641.502	261.56
641.707	239.56
641.913	258.56
642.118	248.56
642.323	239.56
642.528	249.56
642.733	250.56
642.939	253.56
643.144	262.56
643.349	229.56
643.554	241.56
643.759	238.56
643.964	235.56
644.169	246.56
644.374	251.56
644.579	246.56
644.784	267.56
644.989	250.56
645.194	251.56
645.399	251.56
645.604	238.56
645.809	273.56
646.014	249.56
646.219	240.56
646.423	242.56
646.628	251.56
646.833	257.56
647.038	253.56
647.243	254.56
647.447	252.56
647.652	242.56
647.857	253.56
648.062	242.56
648.266	237.56
648.471	232.56
648.676	253.56
648.88	240.56
649.085	242.56
649.289	239.56
649.494	237.56
649.698	219.56
649.903	240.56
650.107	237.56
650.312	244.56
650.516	222.56
650.721	239.56
650.925	232.56
651.13	232.56
651.334	223.56
651.539	219.56
651.743	227.56
651.947	207.56
652.152	220.56
652.356	206.56
652.56	215.56
652.764	219.56
652.969	220.56
653.173	205.56
653.377	214.56
653.581	219.56
653.785	217.56
653.99	226.56
654.194	200.56
654.398	208.56
654.602	200.56
654.806	198.56
655.01	208.56
655.214	209.56
655.418	215.56
655.622	207.56
655.826	232.56
656.03	226.56
656.234	226.56
656.438	226.56
656.642	225.56
656.846	234.56
657.049	224.56
657.253	201.56
657.457	197.56
657.661	182.56
657.865	162.56
658.068	165.56
658.272	142.56
658.476	154.56
658.68	150.56
658.883	136.56
659.087	136.56
659.291	129.56
659.494	134.56
659.698	145.56
659.901	125.56
660.105	138.56
660.309	121.56
660.512	123.56
660.716	120.56
660.919	123.56
661.123	125.56
661.326	111.56
661.53	109.56
661.733	112.56
661.936	95.56
662.14	94.56
662.343	96.56
662.546	91.56
662.75	102.56
662.953	102.56
663.156	83.56
663.36	87.56
663.563	66.56
663.766	87.56
663.969	78.56
664.173	102.56
664.376	90.56
664.579	93.56
664.782	85.56
664.985	79.56
665.188	65.56
665.391	87.56
665.594	69.56
665.797	81.56
666	79.56
666.203	89.56
666.406	86.56
666.609	87.56
666.812	75.56
667.015	83.56
667.218	98.56
667.421	71.56
667.624	79.56
667.827	78.56
668.03	86.56
668.232	87.56
668.435	71.56
668.638	85.56
668.841	76.56
669.043	96.56
669.246	82.56
669.449	91.56
669.651	89.56
669.854	84.56
670.057	84.56
670.259	84.56
670.462	89.56
670.665	82.56
670.867	70.56
671.07	81.56
671.272	72.56
671.475	74.56
671.677	79.56
671.88	96.56
672.082	90.56
672.284	82.56
672.487	62.56
672.689	62.56
672.892	86.56
