Data from WStandard_LampEnergy10_LIBS07252019.E.O._I.C._HRD10591_15-55-08-929.txt Node
Date: Thu Jul 25 15:55:08 EDT 2019
User: cochatt
Spectrometer: HR+D1059
Trigger mode: 1
Integration Time (sec): 1.000000E-1
Scans to average: 1
Electric dark correction enabled: true
Nonlinearity correction enabled: false
Boxcar width: 0
XAxis mode: Wavelengths
Number of Pixels in Spectrum: 2048
>>>>>Begin Spectral Data<<<<<
223.165	-18.5
223.4	-18.5
223.635	-18.5
223.869	-4.5
224.104	-29.5
224.338	-1.5
224.573	-21.5
224.808	-11.5
225.042	-17.5
225.277	-8.5
225.511	-7.5
225.746	10.5
225.98	-1.5
226.215	20.5
226.449	16.5
226.683	23.5
226.918	27.5
227.152	23.5
227.387	30.5
227.621	31.5
227.856	34.5
228.09	44.5
228.324	46.5
228.559	56.5
228.793	88.5
229.027	127.5
229.262	124.5
229.496	143.5
229.73	154.5
229.964	158.5
230.199	167.5
230.433	160.5
230.667	162.5
230.901	206.5
231.136	180.5
231.37	176.5
231.604	180.5
231.838	162.5
232.072	164.5
232.306	176.5
232.541	179.5
232.775	181.5
233.009	207.5
233.243	205.5
233.477	190.5
233.711	186.5
233.945	208.5
234.179	189.5
234.413	202.5
234.647	217.5
234.881	204.5
235.115	184.5
235.349	201.5
235.583	203.5
235.817	186.5
236.051	187.5
236.285	205.5
236.519	225.5
236.753	216.5
236.987	207.5
237.221	210.5
237.455	212.5
237.689	240.5
237.922	229.5
238.156	203.5
238.39	206.5
238.624	228.5
238.858	235.5
239.091	230.5
239.325	258.5
239.559	301.5
239.793	295.5
240.027	306.5
240.26	291.5
240.494	243.5
240.728	236.5
240.961	222.5
241.195	235.5
241.429	230.5
241.662	251.5
241.896	250.5
242.13	237.5
242.363	263.5
242.597	267.5
242.83	266.5
243.064	284.5
243.298	272.5
243.531	276.5
243.765	290.5
243.998	281.5
244.232	272.5
244.465	253.5
244.699	263.5
244.932	300.5
245.166	310.5
245.399	302.5
245.633	276.5
245.866	281.5
246.099	287.5
246.333	296.5
246.566	305.5
246.8	341.5
247.033	361.5
247.266	321.5
247.5	307.5
247.733	302.5
247.966	326.5
248.2	373.5
248.433	368.5
248.666	359.5
248.899	396.5
249.133	417.5
249.366	466.5
249.599	376.5
249.832	346.5
250.066	370.5
250.299	374.5
250.532	352.5
250.765	313.5
250.998	340.5
251.231	329.5
251.465	366.5
251.698	355.5
251.931	334.5
252.164	366.5
252.397	353.5
252.63	346.5
252.863	316.5
253.096	331.5
253.329	352.5
253.562	337.5
253.795	365.5
254.028	364.5
254.261	330.5
254.494	341.5
254.727	320.5
254.96	343.5
255.193	370.5
255.426	402.5
255.659	443.5
255.892	449.5
256.124	390.5
256.357	386.5
256.59	381.5
256.823	398.5
257.056	421.5
257.289	493.5
257.521	516.5
257.754	458.5
257.987	431.5
258.22	483.5
258.452	438.5
258.685	380.5
258.918	398.5
259.151	376.5
259.383	378.5
259.616	356.5
259.849	369.5
260.081	408.5
260.314	430.5
260.547	474.5
260.779	463.5
261.012	428.5
261.244	399.5
261.477	391.5
261.71	397.5
261.942	391.5
262.175	415.5
262.407	418.5
262.64	384.5
262.872	374.5
263.105	376.5
263.337	380.5
263.57	393.5
263.802	359.5
264.035	352.5
264.267	336.5
264.499	337.5
264.732	359.5
264.964	378.5
265.197	405.5
265.429	421.5
265.661	470.5
265.894	498.5
266.126	473.5
266.358	451.5
266.591	462.5
266.823	468.5
267.055	444.5
267.287	430.5
267.52	442.5
267.752	449.5
267.984	440.5
268.216	465.5
268.448	470.5
268.681	447.5
268.913	428.5
269.145	403.5
269.377	422.5
269.609	430.5
269.841	512.5
270.073	584.5
270.306	626.5
270.538	602.5
270.77	529.5
271.002	455.5
271.234	448.5
271.466	483.5
271.698	526.5
271.93	597.5
272.162	558.5
272.394	522.5
272.626	494.5
272.858	456.5
273.09	418.5
273.322	411.5
273.553	394.5
273.785	408.5
274.017	425.5
274.249	445.5
274.481	431.5
274.713	418.5
274.945	413.5
275.176	421.5
275.408	401.5
275.64	398.5
275.872	405.5
276.104	424.5
276.335	494.5
276.567	532.5
276.799	517.5
277.031	495.5
277.262	472.5
277.494	485.5
277.726	519.5
277.957	526.5
278.189	452.5
278.421	452.5
278.652	415.5
278.884	423.5
279.115	419.5
279.347	431.5
279.579	408.5
279.81	424.5
280.042	463.5
280.273	503.5
280.505	505.5
280.736	513.5
280.968	469.5
281.199	416.5
281.431	426.5
281.662	420.5
281.894	415.5
282.125	446.5
282.356	444.5
282.588	452.5
282.819	455.5
283.051	501.5
283.282	503.5
283.513	496.5
283.745	434.5
283.976	428.5
284.207	435.5
284.439	449.5
284.67	434.5
284.901	438.5
285.132	463.5
285.364	456.5
285.595	446.5
285.826	451.5
286.057	445.5
286.288	433.5
286.52	477.5
286.751	476.5
286.982	477.5
287.213	460.5
287.444	450.5
287.675	438.5
287.906	468.5
288.138	482.5
288.369	474.5
288.6	433.5
288.831	438.5
289.062	428.5
289.293	452.5
289.524	453.5
289.755	447.5
289.986	463.5
290.217	449.5
290.448	422.5
290.679	459.5
290.91	476.5
291.141	465.5
291.371	480.5
291.602	481.5
291.833	477.5
292.064	495.5
292.295	497.5
292.526	498.5
292.757	512.5
292.987	493.5
293.218	487.5
293.449	542.5
293.68	579.5
293.91	592.5
294.141	566.5
294.372	545.5
294.603	551.5
294.833	576.5
295.064	524.5
295.295	506.5
295.525	471.5
295.756	426.5
295.987	429.5
296.217	457.5
296.448	456.5
296.679	442.5
296.909	453.5
297.14	470.5
297.37	456.5
297.601	514.5
297.831	534.5
298.062	510.5
298.292	486.5
298.523	470.5
298.753	475.5
298.984	477.5
299.214	451.5
299.445	482.5
299.675	515.5
299.905	498.5
300.136	484.5
300.366	476.5
300.597	470.5
300.827	467.5
301.057	509.5
301.288	498.5
301.518	536.5
301.748	529.5
301.979	562.5
302.209	544.5
302.439	575.5
302.669	594.5
302.9	558.5
303.13	512.5
303.36	520.5
303.59	532.5
303.82	531.5
304.051	521.5
304.281	491.5
304.511	530.5
304.741	582.5
304.971	601.5
305.201	614.5
305.431	545.5
305.661	467.5
305.891	458.5
306.121	457.5
306.352	490.5
306.582	511.5
306.812	544.5
307.042	565.5
307.272	587.5
307.502	604.5
307.731	626.5
307.961	645.5
308.191	568.5
308.421	520.5
308.651	502.5
308.881	492.5
309.111	512.5
309.341	485.5
309.571	502.5
309.8	492.5
310.03	476.5
310.26	476.5
310.49	489.5
310.72	521.5
310.949	529.5
311.179	528.5
311.409	529.5
311.639	502.5
311.868	518.5
312.098	524.5
312.328	516.5
312.557	504.5
312.787	528.5
313.017	530.5
313.246	520.5
313.476	533.5
313.706	529.5
313.935	552.5
314.165	560.5
314.394	545.5
314.624	613.5
314.853	604.5
315.083	627.5
315.312	609.5
315.542	580.5
315.771	543.5
316.001	525.5
316.23	538.5
316.46	578.5
316.689	534.5
316.919	532.5
317.148	528.5
317.377	553.5
317.607	586.5
317.836	631.5
318.065	628.5
318.295	604.5
318.524	590.5
318.753	570.5
318.983	568.5
319.212	545.5
319.441	566.5
319.67	538.5
319.9	575.5
320.129	580.5
320.358	622.5
320.587	622.5
320.816	601.5
321.046	630.5
321.275	594.5
321.504	607.5
321.733	617.5
321.962	585.5
322.191	550.5
322.42	554.5
322.649	518.5
322.878	545.5
323.108	567.5
323.337	566.5
323.566	578.5
323.795	582.5
324.024	577.5
324.253	562.5
324.482	573.5
324.71	541.5
324.939	543.5
325.168	553.5
325.397	551.5
325.626	584.5
325.855	587.5
326.084	553.5
326.313	552.5
326.542	574.5
326.77	593.5
326.999	577.5
327.228	542.5
327.457	529.5
327.686	520.5
327.914	553.5
328.143	558.5
328.372	568.5
328.6	553.5
328.829	576.5
329.058	573.5
329.287	570.5
329.515	569.5
329.744	588.5
329.972	624.5
330.201	616.5
330.43	598.5
330.658	589.5
330.887	577.5
331.115	593.5
331.344	574.5
331.572	578.5
331.801	586.5
332.03	571.5
332.258	604.5
332.486	630.5
332.715	617.5
332.943	599.5
333.172	611.5
333.4	613.5
333.629	595.5
333.857	686.5
334.085	749.5
334.314	784.5
334.542	848.5
334.771	771.5
334.999	689.5
335.227	672.5
335.455	627.5
335.684	636.5
335.912	634.5
336.14	662.5
336.369	636.5
336.597	598.5
336.825	590.5
337.053	633.5
337.281	650.5
337.51	704.5
337.738	708.5
337.966	642.5
338.194	615.5
338.422	580.5
338.65	566.5
338.878	589.5
339.106	564.5
339.334	608.5
339.562	562.5
339.79	582.5
340.018	624.5
340.246	621.5
340.474	623.5
340.702	602.5
340.93	624.5
341.158	623.5
341.386	606.5
341.614	615.5
341.842	592.5
342.07	583.5
342.298	602.5
342.526	601.5
342.754	607.5
342.981	611.5
343.209	594.5
343.437	580.5
343.665	587.5
343.893	643.5
344.12	645.5
344.348	639.5
344.576	599.5
344.804	585.5
345.031	581.5
345.259	584.5
345.487	574.5
345.714	557.5
345.942	535.5
346.17	562.5
346.397	572.5
346.625	567.5
346.853	548.5
347.08	548.5
347.308	563.5
347.535	570.5
347.763	576.5
347.99	559.5
348.218	570.5
348.445	584.5
348.673	558.5
348.9	592.5
349.128	595.5
349.355	624.5
349.583	607.5
349.81	562.5
350.037	534.5
350.265	535.5
350.492	535.5
350.72	534.5
350.947	584.5
351.174	558.5
351.402	541.5
351.629	516.5
351.856	505.5
352.083	527.5
352.311	541.5
352.538	533.5
352.765	592.5
352.992	590.5
353.22	550.5
353.447	545.5
353.674	561.5
353.901	564.5
354.128	559.5
354.355	555.5
354.583	594.5
354.81	591.5
355.037	582.5
355.264	581.5
355.491	570.5
355.718	574.5
355.945	564.5
356.172	554.5
356.399	537.5
356.626	554.5
356.853	582.5
357.08	638.5
357.307	666.5
357.534	654.5
357.761	546.5
357.988	539.5
358.215	527.5
358.441	540.5
358.668	547.5
358.895	559.5
359.122	632.5
359.349	639.5
359.576	608.5
359.802	576.5
360.029	532.5
360.256	546.5
360.483	564.5
360.709	568.5
360.936	589.5
361.163	628.5
361.39	663.5
361.616	694.5
361.843	703.5
362.07	638.5
362.296	558.5
362.523	561.5
362.749	570.5
362.976	579.5
363.203	576.5
363.429	558.5
363.656	567.5
363.882	576.5
364.109	652.5
364.335	670.5
364.562	630.5
364.788	598.5
365.015	558.5
365.241	564.5
365.468	591.5
365.694	621.5
365.92	623.5
366.147	598.5
366.373	572.5
366.599	551.5
366.826	563.5
367.052	560.5
367.278	588.5
367.505	585.5
367.731	587.5
367.957	587.5
368.184	639.5
368.41	646.5
368.636	684.5
368.862	671.5
369.089	669.5
369.315	640.5
369.541	613.5
369.767	596.5
369.993	595.5
370.219	582.5
370.445	611.5
370.672	665.5
370.898	681.5
371.124	677.5
371.35	612.5
371.576	656.5
371.802	657.5
372.028	630.5
372.254	603.5
372.48	602.5
372.706	586.5
372.932	590.5
373.158	616.5
373.384	643.5
373.61	658.5
373.835	652.5
374.061	641.5
374.287	658.5
374.513	624.5
374.739	629.5
374.965	648.5
375.191	650.5
375.416	625.5
375.642	644.5
375.868	694.5
376.094	694.5
376.319	679.5
376.545	639.5
376.771	650.5
376.997	709.5
377.222	681.5
377.448	675.5
377.674	647.5
377.899	675.5
378.125	716.5
378.35	685.5
378.576	641.5
378.802	598.5
379.027	605.5
379.253	646.5
379.478	632.5
379.704	634.5
379.929	670.5
380.155	637.5
380.38	674.5
380.606	673.5
380.831	654.5
381.057	676.5
381.282	688.5
381.507	652.5
381.733	743.5
381.958	752.5
382.184	712.5
382.409	701.5
382.634	700.5
382.86	672.5
383.085	676.5
383.31	705.5
383.535	778.5
383.761	806.5
383.986	732.5
384.211	723.5
384.436	723.5
384.662	764.5
384.887	781.5
385.112	744.5
385.337	750.5
385.562	750.5
385.787	731.5
386.013	739.5
386.238	759.5
386.463	766.5
386.688	836.5
386.913	848.5
387.138	791.5
387.363	772.5
387.588	746.5
387.813	763.5
388.038	797.5
388.263	782.5
388.488	773.5
388.713	673.5
388.938	682.5
389.163	701.5
389.387	762.5
389.612	727.5
389.837	734.5
390.062	726.5
390.287	733.5
390.512	751.5
390.736	730.5
390.961	729.5
391.186	717.5
391.411	714.5
391.636	775.5
391.86	728.5
392.085	734.5
392.31	760.5
392.534	764.5
392.759	786.5
392.984	772.5
393.208	813.5
393.433	817.5
393.658	810.5
393.882	803.5
394.107	772.5
394.331	785.5
394.556	768.5
394.78	770.5
395.005	783.5
395.229	844.5
395.454	889.5
395.678	846.5
395.903	823.5
396.127	816.5
396.352	825.5
396.576	846.5
396.801	881.5
397.025	839.5
397.249	854.5
397.474	833.5
397.698	830.5
397.922	862.5
398.147	870.5
398.371	906.5
398.595	906.5
398.82	896.5
399.044	873.5
399.268	896.5
399.492	942.5
399.717	977.5
399.941	996.5
400.165	1008.5
400.389	933.5
400.613	979.5
400.837	1165.5
401.062	1212.5
401.286	1060.5
401.51	972.5
401.734	969.5
401.958	935.5
402.182	910.5
402.406	870.5
402.63	835.5
402.854	869.5
403.078	888.5
403.302	871.5
403.526	907.5
403.75	917.5
403.974	961.5
404.198	928.5
404.422	982.5
404.645	1025.5
404.869	969.5
405.093	897.5
405.317	877.5
405.541	917.5
405.765	923.5
405.988	929.5
406.212	930.5
406.436	952.5
406.66	996.5
406.883	1031.5
407.107	1158.5
407.331	1234.5
407.555	1290.5
407.778	1099.5
408.002	989.5
408.226	967.5
408.449	964.5
408.673	970.5
408.896	956.5
409.12	930.5
409.344	932.5
409.567	920.5
409.791	968.5
410.014	979.5
410.238	1003.5
410.461	1050.5
410.685	936.5
410.908	904.5
411.132	927.5
411.355	929.5
411.578	917.5
411.802	942.5
412.025	937.5
412.249	924.5
412.472	921.5
412.695	931.5
412.919	898.5
413.142	883.5
413.365	948.5
413.589	936.5
413.812	1002.5
414.035	1011.5
414.258	930.5
414.482	897.5
414.705	915.5
414.928	898.5
415.151	899.5
415.374	914.5
415.597	945.5
415.821	927.5
416.044	957.5
416.267	950.5
416.49	916.5
416.713	903.5
416.936	970.5
417.159	995.5
417.382	968.5
417.605	910.5
417.828	950.5
418.051	919.5
418.274	964.5
418.497	925.5
418.72	917.5
418.943	923.5
419.166	973.5
419.389	978.5
419.611	960.5
419.834	936.5
420.057	929.5
420.28	924.5
420.503	963.5
420.726	962.5
420.948	943.5
421.171	918.5
421.394	925.5
421.617	989.5
421.839	963.5
422.062	974.5
422.285	929.5
422.507	926.5
422.73	895.5
422.953	886.5
423.175	863.5
423.398	909.5
423.621	912.5
423.843	893.5
424.066	970.5
424.288	1009.5
424.511	1047.5
424.733	990.5
424.956	932.5
425.178	912.5
425.401	961.5
425.623	924.5
425.846	940.5
426.068	978.5
426.291	978.5
426.513	960.5
426.735	972.5
426.958	1035.5
427.18	1057.5
427.402	977.5
427.625	1039.5
427.847	963.5
428.069	923.5
428.292	922.5
428.514	872.5
428.736	901.5
428.958	912.5
429.181	932.5
429.403	1053.5
429.625	1198.5
429.847	1030.5
430.069	928.5
430.292	1054.5
430.514	1039.5
430.736	984.5
430.958	974.5
431.18	917.5
431.402	877.5
431.624	835.5
431.846	813.5
432.068	738.5
432.29	736.5
432.512	788.5
432.734	895.5
432.956	898.5
433.178	960.5
433.4	982.5
433.622	946.5
433.844	901.5
434.066	855.5
434.287	782.5
434.509	802.5
434.731	842.5
434.953	884.5
435.175	906.5
435.397	901.5
435.618	868.5
435.84	802.5
436.062	826.5
436.284	903.5
436.505	930.5
436.727	948.5
436.949	930.5
437.17	882.5
437.392	882.5
437.614	845.5
437.835	832.5
438.057	823.5
438.278	849.5
438.5	879.5
438.721	869.5
438.943	892.5
439.165	914.5
439.386	915.5
439.608	934.5
439.829	953.5
440.05	964.5
440.272	930.5
440.493	951.5
440.715	955.5
440.936	994.5
441.158	1055.5
441.379	1068.5
441.6	1045.5
441.822	1020.5
442.043	1004.5
442.264	966.5
442.486	965.5
442.707	945.5
442.928	930.5
443.149	986.5
443.371	1002.5
443.592	1030.5
443.813	1007.5
444.034	1010.5
444.255	985.5
444.476	1000.5
444.698	1047.5
444.919	1052.5
445.14	1142.5
445.361	1128.5
445.582	1091.5
445.803	1076.5
446.024	1033.5
446.245	1045.5
446.466	1053.5
446.687	1032.5
446.908	1050.5
447.129	1005.5
447.35	1020.5
447.571	1015.5
447.792	965.5
448.013	942.5
448.234	948.5
448.455	985.5
448.675	1023.5
448.896	926.5
449.117	886.5
449.338	930.5
449.559	930.5
449.779	941.5
450	1043.5
450.221	1025.5
450.442	1042.5
450.662	924.5
450.883	877.5
451.104	888.5
451.324	893.5
451.545	871.5
451.766	852.5
451.986	842.5
452.207	838.5
452.428	790.5
452.648	771.5
452.869	784.5
453.089	801.5
453.31	774.5
453.53	778.5
453.751	741.5
453.971	687.5
454.192	712.5
454.412	776.5
454.633	786.5
454.853	786.5
455.073	763.5
455.294	772.5
455.514	761.5
455.734	771.5
455.955	776.5
456.175	767.5
456.395	720.5
456.616	735.5
456.836	745.5
457.056	777.5
457.276	725.5
457.497	694.5
457.717	677.5
457.937	719.5
458.157	739.5
458.377	706.5
458.598	670.5
458.818	666.5
459.038	705.5
459.258	692.5
459.478	703.5
459.698	687.5
459.918	722.5
460.138	803.5
460.358	831.5
460.578	830.5
460.798	885.5
461.018	902.5
461.238	872.5
461.458	849.5
461.678	849.5
461.898	829.5
462.118	842.5
462.338	834.5
462.558	859.5
462.777	838.5
462.997	853.5
463.217	898.5
463.437	894.5
463.657	849.5
463.876	825.5
464.096	851.5
464.316	843.5
464.536	865.5
464.755	882.5
464.975	874.5
465.195	861.5
465.414	876.5
465.634	885.5
465.854	897.5
466.073	969.5
466.293	951.5
466.512	884.5
466.732	883.5
466.951	912.5
467.171	868.5
467.391	869.5
467.61	871.5
467.829	920.5
468.049	970.5
468.268	1050.5
468.488	960.5
468.707	924.5
468.927	899.5
469.146	915.5
469.365	912.5
469.585	938.5
469.804	889.5
470.023	954.5
470.243	942.5
470.462	921.5
470.681	896.5
470.901	934.5
471.12	923.5
471.339	919.5
471.558	908.5
471.777	912.5
471.997	899.5
472.216	836.5
472.435	789.5
472.654	764.5
472.873	784.5
473.092	826.5
473.311	827.5
473.53	836.5
473.749	820.5
473.968	840.5
474.187	860.5
474.406	832.5
474.625	891.5
474.844	892.5
475.063	905.5
475.282	871.5
475.501	842.5
475.72	862.5
475.939	889.5
476.158	880.5
476.377	881.5
476.596	842.5
476.814	833.5
477.033	807.5
477.252	831.5
477.471	882.5
477.69	917.5
477.908	915.5
478.127	975.5
478.346	995.5
478.564	1011.5
478.783	994.5
479.002	1016.5
479.22	991.5
479.439	1008.5
479.658	1053.5
479.876	984.5
480.095	899.5
480.313	902.5
480.532	857.5
480.751	877.5
480.969	826.5
481.188	802.5
481.406	788.5
481.624	754.5
481.843	781.5
482.061	812.5
482.28	900.5
482.498	890.5
482.717	852.5
482.935	907.5
483.153	976.5
483.372	1018.5
483.59	1024.5
483.808	961.5
484.027	944.5
484.245	988.5
484.463	1217.5
484.681	1294.5
484.9	1024.5
485.118	963.5
485.336	946.5
485.554	906.5
485.772	903.5
485.99	876.5
486.209	907.5
486.427	930.5
486.645	908.5
486.863	996.5
487.081	1044.5
487.299	1009.5
487.517	992.5
487.735	1099.5
487.953	1185.5
488.171	1183.5
488.389	1151.5
488.607	1115.5
488.825	1135.5
489.043	1068.5
489.261	979.5
489.479	1040.5
489.696	1054.5
489.914	1053.5
490.132	1053.5
490.35	1077.5
490.568	1173.5
490.786	1207.5
491.003	1198.5
491.221	1274.5
491.439	1278.5
491.657	1311.5
491.874	1388.5
492.092	1433.5
492.31	1541.5
492.527	1479.5
492.745	1372.5
492.963	1339.5
493.18	1306.5
493.398	1330.5
493.615	1312.5
493.833	1249.5
494.05	1223.5
494.268	1226.5
494.485	1251.5
494.703	1198.5
494.92	1242.5
495.138	1241.5
495.355	1246.5
495.573	1250.5
495.79	1305.5
496.008	1296.5
496.225	1249.5
496.442	1221.5
496.66	1250.5
496.877	1225.5
497.094	1242.5
497.312	1249.5
497.529	1214.5
497.746	1198.5
497.963	1252.5
498.181	1311.5
498.398	1278.5
498.615	1223.5
498.832	1168.5
499.049	1179.5
499.267	1138.5
499.484	1256.5
499.701	1346.5
499.918	1418.5
500.135	1488.5
500.352	1619.5
500.569	1568.5
500.786	1697.5
501.003	1532.5
501.22	1424.5
501.437	1380.5
501.654	1426.5
501.871	1354.5
502.088	1204.5
502.305	1190.5
502.522	1137.5
502.739	1116.5
502.956	1098.5
503.172	1072.5
503.389	995.5
503.606	996.5
503.823	977.5
504.04	973.5
504.256	1010.5
504.473	1031.5
504.69	981.5
504.907	971.5
505.123	961.5
505.34	1097.5
505.557	1373.5
505.773	1103.5
505.99	960.5
506.207	892.5
506.423	914.5
506.64	867.5
506.856	910.5
507.073	1035.5
507.289	1072.5
507.506	1021.5
507.722	876.5
507.939	848.5
508.155	860.5
508.372	857.5
508.588	834.5
508.805	803.5
509.021	785.5
509.238	772.5
509.454	772.5
509.67	748.5
509.887	719.5
510.103	710.5
510.319	750.5
510.536	749.5
510.752	766.5
510.968	762.5
511.184	774.5
511.401	769.5
511.617	728.5
511.833	677.5
512.049	718.5
512.265	701.5
512.481	737.5
512.698	748.5
512.914	762.5
513.13	766.5
513.346	738.5
513.562	680.5
513.778	715.5
513.994	762.5
514.21	754.5
514.426	771.5
514.642	806.5
514.858	784.5
515.074	724.5
515.29	716.5
515.506	728.5
515.721	719.5
515.937	755.5
516.153	833.5
516.369	790.5
516.585	742.5
516.801	734.5
517.016	723.5
517.232	772.5
517.448	783.5
517.664	816.5
517.879	800.5
518.095	809.5
518.311	779.5
518.527	784.5
518.742	765.5
518.958	742.5
519.173	769.5
519.389	800.5
519.605	783.5
519.82	797.5
520.036	783.5
520.251	774.5
520.467	774.5
520.682	815.5
520.898	792.5
521.113	724.5
521.329	726.5
521.544	772.5
521.76	714.5
521.975	714.5
522.19	733.5
522.406	740.5
522.621	938.5
522.836	882.5
523.052	732.5
523.267	733.5
523.482	775.5
523.698	749.5
523.913	718.5
524.128	779.5
524.343	807.5
524.559	817.5
524.774	784.5
524.989	764.5
525.204	799.5
525.419	726.5
525.634	760.5
525.849	741.5
526.064	730.5
526.28	708.5
526.495	663.5
526.71	648.5
526.925	636.5
527.14	624.5
527.355	629.5
527.57	633.5
527.785	665.5
527.999	642.5
528.214	681.5
528.429	716.5
528.644	743.5
528.859	809.5
529.074	829.5
529.289	870.5
529.503	882.5
529.718	795.5
529.933	748.5
530.148	659.5
530.363	633.5
530.577	645.5
530.792	611.5
531.007	620.5
531.221	654.5
531.436	638.5
531.651	661.5
531.865	676.5
532.08	659.5
532.295	645.5
532.509	619.5
532.724	608.5
532.938	668.5
533.153	712.5
533.367	713.5
533.582	723.5
533.796	734.5
534.011	709.5
534.225	660.5
534.44	647.5
534.654	638.5
534.868	646.5
535.083	695.5
535.297	708.5
535.511	689.5
535.726	682.5
535.94	661.5
536.154	640.5
536.369	638.5
536.583	582.5
536.797	596.5
537.011	628.5
537.225	612.5
537.44	601.5
537.654	632.5
537.868	614.5
538.082	594.5
538.296	610.5
538.51	628.5
538.724	684.5
538.938	715.5
539.153	752.5
539.367	772.5
539.581	679.5
539.795	673.5
540.009	646.5
540.222	641.5
540.436	675.5
540.65	776.5
540.864	809.5
541.078	828.5
541.292	842.5
541.506	878.5
541.72	966.5
541.934	1043.5
542.147	1075.5
542.361	1000.5
542.575	921.5
542.789	812.5
543.002	766.5
543.216	735.5
543.43	755.5
543.644	798.5
543.857	852.5
544.071	880.5
544.285	940.5
544.498	936.5
544.712	922.5
544.925	938.5
545.139	959.5
545.352	946.5
545.566	933.5
545.779	950.5
545.993	913.5
546.206	988.5
546.42	958.5
546.633	932.5
546.847	932.5
547.06	953.5
547.274	971.5
547.487	975.5
547.7	973.5
547.914	961.5
548.127	974.5
548.34	946.5
548.554	945.5
548.767	928.5
548.98	939.5
549.193	906.5
549.407	956.5
549.62	928.5
549.833	921.5
550.046	907.5
550.259	888.5
550.473	888.5
550.686	871.5
550.899	876.5
551.112	841.5
551.325	848.5
551.538	837.5
551.751	867.5
551.964	702.5
552.177	733.5
552.39	805.5
552.603	833.5
552.816	854.5
553.029	900.5
553.242	936.5
553.455	914.5
553.667	905.5
553.88	910.5
554.093	890.5
554.306	836.5
554.519	844.5
554.732	837.5
554.944	826.5
555.157	818.5
555.37	787.5
555.583	795.5
555.795	774.5
556.008	749.5
556.221	726.5
556.433	717.5
556.646	744.5
556.859	725.5
557.071	710.5
557.284	737.5
557.496	754.5
557.709	731.5
557.921	757.5
558.134	729.5
558.346	743.5
558.559	710.5
558.771	698.5
558.984	698.5
559.196	684.5
559.409	676.5
559.621	656.5
559.833	672.5
560.046	690.5
560.258	684.5
560.47	661.5
560.683	692.5
560.895	677.5
561.107	665.5
561.32	682.5
561.532	670.5
561.744	680.5
561.956	685.5
562.168	661.5
562.381	668.5
562.593	654.5
562.805	634.5
563.017	655.5
563.229	659.5
563.441	679.5
563.653	646.5
563.865	632.5
564.077	606.5
564.289	634.5
564.501	602.5
564.713	631.5
564.925	649.5
565.137	662.5
565.349	625.5
565.561	584.5
565.773	626.5
565.985	602.5
566.197	637.5
566.408	710.5
566.62	709.5
566.832	684.5
567.044	673.5
567.255	663.5
567.467	651.5
567.679	652.5
567.891	683.5
568.102	610.5
568.314	576.5
568.526	552.5
568.737	520.5
568.949	468.5
569.161	467.5
569.372	467.5
569.584	457.5
569.795	456.5
570.007	447.5
570.218	434.5
570.43	450.5
570.641	444.5
570.853	469.5
571.064	470.5
571.276	484.5
571.487	472.5
571.698	452.5
571.91	475.5
572.121	462.5
572.333	450.5
572.544	447.5
572.755	407.5
572.966	395.5
573.178	376.5
573.389	386.5
573.6	429.5
573.811	436.5
574.023	392.5
574.234	418.5
574.445	405.5
574.656	387.5
574.867	386.5
575.078	415.5
575.289	397.5
575.501	406.5
575.712	371.5
575.923	388.5
576.134	394.5
576.345	393.5
576.556	417.5
576.767	401.5
576.978	404.5
577.188	374.5
577.399	405.5
577.61	376.5
577.821	366.5
578.032	372.5
578.243	372.5
578.454	367.5
578.665	352.5
578.875	356.5
579.086	335.5
579.297	341.5
579.508	352.5
579.718	355.5
579.929	357.5
580.14	347.5
580.35	332.5
580.561	377.5
580.772	380.5
580.982	357.5
581.193	348.5
581.403	338.5
581.614	343.5
581.825	350.5
582.035	345.5
582.246	344.5
582.456	340.5
582.667	355.5
582.877	342.5
583.087	336.5
583.298	331.5
583.508	332.5
583.719	340.5
583.929	338.5
584.139	323.5
584.35	309.5
584.56	312.5
584.77	328.5
584.981	341.5
585.191	340.5
585.401	340.5
585.611	343.5
585.821	318.5
586.032	331.5
586.242	323.5
586.452	320.5
586.662	315.5
586.872	334.5
587.082	306.5
587.292	322.5
587.502	307.5
587.713	326.5
587.923	322.5
588.133	296.5
588.343	308.5
588.553	311.5
588.762	318.5
588.972	313.5
589.182	307.5
589.392	304.5
589.602	310.5
589.812	299.5
590.022	325.5
590.232	302.5
590.441	301.5
590.651	311.5
590.861	317.5
591.071	304.5
591.281	306.5
591.49	308.5
591.7	287.5
591.91	286.5
592.119	305.5
592.329	333.5
592.539	322.5
592.748	316.5
592.958	321.5
593.167	344.5
593.377	319.5
593.587	310.5
593.796	325.5
594.006	324.5
594.215	329.5
594.424	317.5
594.634	330.5
594.843	322.5
595.053	338.5
595.262	325.5
595.472	326.5
595.681	304.5
595.89	323.5
596.1	287.5
596.309	294.5
596.518	305.5
596.727	320.5
596.937	316.5
597.146	309.5
597.355	302.5
597.564	312.5
597.774	293.5
597.983	286.5
598.192	283.5
598.401	281.5
598.61	283.5
598.819	290.5
599.028	291.5
599.237	295.5
599.446	301.5
599.655	285.5
599.864	279.5
600.073	295.5
600.282	281.5
600.491	274.5
600.7	277.5
600.909	313.5
601.118	317.5
601.327	335.5
601.536	349.5
601.745	342.5
601.953	340.5
602.162	344.5
602.371	355.5
602.58	348.5
602.789	350.5
602.997	346.5
603.206	350.5
603.415	334.5
603.623	348.5
603.832	351.5
604.041	339.5
604.249	324.5
604.458	308.5
604.666	292.5
604.875	289.5
605.084	306.5
605.292	341.5
605.501	334.5
605.709	366.5
605.918	360.5
606.126	346.5
606.334	348.5
606.543	368.5
606.751	364.5
606.96	362.5
607.168	354.5
607.376	342.5
607.585	353.5
607.793	351.5
608.001	352.5
608.21	356.5
608.418	373.5
608.626	368.5
608.834	371.5
609.043	356.5
609.251	347.5
609.459	359.5
609.667	365.5
609.875	336.5
610.083	391.5
610.291	382.5
610.499	378.5
610.707	377.5
610.916	353.5
611.124	361.5
611.332	352.5
611.54	355.5
611.748	359.5
611.955	346.5
612.163	368.5
612.371	346.5
612.579	368.5
612.787	349.5
612.995	353.5
613.203	374.5
613.411	352.5
613.618	338.5
613.826	340.5
614.034	345.5
614.242	365.5
614.449	347.5
614.657	358.5
614.865	335.5
615.072	351.5
615.28	338.5
615.488	352.5
615.695	367.5
615.903	356.5
616.111	340.5
616.318	370.5
616.526	364.5
616.733	352.5
616.941	351.5
617.148	352.5
617.356	338.5
617.563	357.5
617.771	331.5
617.978	323.5
618.185	329.5
618.393	338.5
618.6	334.5
618.807	354.5
619.015	342.5
619.222	350.5
619.429	325.5
619.637	296.5
619.844	288.5
620.051	326.5
620.258	331.5
620.466	309.5
620.673	316.5
620.88	327.5
621.087	307.5
621.294	302.5
621.501	281.5
621.708	312.5
621.915	325.5
622.122	312.5
622.329	326.5
622.536	332.5
622.743	322.5
622.95	320.5
623.157	328.5
623.364	312.5
623.571	318.5
623.778	337.5
623.985	320.5
624.192	332.5
624.399	318.5
624.606	312.5
624.812	295.5
625.019	294.5
625.226	284.5
625.433	281.5
625.639	290.5
625.846	281.5
626.053	222.5
626.259	256.5
626.466	253.5
626.673	249.5
626.879	236.5
627.086	249.5
627.293	264.5
627.499	288.5
627.706	299.5
627.912	280.5
628.119	303.5
628.325	297.5
628.532	294.5
628.738	288.5
628.945	291.5
629.151	265.5
629.357	270.5
629.564	300.5
629.77	288.5
629.976	276.5
630.183	270.5
630.389	264.5
630.595	282.5
630.802	285.5
631.008	272.5
631.214	281.5
631.42	250.5
631.627	224.5
631.833	234.5
632.039	266.5
632.245	272.5
632.451	249.5
632.657	266.5
632.863	279.5
633.069	271.5
633.275	244.5
633.481	259.5
633.688	234.5
633.893	259.5
634.099	262.5
634.305	252.5
634.511	244.5
634.717	246.5
634.923	232.5
635.129	244.5
635.335	230.5
635.541	236.5
635.747	244.5
635.952	262.5
636.158	270.5
636.364	265.5
636.57	263.5
636.775	264.5
636.981	253.5
637.187	253.5
637.392	268.5
637.598	258.5
637.804	261.5
638.009	260.5
638.215	261.5
638.421	265.5
638.626	273.5
638.832	247.5
639.037	249.5
639.243	237.5
639.448	256.5
639.654	270.5
639.859	249.5
640.065	245.5
640.27	254.5
640.475	244.5
640.681	247.5
640.886	241.5
641.091	262.5
641.297	236.5
641.502	234.5
641.707	254.5
641.913	243.5
642.118	244.5
642.323	250.5
642.528	261.5
642.733	233.5
642.939	231.5
643.144	236.5
643.349	247.5
643.554	236.5
643.759	229.5
643.964	249.5
644.169	233.5
644.374	244.5
644.579	241.5
644.784	251.5
644.989	220.5
645.194	236.5
645.399	229.5
645.604	247.5
645.809	237.5
646.014	246.5
646.219	229.5
646.423	238.5
646.628	236.5
646.833	254.5
647.038	231.5
647.243	247.5
647.447	235.5
647.652	227.5
647.857	220.5
648.062	238.5
648.266	226.5
648.471	232.5
648.676	239.5
648.88	261.5
649.085	241.5
649.289	239.5
649.494	227.5
649.698	231.5
649.903	232.5
650.107	220.5
650.312	237.5
650.516	220.5
650.721	236.5
650.925	206.5
651.13	209.5
651.334	223.5
651.539	245.5
651.743	228.5
651.947	227.5
652.152	215.5
652.356	217.5
652.56	191.5
652.764	220.5
652.969	207.5
653.173	213.5
653.377	186.5
653.581	190.5
653.785	192.5
653.99	202.5
654.194	196.5
654.398	197.5
654.602	194.5
654.806	193.5
655.01	198.5
655.214	209.5
655.418	187.5
655.622	205.5
655.826	199.5
656.03	214.5
656.234	222.5
656.438	232.5
656.642	222.5
656.846	217.5
657.049	208.5
657.253	195.5
657.457	200.5
657.661	178.5
657.865	169.5
658.068	176.5
658.272	160.5
658.476	157.5
658.68	150.5
658.883	145.5
659.087	144.5
659.291	144.5
659.494	141.5
659.698	128.5
659.901	114.5
660.105	133.5
660.309	108.5
660.512	114.5
660.716	108.5
660.919	113.5
661.123	107.5
661.326	110.5
661.53	124.5
661.733	102.5
661.936	91.5
662.14	94.5
662.343	101.5
662.546	94.5
662.75	96.5
662.953	109.5
663.156	81.5
663.36	92.5
663.563	97.5
663.766	89.5
663.969	96.5
664.173	79.5
664.376	75.5
664.579	73.5
664.782	83.5
664.985	81.5
665.188	74.5
665.391	76.5
665.594	82.5
665.797	92.5
666	68.5
666.203	86.5
666.406	72.5
666.609	85.5
666.812	96.5
667.015	89.5
667.218	82.5
667.421	78.5
667.624	85.5
667.827	88.5
668.03	82.5
668.232	74.5
668.435	92.5
668.638	78.5
668.841	87.5
669.043	75.5
669.246	76.5
669.449	82.5
669.651	82.5
669.854	74.5
670.057	85.5
670.259	88.5
670.462	71.5
670.665	71.5
670.867	87.5
671.07	79.5
671.272	75.5
671.475	82.5
671.677	73.5
671.88	67.5
672.082	74.5
672.284	83.5
672.487	87.5
672.689	73.5
672.892	85.5
