Data from WStandard_LampEnergy10_LIBS07252019.E.O._I.C._HRD10591_15-56-00-928.txt Node
Date: Thu Jul 25 15:56:00 EDT 2019
User: cochatt
Spectrometer: HR+D1059
Trigger mode: 1
Integration Time (sec): 1.000000E-1
Scans to average: 1
Electric dark correction enabled: true
Nonlinearity correction enabled: false
Boxcar width: 0
XAxis mode: Wavelengths
Number of Pixels in Spectrum: 2048
>>>>>Begin Spectral Data<<<<<
223.165	-7.94
223.4	-7.94
223.635	-7.94
223.869	-5.94
224.104	-18.94
224.338	-12.94
224.573	-22.94
224.808	-12.94
225.042	-11.94
225.277	-13.94
225.511	-8.94
225.746	8.06
225.98	11.06
226.215	2.06
226.449	23.06
226.683	14.06
226.918	27.06
227.152	31.06
227.387	44.06
227.621	27.06
227.856	51.06
228.09	38.06
228.324	44.06
228.559	40.06
228.793	76.06
229.027	134.06
229.262	138.06
229.496	153.06
229.73	138.06
229.964	156.06
230.199	159.06
230.433	162.06
230.667	181.06
230.901	169.06
231.136	181.06
231.37	170.06
231.604	175.06
231.838	171.06
232.072	165.06
232.306	172.06
232.541	170.06
232.775	189.06
233.009	208.06
233.243	191.06
233.477	189.06
233.711	188.06
233.945	186.06
234.179	189.06
234.413	199.06
234.647	223.06
234.881	215.06
235.115	199.06
235.349	176.06
235.583	188.06
235.817	183.06
236.051	195.06
236.285	179.06
236.519	209.06
236.753	229.06
236.987	226.06
237.221	216.06
237.455	235.06
237.689	224.06
237.922	223.06
238.156	200.06
238.39	223.06
238.624	231.06
238.858	253.06
239.091	245.06
239.325	261.06
239.559	297.06
239.793	270.06
240.027	320.06
240.26	288.06
240.494	244.06
240.728	230.06
240.961	231.06
241.195	228.06
241.429	249.06
241.662	257.06
241.896	225.06
242.13	240.06
242.363	268.06
242.597	268.06
242.83	256.06
243.064	264.06
243.298	281.06
243.531	263.06
243.765	268.06
243.998	281.06
244.232	246.06
244.465	248.06
244.699	269.06
244.932	280.06
245.166	322.06
245.399	292.06
245.633	280.06
245.866	314.06
246.099	291.06
246.333	285.06
246.566	298.06
246.8	306.06
247.033	326.06
247.266	321.06
247.5	306.06
247.733	341.06
247.966	329.06
248.2	363.06
248.433	350.06
248.666	375.06
248.899	367.06
249.133	403.06
249.366	461.06
249.599	387.06
249.832	370.06
250.066	369.06
250.299	376.06
250.532	323.06
250.765	325.06
250.998	337.06
251.231	335.06
251.465	363.06
251.698	325.06
251.931	337.06
252.164	355.06
252.397	346.06
252.63	363.06
252.863	311.06
253.096	323.06
253.329	334.06
253.562	337.06
253.795	367.06
254.028	358.06
254.261	343.06
254.494	360.06
254.727	323.06
254.96	329.06
255.193	359.06
255.426	401.06
255.659	455.06
255.892	447.06
256.124	384.06
256.357	385.06
256.59	426.06
256.823	413.06
257.056	418.06
257.289	461.06
257.521	494.06
257.754	447.06
257.987	445.06
258.22	461.06
258.452	452.06
258.685	389.06
258.918	396.06
259.151	393.06
259.383	373.06
259.616	350.06
259.849	341.06
260.081	401.06
260.314	452.06
260.547	429.06
260.779	453.06
261.012	426.06
261.244	385.06
261.477	390.06
261.71	410.06
261.942	413.06
262.175	395.06
262.407	380.06
262.64	384.06
262.872	372.06
263.105	347.06
263.337	361.06
263.57	363.06
263.802	360.06
264.035	344.06
264.267	354.06
264.499	347.06
264.732	375.06
264.964	380.06
265.197	391.06
265.429	408.06
265.661	459.06
265.894	485.06
266.126	467.06
266.358	464.06
266.591	443.06
266.823	499.06
267.055	415.06
267.287	439.06
267.52	420.06
267.752	457.06
267.984	445.06
268.216	479.06
268.448	480.06
268.681	454.06
268.913	420.06
269.145	421.06
269.377	413.06
269.609	441.06
269.841	533.06
270.073	578.06
270.306	595.06
270.538	583.06
270.77	541.06
271.002	477.06
271.234	461.06
271.466	450.06
271.698	518.06
271.93	595.06
272.162	589.06
272.394	537.06
272.626	498.06
272.858	461.06
273.09	405.06
273.322	413.06
273.553	411.06
273.785	410.06
274.017	400.06
274.249	453.06
274.481	426.06
274.713	402.06
274.945	402.06
275.176	413.06
275.408	396.06
275.64	392.06
275.872	379.06
276.104	446.06
276.335	516.06
276.567	516.06
276.799	530.06
277.031	482.06
277.262	447.06
277.494	495.06
277.726	534.06
277.957	495.06
278.189	439.06
278.421	398.06
278.652	422.06
278.884	437.06
279.115	416.06
279.347	419.06
279.579	422.06
279.81	429.06
280.042	472.06
280.273	506.06
280.505	522.06
280.736	496.06
280.968	461.06
281.199	432.06
281.431	388.06
281.662	408.06
281.894	429.06
282.125	431.06
282.356	445.06
282.588	442.06
282.819	474.06
283.051	497.06
283.282	513.06
283.513	466.06
283.745	420.06
283.976	432.06
284.207	439.06
284.439	444.06
284.67	449.06
284.901	444.06
285.132	421.06
285.364	459.06
285.595	449.06
285.826	437.06
286.057	440.06
286.288	437.06
286.52	459.06
286.751	496.06
286.982	477.06
287.213	456.06
287.444	439.06
287.675	446.06
287.906	446.06
288.138	476.06
288.369	461.06
288.6	443.06
288.831	427.06
289.062	431.06
289.293	443.06
289.524	448.06
289.755	458.06
289.986	442.06
290.217	427.06
290.448	441.06
290.679	448.06
290.91	443.06
291.141	476.06
291.371	470.06
291.602	465.06
291.833	473.06
292.064	471.06
292.295	485.06
292.526	491.06
292.757	503.06
292.987	463.06
293.218	479.06
293.449	524.06
293.68	565.06
293.91	586.06
294.141	560.06
294.372	523.06
294.603	553.06
294.833	557.06
295.064	528.06
295.295	484.06
295.525	464.06
295.756	441.06
295.987	440.06
296.217	427.06
296.448	469.06
296.679	449.06
296.909	469.06
297.14	437.06
297.37	472.06
297.601	483.06
297.831	518.06
298.062	529.06
298.292	480.06
298.523	457.06
298.753	447.06
298.984	481.06
299.214	465.06
299.445	490.06
299.675	492.06
299.905	496.06
300.136	479.06
300.366	471.06
300.597	440.06
300.827	469.06
301.057	480.06
301.288	497.06
301.518	525.06
301.748	526.06
301.979	556.06
302.209	552.06
302.439	591.06
302.669	575.06
302.9	543.06
303.13	487.06
303.36	489.06
303.59	521.06
303.82	504.06
304.051	506.06
304.281	504.06
304.511	529.06
304.741	567.06
304.971	601.06
305.201	621.06
305.431	561.06
305.661	458.06
305.891	458.06
306.121	462.06
306.352	470.06
306.582	504.06
306.812	552.06
307.042	560.06
307.272	570.06
307.502	565.06
307.731	631.06
307.961	614.06
308.191	571.06
308.421	514.06
308.651	497.06
308.881	515.06
309.111	476.06
309.341	488.06
309.571	497.06
309.8	476.06
310.03	480.06
310.26	475.06
310.49	482.06
310.72	534.06
310.949	533.06
311.179	517.06
311.409	515.06
311.639	508.06
311.868	511.06
312.098	496.06
312.328	501.06
312.557	528.06
312.787	511.06
313.017	514.06
313.246	522.06
313.476	519.06
313.706	520.06
313.935	523.06
314.165	529.06
314.394	561.06
314.624	571.06
314.853	590.06
315.083	604.06
315.312	593.06
315.542	566.06
315.771	544.06
316.001	529.06
316.23	576.06
316.46	564.06
316.689	554.06
316.919	517.06
317.148	510.06
317.377	539.06
317.607	590.06
317.836	634.06
318.065	610.06
318.295	609.06
318.524	583.06
318.753	576.06
318.983	556.06
319.212	548.06
319.441	537.06
319.67	533.06
319.9	560.06
320.129	576.06
320.358	618.06
320.587	597.06
320.816	612.06
321.046	596.06
321.275	585.06
321.504	587.06
321.733	602.06
321.962	586.06
322.191	563.06
322.42	570.06
322.649	566.06
322.878	557.06
323.108	552.06
323.337	593.06
323.566	552.06
323.795	568.06
324.024	585.06
324.253	550.06
324.482	567.06
324.71	526.06
324.939	540.06
325.168	526.06
325.397	557.06
325.626	566.06
325.855	565.06
326.084	548.06
326.313	550.06
326.542	583.06
326.77	583.06
326.999	570.06
327.228	526.06
327.457	513.06
327.686	507.06
327.914	545.06
328.143	593.06
328.372	546.06
328.6	544.06
328.829	533.06
329.058	543.06
329.287	534.06
329.515	572.06
329.744	588.06
329.972	607.06
330.201	583.06
330.43	583.06
330.658	570.06
330.887	583.06
331.115	593.06
331.344	594.06
331.572	582.06
331.801	549.06
332.03	571.06
332.258	592.06
332.486	612.06
332.715	613.06
332.943	591.06
333.172	589.06
333.4	575.06
333.629	616.06
333.857	671.06
334.085	736.06
334.314	793.06
334.542	832.06
334.771	747.06
334.999	684.06
335.227	652.06
335.455	619.06
335.684	613.06
335.912	633.06
336.14	648.06
336.369	626.06
336.597	599.06
336.825	588.06
337.053	626.06
337.281	687.06
337.51	708.06
337.738	704.06
337.966	643.06
338.194	581.06
338.422	586.06
338.65	604.06
338.878	561.06
339.106	567.06
339.334	562.06
339.562	585.06
339.79	615.06
340.018	595.06
340.246	623.06
340.474	597.06
340.702	631.06
340.93	617.06
341.158	597.06
341.386	584.06
341.614	580.06
341.842	592.06
342.07	587.06
342.298	623.06
342.526	589.06
342.754	575.06
342.981	587.06
343.209	564.06
343.437	568.06
343.665	608.06
343.893	601.06
344.12	622.06
344.348	616.06
344.576	585.06
344.804	604.06
345.031	594.06
345.259	582.06
345.487	566.06
345.714	579.06
345.942	529.06
346.17	555.06
346.397	559.06
346.625	565.06
346.853	530.06
347.08	529.06
347.308	550.06
347.535	571.06
347.763	567.06
347.99	575.06
348.218	546.06
348.445	529.06
348.673	554.06
348.9	593.06
349.128	590.06
349.355	604.06
349.583	598.06
349.81	564.06
350.037	523.06
350.265	533.06
350.492	520.06
350.72	546.06
350.947	562.06
351.174	552.06
351.402	556.06
351.629	523.06
351.856	509.06
352.083	515.06
352.311	535.06
352.538	539.06
352.765	572.06
352.992	558.06
353.22	523.06
353.447	559.06
353.674	553.06
353.901	555.06
354.128	554.06
354.355	556.06
354.583	562.06
354.81	583.06
355.037	579.06
355.264	570.06
355.491	563.06
355.718	584.06
355.945	554.06
356.172	540.06
356.399	525.06
356.626	574.06
356.853	575.06
357.08	631.06
357.307	686.06
357.534	635.06
357.761	583.06
357.988	540.06
358.215	529.06
358.441	537.06
358.668	526.06
358.895	554.06
359.122	605.06
359.349	630.06
359.576	623.06
359.802	541.06
360.029	526.06
360.256	547.06
360.483	549.06
360.709	575.06
360.936	593.06
361.163	624.06
361.39	685.06
361.616	707.06
361.843	692.06
362.07	636.06
362.296	571.06
362.523	564.06
362.749	549.06
362.976	568.06
363.203	578.06
363.429	554.06
363.656	562.06
363.882	600.06
364.109	646.06
364.335	653.06
364.562	614.06
364.788	581.06
365.015	556.06
365.241	538.06
365.468	579.06
365.694	596.06
365.92	613.06
366.147	564.06
366.373	545.06
366.599	540.06
366.826	543.06
367.052	565.06
367.278	588.06
367.505	606.06
367.731	600.06
367.957	618.06
368.184	642.06
368.41	658.06
368.636	654.06
368.862	666.06
369.089	649.06
369.315	629.06
369.541	627.06
369.767	571.06
369.993	577.06
370.219	587.06
370.445	617.06
370.672	637.06
370.898	665.06
371.124	650.06
371.35	633.06
371.576	648.06
371.802	637.06
372.028	618.06
372.254	596.06
372.48	609.06
372.706	593.06
372.932	602.06
373.158	599.06
373.384	644.06
373.61	657.06
373.835	673.06
374.061	636.06
374.287	619.06
374.513	613.06
374.739	630.06
374.965	609.06
375.191	641.06
375.416	674.06
375.642	655.06
375.868	666.06
376.094	717.06
376.319	649.06
376.545	636.06
376.771	672.06
376.997	677.06
377.222	626.06
377.448	652.06
377.674	672.06
377.899	674.06
378.125	694.06
378.35	680.06
378.576	613.06
378.802	617.06
379.027	608.06
379.253	627.06
379.478	636.06
379.704	626.06
379.929	616.06
380.155	654.06
380.38	635.06
380.606	652.06
380.831	671.06
381.057	698.06
381.282	696.06
381.507	670.06
381.733	737.06
381.958	733.06
382.184	692.06
382.409	654.06
382.634	658.06
382.86	683.06
383.085	678.06
383.31	736.06
383.535	790.06
383.761	782.06
383.986	754.06
384.211	707.06
384.436	713.06
384.662	767.06
384.887	754.06
385.112	705.06
385.337	707.06
385.562	694.06
385.787	707.06
386.013	748.06
386.238	772.06
386.463	751.06
386.688	823.06
386.913	829.06
387.138	816.06
387.363	781.06
387.588	764.06
387.813	755.06
388.038	765.06
388.263	805.06
388.488	752.06
388.713	717.06
388.938	706.06
389.163	710.06
389.387	749.06
389.612	740.06
389.837	775.06
390.062	757.06
390.287	773.06
390.512	746.06
390.736	735.06
390.961	711.06
391.186	705.06
391.411	707.06
391.636	723.06
391.86	721.06
392.085	752.06
392.31	741.06
392.534	737.06
392.759	743.06
392.984	736.06
393.208	742.06
393.433	763.06
393.658	793.06
393.882	805.06
394.107	755.06
394.331	753.06
394.556	757.06
394.78	756.06
395.005	805.06
395.229	817.06
395.454	859.06
395.678	836.06
395.903	853.06
396.127	797.06
396.352	819.06
396.576	821.06
396.801	837.06
397.025	816.06
397.249	817.06
397.474	804.06
397.698	817.06
397.922	836.06
398.147	884.06
398.371	917.06
398.595	889.06
398.82	874.06
399.044	881.06
399.268	922.06
399.492	929.06
399.717	967.06
399.941	973.06
400.165	930.06
400.389	952.06
400.613	970.06
400.837	1109.06
401.062	1157.06
401.286	1008.06
401.51	951.06
401.734	964.06
401.958	935.06
402.182	895.06
402.406	854.06
402.63	842.06
402.854	867.06
403.078	881.06
403.302	895.06
403.526	907.06
403.75	888.06
403.974	932.06
404.198	928.06
404.422	953.06
404.645	983.06
404.869	955.06
405.093	897.06
405.317	870.06
405.541	892.06
405.765	919.06
405.988	898.06
406.212	955.06
406.436	955.06
406.66	1004.06
406.883	1041.06
407.107	1130.06
407.331	1196.06
407.555	1247.06
407.778	1111.06
408.002	960.06
408.226	973.06
408.449	963.06
408.673	922.06
408.896	939.06
409.12	943.06
409.344	923.06
409.567	930.06
409.791	961.06
410.014	973.06
410.238	996.06
410.461	1065.06
410.685	988.06
410.908	945.06
411.132	919.06
411.355	913.06
411.578	909.06
411.802	928.06
412.025	934.06
412.249	923.06
412.472	887.06
412.695	893.06
412.919	924.06
413.142	890.06
413.365	917.06
413.589	943.06
413.812	987.06
414.035	993.06
414.258	940.06
414.482	918.06
414.705	888.06
414.928	915.06
415.151	887.06
415.374	913.06
415.597	906.06
415.821	933.06
416.044	927.06
416.267	913.06
416.49	908.06
416.713	936.06
416.936	929.06
417.159	955.06
417.382	967.06
417.605	903.06
417.828	933.06
418.051	936.06
418.274	916.06
418.497	916.06
418.72	937.06
418.943	913.06
419.166	957.06
419.389	992.06
419.611	945.06
419.834	907.06
420.057	923.06
420.28	928.06
420.503	923.06
420.726	945.06
420.948	948.06
421.171	892.06
421.394	910.06
421.617	984.06
421.839	973.06
422.062	972.06
422.285	933.06
422.507	902.06
422.73	899.06
422.953	881.06
423.175	851.06
423.398	917.06
423.621	899.06
423.843	924.06
424.066	953.06
424.288	1004.06
424.511	1028.06
424.733	1004.06
424.956	892.06
425.178	897.06
425.401	913.06
425.623	938.06
425.846	903.06
426.068	939.06
426.291	908.06
426.513	954.06
426.735	977.06
426.958	1009.06
427.18	1020.06
427.402	965.06
427.625	1005.06
427.847	978.06
428.069	939.06
428.292	909.06
428.514	900.06
428.736	889.06
428.958	889.06
429.181	918.06
429.403	1041.06
429.625	1216.06
429.847	1022.06
430.069	933.06
430.292	1044.06
430.514	979.06
430.736	941.06
430.958	968.06
431.18	893.06
431.402	856.06
431.624	839.06
431.846	781.06
432.068	698.06
432.29	738.06
432.512	778.06
432.734	846.06
432.956	925.06
433.178	943.06
433.4	939.06
433.622	927.06
433.844	888.06
434.066	826.06
434.287	787.06
434.509	790.06
434.731	808.06
434.953	886.06
435.175	866.06
435.397	883.06
435.618	856.06
435.84	837.06
436.062	805.06
436.284	920.06
436.505	921.06
436.727	940.06
436.949	895.06
437.17	895.06
437.392	868.06
437.614	846.06
437.835	792.06
438.057	813.06
438.278	818.06
438.5	856.06
438.721	876.06
438.943	893.06
439.165	879.06
439.386	916.06
439.608	945.06
439.829	929.06
440.05	940.06
440.272	961.06
440.493	924.06
440.715	938.06
440.936	1028.06
441.158	1035.06
441.379	1020.06
441.6	1037.06
441.822	1012.06
442.043	984.06
442.264	958.06
442.486	950.06
442.707	923.06
442.928	931.06
443.149	958.06
443.371	987.06
443.592	1024.06
443.813	1002.06
444.034	982.06
444.255	1003.06
444.476	992.06
444.698	1046.06
444.919	1024.06
445.14	1098.06
445.361	1081.06
445.582	1065.06
445.803	1032.06
446.024	1014.06
446.245	1023.06
446.466	1058.06
446.687	1024.06
446.908	1030.06
447.129	981.06
447.35	1007.06
447.571	970.06
447.792	915.06
448.013	915.06
448.234	950.06
448.455	985.06
448.675	971.06
448.896	892.06
449.117	891.06
449.338	876.06
449.559	947.06
449.779	935.06
450	1004.06
450.221	1028.06
450.442	994.06
450.662	897.06
450.883	852.06
451.104	862.06
451.324	858.06
451.545	857.06
451.766	870.06
451.986	839.06
452.207	796.06
452.428	782.06
452.648	801.06
452.869	795.06
453.089	768.06
453.31	757.06
453.53	749.06
453.751	726.06
453.971	675.06
454.192	728.06
454.412	747.06
454.633	790.06
454.853	807.06
455.073	738.06
455.294	740.06
455.514	763.06
455.734	775.06
455.955	743.06
456.175	724.06
456.395	728.06
456.616	741.06
456.836	745.06
457.056	724.06
457.276	698.06
457.497	703.06
457.717	659.06
457.937	712.06
458.157	689.06
458.377	678.06
458.598	643.06
458.818	653.06
459.038	696.06
459.258	707.06
459.478	709.06
459.698	698.06
459.918	729.06
460.138	775.06
460.358	827.06
460.578	827.06
460.798	857.06
461.018	874.06
461.238	868.06
461.458	849.06
461.678	807.06
461.898	785.06
462.118	822.06
462.338	812.06
462.558	823.06
462.777	822.06
462.997	855.06
463.217	881.06
463.437	868.06
463.657	834.06
463.876	837.06
464.096	840.06
464.316	802.06
464.536	852.06
464.755	852.06
464.975	895.06
465.195	840.06
465.414	864.06
465.634	857.06
465.854	876.06
466.073	956.06
466.293	918.06
466.512	862.06
466.732	844.06
466.951	895.06
467.171	873.06
467.391	844.06
467.61	874.06
467.829	883.06
468.049	996.06
468.268	1045.06
468.488	936.06
468.707	885.06
468.927	874.06
469.146	875.06
469.365	917.06
469.585	904.06
469.804	903.06
470.023	927.06
470.243	951.06
470.462	918.06
470.681	915.06
470.901	929.06
471.12	895.06
471.339	905.06
471.558	874.06
471.777	859.06
471.997	910.06
472.216	831.06
472.435	800.06
472.654	734.06
472.873	778.06
473.092	825.06
473.311	857.06
473.53	822.06
473.749	831.06
473.968	840.06
474.187	815.06
474.406	821.06
474.625	859.06
474.844	904.06
475.063	889.06
475.282	820.06
475.501	835.06
475.72	844.06
475.939	911.06
476.158	877.06
476.377	864.06
476.596	835.06
476.814	825.06
477.033	801.06
477.252	856.06
477.471	879.06
477.69	883.06
477.908	913.06
478.127	984.06
478.346	992.06
478.564	1001.06
478.783	986.06
479.002	997.06
479.22	999.06
479.439	1010.06
479.658	1053.06
479.876	993.06
480.095	924.06
480.313	860.06
480.532	862.06
480.751	869.06
480.969	816.06
481.188	761.06
481.406	785.06
481.624	779.06
481.843	793.06
482.061	808.06
482.28	853.06
482.498	879.06
482.717	875.06
482.935	882.06
483.153	949.06
483.372	993.06
483.59	1035.06
483.808	972.06
484.027	949.06
484.245	965.06
484.463	1189.06
484.681	1260.06
484.9	1014.06
485.118	940.06
485.336	906.06
485.554	902.06
485.772	857.06
485.99	852.06
486.209	871.06
486.427	903.06
486.645	935.06
486.863	1007.06
487.081	1056.06
487.299	1001.06
487.517	983.06
487.735	1091.06
487.953	1131.06
488.171	1151.06
488.389	1125.06
488.607	1071.06
488.825	1109.06
489.043	1066.06
489.261	941.06
489.479	1008.06
489.696	1046.06
489.914	1029.06
490.132	1027.06
490.35	1031.06
490.568	1139.06
490.786	1151.06
491.003	1168.06
491.221	1232.06
491.439	1277.06
491.657	1293.06
491.874	1318.06
492.092	1397.06
492.31	1483.06
492.527	1412.06
492.745	1331.06
492.963	1319.06
493.18	1250.06
493.398	1305.06
493.615	1291.06
493.833	1240.06
494.05	1210.06
494.268	1205.06
494.485	1220.06
494.703	1187.06
494.92	1189.06
495.138	1200.06
495.355	1226.06
495.573	1234.06
495.79	1260.06
496.008	1240.06
496.225	1201.06
496.442	1228.06
496.66	1193.06
496.877	1181.06
497.094	1227.06
497.312	1210.06
497.529	1187.06
497.746	1179.06
497.963	1232.06
498.181	1293.06
498.398	1252.06
498.615	1169.06
498.832	1147.06
499.049	1132.06
499.267	1148.06
499.484	1238.06
499.701	1311.06
499.918	1331.06
500.135	1484.06
500.352	1540.06
500.569	1556.06
500.786	1715.06
501.003	1519.06
501.22	1414.06
501.437	1386.06
501.654	1403.06
501.871	1335.06
502.088	1183.06
502.305	1160.06
502.522	1095.06
502.739	1092.06
502.956	1049.06
503.172	1071.06
503.389	1003.06
503.606	1009.06
503.823	1003.06
504.04	979.06
504.256	1000.06
504.473	988.06
504.69	1017.06
504.907	986.06
505.123	945.06
505.34	1048.06
505.557	1331.06
505.773	1101.06
505.99	955.06
506.207	896.06
506.423	887.06
506.64	884.06
506.856	907.06
507.073	1010.06
507.289	1065.06
507.506	994.06
507.722	892.06
507.939	843.06
508.155	823.06
508.372	889.06
508.588	833.06
508.805	796.06
509.021	801.06
509.238	767.06
509.454	751.06
509.67	751.06
509.887	736.06
510.103	753.06
510.319	711.06
510.536	762.06
510.752	763.06
510.968	751.06
511.184	795.06
511.401	796.06
511.617	708.06
511.833	725.06
512.049	711.06
512.265	691.06
512.481	701.06
512.698	710.06
512.914	757.06
513.13	746.06
513.346	699.06
513.562	677.06
513.778	708.06
513.994	760.06
514.21	732.06
514.426	761.06
514.642	809.06
514.858	785.06
515.074	732.06
515.29	723.06
515.506	715.06
515.721	727.06
515.937	714.06
516.153	785.06
516.369	773.06
516.585	713.06
516.801	709.06
517.016	710.06
517.232	712.06
517.448	733.06
517.664	780.06
517.879	775.06
518.095	818.06
518.311	755.06
518.527	764.06
518.742	742.06
518.958	705.06
519.173	769.06
519.389	772.06
519.605	768.06
519.82	785.06
520.036	768.06
520.251	737.06
520.467	767.06
520.682	785.06
520.898	769.06
521.113	715.06
521.329	715.06
521.544	771.06
521.76	741.06
521.975	705.06
522.19	716.06
522.406	707.06
522.621	913.06
522.836	868.06
523.052	725.06
523.267	729.06
523.482	758.06
523.698	753.06
523.913	717.06
524.128	746.06
524.343	802.06
524.559	807.06
524.774	774.06
524.989	744.06
525.204	741.06
525.419	729.06
525.634	727.06
525.849	712.06
526.064	715.06
526.28	700.06
526.495	662.06
526.71	641.06
526.925	629.06
527.14	639.06
527.355	602.06
527.57	626.06
527.785	667.06
527.999	656.06
528.214	669.06
528.429	684.06
528.644	737.06
528.859	767.06
529.074	836.06
529.289	876.06
529.503	834.06
529.718	793.06
529.933	714.06
530.148	663.06
530.363	646.06
530.577	644.06
530.792	624.06
531.007	612.06
531.221	602.06
531.436	647.06
531.651	653.06
531.865	658.06
532.08	656.06
532.295	615.06
532.509	609.06
532.724	620.06
532.938	664.06
533.153	679.06
533.367	700.06
533.582	720.06
533.796	716.06
534.011	696.06
534.225	651.06
534.44	641.06
534.654	642.06
534.868	637.06
535.083	659.06
535.297	692.06
535.511	677.06
535.726	665.06
535.94	637.06
536.154	648.06
536.369	617.06
536.583	588.06
536.797	585.06
537.011	624.06
537.225	602.06
537.44	588.06
537.654	650.06
537.868	607.06
538.082	579.06
538.296	605.06
538.51	610.06
538.724	653.06
538.938	709.06
539.153	724.06
539.367	723.06
539.581	668.06
539.795	684.06
540.009	646.06
540.222	665.06
540.436	649.06
540.65	739.06
540.864	787.06
541.078	825.06
541.292	828.06
541.506	865.06
541.72	931.06
541.934	980.06
542.147	1055.06
542.361	1002.06
542.575	880.06
542.789	843.06
543.002	759.06
543.216	736.06
543.43	743.06
543.644	800.06
543.857	837.06
544.071	895.06
544.285	906.06
544.498	888.06
544.712	931.06
544.925	913.06
545.139	959.06
545.352	920.06
545.566	910.06
545.779	929.06
545.993	924.06
546.206	934.06
546.42	958.06
546.633	908.06
546.847	924.06
547.06	906.06
547.274	972.06
547.487	973.06
547.7	972.06
547.914	982.06
548.127	927.06
548.34	917.06
548.554	905.06
548.767	908.06
548.98	887.06
549.193	893.06
549.407	952.06
549.62	923.06
549.833	901.06
550.046	897.06
550.259	892.06
550.473	877.06
550.686	879.06
550.899	860.06
551.112	836.06
551.325	815.06
551.538	841.06
551.751	866.06
551.964	717.06
552.177	731.06
552.39	779.06
552.603	836.06
552.816	864.06
553.029	877.06
553.242	897.06
553.455	883.06
553.667	909.06
553.88	872.06
554.093	848.06
554.306	852.06
554.519	815.06
554.732	800.06
554.944	845.06
555.157	824.06
555.37	779.06
555.583	796.06
555.795	754.06
556.008	743.06
556.221	700.06
556.433	719.06
556.646	725.06
556.859	722.06
557.071	727.06
557.284	737.06
557.496	735.06
557.709	722.06
557.921	716.06
558.134	706.06
558.346	724.06
558.559	726.06
558.771	706.06
558.984	672.06
559.196	663.06
559.409	650.06
559.621	668.06
559.833	658.06
560.046	642.06
560.258	693.06
560.47	663.06
560.683	673.06
560.895	662.06
561.107	661.06
561.32	654.06
561.532	664.06
561.744	654.06
561.956	674.06
562.168	654.06
562.381	634.06
562.593	624.06
562.805	647.06
563.017	619.06
563.229	635.06
563.441	654.06
563.653	635.06
563.865	607.06
564.077	618.06
564.289	617.06
564.501	605.06
564.713	616.06
564.925	620.06
565.137	652.06
565.349	607.06
565.561	627.06
565.773	615.06
565.985	632.06
566.197	639.06
566.408	679.06
566.62	659.06
566.832	675.06
567.044	680.06
567.255	653.06
567.467	641.06
567.679	628.06
567.891	650.06
568.102	629.06
568.314	570.06
568.526	535.06
568.737	498.06
568.949	471.06
569.161	462.06
569.372	459.06
569.584	482.06
569.795	461.06
570.007	456.06
570.218	450.06
570.43	437.06
570.641	447.06
570.853	456.06
571.064	473.06
571.276	488.06
571.487	484.06
571.698	464.06
571.91	461.06
572.121	445.06
572.333	442.06
572.544	432.06
572.755	402.06
572.966	391.06
573.178	409.06
573.389	380.06
573.6	415.06
573.811	428.06
574.023	388.06
574.234	380.06
574.445	390.06
574.656	387.06
574.867	393.06
575.078	401.06
575.289	395.06
575.501	391.06
575.712	384.06
575.923	399.06
576.134	399.06
576.345	400.06
576.556	382.06
576.767	391.06
576.978	393.06
577.188	373.06
577.399	363.06
577.61	367.06
577.821	356.06
578.032	372.06
578.243	378.06
578.454	358.06
578.665	341.06
578.875	351.06
579.086	324.06
579.297	307.06
579.508	350.06
579.718	364.06
579.929	342.06
580.14	355.06
580.35	321.06
580.561	352.06
580.772	392.06
580.982	371.06
581.193	360.06
581.403	334.06
581.614	346.06
581.825	360.06
582.035	315.06
582.246	337.06
582.456	342.06
582.667	350.06
582.877	343.06
583.087	328.06
583.298	321.06
583.508	347.06
583.719	316.06
583.929	313.06
584.139	332.06
584.35	329.06
584.56	314.06
584.77	325.06
584.981	322.06
585.191	335.06
585.401	329.06
585.611	322.06
585.821	325.06
586.032	328.06
586.242	319.06
586.452	316.06
586.662	317.06
586.872	305.06
587.082	325.06
587.292	314.06
587.502	309.06
587.713	307.06
587.923	329.06
588.133	317.06
588.343	313.06
588.553	303.06
588.762	313.06
588.972	324.06
589.182	317.06
589.392	317.06
589.602	306.06
589.812	328.06
590.022	306.06
590.232	299.06
590.441	319.06
590.651	320.06
590.861	311.06
591.071	308.06
591.281	295.06
591.49	299.06
591.7	314.06
591.91	313.06
592.119	316.06
592.329	327.06
592.539	335.06
592.748	310.06
592.958	309.06
593.167	310.06
593.377	319.06
593.587	325.06
593.796	320.06
594.006	332.06
594.215	331.06
594.424	336.06
594.634	314.06
594.843	337.06
595.053	367.06
595.262	330.06
595.472	327.06
595.681	316.06
595.89	314.06
596.1	329.06
596.309	337.06
596.518	308.06
596.727	336.06
596.937	333.06
597.146	313.06
597.355	299.06
597.564	308.06
597.774	293.06
597.983	280.06
598.192	289.06
598.401	277.06
598.61	295.06
598.819	301.06
599.028	290.06
599.237	304.06
599.446	273.06
599.655	296.06
599.864	269.06
600.073	286.06
600.282	301.06
600.491	299.06
600.7	280.06
600.909	293.06
601.118	314.06
601.327	327.06
601.536	356.06
601.745	356.06
601.953	332.06
602.162	335.06
602.371	339.06
602.58	353.06
602.789	337.06
602.997	336.06
603.206	352.06
603.415	359.06
603.623	358.06
603.832	332.06
604.041	362.06
604.249	292.06
604.458	303.06
604.666	289.06
604.875	299.06
605.084	324.06
605.292	324.06
605.501	346.06
605.709	368.06
605.918	376.06
606.126	368.06
606.334	358.06
606.543	355.06
606.751	339.06
606.96	351.06
607.168	355.06
607.376	353.06
607.585	347.06
607.793	354.06
608.001	363.06
608.21	350.06
608.418	343.06
608.626	359.06
608.834	354.06
609.043	366.06
609.251	373.06
609.459	356.06
609.667	363.06
609.875	359.06
610.083	384.06
610.291	389.06
610.499	374.06
610.707	354.06
610.916	353.06
611.124	362.06
611.332	376.06
611.54	353.06
611.748	357.06
611.955	369.06
612.163	349.06
612.371	352.06
612.579	343.06
612.787	361.06
612.995	363.06
613.203	352.06
613.411	343.06
613.618	365.06
613.826	356.06
614.034	358.06
614.242	334.06
614.449	367.06
614.657	347.06
614.865	349.06
615.072	364.06
615.28	361.06
615.488	368.06
615.695	367.06
615.903	345.06
616.111	334.06
616.318	368.06
616.526	364.06
616.733	367.06
616.941	353.06
617.148	360.06
617.356	333.06
617.563	338.06
617.771	323.06
617.978	313.06
618.185	337.06
618.393	335.06
618.6	354.06
618.807	339.06
619.015	349.06
619.222	332.06
619.429	325.06
619.637	293.06
619.844	286.06
620.051	303.06
620.258	342.06
620.466	338.06
620.673	313.06
620.88	303.06
621.087	307.06
621.294	278.06
621.501	284.06
621.708	292.06
621.915	320.06
622.122	338.06
622.329	317.06
622.536	337.06
622.743	309.06
622.95	327.06
623.157	311.06
623.364	326.06
623.571	328.06
623.778	320.06
623.985	337.06
624.192	326.06
624.399	315.06
624.606	318.06
624.812	295.06
625.019	286.06
625.226	284.06
625.433	293.06
625.639	274.06
625.846	264.06
626.053	263.06
626.259	247.06
626.466	256.06
626.673	260.06
626.879	238.06
627.086	241.06
627.293	257.06
627.499	266.06
627.706	293.06
627.912	289.06
628.119	288.06
628.325	275.06
628.532	279.06
628.738	287.06
628.945	274.06
629.151	285.06
629.357	279.06
629.564	270.06
629.77	266.06
629.976	277.06
630.183	271.06
630.389	274.06
630.595	291.06
630.802	280.06
631.008	287.06
631.214	261.06
631.42	250.06
631.627	253.06
631.833	261.06
632.039	257.06
632.245	251.06
632.451	265.06
632.657	264.06
632.863	274.06
633.069	265.06
633.275	275.06
633.481	257.06
633.688	281.06
633.893	249.06
634.099	251.06
634.305	267.06
634.511	233.06
634.717	229.06
634.923	230.06
635.129	237.06
635.335	244.06
635.541	234.06
635.747	252.06
635.952	239.06
636.158	249.06
636.364	254.06
636.57	239.06
636.775	275.06
636.981	254.06
637.187	261.06
637.392	265.06
637.598	251.06
637.804	258.06
638.009	250.06
638.215	266.06
638.421	260.06
638.626	252.06
638.832	249.06
639.037	242.06
639.243	231.06
639.448	257.06
639.654	252.06
639.859	254.06
640.065	257.06
640.27	251.06
640.475	251.06
640.681	234.06
640.886	261.06
641.091	244.06
641.297	243.06
641.502	237.06
641.707	257.06
641.913	233.06
642.118	259.06
642.323	228.06
642.528	241.06
642.733	229.06
642.939	237.06
643.144	237.06
643.349	241.06
643.554	236.06
643.759	259.06
643.964	243.06
644.169	261.06
644.374	221.06
644.579	229.06
644.784	208.06
644.989	224.06
645.194	224.06
645.399	241.06
645.604	234.06
645.809	243.06
646.014	232.06
646.219	234.06
646.423	246.06
646.628	247.06
646.833	259.06
647.038	235.06
647.243	229.06
647.447	245.06
647.652	235.06
647.857	233.06
648.062	226.06
648.266	236.06
648.471	241.06
648.676	240.06
648.88	234.06
649.085	249.06
649.289	243.06
649.494	230.06
649.698	251.06
649.903	217.06
650.107	218.06
650.312	228.06
650.516	224.06
650.721	231.06
650.925	224.06
651.13	211.06
651.334	229.06
651.539	228.06
651.743	236.06
651.947	201.06
652.152	211.06
652.356	219.06
652.56	207.06
652.764	206.06
652.969	197.06
653.173	209.06
653.377	192.06
653.581	187.06
653.785	193.06
653.99	197.06
654.194	209.06
654.398	200.06
654.602	192.06
654.806	196.06
655.01	210.06
655.214	190.06
655.418	189.06
655.622	206.06
655.826	208.06
656.03	233.06
656.234	212.06
656.438	251.06
656.642	235.06
656.846	215.06
657.049	213.06
657.253	200.06
657.457	179.06
657.661	168.06
657.865	164.06
658.068	145.06
658.272	168.06
658.476	155.06
658.68	160.06
658.883	155.06
659.087	136.06
659.291	145.06
659.494	128.06
659.698	124.06
659.901	129.06
660.105	133.06
660.309	134.06
660.512	109.06
660.716	125.06
660.919	135.06
661.123	115.06
661.326	106.06
661.53	111.06
661.733	113.06
661.936	122.06
662.14	112.06
662.343	81.06
662.546	94.06
662.75	89.06
662.953	103.06
663.156	84.06
663.36	92.06
663.563	89.06
663.766	89.06
663.969	89.06
664.173	68.06
664.376	90.06
664.579	68.06
664.782	79.06
664.985	85.06
665.188	90.06
665.391	70.06
665.594	86.06
665.797	74.06
666	87.06
666.203	86.06
666.406	75.06
666.609	72.06
666.812	82.06
667.015	81.06
667.218	85.06
667.421	81.06
667.624	76.06
667.827	94.06
668.03	89.06
668.232	87.06
668.435	85.06
668.638	86.06
668.841	79.06
669.043	91.06
669.246	83.06
669.449	93.06
669.651	78.06
669.854	85.06
670.057	80.06
670.259	83.06
670.462	81.06
670.665	75.06
670.867	75.06
671.07	62.06
671.272	83.06
671.475	88.06
671.677	77.06
671.88	88.06
672.082	91.06
672.284	77.06
672.487	82.06
672.689	85.06
672.892	71.06
