Data from WStandard_LampEnergy10_LIBS07252019.E.O._I.C._HRD10591_15-55-52-928.txt Node
Date: Thu Jul 25 15:55:52 EDT 2019
User: cochatt
Spectrometer: HR+D1059
Trigger mode: 1
Integration Time (sec): 1.000000E-1
Scans to average: 1
Electric dark correction enabled: true
Nonlinearity correction enabled: false
Boxcar width: 0
XAxis mode: Wavelengths
Number of Pixels in Spectrum: 2048
>>>>>Begin Spectral Data<<<<<
223.165	-10.12
223.4	-10.12
223.635	-10.12
223.869	-8.12
224.104	-12.12
224.338	-5.12
224.573	-12.12
224.808	-10.12
225.042	-34.12
225.277	-8.12
225.511	-10.12
225.746	12.88
225.98	-2.12
226.215	17.88
226.449	14.88
226.683	13.88
226.918	22.88
227.152	29.88
227.387	33.88
227.621	37.88
227.856	38.88
228.09	41.88
228.324	50.88
228.559	42.88
228.793	86.88
229.027	129.88
229.262	148.88
229.496	133.88
229.73	134.88
229.964	151.88
230.199	172.88
230.433	174.88
230.667	165.88
230.901	191.88
231.136	175.88
231.37	165.88
231.604	167.88
231.838	177.88
232.072	187.88
232.306	149.88
232.541	187.88
232.775	211.88
233.009	190.88
233.243	207.88
233.477	192.88
233.711	205.88
233.945	194.88
234.179	187.88
234.413	209.88
234.647	211.88
234.881	203.88
235.115	193.88
235.349	183.88
235.583	194.88
235.817	195.88
236.051	178.88
236.285	210.88
236.519	214.88
236.753	247.88
236.987	248.88
237.221	214.88
237.455	239.88
237.689	235.88
237.922	207.88
238.156	227.88
238.39	221.88
238.624	242.88
238.858	243.88
239.091	248.88
239.325	264.88
239.559	261.88
239.793	301.88
240.027	318.88
240.26	301.88
240.494	250.88
240.728	231.88
240.961	233.88
241.195	242.88
241.429	246.88
241.662	258.88
241.896	237.88
242.13	257.88
242.363	277.88
242.597	286.88
242.83	265.88
243.064	257.88
243.298	281.88
243.531	297.88
243.765	292.88
243.998	280.88
244.232	264.88
244.465	246.88
244.699	265.88
244.932	292.88
245.166	314.88
245.399	295.88
245.633	281.88
245.866	279.88
246.099	290.88
246.333	297.88
246.566	311.88
246.8	334.88
247.033	359.88
247.266	315.88
247.5	329.88
247.733	307.88
247.966	328.88
248.2	350.88
248.433	342.88
248.666	355.88
248.899	392.88
249.133	419.88
249.366	458.88
249.599	392.88
249.832	355.88
250.066	364.88
250.299	345.88
250.532	331.88
250.765	309.88
250.998	339.88
251.231	340.88
251.465	339.88
251.698	352.88
251.931	334.88
252.164	337.88
252.397	358.88
252.63	375.88
252.863	314.88
253.096	344.88
253.329	355.88
253.562	348.88
253.795	358.88
254.028	351.88
254.261	345.88
254.494	357.88
254.727	329.88
254.96	357.88
255.193	379.88
255.426	412.88
255.659	465.88
255.892	446.88
256.124	405.88
256.357	365.88
256.59	421.88
256.823	409.88
257.056	419.88
257.289	481.88
257.521	526.88
257.754	463.88
257.987	444.88
258.22	476.88
258.452	456.88
258.685	393.88
258.918	385.88
259.151	386.88
259.383	363.88
259.616	347.88
259.849	356.88
260.081	408.88
260.314	441.88
260.547	469.88
260.779	467.88
261.012	441.88
261.244	404.88
261.477	387.88
261.71	398.88
261.942	390.88
262.175	392.88
262.407	401.88
262.64	413.88
262.872	358.88
263.105	369.88
263.337	369.88
263.57	374.88
263.802	378.88
264.035	353.88
264.267	352.88
264.499	347.88
264.732	364.88
264.964	387.88
265.197	422.88
265.429	414.88
265.661	454.88
265.894	494.88
266.126	497.88
266.358	462.88
266.591	458.88
266.823	484.88
267.055	457.88
267.287	444.88
267.52	441.88
267.752	439.88
267.984	445.88
268.216	462.88
268.448	461.88
268.681	437.88
268.913	429.88
269.145	396.88
269.377	404.88
269.609	448.88
269.841	520.88
270.073	571.88
270.306	627.88
270.538	605.88
270.77	541.88
271.002	502.88
271.234	458.88
271.466	485.88
271.698	542.88
271.93	613.88
272.162	595.88
272.394	544.88
272.626	509.88
272.858	453.88
273.09	443.88
273.322	395.88
273.553	399.88
273.785	415.88
274.017	420.88
274.249	449.88
274.481	456.88
274.713	425.88
274.945	414.88
275.176	413.88
275.408	408.88
275.64	371.88
275.872	426.88
276.104	428.88
276.335	475.88
276.567	522.88
276.799	517.88
277.031	486.88
277.262	494.88
277.494	492.88
277.726	525.88
277.957	512.88
278.189	486.88
278.421	419.88
278.652	433.88
278.884	432.88
279.115	449.88
279.347	433.88
279.579	430.88
279.81	437.88
280.042	480.88
280.273	526.88
280.505	499.88
280.736	499.88
280.968	484.88
281.199	445.88
281.431	437.88
281.662	418.88
281.894	409.88
282.125	441.88
282.356	440.88
282.588	447.88
282.819	452.88
283.051	486.88
283.282	523.88
283.513	479.88
283.745	442.88
283.976	419.88
284.207	441.88
284.439	421.88
284.67	438.88
284.901	458.88
285.132	461.88
285.364	424.88
285.595	460.88
285.826	450.88
286.057	452.88
286.288	437.88
286.52	462.88
286.751	503.88
286.982	488.88
287.213	459.88
287.444	444.88
287.675	451.88
287.906	460.88
288.138	502.88
288.369	462.88
288.6	458.88
288.831	435.88
289.062	449.88
289.293	443.88
289.524	442.88
289.755	463.88
289.986	456.88
290.217	439.88
290.448	443.88
290.679	452.88
290.91	459.88
291.141	479.88
291.371	505.88
291.602	478.88
291.833	491.88
292.064	481.88
292.295	502.88
292.526	489.88
292.757	502.88
292.987	511.88
293.218	498.88
293.449	545.88
293.68	569.88
293.91	583.88
294.141	554.88
294.372	541.88
294.603	565.88
294.833	571.88
295.064	542.88
295.295	507.88
295.525	486.88
295.756	449.88
295.987	452.88
296.217	442.88
296.448	456.88
296.679	462.88
296.909	462.88
297.14	484.88
297.37	499.88
297.601	524.88
297.831	556.88
298.062	514.88
298.292	470.88
298.523	472.88
298.753	452.88
298.984	485.88
299.214	472.88
299.445	514.88
299.675	502.88
299.905	515.88
300.136	492.88
300.366	484.88
300.597	453.88
300.827	476.88
301.057	499.88
301.288	513.88
301.518	517.88
301.748	541.88
301.979	556.88
302.209	565.88
302.439	591.88
302.669	601.88
302.9	549.88
303.13	524.88
303.36	526.88
303.59	535.88
303.82	513.88
304.051	526.88
304.281	500.88
304.511	544.88
304.741	581.88
304.971	610.88
305.201	630.88
305.431	557.88
305.661	477.88
305.891	457.88
306.121	497.88
306.352	460.88
306.582	502.88
306.812	542.88
307.042	561.88
307.272	576.88
307.502	600.88
307.731	627.88
307.961	637.88
308.191	578.88
308.421	528.88
308.651	499.88
308.881	491.88
309.111	485.88
309.341	515.88
309.571	499.88
309.8	495.88
310.03	501.88
310.26	481.88
310.49	519.88
310.72	500.88
310.949	533.88
311.179	540.88
311.409	508.88
311.639	499.88
311.868	516.88
312.098	530.88
312.328	503.88
312.557	494.88
312.787	535.88
313.017	532.88
313.246	518.88
313.476	541.88
313.706	549.88
313.935	525.88
314.165	540.88
314.394	549.88
314.624	559.88
314.853	619.88
315.083	634.88
315.312	619.88
315.542	575.88
315.771	527.88
316.001	555.88
316.23	599.88
316.46	547.88
316.689	547.88
316.919	529.88
317.148	538.88
317.377	547.88
317.607	590.88
317.836	666.88
318.065	655.88
318.295	625.88
318.524	591.88
318.753	593.88
318.983	573.88
319.212	561.88
319.441	546.88
319.67	580.88
319.9	564.88
320.129	609.88
320.358	591.88
320.587	613.88
320.816	609.88
321.046	614.88
321.275	589.88
321.504	600.88
321.733	635.88
321.962	612.88
322.191	569.88
322.42	577.88
322.649	563.88
322.878	559.88
323.108	554.88
323.337	567.88
323.566	584.88
323.795	575.88
324.024	595.88
324.253	530.88
324.482	560.88
324.71	561.88
324.939	540.88
325.168	550.88
325.397	567.88
325.626	582.88
325.855	549.88
326.084	557.88
326.313	564.88
326.542	584.88
326.77	594.88
326.999	548.88
327.228	547.88
327.457	539.88
327.686	536.88
327.914	541.88
328.143	569.88
328.372	565.88
328.6	558.88
328.829	562.88
329.058	554.88
329.287	581.88
329.515	567.88
329.744	601.88
329.972	615.88
330.201	647.88
330.43	637.88
330.658	612.88
330.887	604.88
331.115	580.88
331.344	622.88
331.572	581.88
331.801	590.88
332.03	601.88
332.258	615.88
332.486	622.88
332.715	618.88
332.943	612.88
333.172	609.88
333.4	632.88
333.629	638.88
333.857	685.88
334.085	750.88
334.314	813.88
334.542	820.88
334.771	759.88
334.999	697.88
335.227	660.88
335.455	638.88
335.684	634.88
335.912	681.88
336.14	649.88
336.369	618.88
336.597	617.88
336.825	614.88
337.053	635.88
337.281	661.88
337.51	699.88
337.738	714.88
337.966	672.88
338.194	619.88
338.422	608.88
338.65	616.88
338.878	602.88
339.106	575.88
339.334	589.88
339.562	558.88
339.79	576.88
340.018	597.88
340.246	645.88
340.474	646.88
340.702	628.88
340.93	633.88
341.158	627.88
341.386	625.88
341.614	601.88
341.842	610.88
342.07	598.88
342.298	608.88
342.526	630.88
342.754	588.88
342.981	610.88
343.209	588.88
343.437	597.88
343.665	584.88
343.893	606.88
344.12	648.88
344.348	631.88
344.576	587.88
344.804	606.88
345.031	611.88
345.259	595.88
345.487	575.88
345.714	562.88
345.942	535.88
346.17	553.88
346.397	569.88
346.625	543.88
346.853	545.88
347.08	522.88
347.308	577.88
347.535	574.88
347.763	581.88
347.99	561.88
348.218	547.88
348.445	578.88
348.673	576.88
348.9	595.88
349.128	609.88
349.355	618.88
349.583	599.88
349.81	570.88
350.037	539.88
350.265	535.88
350.492	549.88
350.72	562.88
350.947	589.88
351.174	573.88
351.402	561.88
351.629	517.88
351.856	531.88
352.083	547.88
352.311	525.88
352.538	565.88
352.765	588.88
352.992	580.88
353.22	564.88
353.447	533.88
353.674	556.88
353.901	563.88
354.128	565.88
354.355	571.88
354.583	601.88
354.81	609.88
355.037	588.88
355.264	585.88
355.491	579.88
355.718	562.88
355.945	554.88
356.172	563.88
356.399	531.88
356.626	535.88
356.853	581.88
357.08	643.88
357.307	683.88
357.534	639.88
357.761	583.88
357.988	545.88
358.215	539.88
358.441	534.88
358.668	555.88
358.895	566.88
359.122	622.88
359.349	639.88
359.576	623.88
359.802	576.88
360.029	575.88
360.256	552.88
360.483	567.88
360.709	588.88
360.936	614.88
361.163	659.88
361.39	703.88
361.616	712.88
361.843	679.88
362.07	643.88
362.296	590.88
362.523	567.88
362.749	583.88
362.976	575.88
363.203	572.88
363.429	540.88
363.656	547.88
363.882	593.88
364.109	677.88
364.335	678.88
364.562	629.88
364.788	617.88
365.015	575.88
365.241	595.88
365.468	595.88
365.694	606.88
365.92	626.88
366.147	595.88
366.373	593.88
366.599	552.88
366.826	566.88
367.052	563.88
367.278	575.88
367.505	589.88
367.731	606.88
367.957	612.88
368.184	634.88
368.41	663.88
368.636	659.88
368.862	681.88
369.089	675.88
369.315	643.88
369.541	597.88
369.767	591.88
369.993	587.88
370.219	606.88
370.445	629.88
370.672	659.88
370.898	680.88
371.124	674.88
371.35	622.88
371.576	655.88
371.802	673.88
372.028	636.88
372.254	601.88
372.48	594.88
372.706	595.88
372.932	596.88
373.158	627.88
373.384	611.88
373.61	639.88
373.835	649.88
374.061	629.88
374.287	627.88
374.513	632.88
374.739	634.88
374.965	659.88
375.191	659.88
375.416	660.88
375.642	653.88
375.868	685.88
376.094	732.88
376.319	653.88
376.545	653.88
376.771	678.88
376.997	723.88
377.222	691.88
377.448	677.88
377.674	679.88
377.899	686.88
378.125	731.88
378.35	683.88
378.576	646.88
378.802	633.88
379.027	616.88
379.253	640.88
379.478	656.88
379.704	647.88
379.929	636.88
380.155	667.88
380.38	654.88
380.606	657.88
380.831	654.88
381.057	691.88
381.282	683.88
381.507	693.88
381.733	732.88
381.958	743.88
382.184	690.88
382.409	665.88
382.634	680.88
382.86	675.88
383.085	682.88
383.31	716.88
383.535	781.88
383.761	776.88
383.986	768.88
384.211	702.88
384.436	728.88
384.662	788.88
384.887	763.88
385.112	723.88
385.337	716.88
385.562	739.88
385.787	743.88
386.013	759.88
386.238	762.88
386.463	773.88
386.688	847.88
386.913	874.88
387.138	827.88
387.363	782.88
387.588	770.88
387.813	755.88
388.038	777.88
388.263	797.88
388.488	755.88
388.713	724.88
388.938	710.88
389.163	726.88
389.387	754.88
389.612	750.88
389.837	757.88
390.062	777.88
390.287	753.88
390.512	766.88
390.736	730.88
390.961	724.88
391.186	731.88
391.411	750.88
391.636	745.88
391.86	748.88
392.085	748.88
392.31	743.88
392.534	779.88
392.759	791.88
392.984	788.88
393.208	781.88
393.433	825.88
393.658	813.88
393.882	815.88
394.107	789.88
394.331	755.88
394.556	762.88
394.78	751.88
395.005	818.88
395.229	844.88
395.454	874.88
395.678	860.88
395.903	825.88
396.127	785.88
396.352	821.88
396.576	856.88
396.801	842.88
397.025	811.88
397.249	822.88
397.474	838.88
397.698	827.88
397.922	845.88
398.147	899.88
398.371	927.88
398.595	892.88
398.82	868.88
399.044	890.88
399.268	929.88
399.492	963.88
399.717	995.88
399.941	999.88
400.165	966.88
400.389	959.88
400.613	988.88
400.837	1128.88
401.062	1203.88
401.286	1062.88
401.51	996.88
401.734	1017.88
401.958	906.88
402.182	871.88
402.406	858.88
402.63	870.88
402.854	887.88
403.078	898.88
403.302	887.88
403.526	912.88
403.75	927.88
403.974	927.88
404.198	941.88
404.422	971.88
404.645	988.88
404.869	952.88
405.093	907.88
405.317	893.88
405.541	919.88
405.765	957.88
405.988	930.88
406.212	938.88
406.436	965.88
406.66	980.88
406.883	1047.88
407.107	1134.88
407.331	1217.88
407.555	1255.88
407.778	1105.88
408.002	973.88
408.226	961.88
408.449	966.88
408.673	935.88
408.896	962.88
409.12	972.88
409.344	943.88
409.567	901.88
409.791	968.88
410.014	963.88
410.238	1033.88
410.461	1051.88
410.685	956.88
410.908	905.88
411.132	934.88
411.355	949.88
411.578	913.88
411.802	924.88
412.025	930.88
412.249	925.88
412.472	920.88
412.695	910.88
412.919	903.88
413.142	890.88
413.365	927.88
413.589	938.88
413.812	1003.88
414.035	1005.88
414.258	900.88
414.482	929.88
414.705	916.88
414.928	917.88
415.151	906.88
415.374	925.88
415.597	955.88
415.821	921.88
416.044	937.88
416.267	922.88
416.49	937.88
416.713	914.88
416.936	946.88
417.159	972.88
417.382	954.88
417.605	973.88
417.828	938.88
418.051	937.88
418.274	953.88
418.497	921.88
418.72	938.88
418.943	936.88
419.166	954.88
419.389	997.88
419.611	931.88
419.834	955.88
420.057	929.88
420.28	940.88
420.503	941.88
420.726	942.88
420.948	971.88
421.171	930.88
421.394	929.88
421.617	966.88
421.839	999.88
422.062	988.88
422.285	921.88
422.507	924.88
422.73	890.88
422.953	883.88
423.175	876.88
423.398	917.88
423.621	899.88
423.843	917.88
424.066	963.88
424.288	1053.88
424.511	1042.88
424.733	1004.88
424.956	946.88
425.178	929.88
425.401	942.88
425.623	965.88
425.846	933.88
426.068	961.88
426.291	998.88
426.513	961.88
426.735	964.88
426.958	1043.88
427.18	1077.88
427.402	982.88
427.625	1009.88
427.847	978.88
428.069	884.88
428.292	923.88
428.514	908.88
428.736	903.88
428.958	907.88
429.181	921.88
429.403	1073.88
429.625	1217.88
429.847	1052.88
430.069	963.88
430.292	1050.88
430.514	1002.88
430.736	976.88
430.958	981.88
431.18	930.88
431.402	905.88
431.624	841.88
431.846	812.88
432.068	734.88
432.29	730.88
432.512	807.88
432.734	878.88
432.956	902.88
433.178	953.88
433.4	954.88
433.622	932.88
433.844	915.88
434.066	847.88
434.287	801.88
434.509	792.88
434.731	833.88
434.953	942.88
435.175	946.88
435.397	896.88
435.618	896.88
435.84	853.88
436.062	860.88
436.284	887.88
436.505	925.88
436.727	957.88
436.949	924.88
437.17	891.88
437.392	882.88
437.614	853.88
437.835	804.88
438.057	835.88
438.278	856.88
438.5	877.88
438.721	902.88
438.943	907.88
439.165	907.88
439.386	933.88
439.608	967.88
439.829	974.88
440.05	973.88
440.272	938.88
440.493	949.88
440.715	978.88
440.936	1043.88
441.158	1073.88
441.379	1009.88
441.6	1034.88
441.822	1040.88
442.043	1035.88
442.264	987.88
442.486	933.88
442.707	950.88
442.928	953.88
443.149	1012.88
443.371	1034.88
443.592	1026.88
443.813	1027.88
444.034	1013.88
444.255	1038.88
444.476	1027.88
444.698	1031.88
444.919	1034.88
445.14	1116.88
445.361	1078.88
445.582	1060.88
445.803	1047.88
446.024	1053.88
446.245	1079.88
446.466	1063.88
446.687	1031.88
446.908	1064.88
447.129	1029.88
447.35	998.88
447.571	1010.88
447.792	967.88
448.013	947.88
448.234	967.88
448.455	1006.88
448.675	984.88
448.896	903.88
449.117	899.88
449.338	936.88
449.559	975.88
449.779	983.88
450	1021.88
450.221	1053.88
450.442	1007.88
450.662	926.88
450.883	874.88
451.104	867.88
451.324	884.88
451.545	881.88
451.766	854.88
451.986	838.88
452.207	803.88
452.428	803.88
452.648	768.88
452.869	792.88
453.089	805.88
453.31	775.88
453.53	781.88
453.751	724.88
453.971	711.88
454.192	744.88
454.412	789.88
454.633	793.88
454.853	756.88
455.073	738.88
455.294	769.88
455.514	778.88
455.734	757.88
455.955	774.88
456.175	734.88
456.395	742.88
456.616	742.88
456.836	729.88
457.056	721.88
457.276	732.88
457.497	674.88
457.717	694.88
457.937	709.88
458.157	725.88
458.377	678.88
458.598	664.88
458.818	684.88
459.038	727.88
459.258	704.88
459.478	701.88
459.698	701.88
459.918	761.88
460.138	806.88
460.358	832.88
460.578	842.88
460.798	859.88
461.018	893.88
461.238	873.88
461.458	866.88
461.678	848.88
461.898	827.88
462.118	803.88
462.338	854.88
462.558	867.88
462.777	856.88
462.997	859.88
463.217	900.88
463.437	865.88
463.657	875.88
463.876	837.88
464.096	837.88
464.316	861.88
464.536	863.88
464.755	885.88
464.975	887.88
465.195	861.88
465.414	883.88
465.634	878.88
465.854	899.88
466.073	988.88
466.293	949.88
466.512	878.88
466.732	890.88
466.951	900.88
467.171	923.88
467.391	862.88
467.61	878.88
467.829	918.88
468.049	999.88
468.268	1039.88
468.488	951.88
468.707	914.88
468.927	914.88
469.146	893.88
469.365	918.88
469.585	936.88
469.804	929.88
470.023	918.88
470.243	929.88
470.462	911.88
470.681	928.88
470.901	920.88
471.12	955.88
471.339	926.88
471.558	890.88
471.777	915.88
471.997	882.88
472.216	853.88
472.435	776.88
472.654	781.88
472.873	791.88
473.092	840.88
473.311	847.88
473.53	807.88
473.749	826.88
473.968	848.88
474.187	845.88
474.406	863.88
474.625	844.88
474.844	870.88
475.063	862.88
475.282	864.88
475.501	819.88
475.72	826.88
475.939	885.88
476.158	895.88
476.377	876.88
476.596	844.88
476.814	826.88
477.033	829.88
477.252	868.88
477.471	901.88
477.69	901.88
477.908	948.88
478.127	996.88
478.346	1005.88
478.564	1015.88
478.783	997.88
479.002	1023.88
479.22	1000.88
479.439	1031.88
479.658	1023.88
479.876	977.88
480.095	919.88
480.313	886.88
480.532	885.88
480.751	877.88
480.969	819.88
481.188	781.88
481.406	778.88
481.624	768.88
481.843	804.88
482.061	831.88
482.28	870.88
482.498	877.88
482.717	845.88
482.935	902.88
483.153	968.88
483.372	1005.88
483.59	999.88
483.808	958.88
484.027	964.88
484.245	1006.88
484.463	1228.88
484.681	1267.88
484.9	1041.88
485.118	960.88
485.336	941.88
485.554	905.88
485.772	887.88
485.99	891.88
486.209	925.88
486.427	923.88
486.645	956.88
486.863	1011.88
487.081	1029.88
487.299	1000.88
487.517	1006.88
487.735	1082.88
487.953	1187.88
488.171	1161.88
488.389	1145.88
488.607	1073.88
488.825	1155.88
489.043	1063.88
489.261	966.88
489.479	1079.88
489.696	1043.88
489.914	1053.88
490.132	1047.88
490.35	1087.88
490.568	1155.88
490.786	1186.88
491.003	1177.88
491.221	1214.88
491.439	1273.88
491.657	1330.88
491.874	1333.88
492.092	1459.88
492.31	1473.88
492.527	1455.88
492.745	1389.88
492.963	1323.88
493.18	1313.88
493.398	1351.88
493.615	1371.88
493.833	1274.88
494.05	1222.88
494.268	1233.88
494.485	1241.88
494.703	1235.88
494.92	1244.88
495.138	1242.88
495.355	1249.88
495.573	1231.88
495.79	1291.88
496.008	1293.88
496.225	1249.88
496.442	1226.88
496.66	1248.88
496.877	1196.88
497.094	1245.88
497.312	1206.88
497.529	1207.88
497.746	1173.88
497.963	1285.88
498.181	1301.88
498.398	1250.88
498.615	1223.88
498.832	1188.88
499.049	1167.88
499.267	1185.88
499.484	1246.88
499.701	1353.88
499.918	1382.88
500.135	1486.88
500.352	1566.88
500.569	1570.88
500.786	1763.88
501.003	1549.88
501.22	1449.88
501.437	1399.88
501.654	1411.88
501.871	1345.88
502.088	1217.88
502.305	1203.88
502.522	1132.88
502.739	1105.88
502.956	1096.88
503.172	1059.88
503.389	1015.88
503.606	1005.88
503.823	986.88
504.04	993.88
504.256	1006.88
504.473	987.88
504.69	1025.88
504.907	994.88
505.123	956.88
505.34	1073.88
505.557	1377.88
505.773	1122.88
505.99	966.88
506.207	934.88
506.423	893.88
506.64	862.88
506.856	931.88
507.073	1045.88
507.289	1109.88
507.506	1016.88
507.722	925.88
507.939	850.88
508.155	854.88
508.372	848.88
508.588	813.88
508.805	823.88
509.021	787.88
509.238	785.88
509.454	767.88
509.67	760.88
509.887	729.88
510.103	738.88
510.319	748.88
510.536	775.88
510.752	753.88
510.968	750.88
511.184	799.88
511.401	752.88
511.617	731.88
511.833	691.88
512.049	732.88
512.265	715.88
512.481	724.88
512.698	735.88
512.914	793.88
513.13	739.88
513.346	703.88
513.562	695.88
513.778	725.88
513.994	747.88
514.21	755.88
514.426	770.88
514.642	811.88
514.858	793.88
515.074	711.88
515.29	702.88
515.506	711.88
515.721	769.88
515.937	745.88
516.153	810.88
516.369	774.88
516.585	753.88
516.801	718.88
517.016	732.88
517.232	740.88
517.448	809.88
517.664	777.88
517.879	810.88
518.095	818.88
518.311	798.88
518.527	726.88
518.742	731.88
518.958	723.88
519.173	749.88
519.389	784.88
519.605	787.88
519.82	812.88
520.036	795.88
520.251	767.88
520.467	797.88
520.682	847.88
520.898	802.88
521.113	727.88
521.329	732.88
521.544	771.88
521.76	745.88
521.975	702.88
522.19	727.88
522.406	746.88
522.621	931.88
522.836	866.88
523.052	723.88
523.267	736.88
523.482	755.88
523.698	725.88
523.913	726.88
524.128	771.88
524.343	821.88
524.559	796.88
524.774	771.88
524.989	761.88
525.204	782.88
525.419	754.88
525.634	745.88
525.849	747.88
526.064	746.88
526.28	735.88
526.495	654.88
526.71	665.88
526.925	652.88
527.14	649.88
527.355	642.88
527.57	625.88
527.785	665.88
527.999	643.88
528.214	683.88
528.429	694.88
528.644	737.88
528.859	805.88
529.074	829.88
529.289	854.88
529.503	855.88
529.718	818.88
529.933	724.88
530.148	681.88
530.363	661.88
530.577	633.88
530.792	610.88
531.007	624.88
531.221	644.88
531.436	638.88
531.651	673.88
531.865	669.88
532.08	661.88
532.295	632.88
532.509	616.88
532.724	622.88
532.938	665.88
533.153	709.88
533.367	704.88
533.582	749.88
533.796	738.88
534.011	710.88
534.225	671.88
534.44	634.88
534.654	658.88
534.868	645.88
535.083	693.88
535.297	670.88
535.511	691.88
535.726	701.88
535.94	659.88
536.154	630.88
536.369	601.88
536.583	600.88
536.797	620.88
537.011	602.88
537.225	613.88
537.44	586.88
537.654	648.88
537.868	626.88
538.082	631.88
538.296	627.88
538.51	637.88
538.724	670.88
538.938	698.88
539.153	739.88
539.367	711.88
539.581	705.88
539.795	673.88
540.009	655.88
540.222	646.88
540.436	670.88
540.65	742.88
540.864	818.88
541.078	812.88
541.292	829.88
541.506	878.88
541.72	941.88
541.934	1017.88
542.147	1077.88
542.361	977.88
542.575	903.88
542.789	845.88
543.002	777.88
543.216	739.88
543.43	775.88
543.644	825.88
543.857	866.88
544.071	884.88
544.285	940.88
544.498	905.88
544.712	925.88
544.925	933.88
545.139	971.88
545.352	918.88
545.566	938.88
545.779	925.88
545.993	929.88
546.206	967.88
546.42	960.88
546.633	965.88
546.847	937.88
547.06	927.88
547.274	962.88
547.487	1005.88
547.7	983.88
547.914	980.88
548.127	936.88
548.34	953.88
548.554	939.88
548.767	930.88
548.98	891.88
549.193	945.88
549.407	979.88
549.62	961.88
549.833	939.88
550.046	897.88
550.259	913.88
550.473	901.88
550.686	888.88
550.899	852.88
551.112	830.88
551.325	838.88
551.538	847.88
551.751	837.88
551.964	711.88
552.177	712.88
552.39	783.88
552.603	849.88
552.816	853.88
553.029	888.88
553.242	926.88
553.455	910.88
553.667	872.88
553.88	883.88
554.093	903.88
554.306	849.88
554.519	835.88
554.732	841.88
554.944	835.88
555.157	840.88
555.37	807.88
555.583	795.88
555.795	781.88
556.008	747.88
556.221	713.88
556.433	714.88
556.646	724.88
556.859	719.88
557.071	755.88
557.284	757.88
557.496	748.88
557.709	749.88
557.921	773.88
558.134	738.88
558.346	741.88
558.559	750.88
558.771	712.88
558.984	689.88
559.196	652.88
559.409	675.88
559.621	676.88
559.833	644.88
560.046	685.88
560.258	683.88
560.47	668.88
560.683	682.88
560.895	680.88
561.107	661.88
561.32	680.88
561.532	683.88
561.744	656.88
561.956	677.88
562.168	683.88
562.381	661.88
562.593	641.88
562.805	634.88
563.017	639.88
563.229	619.88
563.441	649.88
563.653	632.88
563.865	620.88
564.077	621.88
564.289	626.88
564.501	619.88
564.713	631.88
564.925	636.88
565.137	664.88
565.349	620.88
565.561	634.88
565.773	619.88
565.985	604.88
566.197	660.88
566.408	665.88
566.62	672.88
566.832	703.88
567.044	675.88
567.255	661.88
567.467	627.88
567.679	647.88
567.891	642.88
568.102	618.88
568.314	586.88
568.526	545.88
568.737	517.88
568.949	478.88
569.161	469.88
569.372	465.88
569.584	446.88
569.795	452.88
570.007	441.88
570.218	448.88
570.43	438.88
570.641	454.88
570.853	469.88
571.064	470.88
571.276	488.88
571.487	495.88
571.698	498.88
571.91	468.88
572.121	465.88
572.333	471.88
572.544	433.88
572.755	433.88
572.966	387.88
573.178	388.88
573.389	394.88
573.6	425.88
573.811	431.88
574.023	413.88
574.234	392.88
574.445	393.88
574.656	389.88
574.867	387.88
575.078	406.88
575.289	410.88
575.501	403.88
575.712	395.88
575.923	393.88
576.134	411.88
576.345	402.88
576.556	400.88
576.767	398.88
576.978	392.88
577.188	385.88
577.399	374.88
577.61	379.88
577.821	396.88
578.032	362.88
578.243	373.88
578.454	377.88
578.665	368.88
578.875	345.88
579.086	354.88
579.297	345.88
579.508	355.88
579.718	340.88
579.929	340.88
580.14	347.88
580.35	337.88
580.561	357.88
580.772	391.88
580.982	360.88
581.193	349.88
581.403	354.88
581.614	371.88
581.825	335.88
582.035	345.88
582.246	353.88
582.456	345.88
582.667	348.88
582.877	363.88
583.087	345.88
583.298	335.88
583.508	337.88
583.719	334.88
583.929	331.88
584.139	321.88
584.35	321.88
584.56	320.88
584.77	315.88
584.981	340.88
585.191	335.88
585.401	356.88
585.611	343.88
585.821	317.88
586.032	309.88
586.242	313.88
586.452	294.88
586.662	325.88
586.872	320.88
587.082	323.88
587.292	325.88
587.502	317.88
587.713	317.88
587.923	314.88
588.133	317.88
588.343	307.88
588.553	326.88
588.762	324.88
588.972	306.88
589.182	329.88
589.392	313.88
589.602	301.88
589.812	305.88
590.022	305.88
590.232	297.88
590.441	329.88
590.651	333.88
590.861	326.88
591.071	277.88
591.281	295.88
591.49	317.88
591.7	321.88
591.91	302.88
592.119	305.88
592.329	329.88
592.539	334.88
592.748	308.88
592.958	305.88
593.167	316.88
593.377	326.88
593.587	320.88
593.796	332.88
594.006	348.88
594.215	340.88
594.424	322.88
594.634	336.88
594.843	355.88
595.053	353.88
595.262	334.88
595.472	346.88
595.681	321.88
595.89	303.88
596.1	293.88
596.309	322.88
596.518	317.88
596.727	341.88
596.937	322.88
597.146	314.88
597.355	317.88
597.564	295.88
597.774	285.88
597.983	289.88
598.192	298.88
598.401	281.88
598.61	277.88
598.819	285.88
599.028	306.88
599.237	293.88
599.446	301.88
599.655	295.88
599.864	297.88
600.073	275.88
600.282	305.88
600.491	308.88
600.7	297.88
600.909	298.88
601.118	317.88
601.327	329.88
601.536	328.88
601.745	337.88
601.953	325.88
602.162	357.88
602.371	376.88
602.58	354.88
602.789	361.88
602.997	345.88
603.206	349.88
603.415	361.88
603.623	354.88
603.832	359.88
604.041	335.88
604.249	313.88
604.458	305.88
604.666	324.88
604.875	284.88
605.084	309.88
605.292	345.88
605.501	358.88
605.709	343.88
605.918	349.88
606.126	366.88
606.334	359.88
606.543	358.88
606.751	367.88
606.96	355.88
607.168	357.88
607.376	346.88
607.585	353.88
607.793	350.88
608.001	352.88
608.21	350.88
608.418	373.88
608.626	357.88
608.834	375.88
609.043	362.88
609.251	366.88
609.459	359.88
609.667	353.88
609.875	371.88
610.083	363.88
610.291	390.88
610.499	365.88
610.707	379.88
610.916	375.88
611.124	366.88
611.332	362.88
611.54	361.88
611.748	363.88
611.955	370.88
612.163	365.88
612.371	340.88
612.579	373.88
612.787	361.88
612.995	378.88
613.203	376.88
613.411	361.88
613.618	355.88
613.826	341.88
614.034	346.88
614.242	347.88
614.449	362.88
614.657	369.88
614.865	357.88
615.072	344.88
615.28	362.88
615.488	359.88
615.695	365.88
615.903	348.88
616.111	375.88
616.318	355.88
616.526	366.88
616.733	359.88
616.941	344.88
617.148	354.88
617.356	350.88
617.563	352.88
617.771	347.88
617.978	345.88
618.185	336.88
618.393	334.88
618.6	358.88
618.807	362.88
619.015	334.88
619.222	344.88
619.429	345.88
619.637	311.88
619.844	279.88
620.051	307.88
620.258	333.88
620.466	327.88
620.673	327.88
620.88	325.88
621.087	320.88
621.294	298.88
621.501	289.88
621.708	293.88
621.915	297.88
622.122	333.88
622.329	312.88
622.536	343.88
622.743	329.88
622.95	315.88
623.157	319.88
623.364	326.88
623.571	322.88
623.778	294.88
623.985	331.88
624.192	335.88
624.399	338.88
624.606	331.88
624.812	313.88
625.019	305.88
625.226	299.88
625.433	287.88
625.639	297.88
625.846	264.88
626.053	256.88
626.259	245.88
626.466	242.88
626.673	241.88
626.879	236.88
627.086	251.88
627.293	264.88
627.499	302.88
627.706	300.88
627.912	303.88
628.119	294.88
628.325	328.88
628.532	293.88
628.738	281.88
628.945	284.88
629.151	292.88
629.357	272.88
629.564	290.88
629.77	269.88
629.976	253.88
630.183	263.88
630.389	258.88
630.595	267.88
630.802	292.88
631.008	290.88
631.214	264.88
631.42	264.88
631.627	266.88
631.833	261.88
632.039	269.88
632.245	266.88
632.451	269.88
632.657	277.88
632.863	268.88
633.069	272.88
633.275	273.88
633.481	259.88
633.688	262.88
633.893	266.88
634.099	241.88
634.305	237.88
634.511	251.88
634.717	242.88
634.923	252.88
635.129	238.88
635.335	251.88
635.541	259.88
635.747	245.88
635.952	251.88
636.158	242.88
636.364	268.88
636.57	258.88
636.775	250.88
636.981	269.88
637.187	271.88
637.392	279.88
637.598	255.88
637.804	250.88
638.009	270.88
638.215	271.88
638.421	268.88
638.626	236.88
638.832	257.88
639.037	245.88
639.243	259.88
639.448	260.88
639.654	239.88
639.859	215.88
640.065	256.88
640.27	268.88
640.475	248.88
640.681	230.88
640.886	250.88
641.091	253.88
641.297	250.88
641.502	245.88
641.707	254.88
641.913	251.88
642.118	258.88
642.323	235.88
642.528	245.88
642.733	245.88
642.939	235.88
643.144	236.88
643.349	268.88
643.554	252.88
643.759	241.88
643.964	235.88
644.169	245.88
644.374	255.88
644.579	264.88
644.784	245.88
644.989	230.88
645.194	257.88
645.399	252.88
645.604	245.88
645.809	239.88
646.014	244.88
646.219	249.88
646.423	249.88
646.628	253.88
646.833	238.88
647.038	248.88
647.243	243.88
647.447	238.88
647.652	255.88
647.857	237.88
648.062	251.88
648.266	226.88
648.471	228.88
648.676	227.88
648.88	257.88
649.085	228.88
649.289	249.88
649.494	249.88
649.698	234.88
649.903	254.88
650.107	234.88
650.312	238.88
650.516	229.88
650.721	241.88
650.925	241.88
651.13	220.88
651.334	245.88
651.539	232.88
651.743	222.88
651.947	214.88
652.152	213.88
652.356	223.88
652.56	220.88
652.764	218.88
652.969	216.88
653.173	212.88
653.377	211.88
653.581	189.88
653.785	204.88
653.99	193.88
654.194	207.88
654.398	211.88
654.602	216.88
654.806	202.88
655.01	210.88
655.214	221.88
655.418	195.88
655.622	199.88
655.826	219.88
656.03	212.88
656.234	231.88
656.438	238.88
656.642	210.88
656.846	225.88
657.049	209.88
657.253	199.88
657.457	191.88
657.661	180.88
657.865	190.88
658.068	185.88
658.272	159.88
658.476	162.88
658.68	151.88
658.883	148.88
659.087	151.88
659.291	142.88
659.494	131.88
659.698	139.88
659.901	135.88
660.105	133.88
660.309	124.88
660.512	125.88
660.716	122.88
660.919	117.88
661.123	100.88
661.326	118.88
661.53	108.88
661.733	123.88
661.936	111.88
662.14	103.88
662.343	102.88
662.546	104.88
662.75	95.88
662.953	94.88
663.156	96.88
663.36	107.88
663.563	80.88
663.766	94.88
663.969	78.88
664.173	97.88
664.376	77.88
664.579	83.88
664.782	86.88
664.985	85.88
665.188	79.88
665.391	92.88
665.594	85.88
665.797	92.88
666	92.88
666.203	81.88
666.406	79.88
666.609	81.88
666.812	98.88
667.015	96.88
667.218	91.88
667.421	75.88
667.624	93.88
667.827	80.88
668.03	87.88
668.232	91.88
668.435	78.88
668.638	81.88
668.841	90.88
669.043	90.88
669.246	71.88
669.449	92.88
669.651	80.88
669.854	87.88
670.057	89.88
670.259	89.88
670.462	90.88
670.665	71.88
670.867	77.88
671.07	93.88
671.272	86.88
671.475	84.88
671.677	87.88
671.88	86.88
672.082	94.88
672.284	86.88
672.487	94.88
672.689	100.88
672.892	89.88
