Data from WStandard_LampEnergy5.5LIBS07252019.E.O._I.C._HRD10591_16-07-20-919.txt Node
Date: Thu Jul 25 16:07:20 EDT 2019
User: cochatt
Spectrometer: HR+D1059
Trigger mode: 1
Integration Time (sec): 1.000000E-1
Scans to average: 1
Electric dark correction enabled: true
Nonlinearity correction enabled: false
Boxcar width: 0
XAxis mode: Wavelengths
Number of Pixels in Spectrum: 2048
>>>>>Begin Spectral Data<<<<<
223.165	-16.38
223.4	-16.38
223.635	-16.38
223.869	0.62
224.104	-12.38
224.338	-8.38
224.573	-17.38
224.808	0.62
225.042	-8.38
225.277	-11.38
225.511	-0.38
225.746	-10.38
225.98	11.62
226.215	4.62
226.449	9.62
226.683	17.62
226.918	12.62
227.152	27.62
227.387	43.62
227.621	47.62
227.856	45.62
228.09	41.62
228.324	62.62
228.559	61.62
228.793	141.62
229.027	380.62
229.262	403.62
229.496	394.62
229.73	422.62
229.964	441.62
230.199	482.62
230.433	485.62
230.667	520.62
230.901	556.62
231.136	507.62
231.37	510.62
231.604	485.62
231.838	490.62
232.072	476.62
232.306	443.62
232.541	481.62
232.775	586.62
233.009	622.62
233.243	598.62
233.477	535.62
233.711	592.62
233.945	590.62
234.179	561.62
234.413	597.62
234.647	656.62
234.881	603.62
235.115	582.62
235.349	593.62
235.583	582.62
235.817	584.62
236.051	556.62
236.285	571.62
236.519	617.62
236.753	683.62
236.987	706.62
237.221	703.62
237.455	801.62
237.689	762.62
237.922	702.62
238.156	675.62
238.39	699.62
238.624	716.62
238.858	784.62
239.091	792.62
239.325	856.62
239.559	938.62
239.793	996.62
240.027	1111.62
240.26	1092.62
240.494	785.62
240.728	730.62
240.961	767.62
241.195	760.62
241.429	847.62
241.662	835.62
241.896	800.62
242.13	818.62
242.363	880.62
242.597	940.62
242.83	948.62
243.064	936.62
243.298	1000.62
243.531	971.62
243.765	998.62
243.998	963.62
244.232	846.62
244.465	826.62
244.699	810.62
244.932	951.62
245.166	1094.62
245.399	1029.62
245.633	929.62
245.866	902.62
246.099	978.62
246.333	1023.62
246.566	1008.62
246.8	1098.62
247.033	1254.62
247.266	1127.62
247.5	1141.62
247.733	1080.62
247.966	1170.62
248.2	1320.62
248.433	1253.62
248.666	1291.62
248.899	1386.62
249.133	1608.62
249.366	1857.62
249.599	1502.62
249.832	1283.62
250.066	1318.62
250.299	1356.62
250.532	1240.62
250.765	1106.62
250.998	1204.62
251.231	1255.62
251.465	1298.62
251.698	1240.62
251.931	1251.62
252.164	1276.62
252.397	1303.62
252.63	1315.62
252.863	1150.62
253.096	1129.62
253.329	1196.62
253.562	1229.62
253.795	1337.62
254.028	1324.62
254.261	1238.62
254.494	1227.62
254.727	1170.62
254.96	1202.62
255.193	1314.62
255.426	1493.62
255.659	1666.62
255.892	1771.62
256.124	1450.62
256.357	1394.62
256.59	1479.62
256.823	1512.62
257.056	1466.62
257.289	1806.62
257.521	2016.62
257.754	1794.62
257.987	1647.62
258.22	1856.62
258.452	1833.62
258.685	1462.62
258.918	1405.62
259.151	1422.62
259.383	1401.62
259.616	1229.62
259.849	1310.62
260.081	1464.62
260.314	1607.62
260.547	1776.62
260.779	1842.62
261.012	1666.62
261.244	1510.62
261.477	1391.62
261.71	1496.62
261.942	1485.62
262.175	1423.62
262.407	1504.62
262.64	1472.62
262.872	1343.62
263.105	1292.62
263.337	1334.62
263.57	1357.62
263.802	1389.62
264.035	1266.62
264.267	1181.62
264.499	1166.62
264.732	1259.62
264.964	1346.62
265.197	1383.62
265.429	1452.62
265.661	1636.62
265.894	1822.62
266.126	1891.62
266.358	1659.62
266.591	1752.62
266.823	1895.62
267.055	1698.62
267.287	1695.62
267.52	1624.62
267.752	1585.62
267.984	1614.62
268.216	1671.62
268.448	1714.62
268.681	1680.62
268.913	1554.62
269.145	1480.62
269.377	1438.62
269.609	1559.62
269.841	1797.62
270.073	2119.62
270.306	2363.62
270.538	2562.62
270.77	2166.62
271.002	1778.62
271.234	1705.62
271.466	1732.62
271.698	1888.62
271.93	2330.62
272.162	2324.62
272.394	2085.62
272.626	2026.62
272.858	1769.62
273.09	1480.62
273.322	1489.62
273.553	1444.62
273.785	1416.62
274.017	1489.62
274.249	1598.62
274.481	1630.62
274.713	1497.62
274.945	1452.62
275.176	1494.62
275.408	1469.62
275.64	1448.62
275.872	1396.62
276.104	1473.62
276.335	1696.62
276.567	1974.62
276.799	1988.62
277.031	1780.62
277.262	1684.62
277.494	1707.62
277.726	1934.62
277.957	1941.62
278.189	1751.62
278.421	1623.62
278.652	1550.62
278.884	1535.62
279.115	1504.62
279.347	1592.62
279.579	1514.62
279.81	1494.62
280.042	1680.62
280.273	1830.62
280.505	1849.62
280.736	1887.62
280.968	1748.62
281.199	1563.62
281.431	1492.62
281.662	1489.62
281.894	1471.62
282.125	1522.62
282.356	1594.62
282.588	1616.62
282.819	1559.62
283.051	1722.62
283.282	1886.62
283.513	1790.62
283.745	1518.62
283.976	1408.62
284.207	1486.62
284.439	1478.62
284.67	1537.62
284.901	1556.62
285.132	1608.62
285.364	1536.62
285.595	1576.62
285.826	1541.62
286.057	1565.62
286.288	1508.62
286.52	1571.62
286.751	1725.62
286.982	1801.62
287.213	1628.62
287.444	1506.62
287.675	1496.62
287.906	1556.62
288.138	1684.62
288.369	1655.62
288.6	1552.62
288.831	1502.62
289.062	1516.62
289.293	1520.62
289.524	1555.62
289.755	1642.62
289.986	1606.62
290.217	1477.62
290.448	1502.62
290.679	1576.62
290.91	1571.62
291.141	1623.62
291.371	1721.62
291.602	1640.62
291.833	1640.62
292.064	1709.62
292.295	1658.62
292.526	1731.62
292.757	1814.62
292.987	1722.62
293.218	1576.62
293.449	1720.62
293.68	1934.62
293.91	2126.62
294.141	1960.62
294.372	1816.62
294.603	1845.62
294.833	1952.62
295.064	1901.62
295.295	1655.62
295.525	1644.62
295.756	1526.62
295.987	1444.62
296.217	1453.62
296.448	1544.62
296.679	1535.62
296.909	1529.62
297.14	1517.62
297.37	1509.62
297.601	1627.62
297.831	1748.62
298.062	1802.62
298.292	1601.62
298.523	1521.62
298.753	1541.62
298.984	1572.62
299.214	1542.62
299.445	1602.62
299.675	1613.62
299.905	1594.62
300.136	1613.62
300.366	1560.62
300.597	1517.62
300.827	1500.62
301.057	1593.62
301.288	1660.62
301.518	1640.62
301.748	1702.62
301.979	1754.62
302.209	1753.62
302.439	1889.62
302.669	2046.62
302.9	1930.62
303.13	1701.62
303.36	1694.62
303.59	1745.62
303.82	1710.62
304.051	1684.62
304.281	1676.62
304.511	1690.62
304.741	1772.62
304.971	1955.62
305.201	2175.62
305.431	2010.62
305.661	1614.62
305.891	1472.62
306.121	1455.62
306.352	1512.62
306.582	1608.62
306.812	1743.62
307.042	1887.62
307.272	1857.62
307.502	1883.62
307.731	2058.62
307.961	2229.62
308.191	2064.62
308.421	1787.62
308.651	1663.62
308.881	1610.62
309.111	1578.62
309.341	1576.62
309.571	1580.62
309.8	1597.62
310.03	1658.62
310.26	1578.62
310.49	1607.62
310.72	1622.62
310.949	1724.62
311.179	1752.62
311.409	1711.62
311.639	1642.62
311.868	1605.62
312.098	1627.62
312.328	1627.62
312.557	1589.62
312.787	1631.62
313.017	1726.62
313.246	1655.62
313.476	1641.62
313.706	1729.62
313.935	1702.62
314.165	1713.62
314.394	1759.62
314.624	1837.62
314.853	1988.62
315.083	2060.62
315.312	2149.62
315.542	1979.62
315.771	1748.62
316.001	1732.62
316.23	1847.62
316.46	1825.62
316.689	1810.62
316.919	1661.62
317.148	1617.62
317.377	1653.62
317.607	1744.62
317.836	1952.62
318.065	2115.62
318.295	2012.62
318.524	1926.62
318.753	1813.62
318.983	1820.62
319.212	1785.62
319.441	1733.62
319.67	1739.62
319.9	1752.62
320.129	1858.62
320.358	1952.62
320.587	1995.62
320.816	1976.62
321.046	1922.62
321.275	1854.62
321.504	1835.62
321.733	1993.62
321.962	1948.62
322.191	1771.62
322.42	1762.62
322.649	1724.62
322.878	1726.62
323.108	1744.62
323.337	1846.62
323.566	1822.62
323.795	1790.62
324.024	1823.62
324.253	1783.62
324.482	1799.62
324.71	1757.62
324.939	1629.62
325.168	1693.62
325.397	1726.62
325.626	1816.62
325.855	1831.62
326.084	1787.62
326.313	1734.62
326.542	1742.62
326.77	1821.62
326.999	1823.62
327.228	1798.62
327.457	1647.62
327.686	1639.62
327.914	1665.62
328.143	1756.62
328.372	1754.62
328.6	1751.62
328.829	1752.62
329.058	1708.62
329.287	1696.62
329.515	1774.62
329.744	1766.62
329.972	1824.62
330.201	2002.62
330.43	1897.62
330.658	1826.62
330.887	1893.62
331.115	1854.62
331.344	1872.62
331.572	1824.62
331.801	1804.62
332.03	1822.62
332.258	1852.62
332.486	1876.62
332.715	1876.62
332.943	1929.62
333.172	1833.62
333.4	1855.62
333.629	1882.62
333.857	2006.62
334.085	2198.62
334.314	2527.62
334.542	2850.62
334.771	2587.62
334.999	2231.62
335.227	2106.62
335.455	2004.62
335.684	1989.62
335.912	2008.62
336.14	2086.62
336.369	2037.62
336.597	1938.62
336.825	1871.62
337.053	1934.62
337.281	2050.62
337.51	2141.62
337.738	2223.62
337.966	2196.62
338.194	1946.62
338.422	1848.62
338.65	1847.62
338.878	1801.62
339.106	1757.62
339.334	1759.62
339.562	1735.62
339.79	1726.62
340.018	1881.62
340.246	1927.62
340.474	1992.62
340.702	1880.62
340.93	1919.62
341.158	1859.62
341.386	1842.62
341.614	1833.62
341.842	1805.62
342.07	1818.62
342.298	1840.62
342.526	1878.62
342.754	1840.62
342.981	1756.62
343.209	1786.62
343.437	1804.62
343.665	1823.62
343.893	1866.62
344.12	1883.62
344.348	1966.62
344.576	1882.62
344.804	1851.62
345.031	1825.62
345.259	1820.62
345.487	1815.62
345.714	1694.62
345.942	1646.62
346.17	1659.62
346.397	1724.62
346.625	1744.62
346.853	1692.62
347.08	1600.62
347.308	1631.62
347.535	1695.62
347.763	1739.62
347.99	1721.62
348.218	1658.62
348.445	1678.62
348.673	1707.62
348.9	1763.62
349.128	1763.62
349.355	1894.62
349.583	1813.62
349.81	1722.62
350.037	1590.62
350.265	1573.62
350.492	1608.62
350.72	1615.62
350.947	1714.62
351.174	1755.62
351.402	1658.62
351.629	1606.62
351.856	1554.62
352.083	1571.62
352.311	1574.62
352.538	1602.62
352.765	1683.62
352.992	1737.62
353.22	1702.62
353.447	1623.62
353.674	1648.62
353.901	1711.62
354.128	1659.62
354.355	1634.62
354.583	1688.62
354.81	1744.62
355.037	1741.62
355.264	1712.62
355.491	1684.62
355.718	1694.62
355.945	1684.62
356.172	1654.62
356.399	1597.62
356.626	1594.62
356.853	1717.62
357.08	1785.62
357.307	1978.62
357.534	2071.62
357.761	1754.62
357.988	1644.62
358.215	1566.62
358.441	1579.62
358.668	1616.62
358.895	1605.62
359.122	1667.62
359.349	1871.62
359.576	1882.62
359.802	1696.62
360.029	1624.62
360.256	1650.62
360.483	1636.62
360.709	1637.62
360.936	1734.62
361.163	1765.62
361.39	1962.62
361.616	2100.62
361.843	2059.62
362.07	1964.62
362.296	1700.62
362.523	1647.62
362.749	1643.62
362.976	1661.62
363.203	1736.62
363.429	1672.62
363.656	1619.62
363.882	1675.62
364.109	1842.62
364.335	2043.62
364.562	1910.62
364.788	1819.62
365.015	1702.62
365.241	1595.62
365.468	1656.62
365.694	1759.62
365.92	1820.62
366.147	1761.62
366.373	1597.62
366.599	1633.62
366.826	1600.62
367.052	1594.62
367.278	1622.62
367.505	1648.62
367.731	1728.62
367.957	1720.62
368.184	1710.62
368.41	1842.62
368.636	1863.62
368.862	1837.62
369.089	1869.62
369.315	1851.62
369.541	1758.62
369.767	1699.62
369.993	1626.62
370.219	1643.62
370.445	1711.62
370.672	1770.62
370.898	1890.62
371.124	1860.62
371.35	1735.62
371.576	1782.62
371.802	1900.62
372.028	1824.62
372.254	1706.62
372.48	1650.62
372.706	1650.62
372.932	1691.62
373.158	1637.62
373.384	1681.62
373.61	1750.62
373.835	1832.62
374.061	1762.62
374.287	1765.62
374.513	1698.62
374.739	1772.62
374.965	1771.62
375.191	1741.62
375.416	1794.62
375.642	1832.62
375.868	1858.62
376.094	1995.62
376.319	1894.62
376.545	1773.62
376.771	1805.62
376.997	1890.62
377.222	1875.62
377.448	1822.62
377.674	1843.62
377.899	1815.62
378.125	1918.62
378.35	1928.62
378.576	1763.62
378.802	1657.62
379.027	1634.62
379.253	1696.62
379.478	1723.62
379.704	1714.62
379.929	1724.62
380.155	1718.62
380.38	1725.62
380.606	1818.62
380.831	1762.62
381.057	1822.62
381.282	1883.62
381.507	1754.62
381.733	1903.62
381.958	2002.62
382.184	1868.62
382.409	1800.62
382.634	1811.62
382.86	1805.62
383.085	1811.62
383.31	1858.62
383.535	1934.62
383.761	2102.62
383.986	2062.62
384.211	1942.62
384.436	1936.62
384.662	2007.62
384.887	2105.62
385.112	1948.62
385.337	2034.62
385.562	1972.62
385.787	1950.62
386.013	2036.62
386.238	2024.62
386.463	2067.62
386.688	2143.62
386.913	2258.62
387.138	2253.62
387.363	2058.62
387.588	2059.62
387.813	2052.62
388.038	2049.62
388.263	2099.62
388.488	2081.62
388.713	1865.62
388.938	1894.62
389.163	1890.62
389.387	1960.62
389.612	1938.62
389.837	1992.62
390.062	2013.62
390.287	1977.62
390.512	1955.62
390.736	1983.62
390.961	1942.62
391.186	1905.62
391.411	1875.62
391.636	1963.62
391.86	1975.62
392.085	1944.62
392.31	1944.62
392.534	1988.62
392.759	1989.62
392.984	1959.62
393.208	1995.62
393.433	2031.62
393.658	2159.62
393.882	2152.62
394.107	2039.62
394.331	1955.62
394.556	1970.62
394.78	1963.62
395.005	2030.62
395.229	2140.62
395.454	2303.62
395.678	2291.62
395.903	2194.62
396.127	2088.62
396.352	2106.62
396.576	2210.62
396.801	2216.62
397.025	2135.62
397.249	2170.62
397.474	2106.62
397.698	2144.62
397.922	2188.62
398.147	2312.62
398.371	2372.62
398.595	2348.62
398.82	2275.62
399.044	2263.62
399.268	2399.62
399.492	2615.62
399.717	2640.62
399.941	2669.62
400.165	2590.62
400.389	2520.62
400.613	2486.62
400.837	2741.62
401.062	3139.62
401.286	2745.62
401.51	2462.62
401.734	2594.62
401.958	2508.62
402.182	2316.62
402.406	2234.62
402.63	2176.62
402.854	2235.62
403.078	2242.62
403.302	2318.62
403.526	2362.62
403.75	2317.62
403.974	2384.62
404.198	2383.62
404.422	2378.62
404.645	2492.62
404.869	2541.62
405.093	2315.62
405.317	2228.62
405.541	2347.62
405.765	2376.62
405.988	2365.62
406.212	2379.62
406.436	2458.62
406.66	2539.62
406.883	2580.62
407.107	2789.62
407.331	3122.62
407.555	3250.62
407.778	3109.62
408.002	2599.62
408.226	2447.62
408.449	2494.62
408.673	2423.62
408.896	2376.62
409.12	2482.62
409.344	2420.62
409.567	2315.62
409.791	2382.62
410.014	2416.62
410.238	2484.62
410.461	2632.62
410.685	2379.62
410.908	2294.62
411.132	2348.62
411.355	2329.62
411.578	2284.62
411.802	2271.62
412.025	2334.62
412.249	2295.62
412.472	2222.62
412.695	2230.62
412.919	2216.62
413.142	2198.62
413.365	2281.62
413.589	2354.62
413.812	2454.62
414.035	2522.62
414.258	2285.62
414.482	2228.62
414.705	2259.62
414.928	2233.62
415.151	2180.62
415.374	2254.62
415.597	2298.62
415.821	2290.62
416.044	2392.62
416.267	2338.62
416.49	2191.62
416.713	2140.62
416.936	2213.62
417.159	2317.62
417.382	2351.62
417.605	2206.62
417.828	2258.62
418.051	2323.62
418.274	2240.62
418.497	2117.62
418.72	2152.62
418.943	2146.62
419.166	2354.62
419.389	2444.62
419.611	2293.62
419.834	2184.62
420.057	2238.62
420.28	2190.62
420.503	2135.62
420.726	2219.62
420.948	2217.62
421.171	2115.62
421.394	2189.62
421.617	2251.62
421.839	2269.62
422.062	2204.62
422.285	2154.62
422.507	2140.62
422.73	2125.62
422.953	2071.62
423.175	2071.62
423.398	2123.62
423.621	2153.62
423.843	2163.62
424.066	2247.62
424.288	2258.62
424.511	2319.62
424.733	2275.62
424.956	2056.62
425.178	2081.62
425.401	2061.62
425.623	2104.62
425.846	2121.62
426.068	2220.62
426.291	2287.62
426.513	2223.62
426.735	2195.62
426.958	2321.62
427.18	2501.62
427.402	2253.62
427.625	2343.62
427.847	2374.62
428.069	2212.62
428.292	2152.62
428.514	2079.62
428.736	2074.62
428.958	2101.62
429.181	2095.62
429.403	2360.62
429.625	2970.62
429.847	2624.62
430.069	2172.62
430.292	2355.62
430.514	2487.62
430.736	2314.62
430.958	2426.62
431.18	2318.62
431.402	2101.62
431.624	2032.62
431.846	2104.62
432.068	2066.62
432.29	2080.62
432.512	2118.62
432.734	2148.62
432.956	2212.62
433.178	2338.62
433.4	2252.62
433.622	2266.62
433.844	2166.62
434.066	2073.62
434.287	2068.62
434.509	2167.62
434.731	2231.62
434.953	2424.62
435.175	2364.62
435.397	2255.62
435.618	2235.62
435.84	2231.62
436.062	2200.62
436.284	2227.62
436.505	2216.62
436.727	2260.62
436.949	2229.62
437.17	2152.62
437.392	2087.62
437.614	2133.62
437.835	2087.62
438.057	2234.62
438.278	2302.62
438.5	2146.62
438.721	2133.62
438.943	2130.62
439.165	2083.62
439.386	1986.62
439.608	2079.62
439.829	2086.62
440.05	2111.62
440.272	2078.62
440.493	2028.62
440.715	2105.62
440.936	2203.62
441.158	2470.62
441.379	2420.62
441.6	2293.62
441.822	2230.62
442.043	2253.62
442.264	2195.62
442.486	2114.62
442.707	2074.62
442.928	2059.62
443.149	2163.62
443.371	2319.62
443.592	2360.62
443.813	2288.62
444.034	2291.62
444.255	2345.62
444.476	2371.62
444.698	2401.62
444.919	2391.62
445.14	2454.62
445.361	2440.62
445.582	2551.62
445.803	2444.62
446.024	2278.62
446.245	2407.62
446.466	2325.62
446.687	2228.62
446.908	2226.62
447.129	2130.62
447.35	2158.62
447.571	2155.62
447.792	2053.62
448.013	2040.62
448.234	2108.62
448.455	2208.62
448.675	2210.62
448.896	1972.62
449.117	2012.62
449.338	2094.62
449.559	2128.62
449.779	2253.62
450	2513.62
450.221	2703.62
450.442	2600.62
450.662	2283.62
450.883	2008.62
451.104	1942.62
451.324	2006.62
451.545	2106.62
451.766	2062.62
451.986	1961.62
452.207	1958.62
452.428	1922.62
452.648	1864.62
452.869	1926.62
453.089	2054.62
453.31	2063.62
453.53	2104.62
453.751	2019.62
453.971	1892.62
454.192	1993.62
454.412	2114.62
454.633	2035.62
454.853	1999.62
455.073	1823.62
455.294	1812.62
455.514	1835.62
455.734	1797.62
455.955	1912.62
456.175	1888.62
456.395	1872.62
456.616	1920.62
456.836	1988.62
457.056	1914.62
457.276	1956.62
457.497	1879.62
457.717	1787.62
457.937	1855.62
458.157	1907.62
458.377	1924.62
458.598	1888.62
458.818	1848.62
459.038	1995.62
459.258	2168.62
459.478	2104.62
459.698	2063.62
459.918	2113.62
460.138	2195.62
460.358	2212.62
460.578	2266.62
460.798	2361.62
461.018	2463.62
461.238	2366.62
461.458	2224.62
461.678	2239.62
461.898	2202.62
462.118	2134.62
462.338	2281.62
462.558	2205.62
462.777	2243.62
462.997	2292.62
463.217	2466.62
463.437	2440.62
463.657	2264.62
463.876	2256.62
464.096	2244.62
464.316	2265.62
464.536	2379.62
464.755	2339.62
464.975	2376.62
465.195	2302.62
465.414	2395.62
465.634	2419.62
465.854	2240.62
466.073	2406.62
466.293	2388.62
466.512	2062.62
466.732	2063.62
466.951	2163.62
467.171	2154.62
467.391	2032.62
467.61	1958.62
467.829	2036.62
468.049	2223.62
468.268	2422.62
468.488	2330.62
468.707	2176.62
468.927	2111.62
469.146	2083.62
469.365	2050.62
469.585	2095.62
469.804	2039.62
470.023	2022.62
470.243	2095.62
470.462	2038.62
470.681	1984.62
470.901	2078.62
471.12	2087.62
471.339	2048.62
471.558	1990.62
471.777	1969.62
471.997	2014.62
472.216	1995.62
472.435	1952.62
472.654	1973.62
472.873	2125.62
473.092	2227.62
473.311	2102.62
473.53	1960.62
473.749	1941.62
473.968	2028.62
474.187	2178.62
474.406	2295.62
474.625	2051.62
474.844	2071.62
475.063	2078.62
475.282	2159.62
475.501	2072.62
475.72	2066.62
475.939	2246.62
476.158	2126.62
476.377	2070.62
476.596	2125.62
476.814	2180.62
477.033	2173.62
477.252	2233.62
477.471	2336.62
477.69	2198.62
477.908	2168.62
478.127	2323.62
478.346	2501.62
478.564	2518.62
478.783	2465.62
479.002	2553.62
479.22	2445.62
479.439	2616.62
479.658	2888.62
479.876	2909.62
480.095	2516.62
480.313	2398.62
480.532	2298.62
480.751	2338.62
480.969	2389.62
481.188	2326.62
481.406	2278.62
481.624	2237.62
481.843	2275.62
482.061	2316.62
482.28	2399.62
482.498	2425.62
482.717	2405.62
482.935	2308.62
483.153	2332.62
483.372	2313.62
483.59	2284.62
483.808	2301.62
484.027	2318.62
484.245	2498.62
484.463	2842.62
484.681	3316.62
484.9	2507.62
485.118	2381.62
485.336	2343.62
485.554	2432.62
485.772	2512.62
485.99	2491.62
486.209	2532.62
486.427	2463.62
486.645	2476.62
486.863	2413.62
487.081	2484.62
487.299	2546.62
487.517	2525.62
487.735	2424.62
487.953	2421.62
488.171	2362.62
488.389	2358.62
488.607	2356.62
488.825	2613.62
489.043	2689.62
489.261	2396.62
489.479	2552.62
489.696	2610.62
489.914	2543.62
490.132	2461.62
490.35	2375.62
490.568	2572.62
490.786	2446.62
491.003	2328.62
491.221	2407.62
491.439	2495.62
491.657	2456.62
491.874	2457.62
492.092	2502.62
492.31	2540.62
492.527	2474.62
492.745	2447.62
492.963	2478.62
493.18	2526.62
493.398	2751.62
493.615	2822.62
493.833	2591.62
494.05	2526.62
494.268	2501.62
494.485	2566.62
494.703	2512.62
494.92	2418.62
495.138	2480.62
495.355	2513.62
495.573	2579.62
495.79	2811.62
496.008	2764.62
496.225	2620.62
496.442	2574.62
496.66	2709.62
496.877	2665.62
497.094	2762.62
497.312	2735.62
497.529	2701.62
497.746	2754.62
497.963	3191.62
498.181	3687.62
498.398	3316.62
498.615	3318.62
498.832	3268.62
499.049	3186.62
499.267	3159.62
499.484	3370.62
499.701	3661.62
499.918	3662.62
500.135	3941.62
500.352	4250.62
500.569	4138.62
500.786	4473.62
501.003	4163.62
501.22	3736.62
501.437	3675.62
501.654	3684.62
501.871	3612.62
502.088	3186.62
502.305	3157.62
502.522	3058.62
502.739	2830.62
502.956	2744.62
503.172	2725.62
503.389	2670.62
503.606	2583.62
503.823	2682.62
504.04	2642.62
504.256	2662.62
504.473	2634.62
504.69	2767.62
504.907	2601.62
505.123	2496.62
505.34	2544.62
505.557	3387.62
505.773	2887.62
505.99	2442.62
506.207	2314.62
506.423	2236.62
506.64	2218.62
506.856	2266.62
507.073	2532.62
507.289	2735.62
507.506	2667.62
507.722	2273.62
507.939	2204.62
508.155	2182.62
508.372	2204.62
508.588	2128.62
508.805	2086.62
509.021	2054.62
509.238	2044.62
509.454	2064.62
509.67	2075.62
509.887	2050.62
510.103	2060.62
510.319	2041.62
510.536	2174.62
510.752	2246.62
510.968	2219.62
511.184	2352.62
511.401	2321.62
511.617	2088.62
511.833	2001.62
512.049	1988.62
512.265	1987.62
512.481	1971.62
512.698	2076.62
512.914	2237.62
513.13	2191.62
513.346	2019.62
513.562	1972.62
513.778	2035.62
513.994	2134.62
514.21	2178.62
514.426	2215.62
514.642	2399.62
514.858	2287.62
515.074	2121.62
515.29	2040.62
515.506	2113.62
515.721	2153.62
515.937	2130.62
516.153	2434.62
516.369	2361.62
516.585	2192.62
516.801	2092.62
517.016	2092.62
517.232	2129.62
517.448	2186.62
517.664	2194.62
517.879	2197.62
518.095	2313.62
518.311	2217.62
518.527	2115.62
518.742	2056.62
518.958	2032.62
519.173	1976.62
519.389	2046.62
519.605	2026.62
519.82	2090.62
520.036	2104.62
520.251	2026.62
520.467	2033.62
520.682	2223.62
520.898	2340.62
521.113	2068.62
521.329	1990.62
521.544	2127.62
521.76	2054.62
521.975	1958.62
522.19	1918.62
522.406	1879.62
522.621	2284.62
522.836	2368.62
523.052	1922.62
523.267	1928.62
523.482	1936.62
523.698	1847.62
523.913	1784.62
524.128	1832.62
524.343	1968.62
524.559	1979.62
524.774	1850.62
524.989	1883.62
525.204	1853.62
525.419	1785.62
525.634	1782.62
525.849	1806.62
526.064	1842.62
526.28	1820.62
526.495	1769.62
526.71	1720.62
526.925	1812.62
527.14	1763.62
527.355	1773.62
527.57	1729.62
527.785	1805.62
527.999	1759.62
528.214	1739.62
528.429	1661.62
528.644	1690.62
528.859	1730.62
529.074	1691.62
529.289	1748.62
529.503	1765.62
529.718	1739.62
529.933	1738.62
530.148	1722.62
530.363	1671.62
530.577	1709.62
530.792	1779.62
531.007	1749.62
531.221	1709.62
531.436	1766.62
531.651	1821.62
531.865	1893.62
532.08	1820.62
532.295	1701.62
532.509	1655.62
532.724	1695.62
532.938	1773.62
533.153	1864.62
533.367	1790.62
533.582	1754.62
533.796	1714.62
534.011	1747.62
534.225	1724.62
534.44	1696.62
534.654	1685.62
534.868	1718.62
535.083	1752.62
535.297	1796.62
535.511	1716.62
535.726	1736.62
535.94	1720.62
536.154	1738.62
536.369	1678.62
536.583	1673.62
536.797	1652.62
537.011	1701.62
537.225	1626.62
537.44	1590.62
537.654	1674.62
537.868	1627.62
538.082	1557.62
538.296	1530.62
538.51	1564.62
538.724	1579.62
538.938	1559.62
539.153	1667.62
539.367	1643.62
539.581	1600.62
539.795	1724.62
540.009	1664.62
540.222	1597.62
540.436	1659.62
540.65	1831.62
540.864	1858.62
541.078	1742.62
541.292	1621.62
541.506	1588.62
541.72	1628.62
541.934	1610.62
542.147	1639.62
542.361	1589.62
542.575	1567.62
542.789	1566.62
543.002	1541.62
543.216	1564.62
543.43	1663.62
543.644	1735.62
543.857	1756.62
544.071	1666.62
544.285	1646.62
544.498	1599.62
544.712	1596.62
544.925	1657.62
545.139	1662.62
545.352	1573.62
545.566	1538.62
545.779	1528.62
545.993	1566.62
546.206	1539.62
546.42	1531.62
546.633	1480.62
546.847	1474.62
547.06	1567.62
547.274	1501.62
547.487	1478.62
547.7	1522.62
547.914	1500.62
548.127	1548.62
548.34	1571.62
548.554	1547.62
548.767	1530.62
548.98	1534.62
549.193	1526.62
549.407	1608.62
549.62	1612.62
549.833	1522.62
550.046	1513.62
550.259	1497.62
550.473	1477.62
550.686	1469.62
550.899	1469.62
551.112	1467.62
551.325	1412.62
551.538	1520.62
551.751	1848.62
551.964	1476.62
552.177	1432.62
552.39	1455.62
552.603	1519.62
552.816	1517.62
553.029	1565.62
553.242	1628.62
553.455	1518.62
553.667	1458.62
553.88	1513.62
554.093	1483.62
554.306	1437.62
554.519	1395.62
554.732	1383.62
554.944	1372.62
555.157	1454.62
555.37	1408.62
555.583	1421.62
555.795	1377.62
556.008	1345.62
556.221	1322.62
556.433	1315.62
556.646	1336.62
556.859	1305.62
557.071	1286.62
557.284	1272.62
557.496	1316.62
557.709	1283.62
557.921	1257.62
558.134	1267.62
558.346	1256.62
558.559	1271.62
558.771	1271.62
558.984	1257.62
559.196	1196.62
559.409	1226.62
559.621	1182.62
559.833	1246.62
560.046	1307.62
560.258	1255.62
560.47	1243.62
560.683	1277.62
560.895	1253.62
561.107	1255.62
561.32	1286.62
561.532	1246.62
561.744	1241.62
561.956	1260.62
562.168	1245.62
562.381	1156.62
562.593	1174.62
562.805	1211.62
563.017	1150.62
563.229	1232.62
563.441	1253.62
563.653	1212.62
563.865	1199.62
564.077	1168.62
564.289	1179.62
564.501	1230.62
564.713	1264.62
564.925	1302.62
565.137	1373.62
565.349	1286.62
565.561	1286.62
565.773	1296.62
565.985	1302.62
566.197	1381.62
566.408	1463.62
566.62	1498.62
566.832	1450.62
567.044	1477.62
567.255	1422.62
567.467	1445.62
567.679	1549.62
567.891	1552.62
568.102	1495.62
568.314	1445.62
568.526	1422.62
568.737	1333.62
568.949	1285.62
569.161	1247.62
569.372	1191.62
569.584	1166.62
569.795	1174.62
570.007	1190.62
570.218	1130.62
570.43	1115.62
570.641	1121.62
570.853	1120.62
571.064	1103.62
571.276	1130.62
571.487	1085.62
571.698	1046.62
571.91	1038.62
572.121	983.62
572.333	999.62
572.544	1001.62
572.755	972.62
572.966	975.62
573.178	982.62
573.389	994.62
573.6	1001.62
573.811	1091.62
574.023	1011.62
574.234	996.62
574.445	926.62
574.656	934.62
574.867	913.62
575.078	949.62
575.289	951.62
575.501	901.62
575.712	881.62
575.923	920.62
576.134	932.62
576.345	904.62
576.556	918.62
576.767	893.62
576.978	902.62
577.188	875.62
577.399	869.62
577.61	879.62
577.821	876.62
578.032	848.62
578.243	857.62
578.454	872.62
578.665	827.62
578.875	819.62
579.086	831.62
579.297	839.62
579.508	874.62
579.718	870.62
579.929	863.62
580.14	834.62
580.35	822.62
580.561	843.62
580.772	923.62
580.982	866.62
581.193	832.62
581.403	826.62
581.614	788.62
581.825	795.62
582.035	789.62
582.246	803.62
582.456	819.62
582.667	820.62
582.877	804.62
583.087	768.62
583.298	781.62
583.508	811.62
583.719	794.62
583.929	779.62
584.139	792.62
584.35	747.62
584.56	757.62
584.77	772.62
584.981	788.62
585.191	803.62
585.401	819.62
585.611	777.62
585.821	742.62
586.032	763.62
586.242	730.62
586.452	727.62
586.662	762.62
586.872	774.62
587.082	741.62
587.292	802.62
587.502	774.62
587.713	792.62
587.923	761.62
588.133	770.62
588.343	767.62
588.553	723.62
588.762	771.62
588.972	750.62
589.182	768.62
589.392	747.62
589.602	782.62
589.812	761.62
590.022	704.62
590.232	715.62
590.441	760.62
590.651	759.62
590.861	737.62
591.071	715.62
591.281	728.62
591.49	729.62
591.7	756.62
591.91	730.62
592.119	733.62
592.329	742.62
592.539	770.62
592.748	741.62
592.958	755.62
593.167	776.62
593.377	768.62
593.587	781.62
593.796	806.62
594.006	770.62
594.215	763.62
594.424	760.62
594.634	749.62
594.843	783.62
595.053	783.62
595.262	718.62
595.472	752.62
595.681	736.62
595.89	734.62
596.1	684.62
596.309	718.62
596.518	691.62
596.727	714.62
596.937	690.62
597.146	645.62
597.355	657.62
597.564	644.62
597.774	660.62
597.983	654.62
598.192	642.62
598.401	646.62
598.61	628.62
598.819	660.62
599.028	640.62
599.237	657.62
599.446	612.62
599.655	616.62
599.864	609.62
600.073	621.62
600.282	576.62
600.491	619.62
600.7	594.62
600.909	603.62
601.118	602.62
601.327	600.62
601.536	614.62
601.745	607.62
601.953	609.62
602.162	608.62
602.371	603.62
602.58	591.62
602.789	595.62
602.997	596.62
603.206	594.62
603.415	580.62
603.623	573.62
603.832	589.62
604.041	586.62
604.249	576.62
604.458	577.62
604.666	574.62
604.875	575.62
605.084	581.62
605.292	575.62
605.501	569.62
605.709	555.62
605.918	551.62
606.126	566.62
606.334	559.62
606.543	568.62
606.751	566.62
606.96	585.62
607.168	555.62
607.376	535.62
607.585	558.62
607.793	568.62
608.001	565.62
608.21	552.62
608.418	564.62
608.626	557.62
608.834	557.62
609.043	550.62
609.251	548.62
609.459	566.62
609.667	541.62
609.875	552.62
610.083	560.62
610.291	569.62
610.499	549.62
610.707	543.62
610.916	566.62
611.124	550.62
611.332	560.62
611.54	535.62
611.748	510.62
611.955	518.62
612.163	508.62
612.371	526.62
612.579	533.62
612.787	506.62
612.995	520.62
613.203	534.62
613.411	511.62
613.618	535.62
613.826	543.62
614.034	516.62
614.242	528.62
614.449	538.62
614.657	542.62
614.865	511.62
615.072	520.62
615.28	502.62
615.488	527.62
615.695	540.62
615.903	542.62
616.111	521.62
616.318	501.62
616.526	520.62
616.733	520.62
616.941	524.62
617.148	517.62
617.356	496.62
617.563	492.62
617.771	502.62
617.978	499.62
618.185	497.62
618.393	475.62
618.6	485.62
618.807	496.62
619.015	492.62
619.222	492.62
619.429	488.62
619.637	475.62
619.844	487.62
620.051	476.62
620.258	482.62
620.466	483.62
620.673	455.62
620.88	455.62
621.087	445.62
621.294	469.62
621.501	459.62
621.708	455.62
621.915	502.62
622.122	473.62
622.329	480.62
622.536	485.62
622.743	463.62
622.95	478.62
623.157	464.62
623.364	445.62
623.571	451.62
623.778	437.62
623.985	458.62
624.192	442.62
624.399	429.62
624.606	458.62
624.812	453.62
625.019	421.62
625.226	431.62
625.433	437.62
625.639	426.62
625.846	422.62
626.053	413.62
626.259	450.62
626.466	450.62
626.673	410.62
626.879	407.62
627.086	398.62
627.293	414.62
627.499	421.62
627.706	420.62
627.912	407.62
628.119	411.62
628.325	401.62
628.532	421.62
628.738	414.62
628.945	435.62
629.151	382.62
629.357	404.62
629.564	400.62
629.77	400.62
629.976	390.62
630.183	405.62
630.389	430.62
630.595	398.62
630.802	395.62
631.008	366.62
631.214	384.62
631.42	379.62
631.627	367.62
631.833	374.62
632.039	375.62
632.245	378.62
632.451	370.62
632.657	381.62
632.863	372.62
633.069	377.62
633.275	388.62
633.481	375.62
633.688	358.62
633.893	382.62
634.099	367.62
634.305	372.62
634.511	357.62
634.717	342.62
634.923	348.62
635.129	375.62
635.335	375.62
635.541	367.62
635.747	354.62
635.952	330.62
636.158	384.62
636.364	348.62
636.57	359.62
636.775	360.62
636.981	364.62
637.187	344.62
637.392	352.62
637.598	342.62
637.804	364.62
638.009	355.62
638.215	338.62
638.421	359.62
638.626	334.62
638.832	347.62
639.037	337.62
639.243	348.62
639.448	335.62
639.654	338.62
639.859	333.62
640.065	326.62
640.27	331.62
640.475	350.62
640.681	334.62
640.886	333.62
641.091	343.62
641.297	317.62
641.502	328.62
641.707	342.62
641.913	319.62
642.118	324.62
642.323	318.62
642.528	325.62
642.733	303.62
642.939	323.62
643.144	329.62
643.349	340.62
643.554	340.62
643.759	345.62
643.964	329.62
644.169	310.62
644.374	314.62
644.579	303.62
644.784	316.62
644.989	306.62
645.194	318.62
645.399	317.62
645.604	310.62
645.809	320.62
646.014	320.62
646.219	321.62
646.423	328.62
646.628	301.62
646.833	317.62
647.038	314.62
647.243	308.62
647.447	334.62
647.652	330.62
647.857	326.62
648.062	319.62
648.266	322.62
648.471	320.62
648.676	332.62
648.88	321.62
649.085	321.62
649.289	311.62
649.494	309.62
649.698	299.62
649.903	314.62
650.107	298.62
650.312	308.62
650.516	293.62
650.721	313.62
650.925	271.62
651.13	292.62
651.334	276.62
651.539	283.62
651.743	275.62
651.947	283.62
652.152	253.62
652.356	265.62
652.56	274.62
652.764	281.62
652.969	281.62
653.173	264.62
653.377	249.62
653.581	252.62
653.785	255.62
653.99	244.62
654.194	246.62
654.398	240.62
654.602	238.62
654.806	256.62
655.01	240.62
655.214	260.62
655.418	255.62
655.622	240.62
655.826	230.62
656.03	245.62
656.234	262.62
656.438	295.62
656.642	266.62
656.846	255.62
657.049	242.62
657.253	223.62
657.457	211.62
657.661	191.62
657.865	191.62
658.068	172.62
658.272	158.62
658.476	168.62
658.68	155.62
658.883	149.62
659.087	158.62
659.291	146.62
659.494	148.62
659.698	132.62
659.901	120.62
660.105	131.62
660.309	108.62
660.512	118.62
660.716	113.62
660.919	101.62
661.123	114.62
661.326	112.62
661.53	96.62
661.733	88.62
661.936	111.62
662.14	110.62
662.343	102.62
662.546	88.62
662.75	100.62
662.953	90.62
663.156	73.62
663.36	81.62
663.563	87.62
663.766	74.62
663.969	102.62
664.173	91.62
664.376	84.62
664.579	82.62
664.782	97.62
664.985	96.62
665.188	69.62
665.391	88.62
665.594	90.62
665.797	100.62
666	94.62
666.203	62.62
666.406	83.62
666.609	76.62
666.812	90.62
667.015	87.62
667.218	78.62
667.421	90.62
667.624	91.62
667.827	76.62
668.03	92.62
668.232	88.62
668.435	92.62
668.638	88.62
668.841	93.62
669.043	87.62
669.246	88.62
669.449	84.62
669.651	73.62
669.854	94.62
670.057	95.62
670.259	82.62
670.462	77.62
670.665	87.62
670.867	76.62
671.07	80.62
671.272	84.62
671.475	91.62
671.677	74.62
671.88	96.62
672.082	88.62
672.284	82.62
672.487	88.62
672.689	81.62
672.892	89.62
