Data from WStandard_LampEnergy8_LIBS07252019.E.O._I.C._HRD10591_16-00-37-929.txt Node
Date: Thu Jul 25 16:00:37 EDT 2019
User: cochatt
Spectrometer: HR+D1059
Trigger mode: 1
Integration Time (sec): 1.000000E-1
Scans to average: 1
Electric dark correction enabled: true
Nonlinearity correction enabled: false
Boxcar width: 0
XAxis mode: Wavelengths
Number of Pixels in Spectrum: 2048
>>>>>Begin Spectral Data<<<<<
223.165	-15.75
223.4	-15.75
223.635	-15.75
223.869	-31.75
224.104	-16.75
224.338	-13.75
224.573	-8.75
224.808	-7.75
225.042	7.25
225.277	-6.75
225.511	-13.75
225.746	19.25
225.98	8.25
226.215	1.25
226.449	2.25
226.683	37.25
226.918	16.25
227.152	23.25
227.387	37.25
227.621	43.25
227.856	45.25
228.09	45.25
228.324	54.25
228.559	59.25
228.793	99.25
229.027	184.25
229.262	210.25
229.496	215.25
229.73	228.25
229.964	258.25
230.199	263.25
230.433	268.25
230.667	270.25
230.901	271.25
231.136	242.25
231.37	248.25
231.604	264.25
231.838	263.25
232.072	260.25
232.306	272.25
232.541	280.25
232.775	303.25
233.009	310.25
233.243	272.25
233.477	272.25
233.711	287.25
233.945	307.25
234.179	296.25
234.413	298.25
234.647	342.25
234.881	317.25
235.115	290.25
235.349	299.25
235.583	286.25
235.817	299.25
236.051	286.25
236.285	311.25
236.519	327.25
236.753	330.25
236.987	324.25
237.221	345.25
237.455	388.25
237.689	381.25
237.922	337.25
238.156	344.25
238.39	344.25
238.624	359.25
238.858	379.25
239.091	380.25
239.325	415.25
239.559	460.25
239.793	452.25
240.027	517.25
240.26	481.25
240.494	392.25
240.728	373.25
240.961	363.25
241.195	362.25
241.429	401.25
241.662	398.25
241.896	402.25
242.13	372.25
242.363	428.25
242.597	440.25
242.83	438.25
243.064	439.25
243.298	475.25
243.531	439.25
243.765	441.25
243.998	454.25
244.232	396.25
244.465	389.25
244.699	407.25
244.932	453.25
245.166	486.25
245.399	461.25
245.633	440.25
245.866	470.25
246.099	453.25
246.333	484.25
246.566	479.25
246.8	520.25
247.033	562.25
247.266	524.25
247.5	523.25
247.733	508.25
247.966	569.25
248.2	577.25
248.433	580.25
248.666	625.25
248.899	655.25
249.133	726.25
249.366	762.25
249.599	652.25
249.832	589.25
250.066	617.25
250.299	618.25
250.532	568.25
250.765	513.25
250.998	560.25
251.231	575.25
251.465	581.25
251.698	558.25
251.931	580.25
252.164	566.25
252.397	608.25
252.63	596.25
252.863	537.25
253.096	527.25
253.329	540.25
253.562	562.25
253.795	605.25
254.028	572.25
254.261	556.25
254.494	552.25
254.727	519.25
254.96	549.25
255.193	618.25
255.426	668.25
255.659	752.25
255.892	764.25
256.124	675.25
256.357	643.25
256.59	679.25
256.823	684.25
257.056	702.25
257.289	801.25
257.521	884.25
257.754	782.25
257.987	755.25
258.22	800.25
258.452	782.25
258.685	661.25
258.918	633.25
259.151	672.25
259.383	636.25
259.616	566.25
259.849	624.25
260.081	676.25
260.314	745.25
260.547	789.25
260.779	798.25
261.012	758.25
261.244	662.25
261.477	643.25
261.71	682.25
261.942	683.25
262.175	675.25
262.407	681.25
262.64	654.25
262.872	599.25
263.105	597.25
263.337	633.25
263.57	642.25
263.802	634.25
264.035	580.25
264.267	569.25
264.499	573.25
264.732	598.25
264.964	618.25
265.197	634.25
265.429	690.25
265.661	778.25
265.894	826.25
266.126	848.25
266.358	758.25
266.591	765.25
266.823	809.25
267.055	756.25
267.287	740.25
267.52	737.25
267.752	749.25
267.984	737.25
268.216	776.25
268.448	786.25
268.681	752.25
268.913	720.25
269.145	669.25
269.377	678.25
269.609	742.25
269.841	850.25
270.073	980.25
270.306	1013.25
270.538	1075.25
270.77	909.25
271.002	805.25
271.234	787.25
271.466	813.25
271.698	901.25
271.93	1047.25
272.162	1029.25
272.394	922.25
272.626	882.25
272.858	777.25
273.09	704.25
273.322	686.25
273.553	669.25
273.785	668.25
274.017	692.25
274.249	755.25
274.481	708.25
274.713	664.25
274.945	699.25
275.176	698.25
275.408	644.25
275.64	667.25
275.872	696.25
276.104	763.25
276.335	832.25
276.567	916.25
276.799	896.25
277.031	811.25
277.262	796.25
277.494	823.25
277.726	858.25
277.957	859.25
278.189	785.25
278.421	714.25
278.652	731.25
278.884	748.25
279.115	744.25
279.347	733.25
279.579	710.25
279.81	728.25
280.042	818.25
280.273	848.25
280.505	846.25
280.736	852.25
280.968	800.25
281.199	732.25
281.431	669.25
281.662	692.25
281.894	702.25
282.125	742.25
282.356	737.25
282.588	782.25
282.819	797.25
283.051	826.25
283.282	857.25
283.513	840.25
283.745	726.25
283.976	701.25
284.207	722.25
284.439	728.25
284.67	731.25
284.901	746.25
285.132	774.25
285.364	743.25
285.595	731.25
285.826	739.25
286.057	750.25
286.288	763.25
286.52	776.25
286.751	825.25
286.982	821.25
287.213	769.25
287.444	724.25
287.675	743.25
287.906	774.25
288.138	810.25
288.369	792.25
288.6	757.25
288.831	720.25
289.062	708.25
289.293	745.25
289.524	764.25
289.755	784.25
289.986	744.25
290.217	718.25
290.448	731.25
290.679	753.25
290.91	754.25
291.141	800.25
291.371	804.25
291.602	798.25
291.833	785.25
292.064	818.25
292.295	801.25
292.526	825.25
292.757	849.25
292.987	806.25
293.218	789.25
293.449	883.25
293.68	930.25
293.91	1002.25
294.141	936.25
294.372	899.25
294.603	910.25
294.833	951.25
295.064	888.25
295.295	807.25
295.525	790.25
295.756	729.25
295.987	707.25
296.217	736.25
296.448	721.25
296.679	776.25
296.909	752.25
297.14	733.25
297.37	750.25
297.601	840.25
297.831	850.25
298.062	861.25
298.292	779.25
298.523	787.25
298.753	786.25
298.984	765.25
299.214	805.25
299.445	786.25
299.675	782.25
299.905	850.25
300.136	810.25
300.366	798.25
300.597	752.25
300.827	760.25
301.057	794.25
301.288	829.25
301.518	808.25
301.748	827.25
301.979	906.25
302.209	924.25
302.439	979.25
302.669	961.25
302.9	909.25
303.13	830.25
303.36	847.25
303.59	856.25
303.82	857.25
304.051	846.25
304.281	884.25
304.511	848.25
304.741	899.25
304.971	1024.25
305.201	1077.25
305.431	955.25
305.661	813.25
305.891	732.25
306.121	747.25
306.352	789.25
306.582	851.25
306.812	896.25
307.042	931.25
307.272	926.25
307.502	981.25
307.731	1016.25
307.961	1072.25
308.191	973.25
308.421	891.25
308.651	828.25
308.881	800.25
309.111	800.25
309.341	795.25
309.571	802.25
309.8	807.25
310.03	804.25
310.26	830.25
310.49	802.25
310.72	832.25
310.949	857.25
311.179	872.25
311.409	836.25
311.639	814.25
311.868	822.25
312.098	830.25
312.328	838.25
312.557	848.25
312.787	826.25
313.017	849.25
313.246	871.25
313.476	846.25
313.706	860.25
313.935	836.25
314.165	874.25
314.394	920.25
314.624	966.25
314.853	1009.25
315.083	1055.25
315.312	1056.25
315.542	955.25
315.771	877.25
316.001	889.25
316.23	946.25
316.46	923.25
316.689	920.25
316.919	887.25
317.148	850.25
317.377	889.25
317.607	956.25
317.836	1033.25
318.065	1043.25
318.295	1030.25
318.524	955.25
318.753	929.25
318.983	940.25
319.212	915.25
319.441	889.25
319.67	882.25
319.9	924.25
320.129	960.25
320.358	1003.25
320.587	997.25
320.816	1016.25
321.046	970.25
321.275	952.25
321.504	948.25
321.733	1034.25
321.962	998.25
322.191	896.25
322.42	916.25
322.649	889.25
322.878	885.25
323.108	928.25
323.337	957.25
323.566	944.25
323.795	930.25
324.024	938.25
324.253	949.25
324.482	914.25
324.71	877.25
324.939	869.25
325.168	900.25
325.397	911.25
325.626	940.25
325.855	946.25
326.084	922.25
326.313	927.25
326.542	929.25
326.77	951.25
326.999	963.25
327.228	925.25
327.457	864.25
327.686	861.25
327.914	889.25
328.143	918.25
328.372	901.25
328.6	916.25
328.829	918.25
329.058	908.25
329.287	905.25
329.515	928.25
329.744	908.25
329.972	994.25
330.201	1026.25
330.43	973.25
330.658	945.25
330.887	964.25
331.115	962.25
331.344	973.25
331.572	958.25
331.801	962.25
332.03	950.25
332.258	962.25
332.486	997.25
332.715	994.25
332.943	1005.25
333.172	981.25
333.4	980.25
333.629	1037.25
333.857	1070.25
334.085	1206.25
334.314	1360.25
334.542	1393.25
334.771	1268.25
334.999	1149.25
335.227	1084.25
335.455	1049.25
335.684	1033.25
335.912	1082.25
336.14	1089.25
336.369	1037.25
336.597	981.25
336.825	987.25
337.053	1019.25
337.281	1099.25
337.51	1121.25
337.738	1132.25
337.966	1074.25
338.194	995.25
338.422	973.25
338.65	971.25
338.878	956.25
339.106	972.25
339.334	922.25
339.562	914.25
339.79	946.25
340.018	1016.25
340.246	1035.25
340.474	1017.25
340.702	986.25
340.93	1001.25
341.158	978.25
341.386	980.25
341.614	974.25
341.842	992.25
342.07	976.25
342.298	979.25
342.526	951.25
342.754	965.25
342.981	949.25
343.209	944.25
343.437	949.25
343.665	982.25
343.893	1031.25
344.12	1020.25
344.348	1045.25
344.576	983.25
344.804	958.25
345.031	973.25
345.259	964.25
345.487	923.25
345.714	871.25
345.942	881.25
346.17	928.25
346.397	932.25
346.625	933.25
346.853	876.25
347.08	896.25
347.308	876.25
347.535	905.25
347.763	923.25
347.99	923.25
348.218	901.25
348.445	913.25
348.673	899.25
348.9	936.25
349.128	968.25
349.355	1011.25
349.583	944.25
349.81	922.25
350.037	864.25
350.265	875.25
350.492	874.25
350.72	892.25
350.947	945.25
351.174	964.25
351.402	898.25
351.629	856.25
351.856	846.25
352.083	843.25
352.311	861.25
352.538	903.25
352.765	932.25
352.992	940.25
353.22	883.25
353.447	898.25
353.674	913.25
353.901	890.25
354.128	905.25
354.355	886.25
354.583	917.25
354.81	945.25
355.037	946.25
355.264	934.25
355.491	906.25
355.718	920.25
355.945	918.25
356.172	902.25
356.399	864.25
356.626	910.25
356.853	916.25
357.08	1022.25
357.307	1090.25
357.534	1055.25
357.761	948.25
357.988	877.25
358.215	865.25
358.441	875.25
358.668	861.25
358.895	870.25
359.122	961.25
359.349	1003.25
359.576	969.25
359.802	906.25
360.029	867.25
360.256	908.25
360.483	892.25
360.709	950.25
360.936	972.25
361.163	1010.25
361.39	1081.25
361.616	1136.25
361.843	1130.25
362.07	1008.25
362.296	928.25
362.523	924.25
362.749	906.25
362.976	901.25
363.203	928.25
363.429	900.25
363.656	875.25
363.882	946.25
364.109	1064.25
364.335	1090.25
364.562	999.25
364.788	978.25
365.015	917.25
365.241	910.25
365.468	941.25
365.694	975.25
365.92	965.25
366.147	932.25
366.373	884.25
366.599	868.25
366.826	901.25
367.052	908.25
367.278	926.25
367.505	973.25
367.731	953.25
367.957	932.25
368.184	953.25
368.41	1014.25
368.636	1008.25
368.862	1034.25
369.089	1036.25
369.315	1002.25
369.541	945.25
369.767	926.25
369.993	907.25
370.219	892.25
370.445	942.25
370.672	1032.25
370.898	1046.25
371.124	1028.25
371.35	989.25
371.576	997.25
371.802	1023.25
372.028	979.25
372.254	939.25
372.48	953.25
372.706	916.25
372.932	926.25
373.158	939.25
373.384	972.25
373.61	997.25
373.835	1017.25
374.061	982.25
374.287	964.25
374.513	965.25
374.739	993.25
374.965	960.25
375.191	986.25
375.416	1001.25
375.642	1025.25
375.868	1060.25
376.094	1120.25
376.319	1022.25
376.545	982.25
376.771	1028.25
376.997	1057.25
377.222	1052.25
377.448	1029.25
377.674	1042.25
377.899	1028.25
378.125	1064.25
378.35	1081.25
378.576	965.25
378.802	946.25
379.027	950.25
379.253	982.25
379.478	995.25
379.704	938.25
379.929	941.25
380.155	972.25
380.38	983.25
380.606	988.25
380.831	992.25
381.057	1063.25
381.282	1055.25
381.507	1056.25
381.733	1093.25
381.958	1128.25
382.184	1045.25
382.409	1038.25
382.634	1042.25
382.86	991.25
383.085	1036.25
383.31	1048.25
383.535	1180.25
383.761	1214.25
383.986	1132.25
384.211	1112.25
384.436	1124.25
384.662	1157.25
384.887	1208.25
385.112	1109.25
385.337	1148.25
385.562	1120.25
385.787	1120.25
386.013	1123.25
386.238	1132.25
386.463	1154.25
386.688	1212.25
386.913	1269.25
387.138	1245.25
387.363	1143.25
387.588	1134.25
387.813	1142.25
388.038	1172.25
388.263	1189.25
388.488	1134.25
388.713	1085.25
388.938	1079.25
389.163	1135.25
389.387	1113.25
389.612	1084.25
389.837	1130.25
390.062	1145.25
390.287	1113.25
390.512	1119.25
390.736	1093.25
390.961	1097.25
391.186	1066.25
391.411	1084.25
391.636	1085.25
391.86	1124.25
392.085	1107.25
392.31	1124.25
392.534	1129.25
392.759	1116.25
392.984	1108.25
393.208	1150.25
393.433	1177.25
393.658	1221.25
393.882	1216.25
394.107	1162.25
394.331	1122.25
394.556	1122.25
394.78	1153.25
395.005	1163.25
395.229	1186.25
395.454	1298.25
395.678	1284.25
395.903	1227.25
396.127	1194.25
396.352	1218.25
396.576	1230.25
396.801	1249.25
397.025	1242.25
397.249	1209.25
397.474	1202.25
397.698	1224.25
397.922	1252.25
398.147	1305.25
398.371	1349.25
398.595	1330.25
398.82	1265.25
399.044	1302.25
399.268	1371.25
399.492	1429.25
399.717	1473.25
399.941	1480.25
400.165	1441.25
400.389	1431.25
400.613	1442.25
400.837	1652.25
401.062	1788.25
401.286	1496.25
401.51	1400.25
401.734	1428.25
401.958	1378.25
402.182	1322.25
402.406	1253.25
402.63	1259.25
402.854	1277.25
403.078	1268.25
403.302	1310.25
403.526	1356.25
403.75	1298.25
403.974	1344.25
404.198	1328.25
404.422	1386.25
404.645	1446.25
404.869	1412.25
405.093	1279.25
405.317	1288.25
405.541	1307.25
405.765	1303.25
405.988	1330.25
406.212	1379.25
406.436	1414.25
406.66	1421.25
406.883	1483.25
407.107	1682.25
407.331	1760.25
407.555	1872.25
407.778	1652.25
408.002	1436.25
408.226	1385.25
408.449	1391.25
408.673	1363.25
408.896	1347.25
409.12	1403.25
409.344	1324.25
409.567	1306.25
409.791	1350.25
410.014	1388.25
410.238	1456.25
410.461	1542.25
410.685	1358.25
410.908	1312.25
411.132	1326.25
411.355	1317.25
411.578	1318.25
411.802	1324.25
412.025	1366.25
412.249	1341.25
412.472	1302.25
412.695	1311.25
412.919	1300.25
413.142	1251.25
413.365	1278.25
413.589	1340.25
413.812	1376.25
414.035	1410.25
414.258	1332.25
414.482	1264.25
414.705	1285.25
414.928	1261.25
415.151	1292.25
415.374	1300.25
415.597	1308.25
415.821	1322.25
416.044	1306.25
416.267	1316.25
416.49	1248.25
416.713	1276.25
416.936	1300.25
417.159	1348.25
417.382	1362.25
417.605	1273.25
417.828	1304.25
418.051	1306.25
418.274	1295.25
418.497	1259.25
418.72	1284.25
418.943	1283.25
419.166	1324.25
419.389	1334.25
419.611	1313.25
419.834	1269.25
420.057	1282.25
420.28	1249.25
420.503	1261.25
420.726	1276.25
420.948	1296.25
421.171	1243.25
421.394	1284.25
421.617	1332.25
421.839	1295.25
422.062	1316.25
422.285	1268.25
422.507	1246.25
422.73	1218.25
422.953	1190.25
423.175	1200.25
423.398	1258.25
423.621	1236.25
423.843	1278.25
424.066	1308.25
424.288	1349.25
424.511	1364.25
424.733	1359.25
424.956	1209.25
425.178	1236.25
425.401	1254.25
425.623	1256.25
425.846	1260.25
426.068	1312.25
426.291	1328.25
426.513	1309.25
426.735	1285.25
426.958	1426.25
427.18	1452.25
427.402	1356.25
427.625	1399.25
427.847	1353.25
428.069	1241.25
428.292	1228.25
428.514	1211.25
428.736	1196.25
428.958	1228.25
429.181	1253.25
429.403	1465.25
429.625	1734.25
429.847	1454.25
430.069	1297.25
430.292	1444.25
430.514	1446.25
430.736	1344.25
430.958	1347.25
431.18	1297.25
431.402	1202.25
431.624	1191.25
431.846	1180.25
432.068	1113.25
432.29	1132.25
432.512	1158.25
432.734	1228.25
432.956	1234.25
433.178	1322.25
433.4	1282.25
433.622	1277.25
433.844	1248.25
434.066	1195.25
434.287	1177.25
434.509	1156.25
434.731	1273.25
434.953	1343.25
435.175	1294.25
435.397	1274.25
435.618	1226.25
435.84	1200.25
436.062	1207.25
436.284	1267.25
436.505	1296.25
436.727	1309.25
436.949	1256.25
437.17	1209.25
437.392	1209.25
437.614	1214.25
437.835	1155.25
438.057	1204.25
438.278	1202.25
438.5	1218.25
438.721	1200.25
438.943	1200.25
439.165	1200.25
439.386	1194.25
439.608	1222.25
439.829	1236.25
440.05	1256.25
440.272	1218.25
440.493	1226.25
440.715	1239.25
440.936	1321.25
441.158	1371.25
441.379	1395.25
441.6	1320.25
441.822	1354.25
442.043	1306.25
442.264	1308.25
442.486	1245.25
442.707	1258.25
442.928	1251.25
443.149	1272.25
443.371	1312.25
443.592	1364.25
443.813	1338.25
444.034	1323.25
444.255	1334.25
444.476	1341.25
444.698	1390.25
444.919	1378.25
445.14	1452.25
445.361	1411.25
445.582	1422.25
445.803	1366.25
446.024	1376.25
446.245	1365.25
446.466	1331.25
446.687	1303.25
446.908	1291.25
447.129	1299.25
447.35	1308.25
447.571	1290.25
447.792	1260.25
448.013	1221.25
448.234	1256.25
448.455	1293.25
448.675	1283.25
448.896	1193.25
449.117	1205.25
449.338	1214.25
449.559	1269.25
449.779	1303.25
450	1362.25
450.221	1456.25
450.442	1380.25
450.662	1284.25
450.883	1131.25
451.104	1156.25
451.324	1156.25
451.545	1200.25
451.766	1178.25
451.986	1139.25
452.207	1125.25
452.428	1100.25
452.648	1108.25
452.869	1094.25
453.089	1117.25
453.31	1126.25
453.53	1148.25
453.751	1101.25
453.971	1028.25
454.192	1062.25
454.412	1133.25
454.633	1120.25
454.853	1096.25
455.073	1057.25
455.294	1044.25
455.514	1083.25
455.734	1088.25
455.955	1058.25
456.175	1012.25
456.395	1062.25
456.616	1073.25
456.836	1074.25
457.056	1043.25
457.276	1049.25
457.497	1025.25
457.717	980.25
457.937	1018.25
458.157	1041.25
458.377	1010.25
458.598	1000.25
458.818	1021.25
459.038	1097.25
459.258	1144.25
459.478	1132.25
459.698	1079.25
459.918	1139.25
460.138	1207.25
460.358	1220.25
460.578	1195.25
460.798	1269.25
461.018	1330.25
461.238	1293.25
461.458	1254.25
461.678	1236.25
461.898	1224.25
462.118	1195.25
462.338	1253.25
462.558	1235.25
462.777	1251.25
462.997	1307.25
463.217	1329.25
463.437	1327.25
463.657	1268.25
463.876	1233.25
464.096	1230.25
464.316	1260.25
464.536	1284.25
464.755	1280.25
464.975	1279.25
465.195	1242.25
465.414	1306.25
465.634	1308.25
465.854	1278.25
466.073	1396.25
466.293	1315.25
466.512	1177.25
466.732	1178.25
466.951	1242.25
467.171	1188.25
467.391	1170.25
467.61	1151.25
467.829	1228.25
468.049	1319.25
468.268	1437.25
468.488	1289.25
468.707	1228.25
468.927	1224.25
469.146	1203.25
469.365	1180.25
469.585	1217.25
469.804	1205.25
470.023	1226.25
470.243	1260.25
470.462	1206.25
470.681	1214.25
470.901	1224.25
471.12	1200.25
471.339	1222.25
471.558	1214.25
471.777	1196.25
471.997	1214.25
472.216	1174.25
472.435	1089.25
472.654	1114.25
472.873	1124.25
473.092	1161.25
473.311	1149.25
473.53	1126.25
473.749	1121.25
473.968	1142.25
474.187	1206.25
474.406	1238.25
474.625	1196.25
474.844	1201.25
475.063	1206.25
475.282	1189.25
475.501	1144.25
475.72	1204.25
475.939	1272.25
476.158	1233.25
476.377	1185.25
476.596	1208.25
476.814	1194.25
477.033	1167.25
477.252	1261.25
477.471	1278.25
477.69	1257.25
477.908	1261.25
478.127	1328.25
478.346	1381.25
478.564	1400.25
478.783	1378.25
479.002	1436.25
479.22	1357.25
479.439	1434.25
479.658	1572.25
479.876	1464.25
480.095	1369.25
480.313	1312.25
480.532	1287.25
480.751	1295.25
480.969	1320.25
481.188	1245.25
481.406	1241.25
481.624	1202.25
481.843	1245.25
482.061	1257.25
482.28	1288.25
482.498	1321.25
482.717	1284.25
482.935	1254.25
483.153	1312.25
483.372	1346.25
483.59	1362.25
483.808	1334.25
484.027	1361.25
484.245	1412.25
484.463	1712.25
484.681	1814.25
484.9	1496.25
485.118	1395.25
485.336	1321.25
485.554	1354.25
485.772	1371.25
485.99	1353.25
486.209	1348.25
486.427	1331.25
486.645	1395.25
486.863	1359.25
487.081	1451.25
487.299	1423.25
487.517	1432.25
487.735	1402.25
487.953	1476.25
488.171	1462.25
488.389	1407.25
488.607	1430.25
488.825	1560.25
489.043	1487.25
489.261	1376.25
489.479	1474.25
489.696	1425.25
489.914	1467.25
490.132	1421.25
490.35	1450.25
490.568	1510.25
490.786	1469.25
491.003	1457.25
491.221	1506.25
491.439	1564.25
491.657	1550.25
491.874	1626.25
492.092	1660.25
492.31	1656.25
492.527	1621.25
492.745	1582.25
492.963	1565.25
493.18	1549.25
493.398	1649.25
493.615	1672.25
493.833	1596.25
494.05	1486.25
494.268	1521.25
494.485	1545.25
494.703	1529.25
494.92	1541.25
495.138	1511.25
495.355	1564.25
495.573	1552.25
495.79	1638.25
496.008	1694.25
496.225	1591.25
496.442	1603.25
496.66	1571.25
496.877	1535.25
497.094	1614.25
497.312	1583.25
497.529	1593.25
497.746	1596.25
497.963	1831.25
498.181	1944.25
498.398	1836.25
498.615	1813.25
498.832	1726.25
499.049	1722.25
499.267	1794.25
499.484	1885.25
499.701	2028.25
499.918	2023.25
500.135	2169.25
500.352	2366.25
500.569	2317.25
500.786	2508.25
501.003	2273.25
501.22	2075.25
501.437	1992.25
501.654	2075.25
501.871	1944.25
502.088	1714.25
502.305	1729.25
502.522	1646.25
502.739	1571.25
502.956	1565.25
503.172	1554.25
503.389	1515.25
503.606	1448.25
503.823	1469.25
504.04	1484.25
504.256	1499.25
504.473	1481.25
504.69	1480.25
504.907	1407.25
505.123	1426.25
505.34	1512.25
505.557	1930.25
505.773	1609.25
505.99	1350.25
506.207	1295.25
506.423	1257.25
506.64	1282.25
506.856	1308.25
507.073	1481.25
507.289	1600.25
507.506	1452.25
507.722	1287.25
507.939	1222.25
508.155	1226.25
508.372	1229.25
508.588	1185.25
508.805	1166.25
509.021	1154.25
509.238	1150.25
509.454	1133.25
509.67	1140.25
509.887	1108.25
510.103	1128.25
510.319	1149.25
510.536	1184.25
510.752	1223.25
510.968	1229.25
511.184	1263.25
511.401	1208.25
511.617	1090.25
511.833	1099.25
512.049	1087.25
512.265	1107.25
512.481	1091.25
512.698	1133.25
512.914	1195.25
513.13	1153.25
513.346	1093.25
513.562	1055.25
513.778	1097.25
513.994	1122.25
514.21	1163.25
514.426	1217.25
514.642	1300.25
514.858	1253.25
515.074	1155.25
515.29	1116.25
515.506	1162.25
515.721	1139.25
515.937	1166.25
516.153	1288.25
516.369	1226.25
516.585	1208.25
516.801	1152.25
517.016	1160.25
517.232	1209.25
517.448	1173.25
517.664	1176.25
517.879	1209.25
518.095	1253.25
518.311	1209.25
518.527	1157.25
518.742	1126.25
518.958	1109.25
519.173	1103.25
519.389	1128.25
519.605	1163.25
519.82	1162.25
520.036	1204.25
520.251	1132.25
520.467	1140.25
520.682	1211.25
520.898	1211.25
521.113	1105.25
521.329	1107.25
521.544	1174.25
521.76	1129.25
521.975	1078.25
522.19	1088.25
522.406	1117.25
522.621	1348.25
522.836	1312.25
523.052	1081.25
523.267	1064.25
523.482	1124.25
523.698	1063.25
523.913	1039.25
524.128	1081.25
524.343	1121.25
524.559	1126.25
524.774	1080.25
524.989	1084.25
525.204	1095.25
525.419	1015.25
525.634	1039.25
525.849	1049.25
526.064	1057.25
526.28	1032.25
526.495	982.25
526.71	978.25
526.925	970.25
527.14	983.25
527.355	946.25
527.57	989.25
527.785	999.25
527.999	991.25
528.214	971.25
528.429	969.25
528.644	1004.25
528.859	1009.25
529.074	1056.25
529.289	1081.25
529.503	1108.25
529.718	1069.25
529.933	1048.25
530.148	950.25
530.363	940.25
530.577	948.25
530.792	955.25
531.007	946.25
531.221	967.25
531.436	968.25
531.651	993.25
531.865	1049.25
532.08	985.25
532.295	954.25
532.509	916.25
532.724	950.25
532.938	980.25
533.153	1052.25
533.367	1018.25
533.582	1013.25
533.796	1033.25
534.011	990.25
534.225	973.25
534.44	956.25
534.654	972.25
534.868	943.25
535.083	986.25
535.297	985.25
535.511	976.25
535.726	966.25
535.94	980.25
536.154	941.25
536.369	932.25
536.583	934.25
536.797	941.25
537.011	954.25
537.225	925.25
537.44	910.25
537.654	944.25
537.868	926.25
538.082	916.25
538.296	897.25
538.51	902.25
538.724	932.25
538.938	962.25
539.153	1001.25
539.367	966.25
539.581	942.25
539.795	981.25
540.009	950.25
540.222	919.25
540.436	944.25
540.65	1028.25
540.864	1046.25
541.078	1052.25
541.292	1012.25
541.506	1062.25
541.72	1077.25
541.934	1129.25
542.147	1158.25
542.361	1117.25
542.575	1072.25
542.789	1010.25
543.002	945.25
543.216	969.25
543.43	973.25
543.644	1054.25
543.857	1074.25
544.071	1065.25
544.285	1068.25
544.498	1057.25
544.712	1086.25
544.925	1120.25
545.139	1085.25
545.352	1078.25
545.566	1051.25
545.779	1021.25
545.993	1064.25
546.206	1083.25
546.42	1043.25
546.633	1017.25
546.847	1042.25
547.06	1052.25
547.274	1049.25
547.487	1045.25
547.7	1070.25
547.914	1054.25
548.127	1077.25
548.34	1082.25
548.554	1046.25
548.767	1037.25
548.98	1031.25
549.193	1012.25
549.407	1080.25
549.62	1099.25
549.833	1045.25
550.046	1012.25
550.259	1063.25
550.473	993.25
550.686	1022.25
550.899	977.25
551.112	972.25
551.325	958.25
551.538	998.25
551.751	1117.25
551.964	932.25
552.177	914.25
552.39	948.25
552.603	996.25
552.816	1017.25
553.029	1048.25
553.242	1088.25
553.455	1024.25
553.667	1012.25
553.88	1006.25
554.093	1008.25
554.306	994.25
554.519	967.25
554.732	917.25
554.944	963.25
555.157	960.25
555.37	930.25
555.583	945.25
555.795	922.25
556.008	866.25
556.221	836.25
556.433	881.25
556.646	864.25
556.859	869.25
557.071	853.25
557.284	876.25
557.496	894.25
557.709	837.25
557.921	861.25
558.134	843.25
558.346	836.25
558.559	858.25
558.771	851.25
558.984	836.25
559.196	786.25
559.409	814.25
559.621	818.25
559.833	797.25
560.046	832.25
560.258	830.25
560.47	838.25
560.683	800.25
560.895	807.25
561.107	803.25
561.32	823.25
561.532	828.25
561.744	813.25
561.956	822.25
562.168	806.25
562.381	760.25
562.593	774.25
562.805	760.25
563.017	779.25
563.229	811.25
563.441	823.25
563.653	760.25
563.865	759.25
564.077	783.25
564.289	757.25
564.501	773.25
564.713	786.25
564.925	798.25
565.137	871.25
565.349	803.25
565.561	778.25
565.773	782.25
565.985	796.25
566.197	851.25
566.408	899.25
566.62	898.25
566.832	880.25
567.044	884.25
567.255	882.25
567.467	871.25
567.679	908.25
567.891	943.25
568.102	856.25
568.314	835.25
568.526	794.25
568.737	766.25
568.949	752.25
569.161	713.25
569.372	676.25
569.584	664.25
569.795	652.25
570.007	643.25
570.218	638.25
570.43	651.25
570.641	648.25
570.853	641.25
571.064	667.25
571.276	674.25
571.487	646.25
571.698	641.25
571.91	611.25
572.121	622.25
572.333	605.25
572.544	618.25
572.755	597.25
572.966	586.25
573.178	562.25
573.389	559.25
573.6	602.25
573.811	658.25
574.023	584.25
574.234	568.25
574.445	549.25
574.656	539.25
574.867	538.25
575.078	572.25
575.289	553.25
575.501	546.25
575.712	545.25
575.923	564.25
576.134	577.25
576.345	542.25
576.556	536.25
576.767	535.25
576.978	533.25
577.188	541.25
577.399	530.25
577.61	529.25
577.821	515.25
578.032	523.25
578.243	510.25
578.454	485.25
578.665	501.25
578.875	510.25
579.086	488.25
579.297	490.25
579.508	518.25
579.718	513.25
579.929	480.25
580.14	484.25
580.35	476.25
580.561	496.25
580.772	548.25
580.982	497.25
581.193	489.25
581.403	498.25
581.614	493.25
581.825	475.25
582.035	473.25
582.246	466.25
582.456	484.25
582.667	446.25
582.877	462.25
583.087	482.25
583.298	484.25
583.508	456.25
583.719	455.25
583.929	476.25
584.139	456.25
584.35	448.25
584.56	453.25
584.77	471.25
584.981	460.25
585.191	467.25
585.401	478.25
585.611	446.25
585.821	458.25
586.032	464.25
586.242	420.25
586.452	453.25
586.662	452.25
586.872	453.25
587.082	474.25
587.292	466.25
587.502	434.25
587.713	456.25
587.923	438.25
588.133	438.25
588.343	436.25
588.553	453.25
588.762	457.25
588.972	436.25
589.182	454.25
589.392	430.25
589.602	442.25
589.812	444.25
590.022	442.25
590.232	433.25
590.441	466.25
590.651	445.25
590.861	426.25
591.071	422.25
591.281	446.25
591.49	438.25
591.7	443.25
591.91	457.25
592.119	424.25
592.329	451.25
592.539	462.25
592.748	453.25
592.958	442.25
593.167	458.25
593.377	457.25
593.587	474.25
593.796	445.25
594.006	451.25
594.215	480.25
594.424	438.25
594.634	452.25
594.843	468.25
595.053	484.25
595.262	475.25
595.472	451.25
595.681	454.25
595.89	449.25
596.1	443.25
596.309	449.25
596.518	418.25
596.727	439.25
596.937	454.25
597.146	419.25
597.355	407.25
597.564	409.25
597.774	384.25
597.983	384.25
598.192	386.25
598.401	359.25
598.61	387.25
598.819	391.25
599.028	402.25
599.237	403.25
599.446	386.25
599.655	371.25
599.864	383.25
600.073	374.25
600.282	382.25
600.491	383.25
600.7	380.25
600.909	381.25
601.118	376.25
601.327	397.25
601.536	410.25
601.745	405.25
601.953	412.25
602.162	411.25
602.371	410.25
602.58	422.25
602.789	404.25
602.997	415.25
603.206	406.25
603.415	414.25
603.623	398.25
603.832	402.25
604.041	396.25
604.249	395.25
604.458	394.25
604.666	388.25
604.875	376.25
605.084	397.25
605.292	401.25
605.501	380.25
605.709	398.25
605.918	381.25
606.126	398.25
606.334	412.25
606.543	407.25
606.751	400.25
606.96	407.25
607.168	413.25
607.376	376.25
607.585	398.25
607.793	404.25
608.001	382.25
608.21	389.25
608.418	398.25
608.626	412.25
608.834	387.25
609.043	382.25
609.251	394.25
609.459	393.25
609.667	391.25
609.875	399.25
610.083	393.25
610.291	401.25
610.499	406.25
610.707	397.25
610.916	394.25
611.124	410.25
611.332	377.25
611.54	404.25
611.748	400.25
611.955	399.25
612.163	394.25
612.371	395.25
612.579	379.25
612.787	386.25
612.995	400.25
613.203	388.25
613.411	392.25
613.618	371.25
613.826	378.25
614.034	385.25
614.242	370.25
614.449	384.25
614.657	378.25
614.865	383.25
615.072	376.25
615.28	380.25
615.488	395.25
615.695	382.25
615.903	396.25
616.111	380.25
616.318	384.25
616.526	373.25
616.733	388.25
616.941	380.25
617.148	390.25
617.356	375.25
617.563	392.25
617.771	382.25
617.978	374.25
618.185	352.25
618.393	378.25
618.6	365.25
618.807	376.25
619.015	380.25
619.222	371.25
619.429	371.25
619.637	345.25
619.844	324.25
620.051	335.25
620.258	351.25
620.466	357.25
620.673	345.25
620.88	356.25
621.087	350.25
621.294	347.25
621.501	325.25
621.708	338.25
621.915	349.25
622.122	351.25
622.329	358.25
622.536	344.25
622.743	354.25
622.95	340.25
623.157	329.25
623.364	358.25
623.571	340.25
623.778	338.25
623.985	352.25
624.192	363.25
624.399	347.25
624.606	331.25
624.812	331.25
625.019	309.25
625.226	327.25
625.433	313.25
625.639	324.25
625.846	313.25
626.053	290.25
626.259	298.25
626.466	280.25
626.673	288.25
626.879	273.25
627.086	290.25
627.293	303.25
627.499	308.25
627.706	297.25
627.912	303.25
628.119	326.25
628.325	327.25
628.532	314.25
628.738	320.25
628.945	312.25
629.151	296.25
629.357	308.25
629.564	316.25
629.77	324.25
629.976	312.25
630.183	292.25
630.389	286.25
630.595	320.25
630.802	315.25
631.008	300.25
631.214	292.25
631.42	297.25
631.627	304.25
631.833	287.25
632.039	294.25
632.245	296.25
632.451	287.25
632.657	281.25
632.863	308.25
633.069	277.25
633.275	301.25
633.481	277.25
633.688	273.25
633.893	279.25
634.099	262.25
634.305	289.25
634.511	273.25
634.717	256.25
634.923	269.25
635.129	260.25
635.335	278.25
635.541	269.25
635.747	262.25
635.952	265.25
636.158	270.25
636.364	285.25
636.57	294.25
636.775	270.25
636.981	293.25
637.187	274.25
637.392	297.25
637.598	277.25
637.804	282.25
638.009	264.25
638.215	274.25
638.421	274.25
638.626	289.25
638.832	284.25
639.037	276.25
639.243	268.25
639.448	273.25
639.654	267.25
639.859	269.25
640.065	266.25
640.27	290.25
640.475	270.25
640.681	265.25
640.886	274.25
641.091	274.25
641.297	268.25
641.502	265.25
641.707	269.25
641.913	269.25
642.118	256.25
642.323	252.25
642.528	274.25
642.733	257.25
642.939	273.25
643.144	270.25
643.349	263.25
643.554	262.25
643.759	280.25
643.964	256.25
644.169	260.25
644.374	246.25
644.579	248.25
644.784	260.25
644.989	266.25
645.194	253.25
645.399	231.25
645.604	240.25
645.809	264.25
646.014	251.25
646.219	261.25
646.423	265.25
646.628	249.25
646.833	244.25
647.038	257.25
647.243	270.25
647.447	256.25
647.652	242.25
647.857	262.25
648.062	263.25
648.266	288.25
648.471	252.25
648.676	258.25
648.88	278.25
649.085	258.25
649.289	246.25
649.494	249.25
649.698	245.25
649.903	250.25
650.107	260.25
650.312	262.25
650.516	253.25
650.721	244.25
650.925	235.25
651.13	236.25
651.334	261.25
651.539	234.25
651.743	230.25
651.947	243.25
652.152	246.25
652.356	234.25
652.56	238.25
652.764	223.25
652.969	231.25
653.173	215.25
653.377	205.25
653.581	230.25
653.785	229.25
653.99	210.25
654.194	206.25
654.398	218.25
654.602	212.25
654.806	219.25
655.01	224.25
655.214	224.25
655.418	222.25
655.622	237.25
655.826	241.25
656.03	237.25
656.234	229.25
656.438	256.25
656.642	263.25
656.846	242.25
657.049	235.25
657.253	216.25
657.457	206.25
657.661	182.25
657.865	183.25
658.068	181.25
658.272	174.25
658.476	166.25
658.68	161.25
658.883	149.25
659.087	151.25
659.291	138.25
659.494	135.25
659.698	136.25
659.901	134.25
660.105	143.25
660.309	139.25
660.512	131.25
660.716	140.25
660.919	124.25
661.123	112.25
661.326	117.25
661.53	99.25
661.733	108.25
661.936	104.25
662.14	114.25
662.343	100.25
662.546	103.25
662.75	97.25
662.953	104.25
663.156	99.25
663.36	85.25
663.563	83.25
663.766	84.25
663.969	100.25
664.173	78.25
664.376	80.25
664.579	75.25
664.782	89.25
664.985	91.25
665.188	99.25
665.391	85.25
665.594	89.25
665.797	90.25
666	88.25
666.203	98.25
666.406	94.25
666.609	77.25
666.812	81.25
667.015	94.25
667.218	96.25
667.421	76.25
667.624	82.25
667.827	80.25
668.03	72.25
668.232	70.25
668.435	76.25
668.638	73.25
668.841	76.25
669.043	61.25
669.246	84.25
669.449	68.25
669.651	75.25
669.854	74.25
670.057	79.25
670.259	80.25
670.462	84.25
670.665	94.25
670.867	88.25
671.07	83.25
671.272	83.25
671.475	89.25
671.677	96.25
671.88	90.25
672.082	103.25
672.284	92.25
672.487	75.25
672.689	90.25
672.892	83.25
