Data from WStandard_LampEnergy10_LIBS07252019.E.O._I.C._HRD10591_15-54-14-928.txt Node
Date: Thu Jul 25 15:54:14 EDT 2019
User: cochatt
Spectrometer: HR+D1059
Trigger mode: 1
Integration Time (sec): 1.000000E-1
Scans to average: 1
Electric dark correction enabled: true
Nonlinearity correction enabled: false
Boxcar width: 0
XAxis mode: Wavelengths
Number of Pixels in Spectrum: 2048
>>>>>Begin Spectral Data<<<<<
223.165	-23.5
223.4	-23.5
223.635	-23.5
223.869	-17.5
224.104	-23.5
224.338	-11.5
224.573	2.5
224.808	-19.5
225.042	11.5
225.277	-11.5
225.511	0.5
225.746	9.5
225.98	-7.5
226.215	10.5
226.449	11.5
226.683	14.5
226.918	18.5
227.152	35.5
227.387	35.5
227.621	39.5
227.856	50.5
228.09	30.5
228.324	46.5
228.559	50.5
228.793	72.5
229.027	134.5
229.262	126.5
229.496	141.5
229.73	155.5
229.964	179.5
230.199	167.5
230.433	178.5
230.667	182.5
230.901	166.5
231.136	174.5
231.37	165.5
231.604	180.5
231.838	184.5
232.072	184.5
232.306	170.5
232.541	183.5
232.775	208.5
233.009	190.5
233.243	215.5
233.477	190.5
233.711	184.5
233.945	211.5
234.179	214.5
234.413	204.5
234.647	219.5
234.881	210.5
235.115	189.5
235.349	187.5
235.583	220.5
235.817	188.5
236.051	203.5
236.285	203.5
236.519	206.5
236.753	232.5
236.987	230.5
237.221	231.5
237.455	231.5
237.689	214.5
237.922	230.5
238.156	240.5
238.39	203.5
238.624	240.5
238.858	230.5
239.091	254.5
239.325	270.5
239.559	308.5
239.793	302.5
240.027	297.5
240.26	302.5
240.494	251.5
240.728	243.5
240.961	252.5
241.195	255.5
241.429	264.5
241.662	273.5
241.896	247.5
242.13	233.5
242.363	267.5
242.597	290.5
242.83	279.5
243.064	292.5
243.298	307.5
243.531	284.5
243.765	296.5
243.998	269.5
244.232	243.5
244.465	229.5
244.699	262.5
244.932	290.5
245.166	314.5
245.399	304.5
245.633	269.5
245.866	280.5
246.099	291.5
246.333	288.5
246.566	287.5
246.8	315.5
247.033	345.5
247.266	329.5
247.5	326.5
247.733	313.5
247.966	340.5
248.2	335.5
248.433	350.5
248.666	358.5
248.899	405.5
249.133	446.5
249.366	478.5
249.599	405.5
249.832	368.5
250.066	363.5
250.299	371.5
250.532	346.5
250.765	322.5
250.998	343.5
251.231	320.5
251.465	357.5
251.698	328.5
251.931	336.5
252.164	367.5
252.397	368.5
252.63	361.5
252.863	337.5
253.096	324.5
253.329	331.5
253.562	357.5
253.795	366.5
254.028	364.5
254.261	347.5
254.494	343.5
254.727	345.5
254.96	336.5
255.193	382.5
255.426	426.5
255.659	454.5
255.892	471.5
256.124	395.5
256.357	367.5
256.59	414.5
256.823	412.5
257.056	394.5
257.289	474.5
257.521	495.5
257.754	467.5
257.987	462.5
258.22	488.5
258.452	450.5
258.685	400.5
258.918	406.5
259.151	386.5
259.383	376.5
259.616	339.5
259.849	363.5
260.081	420.5
260.314	455.5
260.547	494.5
260.779	475.5
261.012	426.5
261.244	385.5
261.477	372.5
261.71	409.5
261.942	406.5
262.175	390.5
262.407	416.5
262.64	391.5
262.872	384.5
263.105	367.5
263.337	378.5
263.57	386.5
263.802	374.5
264.035	352.5
264.267	350.5
264.499	354.5
264.732	375.5
264.964	369.5
265.197	386.5
265.429	411.5
265.661	451.5
265.894	501.5
266.126	518.5
266.358	468.5
266.591	489.5
266.823	510.5
267.055	448.5
267.287	443.5
267.52	442.5
267.752	424.5
267.984	444.5
268.216	468.5
268.448	466.5
268.681	454.5
268.913	420.5
269.145	412.5
269.377	414.5
269.609	452.5
269.841	487.5
270.073	599.5
270.306	614.5
270.538	622.5
270.77	523.5
271.002	479.5
271.234	450.5
271.466	494.5
271.698	530.5
271.93	597.5
272.162	596.5
272.394	558.5
272.626	519.5
272.858	459.5
273.09	434.5
273.322	408.5
273.553	406.5
273.785	406.5
274.017	420.5
274.249	446.5
274.481	424.5
274.713	438.5
274.945	391.5
275.176	412.5
275.408	414.5
275.64	411.5
275.872	425.5
276.104	433.5
276.335	498.5
276.567	539.5
276.799	536.5
277.031	481.5
277.262	467.5
277.494	491.5
277.726	554.5
277.957	496.5
278.189	476.5
278.421	453.5
278.652	432.5
278.884	419.5
279.115	440.5
279.347	436.5
279.579	434.5
279.81	444.5
280.042	473.5
280.273	491.5
280.505	507.5
280.736	495.5
280.968	480.5
281.199	438.5
281.431	411.5
281.662	432.5
281.894	419.5
282.125	465.5
282.356	430.5
282.588	440.5
282.819	461.5
283.051	504.5
283.282	506.5
283.513	483.5
283.745	432.5
283.976	406.5
284.207	420.5
284.439	439.5
284.67	430.5
284.901	451.5
285.132	471.5
285.364	459.5
285.595	451.5
285.826	451.5
286.057	445.5
286.288	457.5
286.52	473.5
286.751	480.5
286.982	480.5
287.213	460.5
287.444	421.5
287.675	421.5
287.906	465.5
288.138	482.5
288.369	463.5
288.6	451.5
288.831	435.5
289.062	427.5
289.293	450.5
289.524	468.5
289.755	459.5
289.986	479.5
290.217	451.5
290.448	436.5
290.679	471.5
290.91	455.5
291.141	465.5
291.371	487.5
291.602	472.5
291.833	477.5
292.064	514.5
292.295	470.5
292.526	494.5
292.757	492.5
292.987	490.5
293.218	471.5
293.449	518.5
293.68	596.5
293.91	602.5
294.141	545.5
294.372	552.5
294.603	556.5
294.833	571.5
295.064	548.5
295.295	499.5
295.525	471.5
295.756	426.5
295.987	466.5
296.217	447.5
296.448	460.5
296.679	469.5
296.909	450.5
297.14	450.5
297.37	484.5
297.601	517.5
297.831	528.5
298.062	522.5
298.292	478.5
298.523	460.5
298.753	475.5
298.984	468.5
299.214	467.5
299.445	486.5
299.675	521.5
299.905	479.5
300.136	486.5
300.366	452.5
300.597	456.5
300.827	474.5
301.057	482.5
301.288	491.5
301.518	517.5
301.748	535.5
301.979	572.5
302.209	576.5
302.439	594.5
302.669	601.5
302.9	561.5
303.13	499.5
303.36	539.5
303.59	489.5
303.82	500.5
304.051	506.5
304.281	490.5
304.511	532.5
304.741	578.5
304.971	628.5
305.201	624.5
305.431	557.5
305.661	463.5
305.891	452.5
306.121	452.5
306.352	478.5
306.582	514.5
306.812	524.5
307.042	559.5
307.272	572.5
307.502	598.5
307.731	591.5
307.961	619.5
308.191	589.5
308.421	538.5
308.651	501.5
308.881	510.5
309.111	494.5
309.341	497.5
309.571	486.5
309.8	516.5
310.03	474.5
310.26	500.5
310.49	485.5
310.72	502.5
310.949	521.5
311.179	513.5
311.409	508.5
311.639	522.5
311.868	505.5
312.098	511.5
312.328	500.5
312.557	512.5
312.787	512.5
313.017	529.5
313.246	527.5
313.476	535.5
313.706	521.5
313.935	555.5
314.165	561.5
314.394	558.5
314.624	575.5
314.853	623.5
315.083	622.5
315.312	616.5
315.542	576.5
315.771	561.5
316.001	545.5
316.23	562.5
316.46	558.5
316.689	550.5
316.919	508.5
317.148	525.5
317.377	555.5
317.607	604.5
317.836	634.5
318.065	630.5
318.295	597.5
318.524	589.5
318.753	586.5
318.983	544.5
319.212	560.5
319.441	553.5
319.67	569.5
319.9	550.5
320.129	600.5
320.358	624.5
320.587	622.5
320.816	609.5
321.046	593.5
321.275	580.5
321.504	585.5
321.733	618.5
321.962	600.5
322.191	544.5
322.42	572.5
322.649	539.5
322.878	550.5
323.108	549.5
323.337	561.5
323.566	562.5
323.795	567.5
324.024	578.5
324.253	573.5
324.482	543.5
324.71	544.5
324.939	523.5
325.168	543.5
325.397	553.5
325.626	579.5
325.855	553.5
326.084	547.5
326.313	571.5
326.542	573.5
326.77	593.5
326.999	560.5
327.228	526.5
327.457	512.5
327.686	519.5
327.914	549.5
328.143	584.5
328.372	567.5
328.6	567.5
328.829	536.5
329.058	547.5
329.287	553.5
329.515	555.5
329.744	582.5
329.972	625.5
330.201	632.5
330.43	612.5
330.658	603.5
330.887	624.5
331.115	606.5
331.344	596.5
331.572	565.5
331.801	571.5
332.03	584.5
332.258	594.5
332.486	596.5
332.715	588.5
332.943	593.5
333.172	591.5
333.4	611.5
333.629	591.5
333.857	666.5
334.085	736.5
334.314	829.5
334.542	852.5
334.771	772.5
334.999	674.5
335.227	640.5
335.455	614.5
335.684	633.5
335.912	664.5
336.14	667.5
336.369	631.5
336.597	623.5
336.825	607.5
337.053	629.5
337.281	678.5
337.51	690.5
337.738	698.5
337.966	661.5
338.194	606.5
338.422	588.5
338.65	576.5
338.878	590.5
339.106	551.5
339.334	561.5
339.562	578.5
339.79	570.5
340.018	631.5
340.246	623.5
340.474	619.5
340.702	626.5
340.93	620.5
341.158	608.5
341.386	586.5
341.614	591.5
341.842	602.5
342.07	608.5
342.298	626.5
342.526	596.5
342.754	591.5
342.981	584.5
343.209	583.5
343.437	584.5
343.665	579.5
343.893	620.5
344.12	629.5
344.348	617.5
344.576	580.5
344.804	594.5
345.031	594.5
345.259	572.5
345.487	571.5
345.714	536.5
345.942	562.5
346.17	582.5
346.397	567.5
346.625	554.5
346.853	539.5
347.08	551.5
347.308	548.5
347.535	558.5
347.763	562.5
347.99	567.5
348.218	545.5
348.445	548.5
348.673	558.5
348.9	603.5
349.128	607.5
349.355	623.5
349.583	570.5
349.81	542.5
350.037	521.5
350.265	545.5
350.492	546.5
350.72	555.5
350.947	569.5
351.174	577.5
351.402	535.5
351.629	531.5
351.856	496.5
352.083	534.5
352.311	539.5
352.538	570.5
352.765	561.5
352.992	575.5
353.22	546.5
353.447	555.5
353.674	568.5
353.901	556.5
354.128	544.5
354.355	549.5
354.583	574.5
354.81	572.5
355.037	583.5
355.264	574.5
355.491	557.5
355.718	595.5
355.945	577.5
356.172	549.5
356.399	544.5
356.626	552.5
356.853	593.5
357.08	641.5
357.307	684.5
357.534	638.5
357.761	567.5
357.988	539.5
358.215	527.5
358.441	535.5
358.668	523.5
358.895	568.5
359.122	600.5
359.349	639.5
359.576	590.5
359.802	555.5
360.029	544.5
360.256	526.5
360.483	566.5
360.709	575.5
360.936	600.5
361.163	635.5
361.39	671.5
361.616	715.5
361.843	700.5
362.07	639.5
362.296	546.5
362.523	538.5
362.749	586.5
362.976	586.5
363.203	576.5
363.429	555.5
363.656	550.5
363.882	590.5
364.109	668.5
364.335	664.5
364.562	609.5
364.788	622.5
365.015	592.5
365.241	563.5
365.468	571.5
365.694	618.5
365.92	615.5
366.147	577.5
366.373	527.5
366.599	542.5
366.826	539.5
367.052	529.5
367.278	546.5
367.505	599.5
367.731	590.5
367.957	604.5
368.184	634.5
368.41	650.5
368.636	680.5
368.862	670.5
369.089	671.5
369.315	632.5
369.541	588.5
369.767	600.5
369.993	604.5
370.219	589.5
370.445	634.5
370.672	615.5
370.898	664.5
371.124	668.5
371.35	619.5
371.576	640.5
371.802	658.5
372.028	624.5
372.254	606.5
372.48	592.5
372.706	593.5
372.932	615.5
373.158	617.5
373.384	622.5
373.61	669.5
373.835	647.5
374.061	650.5
374.287	633.5
374.513	636.5
374.739	632.5
374.965	646.5
375.191	638.5
375.416	633.5
375.642	661.5
375.868	712.5
376.094	723.5
376.319	666.5
376.545	641.5
376.771	668.5
376.997	689.5
377.222	660.5
377.448	669.5
377.674	676.5
377.899	690.5
378.125	722.5
378.35	676.5
378.576	634.5
378.802	622.5
379.027	609.5
379.253	640.5
379.478	642.5
379.704	624.5
379.929	648.5
380.155	620.5
380.38	664.5
380.606	641.5
380.831	662.5
381.057	726.5
381.282	700.5
381.507	710.5
381.733	734.5
381.958	742.5
382.184	698.5
382.409	680.5
382.634	668.5
382.86	687.5
383.085	681.5
383.31	724.5
383.535	761.5
383.761	820.5
383.986	768.5
384.211	726.5
384.436	715.5
384.662	743.5
384.887	763.5
385.112	718.5
385.337	754.5
385.562	743.5
385.787	772.5
386.013	752.5
386.238	759.5
386.463	768.5
386.688	826.5
386.913	854.5
387.138	844.5
387.363	761.5
387.588	757.5
387.813	766.5
388.038	765.5
388.263	805.5
388.488	767.5
388.713	702.5
388.938	722.5
389.163	712.5
389.387	754.5
389.612	741.5
389.837	758.5
390.062	771.5
390.287	754.5
390.512	766.5
390.736	718.5
390.961	712.5
391.186	714.5
391.411	724.5
391.636	743.5
391.86	746.5
392.085	754.5
392.31	744.5
392.534	735.5
392.759	757.5
392.984	764.5
393.208	775.5
393.433	793.5
393.658	826.5
393.882	810.5
394.107	752.5
394.331	790.5
394.556	747.5
394.78	791.5
395.005	800.5
395.229	840.5
395.454	894.5
395.678	858.5
395.903	837.5
396.127	810.5
396.352	831.5
396.576	830.5
396.801	854.5
397.025	850.5
397.249	829.5
397.474	810.5
397.698	818.5
397.922	843.5
398.147	894.5
398.371	921.5
398.595	904.5
398.82	862.5
399.044	873.5
399.268	921.5
399.492	987.5
399.717	977.5
399.941	971.5
400.165	961.5
400.389	946.5
400.613	984.5
400.837	1097.5
401.062	1184.5
401.286	996.5
401.51	981.5
401.734	973.5
401.958	944.5
402.182	921.5
402.406	875.5
402.63	882.5
402.854	898.5
403.078	904.5
403.302	899.5
403.526	889.5
403.75	905.5
403.974	917.5
404.198	918.5
404.422	971.5
404.645	999.5
404.869	969.5
405.093	922.5
405.317	878.5
405.541	904.5
405.765	906.5
405.988	931.5
406.212	933.5
406.436	954.5
406.66	998.5
406.883	1008.5
407.107	1130.5
407.331	1216.5
407.555	1246.5
407.778	1116.5
408.002	978.5
408.226	962.5
408.449	983.5
408.673	932.5
408.896	940.5
409.12	947.5
409.344	967.5
409.567	906.5
409.791	948.5
410.014	988.5
410.238	1036.5
410.461	1054.5
410.685	961.5
410.908	956.5
411.132	943.5
411.355	926.5
411.578	935.5
411.802	953.5
412.025	946.5
412.249	931.5
412.472	921.5
412.695	938.5
412.919	919.5
413.142	892.5
413.365	946.5
413.589	957.5
413.812	964.5
414.035	981.5
414.258	937.5
414.482	911.5
414.705	922.5
414.928	906.5
415.151	929.5
415.374	934.5
415.597	945.5
415.821	960.5
416.044	942.5
416.267	936.5
416.49	892.5
416.713	925.5
416.936	964.5
417.159	967.5
417.382	949.5
417.605	914.5
417.828	937.5
418.051	952.5
418.274	953.5
418.497	936.5
418.72	920.5
418.943	934.5
419.166	944.5
419.389	979.5
419.611	946.5
419.834	927.5
420.057	954.5
420.28	926.5
420.503	950.5
420.726	946.5
420.948	948.5
421.171	916.5
421.394	927.5
421.617	971.5
421.839	981.5
422.062	992.5
422.285	922.5
422.507	934.5
422.73	903.5
422.953	894.5
423.175	867.5
423.398	932.5
423.621	927.5
423.843	929.5
424.066	949.5
424.288	1028.5
424.511	1032.5
424.733	988.5
424.956	935.5
425.178	929.5
425.401	946.5
425.623	935.5
425.846	929.5
426.068	985.5
426.291	940.5
426.513	957.5
426.735	942.5
426.958	1039.5
427.18	1086.5
427.402	991.5
427.625	1006.5
427.847	976.5
428.069	942.5
428.292	922.5
428.514	878.5
428.736	866.5
428.958	903.5
429.181	948.5
429.403	1092.5
429.625	1211.5
429.847	1018.5
430.069	972.5
430.292	1042.5
430.514	1029.5
430.736	970.5
430.958	986.5
431.18	918.5
431.402	869.5
431.624	850.5
431.846	798.5
432.068	745.5
432.29	730.5
432.512	808.5
432.734	892.5
432.956	916.5
433.178	957.5
433.4	948.5
433.622	939.5
433.844	891.5
434.066	863.5
434.287	792.5
434.509	786.5
434.731	834.5
434.953	920.5
435.175	902.5
435.397	889.5
435.618	888.5
435.84	849.5
436.062	834.5
436.284	881.5
436.505	921.5
436.727	932.5
436.949	890.5
437.17	908.5
437.392	906.5
437.614	843.5
437.835	820.5
438.057	817.5
438.278	837.5
438.5	881.5
438.721	886.5
438.943	942.5
439.165	914.5
439.386	932.5
439.608	927.5
439.829	936.5
440.05	946.5
440.272	964.5
440.493	949.5
440.715	964.5
440.936	1045.5
441.158	1074.5
441.379	1054.5
441.6	998.5
441.822	1007.5
442.043	1010.5
442.264	996.5
442.486	954.5
442.707	939.5
442.928	972.5
443.149	988.5
443.371	1000.5
443.592	1009.5
443.813	1003.5
444.034	1012.5
444.255	1014.5
444.476	1017.5
444.698	1030.5
444.919	1063.5
445.14	1153.5
445.361	1111.5
445.582	1075.5
445.803	1049.5
446.024	1053.5
446.245	1096.5
446.466	1044.5
446.687	1044.5
446.908	1036.5
447.129	1019.5
447.35	1021.5
447.571	980.5
447.792	978.5
448.013	938.5
448.234	946.5
448.455	960.5
448.675	986.5
448.896	922.5
449.117	904.5
449.338	928.5
449.559	960.5
449.779	946.5
450	1054.5
450.221	1050.5
450.442	1044.5
450.662	970.5
450.883	873.5
451.104	861.5
451.324	898.5
451.545	897.5
451.766	858.5
451.986	828.5
452.207	819.5
452.428	797.5
452.648	805.5
452.869	786.5
453.089	792.5
453.31	777.5
453.53	790.5
453.751	741.5
453.971	723.5
454.192	720.5
454.412	770.5
454.633	810.5
454.853	787.5
455.073	736.5
455.294	744.5
455.514	786.5
455.734	752.5
455.955	756.5
456.175	747.5
456.395	730.5
456.616	729.5
456.836	758.5
457.056	721.5
457.276	735.5
457.497	700.5
457.717	680.5
457.937	697.5
458.157	704.5
458.377	682.5
458.598	674.5
458.818	679.5
459.038	672.5
459.258	707.5
459.478	721.5
459.698	678.5
459.918	737.5
460.138	802.5
460.358	824.5
460.578	838.5
460.798	838.5
461.018	884.5
461.238	872.5
461.458	862.5
461.678	819.5
461.898	805.5
462.118	820.5
462.338	850.5
462.558	852.5
462.777	836.5
462.997	874.5
463.217	901.5
463.437	872.5
463.657	857.5
463.876	818.5
464.096	846.5
464.316	829.5
464.536	858.5
464.755	847.5
464.975	870.5
465.195	854.5
465.414	872.5
465.634	883.5
465.854	884.5
466.073	977.5
466.293	938.5
466.512	858.5
466.732	879.5
466.951	920.5
467.171	911.5
467.391	873.5
467.61	882.5
467.829	897.5
468.049	986.5
468.268	1066.5
468.488	967.5
468.707	932.5
468.927	954.5
469.146	883.5
469.365	916.5
469.585	909.5
469.804	903.5
470.023	915.5
470.243	932.5
470.462	918.5
470.681	928.5
470.901	944.5
471.12	929.5
471.339	916.5
471.558	911.5
471.777	886.5
471.997	878.5
472.216	848.5
472.435	789.5
472.654	757.5
472.873	774.5
473.092	798.5
473.311	815.5
473.53	807.5
473.749	828.5
473.968	849.5
474.187	848.5
474.406	844.5
474.625	869.5
474.844	898.5
475.063	880.5
475.282	857.5
475.501	845.5
475.72	829.5
475.939	918.5
476.158	912.5
476.377	867.5
476.596	853.5
476.814	830.5
477.033	804.5
477.252	859.5
477.471	906.5
477.69	928.5
477.908	935.5
478.127	981.5
478.346	1014.5
478.564	998.5
478.783	986.5
479.002	1026.5
479.22	1044.5
479.439	1041.5
479.658	1079.5
479.876	998.5
480.095	912.5
480.313	912.5
480.532	867.5
480.751	860.5
480.969	821.5
481.188	788.5
481.406	768.5
481.624	768.5
481.843	782.5
482.061	812.5
482.28	867.5
482.498	873.5
482.717	856.5
482.935	890.5
483.153	960.5
483.372	1015.5
483.59	1033.5
483.808	996.5
484.027	938.5
484.245	984.5
484.463	1208.5
484.681	1268.5
484.9	1043.5
485.118	973.5
485.336	917.5
485.554	918.5
485.772	887.5
485.99	865.5
486.209	930.5
486.427	918.5
486.645	946.5
486.863	1015.5
487.081	1058.5
487.299	1008.5
487.517	1015.5
487.735	1108.5
487.953	1167.5
488.171	1196.5
488.389	1158.5
488.607	1070.5
488.825	1138.5
489.043	1060.5
489.261	981.5
489.479	1074.5
489.696	1058.5
489.914	1035.5
490.132	1031.5
490.35	1052.5
490.568	1144.5
490.786	1178.5
491.003	1200.5
491.221	1225.5
491.439	1339.5
491.657	1313.5
491.874	1360.5
492.092	1443.5
492.31	1556.5
492.527	1435.5
492.745	1382.5
492.963	1319.5
493.18	1298.5
493.398	1319.5
493.615	1320.5
493.833	1270.5
494.05	1242.5
494.268	1243.5
494.485	1236.5
494.703	1218.5
494.92	1224.5
495.138	1215.5
495.355	1251.5
495.573	1251.5
495.79	1306.5
496.008	1256.5
496.225	1237.5
496.442	1226.5
496.66	1227.5
496.877	1194.5
497.094	1243.5
497.312	1210.5
497.529	1184.5
497.746	1191.5
497.963	1259.5
498.181	1281.5
498.398	1204.5
498.615	1185.5
498.832	1151.5
499.049	1147.5
499.267	1175.5
499.484	1273.5
499.701	1326.5
499.918	1359.5
500.135	1490.5
500.352	1524.5
500.569	1598.5
500.786	1694.5
501.003	1551.5
501.22	1438.5
501.437	1404.5
501.654	1431.5
501.871	1339.5
502.088	1187.5
502.305	1185.5
502.522	1146.5
502.739	1105.5
502.956	1086.5
503.172	1048.5
503.389	1007.5
503.606	991.5
503.823	1002.5
504.04	990.5
504.256	1001.5
504.473	1021.5
504.69	1020.5
504.907	991.5
505.123	1010.5
505.34	1095.5
505.557	1321.5
505.773	1136.5
505.99	964.5
506.207	893.5
506.423	898.5
506.64	871.5
506.856	900.5
507.073	1006.5
507.289	1061.5
507.506	1002.5
507.722	895.5
507.939	872.5
508.155	863.5
508.372	843.5
508.588	823.5
508.805	783.5
509.021	778.5
509.238	758.5
509.454	759.5
509.67	736.5
509.887	732.5
510.103	724.5
510.319	758.5
510.536	749.5
510.752	764.5
510.968	744.5
511.184	779.5
511.401	756.5
511.617	700.5
511.833	702.5
512.049	714.5
512.265	696.5
512.481	706.5
512.698	724.5
512.914	773.5
513.13	739.5
513.346	688.5
513.562	720.5
513.778	699.5
513.994	739.5
514.21	743.5
514.426	746.5
514.642	840.5
514.858	768.5
515.074	710.5
515.29	705.5
515.506	727.5
515.721	743.5
515.937	760.5
516.153	824.5
516.369	773.5
516.585	738.5
516.801	716.5
517.016	724.5
517.232	742.5
517.448	780.5
517.664	760.5
517.879	776.5
518.095	807.5
518.311	779.5
518.527	752.5
518.742	749.5
518.958	718.5
519.173	779.5
519.389	813.5
519.605	806.5
519.82	778.5
520.036	774.5
520.251	730.5
520.467	754.5
520.682	823.5
520.898	817.5
521.113	742.5
521.329	731.5
521.544	756.5
521.76	745.5
521.975	719.5
522.19	699.5
522.406	753.5
522.621	933.5
522.836	866.5
523.052	728.5
523.267	728.5
523.482	739.5
523.698	734.5
523.913	712.5
524.128	774.5
524.343	803.5
524.559	810.5
524.774	772.5
524.989	760.5
525.204	753.5
525.419	751.5
525.634	746.5
525.849	710.5
526.064	730.5
526.28	721.5
526.495	676.5
526.71	647.5
526.925	630.5
527.14	644.5
527.355	634.5
527.57	631.5
527.785	661.5
527.999	634.5
528.214	680.5
528.429	694.5
528.644	758.5
528.859	794.5
529.074	824.5
529.289	884.5
529.503	869.5
529.718	802.5
529.933	727.5
530.148	662.5
530.363	647.5
530.577	627.5
530.792	634.5
531.007	638.5
531.221	614.5
531.436	638.5
531.651	645.5
531.865	667.5
532.08	656.5
532.295	618.5
532.509	610.5
532.724	612.5
532.938	628.5
533.153	686.5
533.367	719.5
533.582	712.5
533.796	732.5
534.011	729.5
534.225	673.5
534.44	649.5
534.654	644.5
534.868	659.5
535.083	678.5
535.297	675.5
535.511	657.5
535.726	667.5
535.94	646.5
536.154	646.5
536.369	622.5
536.583	613.5
536.797	614.5
537.011	608.5
537.225	598.5
537.44	584.5
537.654	669.5
537.868	611.5
538.082	601.5
538.296	608.5
538.51	618.5
538.724	670.5
538.938	698.5
539.153	738.5
539.367	752.5
539.581	710.5
539.795	676.5
540.009	652.5
540.222	644.5
540.436	667.5
540.65	753.5
540.864	791.5
541.078	834.5
541.292	837.5
541.506	878.5
541.72	948.5
541.934	1053.5
542.147	1068.5
542.361	1000.5
542.575	916.5
542.789	828.5
543.002	782.5
543.216	745.5
543.43	772.5
543.644	826.5
543.857	858.5
544.071	906.5
544.285	944.5
544.498	914.5
544.712	934.5
544.925	946.5
545.139	965.5
545.352	935.5
545.566	908.5
545.779	921.5
545.993	944.5
546.206	966.5
546.42	977.5
546.633	944.5
546.847	926.5
547.06	926.5
547.274	961.5
547.487	1002.5
547.7	998.5
547.914	978.5
548.127	961.5
548.34	929.5
548.554	938.5
548.767	924.5
548.98	963.5
549.193	894.5
549.407	951.5
549.62	957.5
549.833	911.5
550.046	921.5
550.259	893.5
550.473	872.5
550.686	866.5
550.899	890.5
551.112	848.5
551.325	831.5
551.538	837.5
551.751	867.5
551.964	720.5
552.177	726.5
552.39	782.5
552.603	839.5
552.816	860.5
553.029	906.5
553.242	927.5
553.455	912.5
553.667	890.5
553.88	885.5
554.093	875.5
554.306	863.5
554.519	827.5
554.732	846.5
554.944	850.5
555.157	810.5
555.37	837.5
555.583	795.5
555.795	790.5
556.008	746.5
556.221	719.5
556.433	738.5
556.646	716.5
556.859	729.5
557.071	750.5
557.284	737.5
557.496	764.5
557.709	739.5
557.921	758.5
558.134	727.5
558.346	737.5
558.559	729.5
558.771	717.5
558.984	700.5
559.196	666.5
559.409	660.5
559.621	675.5
559.833	667.5
560.046	661.5
560.258	678.5
560.47	691.5
560.683	682.5
560.895	670.5
561.107	674.5
561.32	677.5
561.532	657.5
561.744	676.5
561.956	684.5
562.168	675.5
562.381	648.5
562.593	662.5
562.805	667.5
563.017	632.5
563.229	647.5
563.441	649.5
563.653	650.5
563.865	637.5
564.077	614.5
564.289	624.5
564.501	622.5
564.713	604.5
564.925	634.5
565.137	663.5
565.349	622.5
565.561	609.5
565.773	614.5
565.985	613.5
566.197	638.5
566.408	666.5
566.62	667.5
566.832	659.5
567.044	691.5
567.255	641.5
567.467	656.5
567.679	672.5
567.891	640.5
568.102	620.5
568.314	588.5
568.526	549.5
568.737	499.5
568.949	486.5
569.161	461.5
569.372	458.5
569.584	430.5
569.795	449.5
570.007	439.5
570.218	428.5
570.43	427.5
570.641	463.5
570.853	469.5
571.064	461.5
571.276	479.5
571.487	470.5
571.698	472.5
571.91	473.5
572.121	452.5
572.333	446.5
572.544	436.5
572.755	410.5
572.966	382.5
573.178	401.5
573.389	392.5
573.6	397.5
573.811	448.5
574.023	401.5
574.234	395.5
574.445	379.5
574.656	396.5
574.867	383.5
575.078	399.5
575.289	399.5
575.501	396.5
575.712	374.5
575.923	385.5
576.134	421.5
576.345	393.5
576.556	397.5
576.767	406.5
576.978	397.5
577.188	384.5
577.399	375.5
577.61	375.5
577.821	369.5
578.032	353.5
578.243	352.5
578.454	364.5
578.665	363.5
578.875	331.5
579.086	330.5
579.297	350.5
579.508	340.5
579.718	336.5
579.929	339.5
580.14	345.5
580.35	335.5
580.561	338.5
580.772	408.5
580.982	366.5
581.193	359.5
581.403	349.5
581.614	349.5
581.825	347.5
582.035	349.5
582.246	354.5
582.456	331.5
582.667	342.5
582.877	332.5
583.087	306.5
583.298	352.5
583.508	349.5
583.719	326.5
583.929	324.5
584.139	323.5
584.35	317.5
584.56	323.5
584.77	344.5
584.981	328.5
585.191	346.5
585.401	339.5
585.611	340.5
585.821	338.5
586.032	301.5
586.242	312.5
586.452	314.5
586.662	318.5
586.872	302.5
587.082	325.5
587.292	320.5
587.502	331.5
587.713	318.5
587.923	295.5
588.133	303.5
588.343	320.5
588.553	303.5
588.762	316.5
588.972	305.5
589.182	325.5
589.392	312.5
589.602	336.5
589.812	304.5
590.022	280.5
590.232	302.5
590.441	323.5
590.651	312.5
590.861	299.5
591.071	331.5
591.281	315.5
591.49	294.5
591.7	296.5
591.91	301.5
592.119	307.5
592.329	314.5
592.539	306.5
592.748	311.5
592.958	310.5
593.167	335.5
593.377	325.5
593.587	327.5
593.796	331.5
594.006	317.5
594.215	319.5
594.424	339.5
594.634	329.5
594.843	343.5
595.053	343.5
595.262	331.5
595.472	324.5
595.681	320.5
595.89	323.5
596.1	310.5
596.309	299.5
596.518	320.5
596.727	338.5
596.937	340.5
597.146	318.5
597.355	302.5
597.564	298.5
597.774	288.5
597.983	296.5
598.192	314.5
598.401	300.5
598.61	288.5
598.819	279.5
599.028	297.5
599.237	312.5
599.446	312.5
599.655	289.5
599.864	283.5
600.073	278.5
600.282	288.5
600.491	297.5
600.7	285.5
600.909	288.5
601.118	314.5
601.327	330.5
601.536	340.5
601.745	332.5
601.953	354.5
602.162	344.5
602.371	374.5
602.58	342.5
602.789	360.5
602.997	343.5
603.206	363.5
603.415	335.5
603.623	338.5
603.832	352.5
604.041	359.5
604.249	309.5
604.458	314.5
604.666	293.5
604.875	297.5
605.084	305.5
605.292	336.5
605.501	343.5
605.709	353.5
605.918	357.5
606.126	353.5
606.334	342.5
606.543	350.5
606.751	372.5
606.96	355.5
607.168	349.5
607.376	338.5
607.585	361.5
607.793	360.5
608.001	349.5
608.21	363.5
608.418	354.5
608.626	380.5
608.834	339.5
609.043	359.5
609.251	349.5
609.459	352.5
609.667	358.5
609.875	380.5
610.083	372.5
610.291	363.5
610.499	369.5
610.707	364.5
610.916	368.5
611.124	374.5
611.332	381.5
611.54	374.5
611.748	366.5
611.955	362.5
612.163	357.5
612.371	374.5
612.579	360.5
612.787	352.5
612.995	359.5
613.203	371.5
613.411	355.5
613.618	350.5
613.826	351.5
614.034	353.5
614.242	367.5
614.449	354.5
614.657	370.5
614.865	361.5
615.072	357.5
615.28	381.5
615.488	360.5
615.695	378.5
615.903	366.5
616.111	354.5
616.318	370.5
616.526	352.5
616.733	351.5
616.941	330.5
617.148	346.5
617.356	361.5
617.563	348.5
617.771	330.5
617.978	334.5
618.185	344.5
618.393	348.5
618.6	363.5
618.807	341.5
619.015	332.5
619.222	330.5
619.429	310.5
619.637	310.5
619.844	292.5
620.051	300.5
620.258	310.5
620.466	310.5
620.673	302.5
620.88	314.5
621.087	306.5
621.294	310.5
621.501	293.5
621.708	298.5
621.915	326.5
622.122	319.5
622.329	340.5
622.536	319.5
622.743	320.5
622.95	326.5
623.157	310.5
623.364	339.5
623.571	329.5
623.778	322.5
623.985	341.5
624.192	312.5
624.399	315.5
624.606	306.5
624.812	310.5
625.019	291.5
625.226	290.5
625.433	290.5
625.639	277.5
625.846	271.5
626.053	247.5
626.259	243.5
626.466	239.5
626.673	228.5
626.879	234.5
627.086	251.5
627.293	265.5
627.499	284.5
627.706	298.5
627.912	306.5
628.119	322.5
628.325	308.5
628.532	307.5
628.738	282.5
628.945	289.5
629.151	275.5
629.357	284.5
629.564	279.5
629.77	283.5
629.976	277.5
630.183	260.5
630.389	250.5
630.595	297.5
630.802	284.5
631.008	266.5
631.214	287.5
631.42	268.5
631.627	260.5
631.833	246.5
632.039	257.5
632.245	267.5
632.451	271.5
632.657	288.5
632.863	269.5
633.069	246.5
633.275	260.5
633.481	256.5
633.688	258.5
633.893	240.5
634.099	232.5
634.305	225.5
634.511	235.5
634.717	245.5
634.923	241.5
635.129	227.5
635.335	254.5
635.541	249.5
635.747	239.5
635.952	244.5
636.158	258.5
636.364	255.5
636.57	274.5
636.775	266.5
636.981	266.5
637.187	246.5
637.392	273.5
637.598	235.5
637.804	263.5
638.009	240.5
638.215	273.5
638.421	246.5
638.626	256.5
638.832	254.5
639.037	250.5
639.243	246.5
639.448	244.5
639.654	242.5
639.859	220.5
640.065	230.5
640.27	225.5
640.475	242.5
640.681	235.5
640.886	238.5
641.091	235.5
641.297	248.5
641.502	238.5
641.707	238.5
641.913	259.5
642.118	258.5
642.323	254.5
642.528	244.5
642.733	228.5
642.939	245.5
643.144	258.5
643.349	240.5
643.554	226.5
643.759	245.5
643.964	235.5
644.169	239.5
644.374	235.5
644.579	244.5
644.784	238.5
644.989	228.5
645.194	219.5
645.399	245.5
645.604	232.5
645.809	252.5
646.014	250.5
646.219	245.5
646.423	228.5
646.628	224.5
646.833	247.5
647.038	239.5
647.243	239.5
647.447	249.5
647.652	240.5
647.857	241.5
648.062	240.5
648.266	248.5
648.471	254.5
648.676	232.5
648.88	239.5
649.085	249.5
649.289	242.5
649.494	229.5
649.698	235.5
649.903	227.5
650.107	230.5
650.312	228.5
650.516	230.5
650.721	214.5
650.925	223.5
651.13	202.5
651.334	210.5
651.539	205.5
651.743	217.5
651.947	227.5
652.152	222.5
652.356	215.5
652.56	201.5
652.764	208.5
652.969	209.5
653.173	210.5
653.377	206.5
653.581	205.5
653.785	205.5
653.99	204.5
654.194	190.5
654.398	196.5
654.602	213.5
654.806	190.5
655.01	194.5
655.214	200.5
655.418	209.5
655.622	214.5
655.826	192.5
656.03	220.5
656.234	218.5
656.438	225.5
656.642	231.5
656.846	224.5
657.049	207.5
657.253	218.5
657.457	190.5
657.661	177.5
657.865	182.5
658.068	159.5
658.272	174.5
658.476	159.5
658.68	146.5
658.883	143.5
659.087	144.5
659.291	135.5
659.494	120.5
659.698	138.5
659.901	122.5
660.105	112.5
660.309	123.5
660.512	118.5
660.716	125.5
660.919	112.5
661.123	132.5
661.326	100.5
661.53	108.5
661.733	104.5
661.936	99.5
662.14	79.5
662.343	101.5
662.546	92.5
662.75	92.5
662.953	88.5
663.156	87.5
663.36	100.5
663.563	87.5
663.766	84.5
663.969	83.5
664.173	85.5
664.376	95.5
664.579	79.5
664.782	102.5
664.985	86.5
665.188	74.5
665.391	67.5
665.594	70.5
665.797	83.5
666	78.5
666.203	86.5
666.406	84.5
666.609	81.5
666.812	88.5
667.015	88.5
667.218	93.5
667.421	80.5
667.624	73.5
667.827	82.5
668.03	79.5
668.232	74.5
668.435	78.5
668.638	66.5
668.841	80.5
669.043	74.5
669.246	74.5
669.449	89.5
669.651	82.5
669.854	67.5
670.057	83.5
670.259	73.5
670.462	88.5
670.665	84.5
670.867	82.5
671.07	70.5
671.272	66.5
671.475	72.5
671.677	96.5
671.88	71.5
672.082	79.5
672.284	77.5
672.487	77.5
672.689	86.5
672.892	82.5
