Data from WStandard_LampEnergy8_LIBS07252019.E.O._I.C._HRD10591_15-59-21-929.txt Node
Date: Thu Jul 25 15:59:21 EDT 2019
User: cochatt
Spectrometer: HR+D1059
Trigger mode: 1
Integration Time (sec): 1.000000E-1
Scans to average: 1
Electric dark correction enabled: true
Nonlinearity correction enabled: false
Boxcar width: 0
XAxis mode: Wavelengths
Number of Pixels in Spectrum: 2048
>>>>>Begin Spectral Data<<<<<
223.165	-13.44
223.4	-13.44
223.635	-13.44
223.869	-17.44
224.104	-8.44
224.338	3.56
224.573	-13.44
224.808	-13.44
225.042	-27.44
225.277	-6.44
225.511	-7.44
225.746	-5.44
225.98	11.56
226.215	11.56
226.449	15.56
226.683	25.56
226.918	19.56
227.152	25.56
227.387	25.56
227.621	41.56
227.856	34.56
228.09	44.56
228.324	35.56
228.559	42.56
228.793	97.56
229.027	203.56
229.262	204.56
229.496	214.56
229.73	216.56
229.964	245.56
230.199	261.56
230.433	254.56
230.667	279.56
230.901	290.56
231.136	274.56
231.37	243.56
231.604	259.56
231.838	264.56
232.072	274.56
232.306	260.56
232.541	266.56
232.775	308.56
233.009	318.56
233.243	316.56
233.477	288.56
233.711	293.56
233.945	308.56
234.179	310.56
234.413	298.56
234.647	332.56
234.881	332.56
235.115	295.56
235.349	290.56
235.583	297.56
235.817	291.56
236.051	295.56
236.285	298.56
236.519	339.56
236.753	344.56
236.987	383.56
237.221	342.56
237.455	380.56
237.689	376.56
237.922	348.56
238.156	345.56
238.39	332.56
238.624	388.56
238.858	400.56
239.091	400.56
239.325	400.56
239.559	484.56
239.793	486.56
240.027	506.56
240.26	514.56
240.494	385.56
240.728	376.56
240.961	376.56
241.195	377.56
241.429	429.56
241.662	404.56
241.896	388.56
242.13	405.56
242.363	431.56
242.597	442.56
242.83	440.56
243.064	434.56
243.298	480.56
243.531	456.56
243.765	448.56
243.998	456.56
244.232	412.56
244.465	389.56
244.699	414.56
244.932	468.56
245.166	544.56
245.399	486.56
245.633	455.56
245.866	471.56
246.099	471.56
246.333	476.56
246.566	491.56
246.8	530.56
247.033	567.56
247.266	540.56
247.5	535.56
247.733	507.56
247.966	579.56
248.2	604.56
248.433	592.56
248.666	627.56
248.899	697.56
249.133	752.56
249.366	794.56
249.599	688.56
249.832	619.56
250.066	609.56
250.299	614.56
250.532	586.56
250.765	548.56
250.998	578.56
251.231	602.56
251.465	623.56
251.698	573.56
251.931	566.56
252.164	570.56
252.397	631.56
252.63	617.56
252.863	552.56
253.096	528.56
253.329	566.56
253.562	584.56
253.795	626.56
254.028	592.56
254.261	556.56
254.494	566.56
254.727	564.56
254.96	570.56
255.193	646.56
255.426	714.56
255.659	800.56
255.892	801.56
256.124	660.56
256.357	652.56
256.59	704.56
256.823	707.56
257.056	719.56
257.289	824.56
257.521	891.56
257.754	794.56
257.987	744.56
258.22	798.56
258.452	798.56
258.685	680.56
258.918	662.56
259.151	650.56
259.383	639.56
259.616	592.56
259.849	627.56
260.081	688.56
260.314	755.56
260.547	803.56
260.779	871.56
261.012	760.56
261.244	690.56
261.477	660.56
261.71	694.56
261.942	672.56
262.175	672.56
262.407	707.56
262.64	657.56
262.872	615.56
263.105	610.56
263.337	634.56
263.57	647.56
263.802	630.56
264.035	614.56
264.267	566.56
264.499	580.56
264.732	616.56
264.964	647.56
265.197	667.56
265.429	711.56
265.661	795.56
265.894	822.56
266.126	844.56
266.358	801.56
266.591	828.56
266.823	828.56
267.055	771.56
267.287	778.56
267.52	755.56
267.752	735.56
267.984	757.56
268.216	788.56
268.448	793.56
268.681	780.56
268.913	730.56
269.145	689.56
269.377	696.56
269.609	761.56
269.841	878.56
270.073	1022.56
270.306	1071.56
270.538	1101.56
270.77	964.56
271.002	846.56
271.234	831.56
271.466	812.56
271.698	942.56
271.93	1057.56
272.162	1048.56
272.394	963.56
272.626	896.56
272.858	795.56
273.09	689.56
273.322	682.56
273.553	683.56
273.785	688.56
274.017	716.56
274.249	774.56
274.481	733.56
274.713	711.56
274.945	698.56
275.176	707.56
275.408	684.56
275.64	684.56
275.872	691.56
276.104	710.56
276.335	834.56
276.567	914.56
276.799	922.56
277.031	834.56
277.262	832.56
277.494	832.56
277.726	935.56
277.957	883.56
278.189	818.56
278.421	770.56
278.652	715.56
278.884	728.56
279.115	744.56
279.347	756.56
279.579	745.56
279.81	787.56
280.042	806.56
280.273	890.56
280.505	888.56
280.736	875.56
280.968	815.56
281.199	735.56
281.431	696.56
281.662	712.56
281.894	716.56
282.125	723.56
282.356	791.56
282.588	772.56
282.819	741.56
283.051	802.56
283.282	878.56
283.513	842.56
283.745	757.56
283.976	716.56
284.207	748.56
284.439	704.56
284.67	742.56
284.901	771.56
285.132	797.56
285.364	771.56
285.595	781.56
285.826	761.56
286.057	729.56
286.288	738.56
286.52	794.56
286.751	838.56
286.982	851.56
287.213	784.56
287.444	727.56
287.675	718.56
287.906	781.56
288.138	848.56
288.369	792.56
288.6	751.56
288.831	720.56
289.062	741.56
289.293	750.56
289.524	771.56
289.755	787.56
289.986	805.56
290.217	734.56
290.448	760.56
290.679	774.56
290.91	792.56
291.141	789.56
291.371	820.56
291.602	808.56
291.833	814.56
292.064	857.56
292.295	824.56
292.526	873.56
292.757	887.56
292.987	836.56
293.218	815.56
293.449	895.56
293.68	980.56
293.91	1022.56
294.141	948.56
294.372	922.56
294.603	964.56
294.833	978.56
295.064	922.56
295.295	838.56
295.525	798.56
295.756	783.56
295.987	746.56
296.217	762.56
296.448	770.56
296.679	775.56
296.909	775.56
297.14	786.56
297.37	804.56
297.601	849.56
297.831	882.56
298.062	913.56
298.292	818.56
298.523	784.56
298.753	794.56
298.984	819.56
299.214	814.56
299.445	843.56
299.675	863.56
299.905	832.56
300.136	795.56
300.366	790.56
300.597	783.56
300.827	794.56
301.057	860.56
301.288	853.56
301.518	836.56
301.748	884.56
301.979	904.56
302.209	935.56
302.439	991.56
302.669	1007.56
302.9	937.56
303.13	870.56
303.36	864.56
303.59	862.56
303.82	852.56
304.051	870.56
304.281	872.56
304.511	886.56
304.741	980.56
304.971	1012.56
305.201	1065.56
305.431	944.56
305.661	819.56
305.891	772.56
306.121	770.56
306.352	804.56
306.582	867.56
306.812	906.56
307.042	986.56
307.272	977.56
307.502	956.56
307.731	1047.56
307.961	1064.56
308.191	1008.56
308.421	879.56
308.651	808.56
308.881	848.56
309.111	820.56
309.341	836.56
309.571	820.56
309.8	841.56
310.03	806.56
310.26	839.56
310.49	820.56
310.72	857.56
310.949	922.56
311.179	910.56
311.409	848.56
311.639	873.56
311.868	853.56
312.098	848.56
312.328	853.56
312.557	831.56
312.787	860.56
313.017	876.56
313.246	892.56
313.476	879.56
313.706	914.56
313.935	886.56
314.165	894.56
314.394	950.56
314.624	1016.56
314.853	1051.56
315.083	1050.56
315.312	1055.56
315.542	976.56
315.771	891.56
316.001	900.56
316.23	958.56
316.46	977.56
316.689	943.56
316.919	891.56
317.148	886.56
317.377	897.56
317.607	991.56
317.836	1049.56
318.065	1060.56
318.295	1048.56
318.524	1023.56
318.753	935.56
318.983	970.56
319.212	956.56
319.441	927.56
319.67	929.56
319.9	952.56
320.129	984.56
320.358	1013.56
320.587	1048.56
320.816	1036.56
321.046	1000.56
321.275	963.56
321.504	1023.56
321.733	1109.56
321.962	1026.56
322.191	967.56
322.42	945.56
322.649	936.56
322.878	922.56
323.108	942.56
323.337	960.56
323.566	966.56
323.795	967.56
324.024	972.56
324.253	930.56
324.482	916.56
324.71	912.56
324.939	878.56
325.168	914.56
325.397	947.56
325.626	988.56
325.855	936.56
326.084	954.56
326.313	944.56
326.542	968.56
326.77	954.56
326.999	990.56
327.228	918.56
327.457	891.56
327.686	895.56
327.914	928.56
328.143	924.56
328.372	916.56
328.6	930.56
328.829	920.56
329.058	914.56
329.287	926.56
329.515	927.56
329.744	970.56
329.972	1008.56
330.201	1059.56
330.43	1034.56
330.658	996.56
330.887	994.56
331.115	998.56
331.344	1023.56
331.572	952.56
331.801	983.56
332.03	974.56
332.258	1001.56
332.486	1023.56
332.715	1031.56
332.943	1045.56
333.172	1000.56
333.4	1022.56
333.629	1046.56
333.857	1125.56
334.085	1221.56
334.314	1381.56
334.542	1467.56
334.771	1283.56
334.999	1159.56
335.227	1097.56
335.455	1082.56
335.684	1050.56
335.912	1141.56
336.14	1134.56
336.369	1091.56
336.597	1017.56
336.825	1020.56
337.053	1045.56
337.281	1101.56
337.51	1154.56
337.738	1179.56
337.966	1119.56
338.194	1042.56
338.422	996.56
338.65	972.56
338.878	978.56
339.106	949.56
339.334	948.56
339.562	950.56
339.79	980.56
340.018	1037.56
340.246	1030.56
340.474	1055.56
340.702	1048.56
340.93	1044.56
341.158	996.56
341.386	1027.56
341.614	972.56
341.842	1020.56
342.07	982.56
342.298	1012.56
342.526	1009.56
342.754	1017.56
342.981	1000.56
343.209	984.56
343.437	966.56
343.665	977.56
343.893	1000.56
344.12	1058.56
344.348	1074.56
344.576	1041.56
344.804	984.56
345.031	1002.56
345.259	977.56
345.487	946.56
345.714	940.56
345.942	914.56
346.17	938.56
346.397	983.56
346.625	962.56
346.853	903.56
347.08	888.56
347.308	911.56
347.535	912.56
347.763	935.56
347.99	912.56
348.218	952.56
348.445	922.56
348.673	955.56
348.9	978.56
349.128	1005.56
349.355	1008.56
349.583	994.56
349.81	925.56
350.037	873.56
350.265	880.56
350.492	891.56
350.72	910.56
350.947	962.56
351.174	930.56
351.402	882.56
351.629	867.56
351.856	852.56
352.083	870.56
352.311	882.56
352.538	902.56
352.765	951.56
352.992	942.56
353.22	915.56
353.447	896.56
353.674	923.56
353.901	938.56
354.128	887.56
354.355	918.56
354.583	969.56
354.81	963.56
355.037	958.56
355.264	944.56
355.491	943.56
355.718	943.56
355.945	942.56
356.172	907.56
356.399	912.56
356.626	901.56
356.853	950.56
357.08	1037.56
357.307	1150.56
357.534	1067.56
357.761	954.56
357.988	878.56
358.215	890.56
358.441	894.56
358.668	897.56
358.895	928.56
359.122	1007.56
359.349	1044.56
359.576	1043.56
359.802	928.56
360.029	908.56
360.256	891.56
360.483	923.56
360.709	971.56
360.936	982.56
361.163	1035.56
361.39	1083.56
361.616	1186.56
361.843	1134.56
362.07	1067.56
362.296	940.56
362.523	923.56
362.749	902.56
362.976	940.56
363.203	943.56
363.429	923.56
363.656	901.56
363.882	955.56
364.109	1084.56
364.335	1093.56
364.562	1027.56
364.788	994.56
365.015	963.56
365.241	908.56
365.468	948.56
365.694	990.56
365.92	1021.56
366.147	942.56
366.373	911.56
366.599	920.56
366.826	896.56
367.052	919.56
367.278	904.56
367.505	948.56
367.731	952.56
367.957	960.56
368.184	1003.56
368.41	1071.56
368.636	1047.56
368.862	1099.56
369.089	1068.56
369.315	1022.56
369.541	991.56
369.767	963.56
369.993	943.56
370.219	932.56
370.445	951.56
370.672	1030.56
370.898	1070.56
371.124	1046.56
371.35	981.56
371.576	1073.56
371.802	1058.56
372.028	1040.56
372.254	972.56
372.48	963.56
372.706	966.56
372.932	942.56
373.158	975.56
373.384	998.56
373.61	1003.56
373.835	1050.56
374.061	993.56
374.287	985.56
374.513	994.56
374.739	996.56
374.965	1009.56
375.191	1028.56
375.416	1045.56
375.642	1035.56
375.868	1098.56
376.094	1126.56
376.319	1084.56
376.545	1026.56
376.771	1051.56
376.997	1115.56
377.222	1057.56
377.448	1071.56
377.674	1034.56
377.899	1062.56
378.125	1129.56
378.35	1099.56
378.576	979.56
378.802	954.56
379.027	976.56
379.253	992.56
379.478	992.56
379.704	999.56
379.929	1002.56
380.155	1001.56
380.38	996.56
380.606	1026.56
380.831	1030.56
381.057	1090.56
381.282	1060.56
381.507	1070.56
381.733	1142.56
381.958	1168.56
382.184	1054.56
382.409	1024.56
382.634	1055.56
382.86	1017.56
383.085	1044.56
383.31	1107.56
383.535	1162.56
383.761	1228.56
383.986	1142.56
384.211	1106.56
384.436	1146.56
384.662	1194.56
384.887	1226.56
385.112	1152.56
385.337	1148.56
385.562	1129.56
385.787	1137.56
386.013	1164.56
386.238	1182.56
386.463	1184.56
386.688	1238.56
386.913	1358.56
387.138	1248.56
387.363	1176.56
387.588	1168.56
387.813	1146.56
388.038	1177.56
388.263	1208.56
388.488	1185.56
388.713	1136.56
388.938	1119.56
389.163	1110.56
389.387	1150.56
389.612	1152.56
389.837	1144.56
390.062	1151.56
390.287	1144.56
390.512	1129.56
390.736	1126.56
390.961	1128.56
391.186	1060.56
391.411	1115.56
391.636	1137.56
391.86	1138.56
392.085	1157.56
392.31	1166.56
392.534	1158.56
392.759	1182.56
392.984	1148.56
393.208	1182.56
393.433	1220.56
393.658	1238.56
393.882	1250.56
394.107	1163.56
394.331	1097.56
394.556	1140.56
394.78	1164.56
395.005	1230.56
395.229	1249.56
395.454	1320.56
395.678	1303.56
395.903	1233.56
396.127	1171.56
396.352	1218.56
396.576	1260.56
396.801	1255.56
397.025	1271.56
397.249	1250.56
397.474	1214.56
397.698	1246.56
397.922	1259.56
398.147	1349.56
398.371	1371.56
398.595	1346.56
398.82	1342.56
399.044	1343.56
399.268	1385.56
399.492	1477.56
399.717	1478.56
399.941	1506.56
400.165	1468.56
400.389	1448.56
400.613	1484.56
400.837	1679.56
401.062	1816.56
401.286	1500.56
401.51	1450.56
401.734	1495.56
401.958	1434.56
402.182	1367.56
402.406	1294.56
402.63	1297.56
402.854	1276.56
403.078	1312.56
403.302	1349.56
403.526	1336.56
403.75	1331.56
403.974	1403.56
404.198	1342.56
404.422	1412.56
404.645	1488.56
404.869	1435.56
405.093	1362.56
405.317	1315.56
405.541	1375.56
405.765	1387.56
405.988	1360.56
406.212	1386.56
406.436	1456.56
406.66	1500.56
406.883	1496.56
407.107	1680.56
407.331	1811.56
407.555	1907.56
407.778	1747.56
408.002	1445.56
408.226	1423.56
408.449	1423.56
408.673	1361.56
408.896	1401.56
409.12	1409.56
409.344	1389.56
409.567	1352.56
409.791	1384.56
410.014	1430.56
410.238	1526.56
410.461	1542.56
410.685	1411.56
410.908	1397.56
411.132	1380.56
411.355	1380.56
411.578	1323.56
411.802	1376.56
412.025	1375.56
412.249	1370.56
412.472	1329.56
412.695	1297.56
412.919	1312.56
413.142	1310.56
413.365	1329.56
413.589	1410.56
413.812	1424.56
414.035	1439.56
414.258	1334.56
414.482	1332.56
414.705	1301.56
414.928	1315.56
415.151	1318.56
415.374	1300.56
415.597	1355.56
415.821	1351.56
416.044	1343.56
416.267	1341.56
416.49	1293.56
416.713	1265.56
416.936	1356.56
417.159	1351.56
417.382	1368.56
417.605	1314.56
417.828	1358.56
418.051	1326.56
418.274	1287.56
418.497	1272.56
418.72	1290.56
418.943	1288.56
419.166	1320.56
419.389	1386.56
419.611	1315.56
419.834	1286.56
420.057	1319.56
420.28	1288.56
420.503	1308.56
420.726	1313.56
420.948	1295.56
421.171	1271.56
421.394	1266.56
421.617	1337.56
421.839	1298.56
422.062	1337.56
422.285	1301.56
422.507	1286.56
422.73	1256.56
422.953	1234.56
423.175	1244.56
423.398	1288.56
423.621	1284.56
423.843	1315.56
424.066	1344.56
424.288	1414.56
424.511	1430.56
424.733	1341.56
424.956	1263.56
425.178	1241.56
425.401	1270.56
425.623	1272.56
425.846	1251.56
426.068	1348.56
426.291	1351.56
426.513	1300.56
426.735	1337.56
426.958	1446.56
427.18	1484.56
427.402	1363.56
427.625	1426.56
427.847	1366.56
428.069	1272.56
428.292	1269.56
428.514	1221.56
428.736	1236.56
428.958	1259.56
429.181	1311.56
429.403	1493.56
429.625	1728.56
429.847	1476.56
430.069	1283.56
430.292	1482.56
430.514	1456.56
430.736	1378.56
430.958	1386.56
431.18	1296.56
431.402	1231.56
431.624	1210.56
431.846	1168.56
432.068	1131.56
432.29	1175.56
432.512	1154.56
432.734	1274.56
432.956	1290.56
433.178	1351.56
433.4	1317.56
433.622	1309.56
433.844	1257.56
434.066	1204.56
434.287	1175.56
434.509	1218.56
434.731	1291.56
434.953	1378.56
435.175	1353.56
435.397	1272.56
435.618	1266.56
435.84	1239.56
436.062	1255.56
436.284	1265.56
436.505	1312.56
436.727	1307.56
436.949	1296.56
437.17	1228.56
437.392	1223.56
437.614	1228.56
437.835	1175.56
438.057	1241.56
438.278	1252.56
438.5	1244.56
438.721	1262.56
438.943	1286.56
439.165	1251.56
439.386	1235.56
439.608	1285.56
439.829	1244.56
440.05	1276.56
440.272	1218.56
440.493	1244.56
440.715	1287.56
440.936	1377.56
441.158	1468.56
441.379	1418.56
441.6	1393.56
441.822	1362.56
442.043	1365.56
442.264	1320.56
442.486	1262.56
442.707	1254.56
442.928	1305.56
443.149	1320.56
443.371	1390.56
443.592	1408.56
443.813	1381.56
444.034	1384.56
444.255	1368.56
444.476	1370.56
444.698	1421.56
444.919	1407.56
445.14	1499.56
445.361	1443.56
445.582	1431.56
445.803	1423.56
446.024	1401.56
446.245	1443.56
446.466	1386.56
446.687	1336.56
446.908	1364.56
447.129	1323.56
447.35	1307.56
447.571	1310.56
447.792	1259.56
448.013	1226.56
448.234	1307.56
448.455	1368.56
448.675	1292.56
448.896	1195.56
449.117	1221.56
449.338	1235.56
449.559	1295.56
449.779	1369.56
450	1415.56
450.221	1482.56
450.442	1410.56
450.662	1323.56
450.883	1180.56
451.104	1191.56
451.324	1207.56
451.545	1226.56
451.766	1203.56
451.986	1156.56
452.207	1162.56
452.428	1103.56
452.648	1091.56
452.869	1122.56
453.089	1171.56
453.31	1160.56
453.53	1138.56
453.751	1092.56
453.971	1082.56
454.192	1109.56
454.412	1182.56
454.633	1129.56
454.853	1089.56
455.073	1056.56
455.294	1071.56
455.514	1082.56
455.734	1071.56
455.955	1084.56
456.175	1091.56
456.395	1108.56
456.616	1097.56
456.836	1107.56
457.056	1108.56
457.276	1065.56
457.497	1043.56
457.717	1023.56
457.937	1065.56
458.157	1080.56
458.377	1067.56
458.598	1054.56
458.818	1058.56
459.038	1113.56
459.258	1147.56
459.478	1158.56
459.698	1130.56
459.918	1166.56
460.138	1212.56
460.358	1241.56
460.578	1245.56
460.798	1319.56
461.018	1313.56
461.238	1302.56
461.458	1266.56
461.678	1240.56
461.898	1233.56
462.118	1232.56
462.338	1248.56
462.558	1260.56
462.777	1280.56
462.997	1329.56
463.217	1367.56
463.437	1329.56
463.657	1293.56
463.876	1282.56
464.096	1252.56
464.316	1276.56
464.536	1328.56
464.755	1336.56
464.975	1295.56
465.195	1279.56
465.414	1302.56
465.634	1276.56
465.854	1281.56
466.073	1423.56
466.293	1362.56
466.512	1198.56
466.732	1224.56
466.951	1251.56
467.171	1270.56
467.391	1227.56
467.61	1215.56
467.829	1243.56
468.049	1353.56
468.268	1478.56
468.488	1305.56
468.707	1272.56
468.927	1239.56
469.146	1230.56
469.365	1218.56
469.585	1219.56
469.804	1233.56
470.023	1219.56
470.243	1273.56
470.462	1240.56
470.681	1216.56
470.901	1246.56
471.12	1266.56
471.339	1214.56
471.558	1215.56
471.777	1215.56
471.997	1249.56
472.216	1198.56
472.435	1150.56
472.654	1135.56
472.873	1170.56
473.092	1226.56
473.311	1180.56
473.53	1124.56
473.749	1129.56
473.968	1183.56
474.187	1224.56
474.406	1228.56
474.625	1228.56
474.844	1216.56
475.063	1231.56
475.282	1201.56
475.501	1192.56
475.72	1221.56
475.939	1296.56
476.158	1248.56
476.377	1215.56
476.596	1208.56
476.814	1242.56
477.033	1231.56
477.252	1289.56
477.471	1315.56
477.69	1315.56
477.908	1305.56
478.127	1356.56
478.346	1439.56
478.564	1443.56
478.783	1426.56
479.002	1448.56
479.22	1438.56
479.439	1483.56
479.658	1590.56
479.876	1536.56
480.095	1400.56
480.313	1338.56
480.532	1332.56
480.751	1332.56
480.969	1300.56
481.188	1285.56
481.406	1254.56
481.624	1249.56
481.843	1268.56
482.061	1297.56
482.28	1319.56
482.498	1357.56
482.717	1301.56
482.935	1291.56
483.153	1361.56
483.372	1421.56
483.59	1387.56
483.808	1394.56
484.027	1369.56
484.245	1440.56
484.463	1763.56
484.681	1928.56
484.9	1484.56
485.118	1414.56
485.336	1338.56
485.554	1402.56
485.772	1390.56
485.99	1392.56
486.209	1390.56
486.427	1375.56
486.645	1408.56
486.863	1416.56
487.081	1464.56
487.299	1441.56
487.517	1454.56
487.735	1462.56
487.953	1497.56
488.171	1516.56
488.389	1444.56
488.607	1481.56
488.825	1624.56
489.043	1557.56
489.261	1410.56
489.479	1452.56
489.696	1472.56
489.914	1446.56
490.132	1451.56
490.35	1481.56
490.568	1558.56
490.786	1502.56
491.003	1486.56
491.221	1543.56
491.439	1589.56
491.657	1621.56
491.874	1632.56
492.092	1687.56
492.31	1688.56
492.527	1649.56
492.745	1634.56
492.963	1583.56
493.18	1623.56
493.398	1695.56
493.615	1718.56
493.833	1589.56
494.05	1563.56
494.268	1554.56
494.485	1585.56
494.703	1568.56
494.92	1530.56
495.138	1552.56
495.355	1572.56
495.573	1644.56
495.79	1669.56
496.008	1680.56
496.225	1642.56
496.442	1635.56
496.66	1614.56
496.877	1553.56
497.094	1658.56
497.312	1646.56
497.529	1580.56
497.746	1686.56
497.963	1890.56
498.181	2010.56
498.398	1871.56
498.615	1840.56
498.832	1767.56
499.049	1769.56
499.267	1805.56
499.484	1918.56
499.701	2035.56
499.918	2098.56
500.135	2270.56
500.352	2360.56
500.569	2371.56
500.786	2525.56
501.003	2326.56
501.22	2195.56
501.437	2050.56
501.654	2096.56
501.871	1994.56
502.088	1764.56
502.305	1770.56
502.522	1672.56
502.739	1630.56
502.956	1586.56
503.172	1558.56
503.389	1511.56
503.606	1502.56
503.823	1480.56
504.04	1481.56
504.256	1513.56
504.473	1494.56
504.69	1531.56
504.907	1495.56
505.123	1403.56
505.34	1570.56
505.557	2008.56
505.773	1680.56
505.99	1391.56
506.207	1302.56
506.423	1282.56
506.64	1309.56
506.856	1319.56
507.073	1506.56
507.289	1637.56
507.506	1542.56
507.722	1321.56
507.939	1234.56
508.155	1247.56
508.372	1251.56
508.588	1240.56
508.805	1202.56
509.021	1190.56
509.238	1189.56
509.454	1134.56
509.67	1167.56
509.887	1154.56
510.103	1163.56
510.319	1176.56
510.536	1216.56
510.752	1232.56
510.968	1245.56
511.184	1332.56
511.401	1212.56
511.617	1135.56
511.833	1140.56
512.049	1089.56
512.265	1099.56
512.481	1110.56
512.698	1142.56
512.914	1265.56
513.13	1169.56
513.346	1136.56
513.562	1081.56
513.778	1140.56
513.994	1177.56
514.21	1204.56
514.426	1218.56
514.642	1287.56
514.858	1243.56
515.074	1161.56
515.29	1152.56
515.506	1202.56
515.721	1204.56
515.937	1220.56
516.153	1293.56
516.369	1250.56
516.585	1214.56
516.801	1162.56
517.016	1162.56
517.232	1191.56
517.448	1232.56
517.664	1205.56
517.879	1240.56
518.095	1282.56
518.311	1229.56
518.527	1189.56
518.742	1172.56
518.958	1152.56
519.173	1149.56
519.389	1169.56
519.605	1175.56
519.82	1165.56
520.036	1177.56
520.251	1161.56
520.467	1170.56
520.682	1220.56
520.898	1238.56
521.113	1133.56
521.329	1122.56
521.544	1194.56
521.76	1145.56
521.975	1106.56
522.19	1085.56
522.406	1110.56
522.621	1398.56
522.836	1320.56
523.052	1121.56
523.267	1092.56
523.482	1119.56
523.698	1072.56
523.913	1078.56
524.128	1135.56
524.343	1140.56
524.559	1178.56
524.774	1112.56
524.989	1096.56
525.204	1064.56
525.419	1059.56
525.634	1092.56
525.849	1059.56
526.064	1083.56
526.28	1082.56
526.495	1022.56
526.71	1017.56
526.925	1012.56
527.14	989.56
527.355	976.56
527.57	991.56
527.785	1042.56
527.999	1030.56
528.214	993.56
528.429	1001.56
528.644	1045.56
528.859	1062.56
529.074	1068.56
529.289	1088.56
529.503	1116.56
529.718	1119.56
529.933	1054.56
530.148	995.56
530.363	956.56
530.577	996.56
530.792	988.56
531.007	982.56
531.221	979.56
531.436	1001.56
531.651	1034.56
531.865	1070.56
532.08	1036.56
532.295	973.56
532.509	965.56
532.724	982.56
532.938	1012.56
533.153	1065.56
533.367	1074.56
533.582	1048.56
533.796	1000.56
534.011	1014.56
534.225	1024.56
534.44	967.56
534.654	972.56
534.868	1008.56
535.083	1032.56
535.297	1042.56
535.511	982.56
535.726	996.56
535.94	1008.56
536.154	986.56
536.369	918.56
536.583	942.56
536.797	952.56
537.011	985.56
537.225	977.56
537.44	942.56
537.654	991.56
537.868	929.56
538.082	918.56
538.296	912.56
538.51	927.56
538.724	954.56
538.938	964.56
539.153	982.56
539.367	1018.56
539.581	986.56
539.795	998.56
540.009	951.56
540.222	953.56
540.436	999.56
540.65	1046.56
540.864	1089.56
541.078	1063.56
541.292	1052.56
541.506	1098.56
541.72	1146.56
541.934	1131.56
542.147	1200.56
542.361	1129.56
542.575	1088.56
542.789	1035.56
543.002	970.56
543.216	991.56
543.43	1038.56
543.644	1062.56
543.857	1117.56
544.071	1106.56
544.285	1111.56
544.498	1096.56
544.712	1086.56
544.925	1121.56
545.139	1137.56
545.352	1076.56
545.566	1089.56
545.779	1073.56
545.993	1100.56
546.206	1106.56
546.42	1049.56
546.633	1056.56
546.847	1089.56
547.06	1106.56
547.274	1066.56
547.487	1095.56
547.7	1110.56
547.914	1098.56
548.127	1099.56
548.34	1090.56
548.554	1063.56
548.767	1048.56
548.98	1067.56
549.193	1065.56
549.407	1090.56
549.62	1097.56
549.833	1032.56
550.046	1055.56
550.259	1056.56
550.473	1030.56
550.686	1063.56
550.899	1009.56
551.112	980.56
551.325	972.56
551.538	1048.56
551.751	1163.56
551.964	949.56
552.177	939.56
552.39	961.56
552.603	1021.56
552.816	1038.56
553.029	1074.56
553.242	1049.56
553.455	1036.56
553.667	1034.56
553.88	1044.56
554.093	1018.56
554.306	979.56
554.519	988.56
554.732	983.56
554.944	973.56
555.157	977.56
555.37	952.56
555.583	966.56
555.795	945.56
556.008	912.56
556.221	887.56
556.433	867.56
556.646	882.56
556.859	865.56
557.071	898.56
557.284	857.56
557.496	894.56
557.709	881.56
557.921	880.56
558.134	853.56
558.346	852.56
558.559	872.56
558.771	860.56
558.984	832.56
559.196	822.56
559.409	828.56
559.621	842.56
559.833	834.56
560.046	847.56
560.258	839.56
560.47	824.56
560.683	857.56
560.895	814.56
561.107	845.56
561.32	821.56
561.532	826.56
561.744	816.56
561.956	849.56
562.168	793.56
562.381	795.56
562.593	801.56
562.805	814.56
563.017	795.56
563.229	801.56
563.441	811.56
563.653	785.56
563.865	790.56
564.077	786.56
564.289	778.56
564.501	790.56
564.713	786.56
564.925	830.56
565.137	894.56
565.349	826.56
565.561	808.56
565.773	825.56
565.985	819.56
566.197	882.56
566.408	888.56
566.62	901.56
566.832	888.56
567.044	918.56
567.255	892.56
567.467	901.56
567.679	932.56
567.891	957.56
568.102	907.56
568.314	838.56
568.526	810.56
568.737	780.56
568.949	737.56
569.161	713.56
569.372	704.56
569.584	687.56
569.795	692.56
570.007	681.56
570.218	654.56
570.43	650.56
570.641	668.56
570.853	675.56
571.064	674.56
571.276	642.56
571.487	687.56
571.698	664.56
571.91	630.56
572.121	616.56
572.333	628.56
572.544	632.56
572.755	600.56
572.966	571.56
573.178	599.56
573.389	568.56
573.6	612.56
573.811	653.56
574.023	602.56
574.234	572.56
574.445	566.56
574.656	573.56
574.867	562.56
575.078	574.56
575.289	568.56
575.501	576.56
575.712	555.56
575.923	589.56
576.134	566.56
576.345	546.56
576.556	569.56
576.767	550.56
576.978	550.56
577.188	545.56
577.399	515.56
577.61	532.56
577.821	535.56
578.032	520.56
578.243	520.56
578.454	534.56
578.665	516.56
578.875	500.56
579.086	500.56
579.297	507.56
579.508	539.56
579.718	495.56
579.929	506.56
580.14	496.56
580.35	478.56
580.561	514.56
580.772	549.56
580.982	522.56
581.193	510.56
581.403	497.56
581.614	474.56
581.825	496.56
582.035	483.56
582.246	485.56
582.456	499.56
582.667	480.56
582.877	466.56
583.087	482.56
583.298	498.56
583.508	506.56
583.719	443.56
583.929	483.56
584.139	478.56
584.35	465.56
584.56	472.56
584.77	474.56
584.981	496.56
585.191	470.56
585.401	486.56
585.611	451.56
585.821	439.56
586.032	453.56
586.242	449.56
586.452	447.56
586.662	451.56
586.872	464.56
587.082	448.56
587.292	487.56
587.502	463.56
587.713	474.56
587.923	457.56
588.133	454.56
588.343	457.56
588.553	445.56
588.762	455.56
588.972	445.56
589.182	491.56
589.392	449.56
589.602	453.56
589.812	446.56
590.022	423.56
590.232	432.56
590.441	436.56
590.651	465.56
590.861	432.56
591.071	435.56
591.281	431.56
591.49	448.56
591.7	453.56
591.91	461.56
592.119	467.56
592.329	474.56
592.539	471.56
592.748	466.56
592.958	458.56
593.167	466.56
593.377	459.56
593.587	475.56
593.796	471.56
594.006	473.56
594.215	475.56
594.424	499.56
594.634	478.56
594.843	474.56
595.053	478.56
595.262	449.56
595.472	441.56
595.681	446.56
595.89	444.56
596.1	419.56
596.309	439.56
596.518	434.56
596.727	442.56
596.937	439.56
597.146	416.56
597.355	414.56
597.564	436.56
597.774	427.56
597.983	400.56
598.192	414.56
598.401	384.56
598.61	382.56
598.819	406.56
599.028	414.56
599.237	400.56
599.446	400.56
599.655	387.56
599.864	398.56
600.073	390.56
600.282	375.56
600.491	390.56
600.7	388.56
600.909	378.56
601.118	390.56
601.327	417.56
601.536	433.56
601.745	417.56
601.953	397.56
602.162	414.56
602.371	408.56
602.58	412.56
602.789	407.56
602.997	414.56
603.206	408.56
603.415	414.56
603.623	397.56
603.832	400.56
604.041	400.56
604.249	382.56
604.458	383.56
604.666	363.56
604.875	386.56
605.084	366.56
605.292	393.56
605.501	408.56
605.709	423.56
605.918	411.56
606.126	404.56
606.334	396.56
606.543	407.56
606.751	403.56
606.96	413.56
607.168	404.56
607.376	386.56
607.585	406.56
607.793	401.56
608.001	399.56
608.21	400.56
608.418	408.56
608.626	410.56
608.834	388.56
609.043	406.56
609.251	392.56
609.459	382.56
609.667	400.56
609.875	395.56
610.083	425.56
610.291	418.56
610.499	406.56
610.707	411.56
610.916	430.56
611.124	404.56
611.332	398.56
611.54	404.56
611.748	394.56
611.955	387.56
612.163	389.56
612.371	406.56
612.579	386.56
612.787	399.56
612.995	410.56
613.203	387.56
613.411	381.56
613.618	398.56
613.826	387.56
614.034	377.56
614.242	410.56
614.449	376.56
614.657	383.56
614.865	394.56
615.072	419.56
615.28	388.56
615.488	398.56
615.695	404.56
615.903	388.56
616.111	383.56
616.318	405.56
616.526	398.56
616.733	403.56
616.941	377.56
617.148	348.56
617.356	384.56
617.563	398.56
617.771	374.56
617.978	368.56
618.185	361.56
618.393	364.56
618.6	387.56
618.807	389.56
619.015	377.56
619.222	365.56
619.429	388.56
619.637	366.56
619.844	355.56
620.051	348.56
620.258	341.56
620.466	358.56
620.673	370.56
620.88	348.56
621.087	339.56
621.294	347.56
621.501	348.56
621.708	361.56
621.915	360.56
622.122	362.56
622.329	362.56
622.536	363.56
622.743	351.56
622.95	351.56
623.157	336.56
623.364	353.56
623.571	355.56
623.778	346.56
623.985	355.56
624.192	332.56
624.399	339.56
624.606	347.56
624.812	340.56
625.019	316.56
625.226	310.56
625.433	340.56
625.639	337.56
625.846	326.56
626.053	292.56
626.259	294.56
626.466	288.56
626.673	286.56
626.879	284.56
627.086	303.56
627.293	311.56
627.499	312.56
627.706	315.56
627.912	314.56
628.119	331.56
628.325	321.56
628.532	323.56
628.738	320.56
628.945	313.56
629.151	306.56
629.357	305.56
629.564	323.56
629.77	301.56
629.976	301.56
630.183	290.56
630.389	289.56
630.595	306.56
630.802	310.56
631.008	299.56
631.214	312.56
631.42	307.56
631.627	303.56
631.833	297.56
632.039	286.56
632.245	282.56
632.451	281.56
632.657	295.56
632.863	284.56
633.069	295.56
633.275	291.56
633.481	282.56
633.688	301.56
633.893	281.56
634.099	270.56
634.305	277.56
634.511	283.56
634.717	297.56
634.923	281.56
635.129	271.56
635.335	280.56
635.541	268.56
635.747	265.56
635.952	280.56
636.158	292.56
636.364	306.56
636.57	284.56
636.775	277.56
636.981	291.56
637.187	287.56
637.392	280.56
637.598	266.56
637.804	288.56
638.009	268.56
638.215	284.56
638.421	274.56
638.626	290.56
638.832	281.56
639.037	278.56
639.243	243.56
639.448	258.56
639.654	260.56
639.859	282.56
640.065	252.56
640.27	275.56
640.475	261.56
640.681	265.56
640.886	275.56
641.091	272.56
641.297	266.56
641.502	267.56
641.707	265.56
641.913	262.56
642.118	263.56
642.323	262.56
642.528	260.56
642.733	278.56
642.939	256.56
643.144	267.56
643.349	254.56
643.554	246.56
643.759	261.56
643.964	264.56
644.169	266.56
644.374	254.56
644.579	243.56
644.784	246.56
644.989	262.56
645.194	244.56
645.399	260.56
645.604	236.56
645.809	262.56
646.014	251.56
646.219	235.56
646.423	252.56
646.628	256.56
646.833	257.56
647.038	243.56
647.243	266.56
647.447	256.56
647.652	263.56
647.857	258.56
648.062	256.56
648.266	252.56
648.471	274.56
648.676	254.56
648.88	270.56
649.085	251.56
649.289	248.56
649.494	271.56
649.698	275.56
649.903	252.56
650.107	249.56
650.312	243.56
650.516	236.56
650.721	225.56
650.925	250.56
651.13	237.56
651.334	248.56
651.539	240.56
651.743	247.56
651.947	235.56
652.152	225.56
652.356	226.56
652.56	217.56
652.764	220.56
652.969	224.56
653.173	216.56
653.377	210.56
653.581	224.56
653.785	223.56
653.99	230.56
654.194	218.56
654.398	211.56
654.602	207.56
654.806	211.56
655.01	210.56
655.214	217.56
655.418	211.56
655.622	223.56
655.826	242.56
656.03	245.56
656.234	233.56
656.438	277.56
656.642	252.56
656.846	230.56
657.049	222.56
657.253	223.56
657.457	190.56
657.661	193.56
657.865	178.56
658.068	172.56
658.272	166.56
658.476	168.56
658.68	168.56
658.883	143.56
659.087	144.56
659.291	150.56
659.494	151.56
659.698	133.56
659.901	150.56
660.105	140.56
660.309	126.56
660.512	118.56
660.716	138.56
660.919	120.56
661.123	119.56
661.326	101.56
661.53	114.56
661.733	87.56
661.936	101.56
662.14	96.56
662.343	112.56
662.546	98.56
662.75	100.56
662.953	93.56
663.156	75.56
663.36	76.56
663.563	98.56
663.766	83.56
663.969	80.56
664.173	91.56
664.376	70.56
664.579	93.56
664.782	86.56
664.985	91.56
665.188	83.56
665.391	72.56
665.594	69.56
665.797	86.56
666	94.56
666.203	89.56
666.406	79.56
666.609	83.56
666.812	94.56
667.015	79.56
667.218	81.56
667.421	94.56
667.624	87.56
667.827	86.56
668.03	78.56
668.232	82.56
668.435	76.56
668.638	95.56
668.841	92.56
669.043	83.56
669.246	84.56
669.449	81.56
669.651	76.56
669.854	87.56
670.057	89.56
670.259	96.56
670.462	74.56
670.665	73.56
670.867	82.56
671.07	75.56
671.272	74.56
671.475	78.56
671.677	87.56
671.88	62.56
672.082	76.56
672.284	76.56
672.487	88.56
672.689	79.56
672.892	89.56
