Data from WStandard_LampEnergy5.5LIBS07252019.E.O._I.C._HRD10591_16-07-24-920.txt Node
Date: Thu Jul 25 16:07:24 EDT 2019
User: cochatt
Spectrometer: HR+D1059
Trigger mode: 1
Integration Time (sec): 1.000000E-1
Scans to average: 1
Electric dark correction enabled: true
Nonlinearity correction enabled: false
Boxcar width: 0
XAxis mode: Wavelengths
Number of Pixels in Spectrum: 2048
>>>>>Begin Spectral Data<<<<<
223.165	-19.94
223.4	-19.94
223.635	-19.94
223.869	-21.94
224.104	-16.94
224.338	-9.94
224.573	-14.94
224.808	-19.94
225.042	-1.94
225.277	-1.94
225.511	-0.94
225.746	-18.94
225.98	8.06
226.215	16.06
226.449	20.06
226.683	33.06
226.918	27.06
227.152	23.06
227.387	31.06
227.621	55.06
227.856	47.06
228.09	54.06
228.324	54.06
228.559	54.06
228.793	149.06
229.027	366.06
229.262	368.06
229.496	392.06
229.73	410.06
229.964	431.06
230.199	462.06
230.433	491.06
230.667	503.06
230.901	536.06
231.136	514.06
231.37	471.06
231.604	466.06
231.838	476.06
232.072	508.06
232.306	447.06
232.541	491.06
232.775	563.06
233.009	598.06
233.243	598.06
233.477	542.06
233.711	550.06
233.945	587.06
234.179	550.06
234.413	603.06
234.647	658.06
234.881	608.06
235.115	573.06
235.349	581.06
235.583	586.06
235.817	595.06
236.051	553.06
236.285	567.06
236.519	618.06
236.753	667.06
236.987	731.06
237.221	684.06
237.455	780.06
237.689	762.06
237.922	702.06
238.156	682.06
238.39	680.06
238.624	733.06
238.858	771.06
239.091	798.06
239.325	783.06
239.559	940.06
239.793	978.06
240.027	1069.06
240.26	1058.06
240.494	792.06
240.728	727.06
240.961	783.06
241.195	780.06
241.429	836.06
241.662	837.06
241.896	768.06
242.13	778.06
242.363	841.06
242.597	934.06
242.83	900.06
243.064	905.06
243.298	959.06
243.531	973.06
243.765	964.06
243.998	952.06
244.232	834.06
244.465	812.06
244.699	808.06
244.932	933.06
245.166	1066.06
245.399	1020.06
245.633	910.06
245.866	901.06
246.099	952.06
246.333	977.06
246.566	994.06
246.8	1090.06
247.033	1207.06
247.266	1096.06
247.5	1078.06
247.733	1095.06
247.966	1144.06
248.2	1286.06
248.433	1251.06
248.666	1272.06
248.899	1326.06
249.133	1588.06
249.366	1780.06
249.599	1490.06
249.832	1263.06
250.066	1326.06
250.299	1327.06
250.532	1247.06
250.765	1120.06
250.998	1194.06
251.231	1229.06
251.465	1299.06
251.698	1215.06
251.931	1207.06
252.164	1233.06
252.397	1296.06
252.63	1300.06
252.863	1134.06
253.096	1127.06
253.329	1174.06
253.562	1216.06
253.795	1335.06
254.028	1307.06
254.261	1190.06
254.494	1220.06
254.727	1143.06
254.96	1172.06
255.193	1262.06
255.426	1432.06
255.659	1680.06
255.892	1734.06
256.124	1385.06
256.357	1355.06
256.59	1469.06
256.823	1480.06
257.056	1433.06
257.289	1763.06
257.521	1956.06
257.754	1732.06
257.987	1647.06
258.22	1835.06
258.452	1799.06
258.685	1454.06
258.918	1417.06
259.151	1446.06
259.383	1374.06
259.616	1205.06
259.849	1259.06
260.081	1458.06
260.314	1633.06
260.547	1735.06
260.779	1789.06
261.012	1640.06
261.244	1483.06
261.477	1383.06
261.71	1450.06
261.942	1432.06
262.175	1377.06
262.407	1522.06
262.64	1420.06
262.872	1304.06
263.105	1286.06
263.337	1325.06
263.57	1326.06
263.802	1327.06
264.035	1255.06
264.267	1165.06
264.499	1145.06
264.732	1250.06
264.964	1302.06
265.197	1383.06
265.429	1467.06
265.661	1607.06
265.894	1773.06
266.126	1861.06
266.358	1635.06
266.591	1675.06
266.823	1850.06
267.055	1657.06
267.287	1637.06
267.52	1606.06
267.752	1609.06
267.984	1574.06
268.216	1706.06
268.448	1694.06
268.681	1672.06
268.913	1556.06
269.145	1480.06
269.377	1428.06
269.609	1538.06
269.841	1819.06
270.073	2066.06
270.306	2315.06
270.538	2531.06
270.77	2116.06
271.002	1796.06
271.234	1706.06
271.466	1694.06
271.698	1888.06
271.93	2265.06
272.162	2256.06
272.394	2056.06
272.626	1966.06
272.858	1711.06
273.09	1501.06
273.322	1511.06
273.553	1392.06
273.785	1452.06
274.017	1470.06
274.249	1618.06
274.481	1634.06
274.713	1472.06
274.945	1456.06
275.176	1449.06
275.408	1459.06
275.64	1416.06
275.872	1411.06
276.104	1442.06
276.335	1672.06
276.567	1939.06
276.799	1976.06
277.031	1770.06
277.262	1658.06
277.494	1712.06
277.726	1933.06
277.957	1880.06
278.189	1732.06
278.421	1620.06
278.652	1542.06
278.884	1534.06
279.115	1511.06
279.347	1536.06
279.579	1508.06
279.81	1480.06
280.042	1651.06
280.273	1819.06
280.505	1796.06
280.736	1913.06
280.968	1773.06
281.199	1566.06
281.431	1455.06
281.662	1497.06
281.894	1465.06
282.125	1492.06
282.356	1580.06
282.588	1608.06
282.819	1581.06
283.051	1676.06
283.282	1833.06
283.513	1810.06
283.745	1552.06
283.976	1448.06
284.207	1483.06
284.439	1499.06
284.67	1492.06
284.901	1607.06
285.132	1617.06
285.364	1592.06
285.595	1602.06
285.826	1571.06
286.057	1537.06
286.288	1504.06
286.52	1591.06
286.751	1701.06
286.982	1793.06
287.213	1665.06
287.444	1534.06
287.675	1499.06
287.906	1590.06
288.138	1670.06
288.369	1620.06
288.6	1564.06
288.831	1509.06
289.062	1522.06
289.293	1559.06
289.524	1556.06
289.755	1614.06
289.986	1615.06
290.217	1490.06
290.448	1533.06
290.679	1570.06
290.91	1536.06
291.141	1586.06
291.371	1702.06
291.602	1627.06
291.833	1688.06
292.064	1674.06
292.295	1660.06
292.526	1677.06
292.757	1791.06
292.987	1732.06
293.218	1602.06
293.449	1723.06
293.68	1964.06
293.91	2086.06
294.141	1940.06
294.372	1790.06
294.603	1854.06
294.833	1965.06
295.064	1842.06
295.295	1724.06
295.525	1652.06
295.756	1553.06
295.987	1430.06
296.217	1463.06
296.448	1544.06
296.679	1544.06
296.909	1558.06
297.14	1548.06
297.37	1570.06
297.601	1628.06
297.831	1766.06
298.062	1779.06
298.292	1632.06
298.523	1508.06
298.753	1509.06
298.984	1591.06
299.214	1558.06
299.445	1603.06
299.675	1652.06
299.905	1622.06
300.136	1635.06
300.366	1574.06
300.597	1516.06
300.827	1487.06
301.057	1564.06
301.288	1652.06
301.518	1653.06
301.748	1657.06
301.979	1793.06
302.209	1785.06
302.439	1899.06
302.669	2024.06
302.9	1848.06
303.13	1666.06
303.36	1685.06
303.59	1705.06
303.82	1701.06
304.051	1661.06
304.281	1659.06
304.511	1656.06
304.741	1765.06
304.971	1985.06
305.201	2162.06
305.431	1992.06
305.661	1656.06
305.891	1496.06
306.121	1459.06
306.352	1529.06
306.582	1591.06
306.812	1712.06
307.042	1860.06
307.272	1880.06
307.502	1957.06
307.731	2042.06
307.961	2222.06
308.191	2032.06
308.421	1728.06
308.651	1645.06
308.881	1628.06
309.111	1644.06
309.341	1586.06
309.571	1609.06
309.8	1605.06
310.03	1587.06
310.26	1581.06
310.49	1624.06
310.72	1646.06
310.949	1706.06
311.179	1770.06
311.409	1703.06
311.639	1637.06
311.868	1618.06
312.098	1669.06
312.328	1622.06
312.557	1641.06
312.787	1626.06
313.017	1719.06
313.246	1690.06
313.476	1720.06
313.706	1776.06
313.935	1715.06
314.165	1745.06
314.394	1734.06
314.624	1857.06
314.853	1962.06
315.083	2050.06
315.312	2126.06
315.542	1994.06
315.771	1743.06
316.001	1698.06
316.23	1812.06
316.46	1836.06
316.689	1829.06
316.919	1738.06
317.148	1668.06
317.377	1636.06
317.607	1794.06
317.836	1997.06
318.065	2104.06
318.295	1957.06
318.524	1945.06
318.753	1828.06
318.983	1846.06
319.212	1820.06
319.441	1752.06
319.67	1739.06
319.9	1746.06
320.129	1890.06
320.358	1910.06
320.587	2001.06
320.816	1953.06
321.046	1950.06
321.275	1772.06
321.504	1789.06
321.733	1954.06
321.962	1934.06
322.191	1773.06
322.42	1769.06
322.649	1778.06
322.878	1742.06
323.108	1802.06
323.337	1862.06
323.566	1834.06
323.795	1820.06
324.024	1884.06
324.253	1798.06
324.482	1809.06
324.71	1756.06
324.939	1639.06
325.168	1676.06
325.397	1702.06
325.626	1823.06
325.855	1852.06
326.084	1771.06
326.313	1772.06
326.542	1804.06
326.77	1832.06
326.999	1839.06
327.228	1765.06
327.457	1685.06
327.686	1672.06
327.914	1691.06
328.143	1772.06
328.372	1770.06
328.6	1763.06
328.829	1767.06
329.058	1698.06
329.287	1717.06
329.515	1817.06
329.744	1784.06
329.972	1907.06
330.201	1949.06
330.43	1937.06
330.658	1868.06
330.887	1861.06
331.115	1852.06
331.344	1898.06
331.572	1847.06
331.801	1843.06
332.03	1861.06
332.258	1875.06
332.486	1894.06
332.715	1893.06
332.943	1894.06
333.172	1829.06
333.4	1902.06
333.629	1947.06
333.857	2010.06
334.085	2218.06
334.314	2469.06
334.542	2794.06
334.771	2534.06
334.999	2251.06
335.227	2114.06
335.455	2027.06
335.684	1947.06
335.912	2011.06
336.14	2102.06
336.369	2046.06
336.597	1911.06
336.825	1858.06
337.053	1950.06
337.281	2034.06
337.51	2123.06
337.738	2236.06
337.966	2104.06
338.194	1938.06
338.422	1879.06
338.65	1845.06
338.878	1862.06
339.106	1774.06
339.334	1795.06
339.562	1701.06
339.79	1775.06
340.018	1908.06
340.246	1960.06
340.474	1962.06
340.702	1905.06
340.93	1937.06
341.158	1937.06
341.386	1885.06
341.614	1862.06
341.842	1799.06
342.07	1838.06
342.298	1888.06
342.526	1893.06
342.754	1854.06
342.981	1824.06
343.209	1862.06
343.437	1812.06
343.665	1804.06
343.893	1894.06
344.12	1946.06
344.348	1972.06
344.576	1871.06
344.804	1861.06
345.031	1825.06
345.259	1840.06
345.487	1813.06
345.714	1723.06
345.942	1702.06
346.17	1675.06
346.397	1714.06
346.625	1781.06
346.853	1671.06
347.08	1629.06
347.308	1627.06
347.535	1676.06
347.763	1796.06
347.99	1747.06
348.218	1651.06
348.445	1640.06
348.673	1703.06
348.9	1727.06
349.128	1803.06
349.355	1914.06
349.583	1839.06
349.81	1718.06
350.037	1628.06
350.265	1592.06
350.492	1660.06
350.72	1688.06
350.947	1714.06
351.174	1769.06
351.402	1671.06
351.629	1583.06
351.856	1574.06
352.083	1560.06
352.311	1571.06
352.538	1655.06
352.765	1703.06
352.992	1776.06
353.22	1723.06
353.447	1622.06
353.674	1666.06
353.901	1719.06
354.128	1675.06
354.355	1680.06
354.583	1730.06
354.81	1802.06
355.037	1765.06
355.264	1773.06
355.491	1715.06
355.718	1714.06
355.945	1695.06
356.172	1664.06
356.399	1630.06
356.626	1650.06
356.853	1678.06
357.08	1798.06
357.307	2009.06
357.534	2025.06
357.761	1809.06
357.988	1641.06
358.215	1596.06
358.441	1608.06
358.668	1611.06
358.895	1629.06
359.122	1748.06
359.349	1882.06
359.576	1875.06
359.802	1701.06
360.029	1640.06
360.256	1639.06
360.483	1666.06
360.709	1712.06
360.936	1758.06
361.163	1806.06
361.39	1954.06
361.616	2144.06
361.843	2042.06
362.07	1990.06
362.296	1703.06
362.523	1659.06
362.749	1647.06
362.976	1702.06
363.203	1765.06
363.429	1694.06
363.656	1596.06
363.882	1705.06
364.109	1818.06
364.335	2023.06
364.562	1874.06
364.788	1815.06
365.015	1693.06
365.241	1631.06
365.468	1659.06
365.694	1772.06
365.92	1839.06
366.147	1748.06
366.373	1640.06
366.599	1620.06
366.826	1613.06
367.052	1656.06
367.278	1655.06
367.505	1703.06
367.731	1701.06
367.957	1718.06
368.184	1753.06
368.41	1872.06
368.636	1883.06
368.862	1886.06
369.089	1926.06
369.315	1828.06
369.541	1801.06
369.767	1729.06
369.993	1642.06
370.219	1651.06
370.445	1698.06
370.672	1801.06
370.898	1902.06
371.124	1889.06
371.35	1753.06
371.576	1807.06
371.802	1928.06
372.028	1813.06
372.254	1748.06
372.48	1687.06
372.706	1676.06
372.932	1663.06
373.158	1674.06
373.384	1708.06
373.61	1794.06
373.835	1878.06
374.061	1773.06
374.287	1731.06
374.513	1747.06
374.739	1776.06
374.965	1812.06
375.191	1778.06
375.416	1838.06
375.642	1781.06
375.868	1890.06
376.094	2014.06
376.319	1921.06
376.545	1782.06
376.771	1808.06
376.997	1877.06
377.222	1893.06
377.448	1804.06
377.674	1821.06
377.899	1833.06
378.125	1947.06
378.35	1964.06
378.576	1781.06
378.802	1710.06
379.027	1678.06
379.253	1755.06
379.478	1751.06
379.704	1744.06
379.929	1747.06
380.155	1741.06
380.38	1768.06
380.606	1792.06
380.831	1796.06
381.057	1868.06
381.282	1898.06
381.507	1836.06
381.733	1908.06
381.958	2027.06
382.184	1861.06
382.409	1798.06
382.634	1836.06
382.86	1848.06
383.085	1830.06
383.31	1871.06
383.535	1978.06
383.761	2172.06
383.986	2068.06
384.211	1972.06
384.436	1969.06
384.662	2050.06
384.887	2155.06
385.112	2020.06
385.337	2040.06
385.562	2014.06
385.787	2036.06
386.013	2083.06
386.238	2077.06
386.463	2062.06
386.688	2171.06
386.913	2302.06
387.138	2274.06
387.363	2057.06
387.588	2089.06
387.813	2080.06
388.038	2100.06
388.263	2167.06
388.488	2075.06
388.713	1910.06
388.938	1921.06
389.163	1957.06
389.387	1965.06
389.612	2022.06
389.837	2031.06
390.062	2063.06
390.287	2055.06
390.512	2010.06
390.736	2005.06
390.961	1952.06
391.186	1887.06
391.411	1961.06
391.636	1979.06
391.86	1999.06
392.085	1996.06
392.31	1995.06
392.534	2036.06
392.759	2060.06
392.984	1996.06
393.208	2062.06
393.433	2112.06
393.658	2159.06
393.882	2227.06
394.107	2041.06
394.331	2011.06
394.556	1980.06
394.78	2062.06
395.005	2108.06
395.229	2148.06
395.454	2293.06
395.678	2362.06
395.903	2262.06
396.127	2112.06
396.352	2139.06
396.576	2209.06
396.801	2218.06
397.025	2185.06
397.249	2178.06
397.474	2152.06
397.698	2155.06
397.922	2235.06
398.147	2318.06
398.371	2402.06
398.595	2419.06
398.82	2340.06
399.044	2332.06
399.268	2466.06
399.492	2610.06
399.717	2665.06
399.941	2680.06
400.165	2687.06
400.389	2555.06
400.613	2588.06
400.837	2802.06
401.062	3190.06
401.286	2773.06
401.51	2487.06
401.734	2663.06
401.958	2566.06
402.182	2387.06
402.406	2275.06
402.63	2276.06
402.854	2280.06
403.078	2313.06
403.302	2358.06
403.526	2374.06
403.75	2398.06
403.974	2405.06
404.198	2419.06
404.422	2447.06
404.645	2582.06
404.869	2524.06
405.093	2314.06
405.317	2323.06
405.541	2357.06
405.765	2459.06
405.988	2422.06
406.212	2467.06
406.436	2489.06
406.66	2537.06
406.883	2510.06
407.107	2843.06
407.331	3110.06
407.555	3297.06
407.778	3122.06
408.002	2567.06
408.226	2539.06
408.449	2517.06
408.673	2449.06
408.896	2446.06
409.12	2535.06
409.344	2436.06
409.567	2370.06
409.791	2406.06
410.014	2411.06
410.238	2568.06
410.461	2663.06
410.685	2394.06
410.908	2287.06
411.132	2412.06
411.355	2370.06
411.578	2322.06
411.802	2394.06
412.025	2438.06
412.249	2316.06
412.472	2274.06
412.695	2254.06
412.919	2270.06
413.142	2248.06
413.365	2329.06
413.589	2381.06
413.812	2432.06
414.035	2540.06
414.258	2383.06
414.482	2270.06
414.705	2263.06
414.928	2254.06
415.151	2287.06
415.374	2264.06
415.597	2333.06
415.821	2356.06
416.044	2414.06
416.267	2437.06
416.49	2204.06
416.713	2189.06
416.936	2239.06
417.159	2377.06
417.382	2388.06
417.605	2251.06
417.828	2319.06
418.051	2347.06
418.274	2263.06
418.497	2210.06
418.72	2184.06
418.943	2177.06
419.166	2345.06
419.389	2458.06
419.611	2291.06
419.834	2251.06
420.057	2310.06
420.28	2227.06
420.503	2224.06
420.726	2246.06
420.948	2255.06
421.171	2188.06
421.394	2166.06
421.617	2288.06
421.839	2266.06
422.062	2238.06
422.285	2165.06
422.507	2194.06
422.73	2134.06
422.953	2071.06
423.175	2120.06
423.398	2182.06
423.621	2172.06
423.843	2237.06
424.066	2240.06
424.288	2295.06
424.511	2353.06
424.733	2299.06
424.956	2124.06
425.178	2112.06
425.401	2152.06
425.623	2157.06
425.846	2118.06
426.068	2245.06
426.291	2342.06
426.513	2267.06
426.735	2276.06
426.958	2385.06
427.18	2545.06
427.402	2330.06
427.625	2367.06
427.847	2394.06
428.069	2244.06
428.292	2122.06
428.514	2113.06
428.736	2121.06
428.958	2132.06
429.181	2136.06
429.403	2383.06
429.625	2988.06
429.847	2613.06
430.069	2196.06
430.292	2415.06
430.514	2508.06
430.736	2288.06
430.958	2429.06
431.18	2340.06
431.402	2145.06
431.624	2118.06
431.846	2133.06
432.068	2072.06
432.29	2098.06
432.512	2122.06
432.734	2178.06
432.956	2193.06
433.178	2357.06
433.4	2313.06
433.622	2243.06
433.844	2193.06
434.066	2114.06
434.287	2108.06
434.509	2183.06
434.731	2304.06
434.953	2472.06
435.175	2412.06
435.397	2204.06
435.618	2199.06
435.84	2253.06
436.062	2191.06
436.284	2238.06
436.505	2236.06
436.727	2325.06
436.949	2224.06
437.17	2116.06
437.392	2128.06
437.614	2118.06
437.835	2098.06
438.057	2214.06
438.278	2297.06
438.5	2168.06
438.721	2106.06
438.943	2142.06
439.165	2087.06
439.386	2082.06
439.608	2102.06
439.829	2143.06
440.05	2126.06
440.272	2070.06
440.493	2053.06
440.715	2083.06
440.936	2225.06
441.158	2466.06
441.379	2420.06
441.6	2395.06
441.822	2310.06
442.043	2297.06
442.264	2214.06
442.486	2124.06
442.707	2085.06
442.928	2115.06
443.149	2153.06
443.371	2331.06
443.592	2403.06
443.813	2333.06
444.034	2343.06
444.255	2309.06
444.476	2355.06
444.698	2428.06
444.919	2414.06
445.14	2475.06
445.361	2505.06
445.582	2557.06
445.803	2400.06
446.024	2346.06
446.245	2436.06
446.466	2296.06
446.687	2280.06
446.908	2234.06
447.129	2154.06
447.35	2196.06
447.571	2162.06
447.792	2086.06
448.013	2052.06
448.234	2114.06
448.455	2234.06
448.675	2266.06
448.896	2075.06
449.117	2002.06
449.338	2107.06
449.559	2145.06
449.779	2268.06
450	2549.06
450.221	2720.06
450.442	2622.06
450.662	2280.06
450.883	2043.06
451.104	1992.06
451.324	2007.06
451.545	2121.06
451.766	2080.06
451.986	1976.06
452.207	1970.06
452.428	1919.06
452.648	1881.06
452.869	1928.06
453.089	2078.06
453.31	2089.06
453.53	2138.06
453.751	2102.06
453.971	1967.06
454.192	1978.06
454.412	2104.06
454.633	2025.06
454.853	1986.06
455.073	1870.06
455.294	1854.06
455.514	1870.06
455.734	1856.06
455.955	1926.06
456.175	1938.06
456.395	1924.06
456.616	1961.06
456.836	1999.06
457.056	1943.06
457.276	1994.06
457.497	1892.06
457.717	1804.06
457.937	1867.06
458.157	1936.06
458.377	1897.06
458.598	1922.06
458.818	1894.06
459.038	2065.06
459.258	2156.06
459.478	2158.06
459.698	2062.06
459.918	2134.06
460.138	2217.06
460.358	2304.06
460.578	2259.06
460.798	2399.06
461.018	2514.06
461.238	2368.06
461.458	2281.06
461.678	2319.06
461.898	2222.06
462.118	2171.06
462.338	2258.06
462.558	2338.06
462.777	2288.06
462.997	2389.06
463.217	2476.06
463.437	2508.06
463.657	2306.06
463.876	2308.06
464.096	2246.06
464.316	2291.06
464.536	2350.06
464.755	2360.06
464.975	2426.06
465.195	2296.06
465.414	2396.06
465.634	2358.06
465.854	2252.06
466.073	2422.06
466.293	2354.06
466.512	2096.06
466.732	2050.06
466.951	2178.06
467.171	2166.06
467.391	2092.06
467.61	2034.06
467.829	2063.06
468.049	2221.06
468.268	2498.06
468.488	2337.06
468.707	2182.06
468.927	2145.06
469.146	2121.06
469.365	2065.06
469.585	2089.06
469.804	2049.06
470.023	2041.06
470.243	2118.06
470.462	2065.06
470.681	2038.06
470.901	2071.06
471.12	2103.06
471.339	2088.06
471.558	2015.06
471.777	1970.06
471.997	2034.06
472.216	2061.06
472.435	2010.06
472.654	2091.06
472.873	2095.06
473.092	2192.06
473.311	2131.06
473.53	2026.06
473.749	1980.06
473.968	2054.06
474.187	2168.06
474.406	2266.06
474.625	2141.06
474.844	2086.06
475.063	2073.06
475.282	2174.06
475.501	2117.06
475.72	2135.06
475.939	2266.06
476.158	2161.06
476.377	2090.06
476.596	2151.06
476.814	2195.06
477.033	2214.06
477.252	2315.06
477.471	2306.06
477.69	2228.06
477.908	2202.06
478.127	2330.06
478.346	2540.06
478.564	2548.06
478.783	2467.06
479.002	2547.06
479.22	2517.06
479.439	2568.06
479.658	2965.06
479.876	2923.06
480.095	2508.06
480.313	2424.06
480.532	2304.06
480.751	2333.06
480.969	2430.06
481.188	2367.06
481.406	2321.06
481.624	2314.06
481.843	2317.06
482.061	2343.06
482.28	2378.06
482.498	2476.06
482.717	2437.06
482.935	2324.06
483.153	2294.06
483.372	2311.06
483.59	2283.06
483.808	2306.06
484.027	2360.06
484.245	2512.06
484.463	2880.06
484.681	3342.06
484.9	2587.06
485.118	2399.06
485.336	2368.06
485.554	2483.06
485.772	2591.06
485.99	2518.06
486.209	2510.06
486.427	2504.06
486.645	2484.06
486.863	2419.06
487.081	2512.06
487.299	2590.06
487.517	2523.06
487.735	2434.06
487.953	2390.06
488.171	2399.06
488.389	2383.06
488.607	2416.06
488.825	2676.06
489.043	2676.06
489.261	2394.06
489.479	2593.06
489.696	2622.06
489.914	2582.06
490.132	2525.06
490.35	2459.06
490.568	2578.06
490.786	2479.06
491.003	2360.06
491.221	2438.06
491.439	2564.06
491.657	2522.06
491.874	2477.06
492.092	2519.06
492.31	2532.06
492.527	2534.06
492.745	2467.06
492.963	2464.06
493.18	2570.06
493.398	2762.06
493.615	2852.06
493.833	2569.06
494.05	2520.06
494.268	2548.06
494.485	2647.06
494.703	2520.06
494.92	2498.06
495.138	2493.06
495.355	2531.06
495.573	2674.06
495.79	2803.06
496.008	2849.06
496.225	2621.06
496.442	2664.06
496.66	2702.06
496.877	2656.06
497.094	2767.06
497.312	2833.06
497.529	2749.06
497.746	2820.06
497.963	3236.06
498.181	3658.06
498.398	3411.06
498.615	3370.06
498.832	3274.06
499.049	3234.06
499.267	3239.06
499.484	3425.06
499.701	3726.06
499.918	3729.06
500.135	3974.06
500.352	4373.06
500.569	4232.06
500.786	4479.06
501.003	4277.06
501.22	3857.06
501.437	3771.06
501.654	3814.06
501.871	3683.06
502.088	3244.06
502.305	3215.06
502.522	3103.06
502.739	2876.06
502.956	2791.06
503.172	2754.06
503.389	2745.06
503.606	2664.06
503.823	2687.06
504.04	2682.06
504.256	2696.06
504.473	2705.06
504.69	2821.06
504.907	2646.06
505.123	2486.06
505.34	2623.06
505.557	3396.06
505.773	2958.06
505.99	2446.06
506.207	2302.06
506.423	2302.06
506.64	2232.06
506.856	2301.06
507.073	2594.06
507.289	2842.06
507.506	2739.06
507.722	2326.06
507.939	2166.06
508.155	2242.06
508.372	2238.06
508.588	2188.06
508.805	2147.06
509.021	2116.06
509.238	2095.06
509.454	2095.06
509.67	2079.06
509.887	2067.06
510.103	2059.06
510.319	2102.06
510.536	2207.06
510.752	2248.06
510.968	2310.06
511.184	2371.06
511.401	2410.06
511.617	2071.06
511.833	2038.06
512.049	2003.06
512.265	2032.06
512.481	2012.06
512.698	2077.06
512.914	2246.06
513.13	2167.06
513.346	1993.06
513.562	1985.06
513.778	2008.06
513.994	2148.06
514.21	2145.06
514.426	2196.06
514.642	2511.06
514.858	2324.06
515.074	2074.06
515.29	2065.06
515.506	2082.06
515.721	2177.06
515.937	2132.06
516.153	2408.06
516.369	2356.06
516.585	2203.06
516.801	2131.06
517.016	2110.06
517.232	2168.06
517.448	2241.06
517.664	2249.06
517.879	2222.06
518.095	2351.06
518.311	2252.06
518.527	2149.06
518.742	2116.06
518.958	2046.06
519.173	2009.06
519.389	2070.06
519.605	2110.06
519.82	2107.06
520.036	2135.06
520.251	2056.06
520.467	2022.06
520.682	2249.06
520.898	2324.06
521.113	2033.06
521.329	1987.06
521.544	2185.06
521.76	2112.06
521.975	1975.06
522.19	1878.06
522.406	1919.06
522.621	2322.06
522.836	2379.06
523.052	1940.06
523.267	1975.06
523.482	1928.06
523.698	1881.06
523.913	1795.06
524.128	1874.06
524.343	1988.06
524.559	1999.06
524.774	1874.06
524.989	1856.06
525.204	1847.06
525.419	1795.06
525.634	1834.06
525.849	1826.06
526.064	1849.06
526.28	1890.06
526.495	1776.06
526.71	1799.06
526.925	1816.06
527.14	1814.06
527.355	1776.06
527.57	1739.06
527.785	1817.06
527.999	1795.06
528.214	1688.06
528.429	1692.06
528.644	1717.06
528.859	1778.06
529.074	1779.06
529.289	1771.06
529.503	1752.06
529.718	1811.06
529.933	1737.06
530.148	1695.06
530.363	1707.06
530.577	1742.06
530.792	1813.06
531.007	1782.06
531.221	1746.06
531.436	1741.06
531.651	1829.06
531.865	1916.06
532.08	1816.06
532.295	1679.06
532.509	1675.06
532.724	1714.06
532.938	1780.06
533.153	1922.06
533.367	1825.06
533.582	1804.06
533.796	1755.06
534.011	1753.06
534.225	1786.06
534.44	1732.06
534.654	1696.06
534.868	1676.06
535.083	1766.06
535.297	1784.06
535.511	1747.06
535.726	1744.06
535.94	1716.06
536.154	1683.06
536.369	1695.06
536.583	1676.06
536.797	1675.06
537.011	1719.06
537.225	1672.06
537.44	1643.06
537.654	1706.06
537.868	1641.06
538.082	1571.06
538.296	1557.06
538.51	1602.06
538.724	1599.06
538.938	1558.06
539.153	1652.06
539.367	1659.06
539.581	1647.06
539.795	1726.06
540.009	1710.06
540.222	1685.06
540.436	1726.06
540.65	1834.06
540.864	1823.06
541.078	1725.06
541.292	1644.06
541.506	1635.06
541.72	1669.06
541.934	1626.06
542.147	1643.06
542.361	1642.06
542.575	1630.06
542.789	1587.06
543.002	1514.06
543.216	1578.06
543.43	1669.06
543.644	1735.06
543.857	1787.06
544.071	1736.06
544.285	1635.06
544.498	1627.06
544.712	1642.06
544.925	1663.06
545.139	1710.06
545.352	1578.06
545.566	1534.06
545.779	1552.06
545.993	1593.06
546.206	1622.06
546.42	1564.06
546.633	1543.06
546.847	1522.06
547.06	1527.06
547.274	1490.06
547.487	1540.06
547.7	1531.06
547.914	1540.06
548.127	1583.06
548.34	1587.06
548.554	1548.06
548.767	1542.06
548.98	1579.06
549.193	1553.06
549.407	1610.06
549.62	1671.06
549.833	1553.06
550.046	1526.06
550.259	1552.06
550.473	1502.06
550.686	1517.06
550.899	1513.06
551.112	1445.06
551.325	1466.06
551.538	1578.06
551.751	1870.06
551.964	1495.06
552.177	1460.06
552.39	1505.06
552.603	1552.06
552.816	1590.06
553.029	1613.06
553.242	1649.06
553.455	1549.06
553.667	1534.06
553.88	1510.06
554.093	1572.06
554.306	1500.06
554.519	1426.06
554.732	1428.06
554.944	1408.06
555.157	1491.06
555.37	1432.06
555.583	1448.06
555.795	1412.06
556.008	1347.06
556.221	1383.06
556.433	1325.06
556.646	1339.06
556.859	1317.06
557.071	1342.06
557.284	1280.06
557.496	1314.06
557.709	1250.06
557.921	1293.06
558.134	1304.06
558.346	1302.06
558.559	1295.06
558.771	1275.06
558.984	1236.06
559.196	1250.06
559.409	1255.06
559.621	1249.06
559.833	1256.06
560.046	1315.06
560.258	1290.06
560.47	1266.06
560.683	1257.06
560.895	1246.06
561.107	1230.06
561.32	1267.06
561.532	1288.06
561.744	1235.06
561.956	1291.06
562.168	1229.06
562.381	1175.06
562.593	1176.06
562.805	1229.06
563.017	1259.06
563.229	1231.06
563.441	1259.06
563.653	1242.06
563.865	1224.06
564.077	1228.06
564.289	1213.06
564.501	1295.06
564.713	1291.06
564.925	1336.06
565.137	1462.06
565.349	1300.06
565.561	1331.06
565.773	1295.06
565.985	1341.06
566.197	1417.06
566.408	1472.06
566.62	1502.06
566.832	1447.06
567.044	1527.06
567.255	1476.06
567.467	1517.06
567.679	1546.06
567.891	1585.06
568.102	1571.06
568.314	1485.06
568.526	1416.06
568.737	1374.06
568.949	1315.06
569.161	1262.06
569.372	1206.06
569.584	1204.06
569.795	1192.06
570.007	1208.06
570.218	1123.06
570.43	1132.06
570.641	1118.06
570.853	1138.06
571.064	1122.06
571.276	1113.06
571.487	1078.06
571.698	1059.06
571.91	1062.06
572.121	1028.06
572.333	1037.06
572.544	1036.06
572.755	988.06
572.966	986.06
573.178	999.06
573.389	1002.06
573.6	1045.06
573.811	1110.06
574.023	1010.06
574.234	994.06
574.445	962.06
574.656	923.06
574.867	936.06
575.078	967.06
575.289	927.06
575.501	905.06
575.712	912.06
575.923	983.06
576.134	954.06
576.345	923.06
576.556	908.06
576.767	915.06
576.978	895.06
577.188	897.06
577.399	883.06
577.61	921.06
577.821	855.06
578.032	859.06
578.243	890.06
578.454	851.06
578.665	874.06
578.875	857.06
579.086	824.06
579.297	852.06
579.508	918.06
579.718	907.06
579.929	876.06
580.14	830.06
580.35	807.06
580.561	869.06
580.772	919.06
580.982	853.06
581.193	862.06
581.403	825.06
581.614	803.06
581.825	813.06
582.035	819.06
582.246	837.06
582.456	846.06
582.667	843.06
582.877	803.06
583.087	780.06
583.298	762.06
583.508	789.06
583.719	838.06
583.929	810.06
584.139	804.06
584.35	779.06
584.56	778.06
584.77	756.06
584.981	803.06
585.191	794.06
585.401	804.06
585.611	773.06
585.821	771.06
586.032	792.06
586.242	756.06
586.452	773.06
586.662	780.06
586.872	759.06
587.082	785.06
587.292	796.06
587.502	796.06
587.713	769.06
587.923	752.06
588.133	754.06
588.343	796.06
588.553	776.06
588.762	782.06
588.972	743.06
589.182	745.06
589.392	751.06
589.602	776.06
589.812	779.06
590.022	768.06
590.232	736.06
590.441	775.06
590.651	770.06
590.861	770.06
591.071	746.06
591.281	716.06
591.49	725.06
591.7	758.06
591.91	732.06
592.119	740.06
592.329	747.06
592.539	783.06
592.748	743.06
592.958	788.06
593.167	792.06
593.377	809.06
593.587	794.06
593.796	794.06
594.006	795.06
594.215	811.06
594.424	795.06
594.634	749.06
594.843	761.06
595.053	787.06
595.262	761.06
595.472	751.06
595.681	749.06
595.89	722.06
596.1	706.06
596.309	715.06
596.518	706.06
596.727	712.06
596.937	702.06
597.146	659.06
597.355	684.06
597.564	664.06
597.774	624.06
597.983	660.06
598.192	670.06
598.401	640.06
598.61	649.06
598.819	638.06
599.028	639.06
599.237	630.06
599.446	623.06
599.655	626.06
599.864	618.06
600.073	612.06
600.282	630.06
600.491	618.06
600.7	604.06
600.909	632.06
601.118	602.06
601.327	600.06
601.536	616.06
601.745	626.06
601.953	628.06
602.162	606.06
602.371	647.06
602.58	596.06
602.789	598.06
602.997	620.06
603.206	612.06
603.415	564.06
603.623	569.06
603.832	580.06
604.041	609.06
604.249	569.06
604.458	603.06
604.666	590.06
604.875	579.06
605.084	592.06
605.292	629.06
605.501	582.06
605.709	586.06
605.918	561.06
606.126	583.06
606.334	558.06
606.543	576.06
606.751	561.06
606.96	600.06
607.168	550.06
607.376	563.06
607.585	584.06
607.793	564.06
608.001	561.06
608.21	548.06
608.418	571.06
608.626	572.06
608.834	541.06
609.043	557.06
609.251	556.06
609.459	558.06
609.667	557.06
609.875	530.06
610.083	569.06
610.291	588.06
610.499	572.06
610.707	567.06
610.916	524.06
611.124	535.06
611.332	543.06
611.54	546.06
611.748	536.06
611.955	536.06
612.163	534.06
612.371	527.06
612.579	555.06
612.787	519.06
612.995	540.06
613.203	552.06
613.411	523.06
613.618	544.06
613.826	544.06
614.034	534.06
614.242	553.06
614.449	525.06
614.657	533.06
614.865	528.06
615.072	510.06
615.28	514.06
615.488	542.06
615.695	542.06
615.903	542.06
616.111	534.06
616.318	529.06
616.526	529.06
616.733	526.06
616.941	530.06
617.148	495.06
617.356	520.06
617.563	508.06
617.771	504.06
617.978	499.06
618.185	505.06
618.393	502.06
618.6	499.06
618.807	498.06
619.015	489.06
619.222	510.06
619.429	480.06
619.637	494.06
619.844	482.06
620.051	488.06
620.258	483.06
620.466	475.06
620.673	488.06
620.88	462.06
621.087	461.06
621.294	438.06
621.501	481.06
621.708	474.06
621.915	490.06
622.122	468.06
622.329	478.06
622.536	479.06
622.743	481.06
622.95	480.06
623.157	474.06
623.364	440.06
623.571	461.06
623.778	448.06
623.985	455.06
624.192	456.06
624.399	448.06
624.606	437.06
624.812	442.06
625.019	444.06
625.226	451.06
625.433	455.06
625.639	441.06
625.846	445.06
626.053	436.06
626.259	421.06
626.466	414.06
626.673	413.06
626.879	424.06
627.086	415.06
627.293	429.06
627.499	431.06
627.706	412.06
627.912	435.06
628.119	436.06
628.325	432.06
628.532	431.06
628.738	427.06
628.945	430.06
629.151	434.06
629.357	427.06
629.564	425.06
629.77	401.06
629.976	401.06
630.183	412.06
630.389	399.06
630.595	384.06
630.802	413.06
631.008	410.06
631.214	404.06
631.42	386.06
631.627	393.06
631.833	383.06
632.039	389.06
632.245	396.06
632.451	372.06
632.657	386.06
632.863	386.06
633.069	376.06
633.275	379.06
633.481	376.06
633.688	370.06
633.893	366.06
634.099	376.06
634.305	354.06
634.511	344.06
634.717	370.06
634.923	349.06
635.129	370.06
635.335	372.06
635.541	359.06
635.747	379.06
635.952	370.06
636.158	360.06
636.364	373.06
636.57	358.06
636.775	361.06
636.981	359.06
637.187	355.06
637.392	372.06
637.598	360.06
637.804	364.06
638.009	355.06
638.215	335.06
638.421	350.06
638.626	350.06
638.832	342.06
639.037	339.06
639.243	339.06
639.448	329.06
639.654	334.06
639.859	357.06
640.065	339.06
640.27	344.06
640.475	330.06
640.681	341.06
640.886	353.06
641.091	335.06
641.297	340.06
641.502	312.06
641.707	315.06
641.913	335.06
642.118	330.06
642.323	344.06
642.528	322.06
642.733	336.06
642.939	320.06
643.144	322.06
643.349	336.06
643.554	335.06
643.759	329.06
643.964	303.06
644.169	322.06
644.374	316.06
644.579	309.06
644.784	329.06
644.989	329.06
645.194	317.06
645.399	328.06
645.604	327.06
645.809	308.06
646.014	338.06
646.219	316.06
646.423	316.06
646.628	317.06
646.833	333.06
647.038	325.06
647.243	332.06
647.447	307.06
647.652	316.06
647.857	309.06
648.062	302.06
648.266	322.06
648.471	323.06
648.676	326.06
648.88	335.06
649.085	334.06
649.289	319.06
649.494	314.06
649.698	299.06
649.903	292.06
650.107	325.06
650.312	298.06
650.516	314.06
650.721	286.06
650.925	276.06
651.13	298.06
651.334	309.06
651.539	285.06
651.743	295.06
651.947	287.06
652.152	288.06
652.356	268.06
652.56	269.06
652.764	258.06
652.969	258.06
653.173	252.06
653.377	257.06
653.581	250.06
653.785	259.06
653.99	248.06
654.194	254.06
654.398	235.06
654.602	239.06
654.806	262.06
655.01	256.06
655.214	264.06
655.418	250.06
655.622	249.06
655.826	250.06
656.03	233.06
656.234	278.06
656.438	249.06
656.642	272.06
656.846	265.06
657.049	244.06
657.253	239.06
657.457	205.06
657.661	182.06
657.865	196.06
658.068	172.06
658.272	164.06
658.476	162.06
658.68	152.06
658.883	149.06
659.087	152.06
659.291	151.06
659.494	147.06
659.698	145.06
659.901	139.06
660.105	124.06
660.309	126.06
660.512	119.06
660.716	130.06
660.919	123.06
661.123	111.06
661.326	120.06
661.53	103.06
661.733	96.06
661.936	108.06
662.14	115.06
662.343	96.06
662.546	95.06
662.75	92.06
662.953	93.06
663.156	96.06
663.36	91.06
663.563	84.06
663.766	83.06
663.969	91.06
664.173	99.06
664.376	87.06
664.579	94.06
664.782	91.06
664.985	89.06
665.188	81.06
665.391	80.06
665.594	84.06
665.797	93.06
666	83.06
666.203	95.06
666.406	91.06
666.609	72.06
666.812	78.06
667.015	82.06
667.218	77.06
667.421	87.06
667.624	76.06
667.827	93.06
668.03	77.06
668.232	90.06
668.435	78.06
668.638	74.06
668.841	80.06
669.043	90.06
669.246	84.06
669.449	78.06
669.651	92.06
669.854	83.06
670.057	88.06
670.259	91.06
670.462	90.06
670.665	90.06
670.867	83.06
671.07	98.06
671.272	98.06
671.475	93.06
671.677	93.06
671.88	94.06
672.082	88.06
672.284	89.06
672.487	98.06
672.689	102.06
672.892	85.06
