Data from WStandard_LampEnergy10_LIBS07252019.E.O._I.C._HRD10591_15-52-58-928.txt Node
Date: Thu Jul 25 15:52:58 EDT 2019
User: cochatt
Spectrometer: HR+D1059
Trigger mode: 1
Integration Time (sec): 1.000000E-1
Scans to average: 1
Electric dark correction enabled: true
Nonlinearity correction enabled: false
Boxcar width: 0
XAxis mode: Wavelengths
Number of Pixels in Spectrum: 2048
>>>>>Begin Spectral Data<<<<<
223.165	-26.94
223.4	-26.94
223.635	-26.94
223.869	-23.94
224.104	-30.94
224.338	-18.94
224.573	-14.94
224.808	0.06
225.042	-0.94
225.277	2.06
225.511	5.06
225.746	-11.94
225.98	-3.94
226.215	14.06
226.449	9.06
226.683	29.06
226.918	28.06
227.152	45.06
227.387	36.06
227.621	29.06
227.856	35.06
228.09	42.06
228.324	58.06
228.559	41.06
228.793	85.06
229.027	136.06
229.262	152.06
229.496	151.06
229.73	166.06
229.964	182.06
230.199	164.06
230.433	165.06
230.667	173.06
230.901	189.06
231.136	177.06
231.37	178.06
231.604	188.06
231.838	161.06
232.072	164.06
232.306	161.06
232.541	169.06
232.775	198.06
233.009	227.06
233.243	197.06
233.477	186.06
233.711	205.06
233.945	214.06
234.179	202.06
234.413	204.06
234.647	203.06
234.881	212.06
235.115	196.06
235.349	176.06
235.583	204.06
235.817	186.06
236.051	190.06
236.285	206.06
236.519	197.06
236.753	226.06
236.987	228.06
237.221	213.06
237.455	245.06
237.689	237.06
237.922	221.06
238.156	210.06
238.39	221.06
238.624	221.06
238.858	241.06
239.091	250.06
239.325	257.06
239.559	284.06
239.793	296.06
240.027	309.06
240.26	309.06
240.494	231.06
240.728	209.06
240.961	242.06
241.195	244.06
241.429	248.06
241.662	246.06
241.896	246.06
242.13	242.06
242.363	280.06
242.597	283.06
242.83	272.06
243.064	265.06
243.298	278.06
243.531	283.06
243.765	293.06
243.998	268.06
244.232	256.06
244.465	267.06
244.699	255.06
244.932	288.06
245.166	320.06
245.399	296.06
245.633	288.06
245.866	274.06
246.099	268.06
246.333	315.06
246.566	300.06
246.8	317.06
247.033	346.06
247.266	317.06
247.5	315.06
247.733	324.06
247.966	336.06
248.2	375.06
248.433	359.06
248.666	378.06
248.899	413.06
249.133	424.06
249.366	459.06
249.599	386.06
249.832	370.06
250.066	373.06
250.299	361.06
250.532	348.06
250.765	311.06
250.998	341.06
251.231	346.06
251.465	352.06
251.698	355.06
251.931	364.06
252.164	359.06
252.397	355.06
252.63	369.06
252.863	344.06
253.096	348.06
253.329	349.06
253.562	341.06
253.795	373.06
254.028	380.06
254.261	342.06
254.494	324.06
254.727	336.06
254.96	328.06
255.193	376.06
255.426	428.06
255.659	438.06
255.892	459.06
256.124	372.06
256.357	393.06
256.59	391.06
256.823	408.06
257.056	424.06
257.289	493.06
257.521	514.06
257.754	460.06
257.987	446.06
258.22	456.06
258.452	466.06
258.685	397.06
258.918	394.06
259.151	383.06
259.383	375.06
259.616	354.06
259.849	368.06
260.081	418.06
260.314	455.06
260.547	459.06
260.779	468.06
261.012	441.06
261.244	416.06
261.477	388.06
261.71	398.06
261.942	397.06
262.175	402.06
262.407	427.06
262.64	404.06
262.872	394.06
263.105	373.06
263.337	382.06
263.57	387.06
263.802	374.06
264.035	348.06
264.267	366.06
264.499	332.06
264.732	380.06
264.964	405.06
265.197	399.06
265.429	429.06
265.661	437.06
265.894	494.06
266.126	506.06
266.358	465.06
266.591	465.06
266.823	501.06
267.055	462.06
267.287	456.06
267.52	440.06
267.752	440.06
267.984	479.06
268.216	471.06
268.448	476.06
268.681	461.06
268.913	419.06
269.145	410.06
269.377	416.06
269.609	461.06
269.841	523.06
270.073	579.06
270.306	618.06
270.538	616.06
270.77	544.06
271.002	483.06
271.234	484.06
271.466	503.06
271.698	530.06
271.93	628.06
272.162	606.06
272.394	552.06
272.626	517.06
272.858	461.06
273.09	435.06
273.322	419.06
273.553	406.06
273.785	427.06
274.017	430.06
274.249	442.06
274.481	432.06
274.713	413.06
274.945	429.06
275.176	427.06
275.408	428.06
275.64	423.06
275.872	416.06
276.104	434.06
276.335	488.06
276.567	526.06
276.799	516.06
277.031	504.06
277.262	478.06
277.494	500.06
277.726	526.06
277.957	520.06
278.189	492.06
278.421	463.06
278.652	432.06
278.884	444.06
279.115	431.06
279.347	439.06
279.579	419.06
279.81	438.06
280.042	477.06
280.273	518.06
280.505	500.06
280.736	520.06
280.968	488.06
281.199	429.06
281.431	422.06
281.662	430.06
281.894	418.06
282.125	442.06
282.356	443.06
282.588	451.06
282.819	475.06
283.051	494.06
283.282	521.06
283.513	497.06
283.745	447.06
283.976	422.06
284.207	424.06
284.439	449.06
284.67	451.06
284.901	449.06
285.132	451.06
285.364	468.06
285.595	455.06
285.826	441.06
286.057	453.06
286.288	455.06
286.52	471.06
286.751	493.06
286.982	500.06
287.213	453.06
287.444	440.06
287.675	443.06
287.906	474.06
288.138	493.06
288.369	455.06
288.6	438.06
288.831	434.06
289.062	454.06
289.293	452.06
289.524	459.06
289.755	476.06
289.986	473.06
290.217	458.06
290.448	474.06
290.679	464.06
290.91	462.06
291.141	481.06
291.371	501.06
291.602	496.06
291.833	501.06
292.064	514.06
292.295	507.06
292.526	509.06
292.757	522.06
292.987	485.06
293.218	473.06
293.449	548.06
293.68	594.06
293.91	594.06
294.141	562.06
294.372	539.06
294.603	548.06
294.833	556.06
295.064	566.06
295.295	481.06
295.525	466.06
295.756	453.06
295.987	456.06
296.217	456.06
296.448	452.06
296.679	468.06
296.909	458.06
297.14	475.06
297.37	496.06
297.601	512.06
297.831	534.06
298.062	530.06
298.292	481.06
298.523	475.06
298.753	471.06
298.984	458.06
299.214	503.06
299.445	506.06
299.675	532.06
299.905	491.06
300.136	484.06
300.366	476.06
300.597	458.06
300.827	482.06
301.057	509.06
301.288	496.06
301.518	508.06
301.748	524.06
301.979	564.06
302.209	550.06
302.439	580.06
302.669	605.06
302.9	560.06
303.13	526.06
303.36	530.06
303.59	524.06
303.82	509.06
304.051	517.06
304.281	506.06
304.511	547.06
304.741	586.06
304.971	612.06
305.201	639.06
305.431	573.06
305.661	498.06
305.891	469.06
306.121	452.06
306.352	468.06
306.582	521.06
306.812	554.06
307.042	569.06
307.272	568.06
307.502	616.06
307.731	641.06
307.961	648.06
308.191	578.06
308.421	548.06
308.651	508.06
308.881	498.06
309.111	502.06
309.341	501.06
309.571	496.06
309.8	513.06
310.03	494.06
310.26	497.06
310.49	504.06
310.72	539.06
310.949	523.06
311.179	535.06
311.409	524.06
311.639	522.06
311.868	502.06
312.098	525.06
312.328	518.06
312.557	510.06
312.787	518.06
313.017	536.06
313.246	530.06
313.476	523.06
313.706	566.06
313.935	524.06
314.165	545.06
314.394	584.06
314.624	600.06
314.853	629.06
315.083	642.06
315.312	650.06
315.542	601.06
315.771	570.06
316.001	568.06
316.23	593.06
316.46	566.06
316.689	562.06
316.919	526.06
317.148	545.06
317.377	560.06
317.607	585.06
317.836	646.06
318.065	635.06
318.295	631.06
318.524	599.06
318.753	583.06
318.983	557.06
319.212	562.06
319.441	554.06
319.67	563.06
319.9	574.06
320.129	589.06
320.358	624.06
320.587	635.06
320.816	636.06
321.046	613.06
321.275	571.06
321.504	590.06
321.733	634.06
321.962	602.06
322.191	570.06
322.42	546.06
322.649	589.06
322.878	576.06
323.108	568.06
323.337	569.06
323.566	555.06
323.795	578.06
324.024	571.06
324.253	571.06
324.482	577.06
324.71	542.06
324.939	522.06
325.168	544.06
325.397	566.06
325.626	581.06
325.855	611.06
326.084	579.06
326.313	570.06
326.542	579.06
326.77	602.06
326.999	611.06
327.228	569.06
327.457	540.06
327.686	539.06
327.914	543.06
328.143	580.06
328.372	569.06
328.6	559.06
328.829	551.06
329.058	575.06
329.287	576.06
329.515	573.06
329.744	577.06
329.972	617.06
330.201	632.06
330.43	603.06
330.658	584.06
330.887	592.06
331.115	604.06
331.344	605.06
331.572	605.06
331.801	593.06
332.03	613.06
332.258	625.06
332.486	600.06
332.715	600.06
332.943	609.06
333.172	609.06
333.4	619.06
333.629	636.06
333.857	683.06
334.085	754.06
334.314	843.06
334.542	860.06
334.771	804.06
334.999	689.06
335.227	676.06
335.455	633.06
335.684	630.06
335.912	657.06
336.14	670.06
336.369	624.06
336.597	637.06
336.825	627.06
337.053	635.06
337.281	667.06
337.51	692.06
337.738	705.06
337.966	678.06
338.194	602.06
338.422	593.06
338.65	609.06
338.878	608.06
339.106	591.06
339.334	564.06
339.562	568.06
339.79	593.06
340.018	629.06
340.246	629.06
340.474	647.06
340.702	634.06
340.93	647.06
341.158	627.06
341.386	608.06
341.614	613.06
341.842	602.06
342.07	613.06
342.298	615.06
342.526	626.06
342.754	598.06
342.981	612.06
343.209	581.06
343.437	603.06
343.665	610.06
343.893	622.06
344.12	645.06
344.348	638.06
344.576	625.06
344.804	619.06
345.031	616.06
345.259	573.06
345.487	581.06
345.714	565.06
345.942	572.06
346.17	585.06
346.397	592.06
346.625	591.06
346.853	570.06
347.08	548.06
347.308	557.06
347.535	578.06
347.763	555.06
347.99	562.06
348.218	548.06
348.445	580.06
348.673	573.06
348.9	603.06
349.128	623.06
349.355	600.06
349.583	592.06
349.81	553.06
350.037	537.06
350.265	570.06
350.492	558.06
350.72	550.06
350.947	586.06
351.174	602.06
351.402	546.06
351.629	529.06
351.856	542.06
352.083	529.06
352.311	536.06
352.538	528.06
352.765	573.06
352.992	592.06
353.22	581.06
353.447	552.06
353.674	584.06
353.901	553.06
354.128	581.06
354.355	546.06
354.583	576.06
354.81	615.06
355.037	612.06
355.264	591.06
355.491	596.06
355.718	592.06
355.945	564.06
356.172	553.06
356.399	547.06
356.626	583.06
356.853	625.06
357.08	652.06
357.307	708.06
357.534	654.06
357.761	593.06
357.988	566.06
358.215	546.06
358.441	560.06
358.668	540.06
358.895	584.06
359.122	602.06
359.349	648.06
359.576	612.06
359.802	596.06
360.029	553.06
360.256	545.06
360.483	554.06
360.709	576.06
360.936	613.06
361.163	654.06
361.39	701.06
361.616	719.06
361.843	689.06
362.07	651.06
362.296	602.06
362.523	580.06
362.749	567.06
362.976	577.06
363.203	591.06
363.429	563.06
363.656	526.06
363.882	616.06
364.109	676.06
364.335	668.06
364.562	618.06
364.788	569.06
365.015	599.06
365.241	573.06
365.468	589.06
365.694	627.06
365.92	646.06
366.147	579.06
366.373	566.06
366.599	560.06
366.826	554.06
367.052	586.06
367.278	600.06
367.505	579.06
367.731	619.06
367.957	630.06
368.184	654.06
368.41	709.06
368.636	698.06
368.862	694.06
369.089	682.06
369.315	653.06
369.541	634.06
369.767	606.06
369.993	615.06
370.219	638.06
370.445	626.06
370.672	677.06
370.898	679.06
371.124	661.06
371.35	641.06
371.576	652.06
371.802	686.06
372.028	625.06
372.254	637.06
372.48	605.06
372.706	609.06
372.932	590.06
373.158	626.06
373.384	628.06
373.61	679.06
373.835	656.06
374.061	620.06
374.287	632.06
374.513	642.06
374.739	630.06
374.965	667.06
375.191	650.06
375.416	674.06
375.642	675.06
375.868	722.06
376.094	728.06
376.319	688.06
376.545	656.06
376.771	685.06
376.997	710.06
377.222	669.06
377.448	670.06
377.674	710.06
377.899	678.06
378.125	718.06
378.35	701.06
378.576	620.06
378.802	628.06
379.027	642.06
379.253	662.06
379.478	644.06
379.704	662.06
379.929	639.06
380.155	667.06
380.38	669.06
380.606	641.06
380.831	662.06
381.057	715.06
381.282	698.06
381.507	699.06
381.733	739.06
381.958	723.06
382.184	705.06
382.409	684.06
382.634	711.06
382.86	690.06
383.085	715.06
383.31	711.06
383.535	761.06
383.761	818.06
383.986	780.06
384.211	736.06
384.436	768.06
384.662	785.06
384.887	788.06
385.112	735.06
385.337	737.06
385.562	745.06
385.787	765.06
386.013	764.06
386.238	759.06
386.463	774.06
386.688	837.06
386.913	859.06
387.138	799.06
387.363	790.06
387.588	777.06
387.813	777.06
388.038	803.06
388.263	827.06
388.488	782.06
388.713	705.06
388.938	756.06
389.163	752.06
389.387	748.06
389.612	736.06
389.837	745.06
390.062	761.06
390.287	767.06
390.512	774.06
390.736	746.06
390.961	734.06
391.186	758.06
391.411	749.06
391.636	746.06
391.86	753.06
392.085	757.06
392.31	776.06
392.534	765.06
392.759	774.06
392.984	774.06
393.208	802.06
393.433	790.06
393.658	834.06
393.882	805.06
394.107	756.06
394.331	777.06
394.556	750.06
394.78	807.06
395.005	851.06
395.229	833.06
395.454	907.06
395.678	865.06
395.903	840.06
396.127	844.06
396.352	827.06
396.576	838.06
396.801	844.06
397.025	884.06
397.249	836.06
397.474	845.06
397.698	823.06
397.922	857.06
398.147	901.06
398.371	940.06
398.595	910.06
398.82	902.06
399.044	906.06
399.268	960.06
399.492	993.06
399.717	1015.06
399.941	985.06
400.165	994.06
400.389	960.06
400.613	993.06
400.837	1115.06
401.062	1205.06
401.286	1029.06
401.51	1001.06
401.734	1008.06
401.958	948.06
402.182	923.06
402.406	915.06
402.63	898.06
402.854	896.06
403.078	937.06
403.302	912.06
403.526	920.06
403.75	937.06
403.974	944.06
404.198	936.06
404.422	994.06
404.645	1052.06
404.869	979.06
405.093	922.06
405.317	904.06
405.541	893.06
405.765	939.06
405.988	937.06
406.212	967.06
406.436	968.06
406.66	977.06
406.883	1041.06
407.107	1145.06
407.331	1255.06
407.555	1286.06
407.778	1135.06
408.002	984.06
408.226	973.06
408.449	980.06
408.673	944.06
408.896	993.06
409.12	1001.06
409.344	966.06
409.567	928.06
409.791	947.06
410.014	988.06
410.238	1073.06
410.461	1079.06
410.685	966.06
410.908	932.06
411.132	950.06
411.355	988.06
411.578	961.06
411.802	962.06
412.025	966.06
412.249	936.06
412.472	924.06
412.695	947.06
412.919	944.06
413.142	926.06
413.365	930.06
413.589	974.06
413.812	1027.06
414.035	998.06
414.258	965.06
414.482	916.06
414.705	946.06
414.928	960.06
415.151	923.06
415.374	918.06
415.597	971.06
415.821	958.06
416.044	958.06
416.267	968.06
416.49	899.06
416.713	938.06
416.936	970.06
417.159	994.06
417.382	985.06
417.605	929.06
417.828	942.06
418.051	971.06
418.274	979.06
418.497	905.06
418.72	937.06
418.943	933.06
419.166	972.06
419.389	986.06
419.611	958.06
419.834	955.06
420.057	958.06
420.28	970.06
420.503	952.06
420.726	957.06
420.948	936.06
421.171	926.06
421.394	973.06
421.617	1000.06
421.839	996.06
422.062	982.06
422.285	939.06
422.507	941.06
422.73	903.06
422.953	910.06
423.175	876.06
423.398	951.06
423.621	946.06
423.843	989.06
424.066	983.06
424.288	1016.06
424.511	1067.06
424.733	1024.06
424.956	941.06
425.178	962.06
425.401	969.06
425.623	964.06
425.846	954.06
426.068	995.06
426.291	982.06
426.513	982.06
426.735	954.06
426.958	1031.06
427.18	1076.06
427.402	1036.06
427.625	1053.06
427.847	1045.06
428.069	942.06
428.292	934.06
428.514	896.06
428.736	888.06
428.958	903.06
429.181	961.06
429.403	1074.06
429.625	1242.06
429.847	1059.06
430.069	962.06
430.292	1082.06
430.514	1043.06
430.736	982.06
430.958	1001.06
431.18	951.06
431.402	866.06
431.624	881.06
431.846	801.06
432.068	750.06
432.29	746.06
432.512	804.06
432.734	889.06
432.956	953.06
433.178	979.06
433.4	972.06
433.622	980.06
433.844	898.06
434.066	891.06
434.287	816.06
434.509	811.06
434.731	836.06
434.953	912.06
435.175	938.06
435.397	941.06
435.618	908.06
435.84	876.06
436.062	858.06
436.284	899.06
436.505	941.06
436.727	952.06
436.949	920.06
437.17	924.06
437.392	889.06
437.614	871.06
437.835	812.06
438.057	823.06
438.278	886.06
438.5	894.06
438.721	920.06
438.943	908.06
439.165	950.06
439.386	980.06
439.608	981.06
439.829	944.06
440.05	994.06
440.272	961.06
440.493	971.06
440.715	1017.06
440.936	1085.06
441.158	1083.06
441.379	1097.06
441.6	1069.06
441.822	1026.06
442.043	1038.06
442.264	986.06
442.486	974.06
442.707	966.06
442.928	981.06
443.149	1003.06
443.371	992.06
443.592	1048.06
443.813	1061.06
444.034	1040.06
444.255	1032.06
444.476	1031.06
444.698	1074.06
444.919	1070.06
445.14	1171.06
445.361	1090.06
445.582	1089.06
445.803	1096.06
446.024	1084.06
446.245	1093.06
446.466	1087.06
446.687	1038.06
446.908	1080.06
447.129	1036.06
447.35	1069.06
447.571	1016.06
447.792	969.06
448.013	964.06
448.234	967.06
448.455	1001.06
448.675	997.06
448.896	921.06
449.117	936.06
449.338	924.06
449.559	954.06
449.779	981.06
450	1030.06
450.221	1081.06
450.442	1036.06
450.662	948.06
450.883	882.06
451.104	894.06
451.324	882.06
451.545	916.06
451.766	888.06
451.986	844.06
452.207	849.06
452.428	836.06
452.648	820.06
452.869	801.06
453.089	805.06
453.31	800.06
453.53	769.06
453.751	737.06
453.971	734.06
454.192	726.06
454.412	781.06
454.633	819.06
454.853	802.06
455.073	792.06
455.294	804.06
455.514	777.06
455.734	770.06
455.955	777.06
456.175	770.06
456.395	756.06
456.616	743.06
456.836	752.06
457.056	749.06
457.276	737.06
457.497	728.06
457.717	722.06
457.937	704.06
458.157	718.06
458.377	726.06
458.598	690.06
458.818	688.06
459.038	702.06
459.258	742.06
459.478	744.06
459.698	697.06
459.918	766.06
460.138	796.06
460.358	822.06
460.578	863.06
460.798	890.06
461.018	893.06
461.238	909.06
461.458	900.06
461.678	852.06
461.898	850.06
462.118	819.06
462.338	864.06
462.558	861.06
462.777	837.06
462.997	855.06
463.217	915.06
463.437	885.06
463.657	865.06
463.876	845.06
464.096	857.06
464.316	844.06
464.536	875.06
464.755	882.06
464.975	893.06
465.195	876.06
465.414	906.06
465.634	901.06
465.854	915.06
466.073	994.06
466.293	952.06
466.512	865.06
466.732	868.06
466.951	926.06
467.171	909.06
467.391	888.06
467.61	888.06
467.829	936.06
468.049	995.06
468.268	1049.06
468.488	983.06
468.707	920.06
468.927	925.06
469.146	946.06
469.365	927.06
469.585	949.06
469.804	934.06
470.023	966.06
470.243	956.06
470.462	948.06
470.681	964.06
470.901	932.06
471.12	934.06
471.339	992.06
471.558	945.06
471.777	914.06
471.997	932.06
472.216	873.06
472.435	805.06
472.654	768.06
472.873	803.06
473.092	846.06
473.311	814.06
473.53	823.06
473.749	863.06
473.968	870.06
474.187	877.06
474.406	869.06
474.625	855.06
474.844	862.06
475.063	892.06
475.282	898.06
475.501	846.06
475.72	862.06
475.939	896.06
476.158	898.06
476.377	882.06
476.596	873.06
476.814	839.06
477.033	821.06
477.252	869.06
477.471	917.06
477.69	939.06
477.908	962.06
478.127	1032.06
478.346	1013.06
478.564	1007.06
478.783	1019.06
479.002	1043.06
479.22	1002.06
479.439	1081.06
479.658	1094.06
479.876	1042.06
480.095	940.06
480.313	909.06
480.532	881.06
480.751	877.06
480.969	827.06
481.188	811.06
481.406	780.06
481.624	806.06
481.843	793.06
482.061	832.06
482.28	876.06
482.498	896.06
482.717	856.06
482.935	916.06
483.153	964.06
483.372	1046.06
483.59	1025.06
483.808	988.06
484.027	942.06
484.245	1006.06
484.463	1231.06
484.681	1328.06
484.9	1030.06
485.118	950.06
485.336	937.06
485.554	923.06
485.772	913.06
485.99	900.06
486.209	899.06
486.427	899.06
486.645	950.06
486.863	997.06
487.081	1043.06
487.299	1030.06
487.517	1038.06
487.735	1148.06
487.953	1232.06
488.171	1166.06
488.389	1151.06
488.607	1095.06
488.825	1170.06
489.043	1076.06
489.261	1022.06
489.479	1055.06
489.696	1088.06
489.914	1084.06
490.132	1056.06
490.35	1097.06
490.568	1196.06
490.786	1194.06
491.003	1226.06
491.221	1281.06
491.439	1336.06
491.657	1342.06
491.874	1408.06
492.092	1460.06
492.31	1542.06
492.527	1474.06
492.745	1388.06
492.963	1369.06
493.18	1357.06
493.398	1387.06
493.615	1374.06
493.833	1315.06
494.05	1269.06
494.268	1246.06
494.485	1283.06
494.703	1257.06
494.92	1242.06
495.138	1240.06
495.355	1253.06
495.573	1274.06
495.79	1286.06
496.008	1300.06
496.225	1253.06
496.442	1260.06
496.66	1255.06
496.877	1236.06
497.094	1273.06
497.312	1228.06
497.529	1209.06
497.746	1196.06
497.963	1284.06
498.181	1323.06
498.398	1307.06
498.615	1252.06
498.832	1188.06
499.049	1184.06
499.267	1182.06
499.484	1256.06
499.701	1350.06
499.918	1408.06
500.135	1493.06
500.352	1568.06
500.569	1614.06
500.786	1730.06
501.003	1594.06
501.22	1448.06
501.437	1436.06
501.654	1459.06
501.871	1384.06
502.088	1238.06
502.305	1233.06
502.522	1170.06
502.739	1100.06
502.956	1130.06
503.172	1061.06
503.389	1026.06
503.606	1026.06
503.823	1031.06
504.04	1020.06
504.256	1017.06
504.473	1001.06
504.69	1047.06
504.907	1027.06
505.123	987.06
505.34	1089.06
505.557	1406.06
505.773	1122.06
505.99	976.06
506.207	908.06
506.423	902.06
506.64	881.06
506.856	931.06
507.073	1063.06
507.289	1085.06
507.506	1040.06
507.722	910.06
507.939	875.06
508.155	855.06
508.372	869.06
508.588	832.06
508.805	816.06
509.021	791.06
509.238	813.06
509.454	781.06
509.67	768.06
509.887	732.06
510.103	744.06
510.319	784.06
510.536	784.06
510.752	797.06
510.968	777.06
511.184	813.06
511.401	783.06
511.617	725.06
511.833	704.06
512.049	722.06
512.265	712.06
512.481	725.06
512.698	753.06
512.914	770.06
513.13	755.06
513.346	749.06
513.562	695.06
513.778	729.06
513.994	761.06
514.21	749.06
514.426	772.06
514.642	839.06
514.858	783.06
515.074	745.06
515.29	738.06
515.506	744.06
515.721	760.06
515.937	771.06
516.153	835.06
516.369	813.06
516.585	753.06
516.801	740.06
517.016	758.06
517.232	760.06
517.448	792.06
517.664	823.06
517.879	801.06
518.095	813.06
518.311	781.06
518.527	784.06
518.742	736.06
518.958	769.06
519.173	765.06
519.389	796.06
519.605	806.06
519.82	814.06
520.036	801.06
520.251	791.06
520.467	802.06
520.682	859.06
520.898	806.06
521.113	738.06
521.329	738.06
521.544	766.06
521.76	746.06
521.975	730.06
522.19	735.06
522.406	733.06
522.621	947.06
522.836	882.06
523.052	767.06
523.267	764.06
523.482	758.06
523.698	767.06
523.913	740.06
524.128	796.06
524.343	829.06
524.559	828.06
524.774	798.06
524.989	780.06
525.204	790.06
525.419	770.06
525.634	755.06
525.849	743.06
526.064	746.06
526.28	727.06
526.495	669.06
526.71	669.06
526.925	675.06
527.14	655.06
527.355	666.06
527.57	640.06
527.785	670.06
527.999	667.06
528.214	647.06
528.429	709.06
528.644	754.06
528.859	778.06
529.074	852.06
529.289	880.06
529.503	877.06
529.718	800.06
529.933	769.06
530.148	694.06
530.363	656.06
530.577	642.06
530.792	645.06
531.007	642.06
531.221	625.06
531.436	660.06
531.651	661.06
531.865	677.06
532.08	665.06
532.295	648.06
532.509	636.06
532.724	633.06
532.938	660.06
533.153	688.06
533.367	725.06
533.582	756.06
533.796	745.06
534.011	728.06
534.225	670.06
534.44	644.06
534.654	657.06
534.868	653.06
535.083	679.06
535.297	693.06
535.511	707.06
535.726	695.06
535.94	705.06
536.154	662.06
536.369	642.06
536.583	614.06
536.797	604.06
537.011	648.06
537.225	638.06
537.44	605.06
537.654	648.06
537.868	640.06
538.082	622.06
538.296	609.06
538.51	653.06
538.724	706.06
538.938	726.06
539.153	769.06
539.367	763.06
539.581	709.06
539.795	693.06
540.009	655.06
540.222	650.06
540.436	675.06
540.65	752.06
540.864	790.06
541.078	828.06
541.292	884.06
541.506	925.06
541.72	963.06
541.934	1062.06
542.147	1087.06
542.361	1035.06
542.575	922.06
542.789	842.06
543.002	777.06
543.216	745.06
543.43	760.06
543.644	845.06
543.857	894.06
544.071	940.06
544.285	957.06
544.498	920.06
544.712	922.06
544.925	950.06
545.139	969.06
545.352	945.06
545.566	956.06
545.779	972.06
545.993	977.06
546.206	964.06
546.42	966.06
546.633	962.06
546.847	942.06
547.06	1003.06
547.274	979.06
547.487	1028.06
547.7	1020.06
547.914	1001.06
548.127	982.06
548.34	973.06
548.554	979.06
548.767	944.06
548.98	936.06
549.193	929.06
549.407	992.06
549.62	972.06
549.833	932.06
550.046	938.06
550.259	941.06
550.473	917.06
550.686	924.06
550.899	912.06
551.112	873.06
551.325	852.06
551.538	859.06
551.751	864.06
551.964	712.06
552.177	748.06
552.39	801.06
552.603	880.06
552.816	878.06
553.029	929.06
553.242	944.06
553.455	941.06
553.667	919.06
553.88	925.06
554.093	916.06
554.306	874.06
554.519	863.06
554.732	855.06
554.944	836.06
555.157	850.06
555.37	839.06
555.583	832.06
555.795	793.06
556.008	743.06
556.221	734.06
556.433	747.06
556.646	739.06
556.859	759.06
557.071	766.06
557.284	763.06
557.496	797.06
557.709	771.06
557.921	757.06
558.134	761.06
558.346	748.06
558.559	740.06
558.771	742.06
558.984	715.06
559.196	672.06
559.409	693.06
559.621	670.06
559.833	697.06
560.046	680.06
560.258	692.06
560.47	698.06
560.683	724.06
560.895	682.06
561.107	685.06
561.32	672.06
561.532	694.06
561.744	678.06
561.956	701.06
562.168	663.06
562.381	656.06
562.593	671.06
562.805	661.06
563.017	624.06
563.229	639.06
563.441	646.06
563.653	608.06
563.865	637.06
564.077	614.06
564.289	591.06
564.501	648.06
564.713	638.06
564.925	637.06
565.137	670.06
565.349	642.06
565.561	616.06
565.773	640.06
565.985	624.06
566.197	645.06
566.408	681.06
566.62	696.06
566.832	693.06
567.044	668.06
567.255	664.06
567.467	651.06
567.679	693.06
567.891	664.06
568.102	620.06
568.314	593.06
568.526	562.06
568.737	526.06
568.949	484.06
569.161	503.06
569.372	465.06
569.584	487.06
569.795	452.06
570.007	437.06
570.218	457.06
570.43	459.06
570.641	453.06
570.853	480.06
571.064	486.06
571.276	487.06
571.487	481.06
571.698	466.06
571.91	458.06
572.121	462.06
572.333	458.06
572.544	451.06
572.755	437.06
572.966	407.06
573.178	403.06
573.389	404.06
573.6	425.06
573.811	455.06
574.023	410.06
574.234	406.06
574.445	407.06
574.656	404.06
574.867	393.06
575.078	430.06
575.289	418.06
575.501	384.06
575.712	408.06
575.923	396.06
576.134	390.06
576.345	427.06
576.556	396.06
576.767	385.06
576.978	407.06
577.188	396.06
577.399	383.06
577.61	372.06
577.821	376.06
578.032	380.06
578.243	376.06
578.454	362.06
578.665	355.06
578.875	355.06
579.086	344.06
579.297	346.06
579.508	359.06
579.718	347.06
579.929	352.06
580.14	353.06
580.35	336.06
580.561	384.06
580.772	391.06
580.982	363.06
581.193	352.06
581.403	355.06
581.614	352.06
581.825	349.06
582.035	329.06
582.246	352.06
582.456	341.06
582.667	360.06
582.877	330.06
583.087	325.06
583.298	335.06
583.508	355.06
583.719	338.06
583.929	316.06
584.139	333.06
584.35	332.06
584.56	340.06
584.77	324.06
584.981	331.06
585.191	339.06
585.401	352.06
585.611	357.06
585.821	349.06
586.032	332.06
586.242	316.06
586.452	319.06
586.662	326.06
586.872	306.06
587.082	309.06
587.292	326.06
587.502	317.06
587.713	306.06
587.923	341.06
588.133	323.06
588.343	329.06
588.553	319.06
588.762	327.06
588.972	316.06
589.182	321.06
589.392	330.06
589.602	324.06
589.812	317.06
590.022	308.06
590.232	310.06
590.441	313.06
590.651	318.06
590.861	325.06
591.071	311.06
591.281	308.06
591.49	308.06
591.7	315.06
591.91	316.06
592.119	306.06
592.329	327.06
592.539	340.06
592.748	337.06
592.958	330.06
593.167	332.06
593.377	315.06
593.587	339.06
593.796	338.06
594.006	332.06
594.215	336.06
594.424	329.06
594.634	339.06
594.843	346.06
595.053	351.06
595.262	339.06
595.472	319.06
595.681	328.06
595.89	306.06
596.1	322.06
596.309	312.06
596.518	344.06
596.727	320.06
596.937	327.06
597.146	333.06
597.355	304.06
597.564	308.06
597.774	302.06
597.983	298.06
598.192	304.06
598.401	294.06
598.61	268.06
598.819	306.06
599.028	292.06
599.237	308.06
599.446	290.06
599.655	288.06
599.864	294.06
600.073	294.06
600.282	302.06
600.491	280.06
600.7	288.06
600.909	284.06
601.118	310.06
601.327	325.06
601.536	353.06
601.745	344.06
601.953	338.06
602.162	333.06
602.371	352.06
602.58	354.06
602.789	358.06
602.997	377.06
603.206	354.06
603.415	362.06
603.623	353.06
603.832	352.06
604.041	339.06
604.249	341.06
604.458	307.06
604.666	313.06
604.875	297.06
605.084	320.06
605.292	345.06
605.501	370.06
605.709	352.06
605.918	370.06
606.126	380.06
606.334	363.06
606.543	380.06
606.751	374.06
606.96	376.06
607.168	356.06
607.376	353.06
607.585	344.06
607.793	364.06
608.001	362.06
608.21	366.06
608.418	356.06
608.626	379.06
608.834	373.06
609.043	374.06
609.251	372.06
609.459	361.06
609.667	368.06
609.875	379.06
610.083	393.06
610.291	366.06
610.499	376.06
610.707	359.06
610.916	374.06
611.124	365.06
611.332	365.06
611.54	370.06
611.748	372.06
611.955	378.06
612.163	348.06
612.371	371.06
612.579	374.06
612.787	355.06
612.995	370.06
613.203	374.06
613.411	369.06
613.618	364.06
613.826	352.06
614.034	348.06
614.242	341.06
614.449	335.06
614.657	357.06
614.865	361.06
615.072	363.06
615.28	373.06
615.488	372.06
615.695	396.06
615.903	371.06
616.111	372.06
616.318	374.06
616.526	380.06
616.733	372.06
616.941	376.06
617.148	357.06
617.356	364.06
617.563	355.06
617.771	337.06
617.978	344.06
618.185	346.06
618.393	361.06
618.6	357.06
618.807	353.06
619.015	351.06
619.222	323.06
619.429	350.06
619.637	320.06
619.844	318.06
620.051	300.06
620.258	322.06
620.466	327.06
620.673	334.06
620.88	326.06
621.087	322.06
621.294	301.06
621.501	317.06
621.708	324.06
621.915	326.06
622.122	324.06
622.329	318.06
622.536	333.06
622.743	340.06
622.95	322.06
623.157	321.06
623.364	324.06
623.571	325.06
623.778	337.06
623.985	328.06
624.192	330.06
624.399	335.06
624.606	320.06
624.812	297.06
625.019	304.06
625.226	306.06
625.433	297.06
625.639	292.06
625.846	278.06
626.053	233.06
626.259	240.06
626.466	248.06
626.673	233.06
626.879	241.06
627.086	268.06
627.293	271.06
627.499	308.06
627.706	294.06
627.912	310.06
628.119	294.06
628.325	320.06
628.532	300.06
628.738	300.06
628.945	289.06
629.151	300.06
629.357	289.06
629.564	296.06
629.77	306.06
629.976	275.06
630.183	266.06
630.389	261.06
630.595	282.06
630.802	289.06
631.008	287.06
631.214	284.06
631.42	274.06
631.627	240.06
631.833	261.06
632.039	251.06
632.245	267.06
632.451	257.06
632.657	266.06
632.863	267.06
633.069	266.06
633.275	256.06
633.481	262.06
633.688	246.06
633.893	261.06
634.099	260.06
634.305	273.06
634.511	246.06
634.717	248.06
634.923	217.06
635.129	246.06
635.335	227.06
635.541	245.06
635.747	236.06
635.952	256.06
636.158	251.06
636.364	266.06
636.57	282.06
636.775	250.06
636.981	273.06
637.187	259.06
637.392	271.06
637.598	278.06
637.804	254.06
638.009	282.06
638.215	272.06
638.421	262.06
638.626	238.06
638.832	266.06
639.037	253.06
639.243	246.06
639.448	233.06
639.654	233.06
639.859	242.06
640.065	252.06
640.27	251.06
640.475	245.06
640.681	264.06
640.886	266.06
641.091	253.06
641.297	266.06
641.502	259.06
641.707	242.06
641.913	256.06
642.118	252.06
642.323	241.06
642.528	275.06
642.733	260.06
642.939	251.06
643.144	251.06
643.349	249.06
643.554	252.06
643.759	230.06
643.964	246.06
644.169	244.06
644.374	236.06
644.579	230.06
644.784	260.06
644.989	246.06
645.194	252.06
645.399	242.06
645.604	243.06
645.809	235.06
646.014	255.06
646.219	241.06
646.423	233.06
646.628	237.06
646.833	242.06
647.038	224.06
647.243	240.06
647.447	235.06
647.652	230.06
647.857	238.06
648.062	240.06
648.266	235.06
648.471	255.06
648.676	242.06
648.88	247.06
649.085	225.06
649.289	235.06
649.494	233.06
649.698	244.06
649.903	233.06
650.107	246.06
650.312	241.06
650.516	217.06
650.721	235.06
650.925	245.06
651.13	237.06
651.334	219.06
651.539	224.06
651.743	240.06
651.947	205.06
652.152	225.06
652.356	210.06
652.56	210.06
652.764	227.06
652.969	204.06
653.173	219.06
653.377	213.06
653.581	225.06
653.785	195.06
653.99	220.06
654.194	209.06
654.398	198.06
654.602	190.06
654.806	200.06
655.01	207.06
655.214	193.06
655.418	201.06
655.622	205.06
655.826	212.06
656.03	195.06
656.234	221.06
656.438	234.06
656.642	217.06
656.846	210.06
657.049	214.06
657.253	195.06
657.457	184.06
657.661	178.06
657.865	185.06
658.068	171.06
658.272	162.06
658.476	163.06
658.68	141.06
658.883	135.06
659.087	145.06
659.291	142.06
659.494	154.06
659.698	148.06
659.901	130.06
660.105	132.06
660.309	135.06
660.512	122.06
660.716	135.06
660.919	116.06
661.123	118.06
661.326	110.06
661.53	112.06
661.733	114.06
661.936	118.06
662.14	116.06
662.343	105.06
662.546	91.06
662.75	100.06
662.953	108.06
663.156	97.06
663.36	93.06
663.563	102.06
663.766	74.06
663.969	92.06
664.173	90.06
664.376	89.06
664.579	81.06
664.782	82.06
664.985	81.06
665.188	95.06
665.391	87.06
665.594	90.06
665.797	78.06
666	88.06
666.203	95.06
666.406	73.06
666.609	76.06
666.812	85.06
667.015	77.06
667.218	80.06
667.421	84.06
667.624	66.06
667.827	95.06
668.03	88.06
668.232	76.06
668.435	76.06
668.638	81.06
668.841	93.06
669.043	80.06
669.246	89.06
669.449	80.06
669.651	79.06
669.854	79.06
670.057	66.06
670.259	72.06
670.462	86.06
670.665	81.06
670.867	88.06
671.07	88.06
671.272	79.06
671.475	96.06
671.677	92.06
671.88	78.06
672.082	73.06
672.284	76.06
672.487	77.06
672.689	79.06
672.892	75.06
