Data from WStandard_LampEnergy8_LIBS07252019.E.O._I.C._HRD10591_15-59-50-929.txt Node
Date: Thu Jul 25 15:59:50 EDT 2019
User: cochatt
Spectrometer: HR+D1059
Trigger mode: 1
Integration Time (sec): 1.000000E-1
Scans to average: 1
Electric dark correction enabled: true
Nonlinearity correction enabled: false
Boxcar width: 0
XAxis mode: Wavelengths
Number of Pixels in Spectrum: 2048
>>>>>Begin Spectral Data<<<<<
223.165	-8.88
223.4	-8.88
223.635	-8.88
223.869	-16.88
224.104	-17.88
224.338	-15.88
224.573	-20.88
224.808	-0.88
225.042	6.12
225.277	-16.88
225.511	0.12
225.746	1.12
225.98	-5.88
226.215	11.12
226.449	10.12
226.683	20.12
226.918	29.12
227.152	26.12
227.387	19.12
227.621	34.12
227.856	32.12
228.09	53.12
228.324	38.12
228.559	62.12
228.793	103.12
229.027	185.12
229.262	203.12
229.496	213.12
229.73	215.12
229.964	261.12
230.199	247.12
230.433	268.12
230.667	269.12
230.901	278.12
231.136	287.12
231.37	259.12
231.604	265.12
231.838	262.12
232.072	271.12
232.306	252.12
232.541	280.12
232.775	298.12
233.009	307.12
233.243	297.12
233.477	300.12
233.711	298.12
233.945	315.12
234.179	316.12
234.413	312.12
234.647	336.12
234.881	326.12
235.115	293.12
235.349	291.12
235.583	317.12
235.817	309.12
236.051	283.12
236.285	297.12
236.519	328.12
236.753	354.12
236.987	366.12
237.221	366.12
237.455	360.12
237.689	371.12
237.922	361.12
238.156	359.12
238.39	356.12
238.624	373.12
238.858	391.12
239.091	407.12
239.325	409.12
239.559	467.12
239.793	489.12
240.027	525.12
240.26	478.12
240.494	386.12
240.728	385.12
240.961	377.12
241.195	376.12
241.429	401.12
241.662	414.12
241.896	395.12
242.13	391.12
242.363	424.12
242.597	456.12
242.83	474.12
243.064	462.12
243.298	475.12
243.531	474.12
243.765	463.12
243.998	455.12
244.232	416.12
244.465	391.12
244.699	412.12
244.932	457.12
245.166	513.12
245.399	501.12
245.633	478.12
245.866	450.12
246.099	482.12
246.333	483.12
246.566	495.12
246.8	521.12
247.033	553.12
247.266	511.12
247.5	526.12
247.733	537.12
247.966	565.12
248.2	591.12
248.433	582.12
248.666	633.12
248.899	642.12
249.133	754.12
249.366	792.12
249.599	679.12
249.832	596.12
250.066	610.12
250.299	609.12
250.532	567.12
250.765	530.12
250.998	575.12
251.231	599.12
251.465	629.12
251.698	565.12
251.931	603.12
252.164	604.12
252.397	618.12
252.63	602.12
252.863	556.12
253.096	552.12
253.329	571.12
253.562	591.12
253.795	635.12
254.028	584.12
254.261	575.12
254.494	576.12
254.727	554.12
254.96	596.12
255.193	627.12
255.426	714.12
255.659	781.12
255.892	786.12
256.124	677.12
256.357	643.12
256.59	712.12
256.823	687.12
257.056	717.12
257.289	845.12
257.521	867.12
257.754	810.12
257.987	787.12
258.22	831.12
258.452	810.12
258.685	669.12
258.918	628.12
259.151	689.12
259.383	642.12
259.616	597.12
259.849	614.12
260.081	686.12
260.314	762.12
260.547	785.12
260.779	800.12
261.012	765.12
261.244	684.12
261.477	658.12
261.71	688.12
261.942	677.12
262.175	680.12
262.407	714.12
262.64	678.12
262.872	641.12
263.105	613.12
263.337	613.12
263.57	620.12
263.802	633.12
264.035	601.12
264.267	583.12
264.499	564.12
264.732	589.12
264.964	651.12
265.197	669.12
265.429	702.12
265.661	802.12
265.894	832.12
266.126	868.12
266.358	783.12
266.591	787.12
266.823	811.12
267.055	817.12
267.287	793.12
267.52	771.12
267.752	751.12
267.984	765.12
268.216	801.12
268.448	815.12
268.681	781.12
268.913	722.12
269.145	685.12
269.377	675.12
269.609	754.12
269.841	885.12
270.073	976.12
270.306	1087.12
270.538	1099.12
270.77	958.12
271.002	846.12
271.234	774.12
271.466	806.12
271.698	926.12
271.93	1053.12
272.162	1020.12
272.394	955.12
272.626	909.12
272.858	803.12
273.09	717.12
273.322	727.12
273.553	667.12
273.785	698.12
274.017	699.12
274.249	788.12
274.481	760.12
274.713	750.12
274.945	719.12
275.176	689.12
275.408	685.12
275.64	698.12
275.872	691.12
276.104	741.12
276.335	837.12
276.567	905.12
276.799	917.12
277.031	828.12
277.262	789.12
277.494	867.12
277.726	929.12
277.957	870.12
278.189	817.12
278.421	777.12
278.652	725.12
278.884	731.12
279.115	719.12
279.347	759.12
279.579	759.12
279.81	729.12
280.042	833.12
280.273	867.12
280.505	891.12
280.736	857.12
280.968	841.12
281.199	738.12
281.431	726.12
281.662	717.12
281.894	727.12
282.125	718.12
282.356	763.12
282.588	753.12
282.819	792.12
283.051	834.12
283.282	897.12
283.513	819.12
283.745	751.12
283.976	737.12
284.207	719.12
284.439	759.12
284.67	779.12
284.901	747.12
285.132	777.12
285.364	773.12
285.595	765.12
285.826	777.12
286.057	747.12
286.288	760.12
286.52	801.12
286.751	877.12
286.982	860.12
287.213	783.12
287.444	730.12
287.675	767.12
287.906	783.12
288.138	847.12
288.369	793.12
288.6	762.12
288.831	740.12
289.062	729.12
289.293	737.12
289.524	757.12
289.755	804.12
289.986	787.12
290.217	756.12
290.448	748.12
290.679	761.12
290.91	787.12
291.141	828.12
291.371	805.12
291.602	836.12
291.833	815.12
292.064	850.12
292.295	825.12
292.526	849.12
292.757	863.12
292.987	848.12
293.218	821.12
293.449	881.12
293.68	984.12
293.91	1007.12
294.141	963.12
294.372	932.12
294.603	929.12
294.833	979.12
295.064	909.12
295.295	849.12
295.525	815.12
295.756	746.12
295.987	746.12
296.217	741.12
296.448	761.12
296.679	767.12
296.909	780.12
297.14	773.12
297.37	794.12
297.601	835.12
297.831	881.12
298.062	891.12
298.292	812.12
298.523	781.12
298.753	790.12
298.984	792.12
299.214	805.12
299.445	831.12
299.675	823.12
299.905	853.12
300.136	802.12
300.366	795.12
300.597	791.12
300.827	793.12
301.057	825.12
301.288	896.12
301.518	843.12
301.748	919.12
301.979	928.12
302.209	943.12
302.439	989.12
302.669	997.12
302.9	896.12
303.13	862.12
303.36	849.12
303.59	860.12
303.82	840.12
304.051	866.12
304.281	846.12
304.511	886.12
304.741	932.12
304.971	1030.12
305.201	1066.12
305.431	963.12
305.661	839.12
305.891	764.12
306.121	785.12
306.352	806.12
306.582	859.12
306.812	903.12
307.042	965.12
307.272	970.12
307.502	1015.12
307.731	1035.12
307.961	1089.12
308.191	1000.12
308.421	866.12
308.651	837.12
308.881	842.12
309.111	824.12
309.341	831.12
309.571	851.12
309.8	849.12
310.03	837.12
310.26	819.12
310.49	826.12
310.72	845.12
310.949	897.12
311.179	891.12
311.409	894.12
311.639	859.12
311.868	851.12
312.098	855.12
312.328	863.12
312.557	854.12
312.787	870.12
313.017	902.12
313.246	874.12
313.476	898.12
313.706	882.12
313.935	874.12
314.165	896.12
314.394	926.12
314.624	993.12
314.853	1044.12
315.083	1043.12
315.312	1072.12
315.542	976.12
315.771	927.12
316.001	934.12
316.23	971.12
316.46	967.12
316.689	959.12
316.919	879.12
317.148	851.12
317.377	897.12
317.607	965.12
317.836	1072.12
318.065	1091.12
318.295	1037.12
318.524	987.12
318.753	970.12
318.983	939.12
319.212	924.12
319.441	946.12
319.67	915.12
319.9	951.12
320.129	975.12
320.358	1037.12
320.587	1041.12
320.816	1029.12
321.046	1023.12
321.275	1003.12
321.504	981.12
321.733	1057.12
321.962	1014.12
322.191	961.12
322.42	931.12
322.649	917.12
322.878	920.12
323.108	930.12
323.337	957.12
323.566	962.12
323.795	945.12
324.024	949.12
324.253	944.12
324.482	969.12
324.71	906.12
324.939	887.12
325.168	905.12
325.397	939.12
325.626	955.12
325.855	933.12
326.084	943.12
326.313	935.12
326.542	940.12
326.77	983.12
326.999	958.12
327.228	918.12
327.457	912.12
327.686	915.12
327.914	924.12
328.143	968.12
328.372	953.12
328.6	959.12
328.829	922.12
329.058	932.12
329.287	941.12
329.515	974.12
329.744	991.12
329.972	1013.12
330.201	1063.12
330.43	1031.12
330.658	962.12
330.887	994.12
331.115	1006.12
331.344	1038.12
331.572	985.12
331.801	949.12
332.03	994.12
332.258	1044.12
332.486	999.12
332.715	963.12
332.943	1008.12
333.172	997.12
333.4	980.12
333.629	1043.12
333.857	1102.12
334.085	1231.12
334.314	1369.12
334.542	1417.12
334.771	1275.12
334.999	1163.12
335.227	1134.12
335.455	1054.12
335.684	1067.12
335.912	1117.12
336.14	1077.12
336.369	1061.12
336.597	990.12
336.825	979.12
337.053	1044.12
337.281	1117.12
337.51	1161.12
337.738	1174.12
337.966	1100.12
338.194	1009.12
338.422	991.12
338.65	981.12
338.878	969.12
339.106	943.12
339.334	950.12
339.562	911.12
339.79	963.12
340.018	1003.12
340.246	1071.12
340.474	1053.12
340.702	1031.12
340.93	1023.12
341.158	1031.12
341.386	1002.12
341.614	1013.12
341.842	970.12
342.07	1018.12
342.298	994.12
342.526	987.12
342.754	981.12
342.981	974.12
343.209	1000.12
343.437	962.12
343.665	983.12
343.893	1004.12
344.12	1055.12
344.348	1053.12
344.576	1018.12
344.804	1006.12
345.031	1000.12
345.259	985.12
345.487	951.12
345.714	908.12
345.942	882.12
346.17	917.12
346.397	942.12
346.625	927.12
346.853	932.12
347.08	907.12
347.308	897.12
347.535	922.12
347.763	945.12
347.99	940.12
348.218	926.12
348.445	935.12
348.673	953.12
348.9	957.12
349.128	1018.12
349.355	1016.12
349.583	985.12
349.81	933.12
350.037	881.12
350.265	869.12
350.492	875.12
350.72	894.12
350.947	942.12
351.174	983.12
351.402	891.12
351.629	878.12
351.856	871.12
352.083	851.12
352.311	895.12
352.538	922.12
352.765	943.12
352.992	957.12
353.22	925.12
353.447	901.12
353.674	939.12
353.901	919.12
354.128	898.12
354.355	913.12
354.583	966.12
354.81	972.12
355.037	956.12
355.264	941.12
355.491	947.12
355.718	911.12
355.945	939.12
356.172	898.12
356.399	895.12
356.626	896.12
356.853	975.12
357.08	1062.12
357.307	1130.12
357.534	1073.12
357.761	969.12
357.988	918.12
358.215	887.12
358.441	919.12
358.668	885.12
358.895	927.12
359.122	966.12
359.349	1041.12
359.576	1022.12
359.802	934.12
360.029	890.12
360.256	918.12
360.483	910.12
360.709	949.12
360.936	981.12
361.163	1006.12
361.39	1116.12
361.616	1201.12
361.843	1177.12
362.07	1092.12
362.296	951.12
362.523	915.12
362.749	935.12
362.976	950.12
363.203	931.12
363.429	914.12
363.656	921.12
363.882	979.12
364.109	1047.12
364.335	1092.12
364.562	1050.12
364.788	953.12
365.015	915.12
365.241	927.12
365.468	945.12
365.694	979.12
365.92	1028.12
366.147	949.12
366.373	917.12
366.599	927.12
366.826	897.12
367.052	921.12
367.278	941.12
367.505	924.12
367.731	981.12
367.957	983.12
368.184	1030.12
368.41	1061.12
368.636	1059.12
368.862	1043.12
369.089	1078.12
369.315	1038.12
369.541	978.12
369.767	950.12
369.993	938.12
370.219	959.12
370.445	983.12
370.672	1048.12
370.898	1077.12
371.124	1040.12
371.35	990.12
371.576	1049.12
371.802	1057.12
372.028	1010.12
372.254	961.12
372.48	984.12
372.706	942.12
372.932	952.12
373.158	979.12
373.384	1000.12
373.61	1009.12
373.835	1031.12
374.061	1003.12
374.287	1002.12
374.513	946.12
374.739	1024.12
374.965	989.12
375.191	996.12
375.416	1032.12
375.642	1038.12
375.868	1088.12
376.094	1111.12
376.319	1052.12
376.545	993.12
376.771	1002.12
376.997	1083.12
377.222	1063.12
377.448	1054.12
377.674	1027.12
377.899	1070.12
378.125	1138.12
378.35	1053.12
378.576	969.12
378.802	945.12
379.027	943.12
379.253	993.12
379.478	985.12
379.704	958.12
379.929	1005.12
380.155	1011.12
380.38	1014.12
380.606	988.12
380.831	1023.12
381.057	1070.12
381.282	1061.12
381.507	1058.12
381.733	1109.12
381.958	1149.12
382.184	1060.12
382.409	1038.12
382.634	1042.12
382.86	1065.12
383.085	1025.12
383.31	1096.12
383.535	1180.12
383.761	1191.12
383.986	1190.12
384.211	1146.12
384.436	1132.12
384.662	1206.12
384.887	1191.12
385.112	1153.12
385.337	1149.12
385.562	1130.12
385.787	1130.12
386.013	1174.12
386.238	1175.12
386.463	1178.12
386.688	1270.12
386.913	1319.12
387.138	1281.12
387.363	1198.12
387.588	1163.12
387.813	1174.12
388.038	1191.12
388.263	1237.12
388.488	1176.12
388.713	1105.12
388.938	1097.12
389.163	1090.12
389.387	1143.12
389.612	1133.12
389.837	1141.12
390.062	1151.12
390.287	1150.12
390.512	1122.12
390.736	1111.12
390.961	1111.12
391.186	1078.12
391.411	1097.12
391.636	1137.12
391.86	1123.12
392.085	1115.12
392.31	1138.12
392.534	1130.12
392.759	1163.12
392.984	1178.12
393.208	1148.12
393.433	1218.12
393.658	1219.12
393.882	1235.12
394.107	1162.12
394.331	1130.12
394.556	1137.12
394.78	1148.12
395.005	1219.12
395.229	1261.12
395.454	1330.12
395.678	1324.12
395.903	1262.12
396.127	1196.12
396.352	1218.12
396.576	1274.12
396.801	1289.12
397.025	1258.12
397.249	1227.12
397.474	1229.12
397.698	1226.12
397.922	1286.12
398.147	1346.12
398.371	1377.12
398.595	1355.12
398.82	1282.12
399.044	1333.12
399.268	1372.12
399.492	1467.12
399.717	1522.12
399.941	1525.12
400.165	1472.12
400.389	1435.12
400.613	1514.12
400.837	1703.12
401.062	1803.12
401.286	1523.12
401.51	1445.12
401.734	1462.12
401.958	1412.12
402.182	1357.12
402.406	1299.12
402.63	1309.12
402.854	1285.12
403.078	1331.12
403.302	1340.12
403.526	1339.12
403.75	1364.12
403.974	1365.12
404.198	1386.12
404.422	1430.12
404.645	1500.12
404.869	1487.12
405.093	1317.12
405.317	1340.12
405.541	1334.12
405.765	1384.12
405.988	1375.12
406.212	1401.12
406.436	1421.12
406.66	1441.12
406.883	1484.12
407.107	1679.12
407.331	1804.12
407.555	1953.12
407.778	1736.12
408.002	1451.12
408.226	1434.12
408.449	1466.12
408.673	1401.12
408.896	1397.12
409.12	1421.12
409.344	1402.12
409.567	1350.12
409.791	1358.12
410.014	1398.12
410.238	1472.12
410.461	1559.12
410.685	1415.12
410.908	1352.12
411.132	1379.12
411.355	1346.12
411.578	1349.12
411.802	1356.12
412.025	1356.12
412.249	1334.12
412.472	1303.12
412.695	1294.12
412.919	1313.12
413.142	1324.12
413.365	1333.12
413.589	1379.12
413.812	1409.12
414.035	1431.12
414.258	1358.12
414.482	1303.12
414.705	1315.12
414.928	1329.12
415.151	1319.12
415.374	1329.12
415.597	1370.12
415.821	1337.12
416.044	1369.12
416.267	1373.12
416.49	1273.12
416.713	1285.12
416.936	1327.12
417.159	1385.12
417.382	1371.12
417.605	1326.12
417.828	1342.12
418.051	1351.12
418.274	1317.12
418.497	1322.12
418.72	1299.12
418.943	1267.12
419.166	1325.12
419.389	1389.12
419.611	1319.12
419.834	1311.12
420.057	1333.12
420.28	1316.12
420.503	1310.12
420.726	1324.12
420.948	1292.12
421.171	1289.12
421.394	1314.12
421.617	1326.12
421.839	1345.12
422.062	1305.12
422.285	1264.12
422.507	1262.12
422.73	1255.12
422.953	1227.12
423.175	1201.12
423.398	1292.12
423.621	1276.12
423.843	1309.12
424.066	1339.12
424.288	1393.12
424.511	1447.12
424.733	1378.12
424.956	1265.12
425.178	1261.12
425.401	1244.12
425.623	1265.12
425.846	1275.12
426.068	1341.12
426.291	1358.12
426.513	1327.12
426.735	1366.12
426.958	1428.12
427.18	1509.12
427.402	1361.12
427.625	1406.12
427.847	1373.12
428.069	1305.12
428.292	1260.12
428.514	1222.12
428.736	1209.12
428.958	1235.12
429.181	1308.12
429.403	1455.12
429.625	1758.12
429.847	1539.12
430.069	1313.12
430.292	1467.12
430.514	1479.12
430.736	1373.12
430.958	1392.12
431.18	1297.12
431.402	1236.12
431.624	1193.12
431.846	1203.12
432.068	1144.12
432.29	1165.12
432.512	1218.12
432.734	1262.12
432.956	1314.12
433.178	1354.12
433.4	1343.12
433.622	1319.12
433.844	1262.12
434.066	1238.12
434.287	1189.12
434.509	1195.12
434.731	1271.12
434.953	1371.12
435.175	1339.12
435.397	1297.12
435.618	1298.12
435.84	1239.12
436.062	1221.12
436.284	1277.12
436.505	1320.12
436.727	1307.12
436.949	1278.12
437.17	1214.12
437.392	1223.12
437.614	1211.12
437.835	1195.12
438.057	1251.12
438.278	1277.12
438.5	1237.12
438.721	1193.12
438.943	1255.12
439.165	1231.12
439.386	1234.12
439.608	1235.12
439.829	1251.12
440.05	1247.12
440.272	1235.12
440.493	1256.12
440.715	1294.12
440.936	1361.12
441.158	1405.12
441.379	1402.12
441.6	1401.12
441.822	1385.12
442.043	1367.12
442.264	1342.12
442.486	1263.12
442.707	1273.12
442.928	1295.12
443.149	1289.12
443.371	1366.12
443.592	1410.12
443.813	1367.12
444.034	1354.12
444.255	1373.12
444.476	1406.12
444.698	1447.12
444.919	1393.12
445.14	1526.12
445.361	1479.12
445.582	1436.12
445.803	1426.12
446.024	1399.12
446.245	1445.12
446.466	1368.12
446.687	1337.12
446.908	1355.12
447.129	1297.12
447.35	1318.12
447.571	1290.12
447.792	1254.12
448.013	1229.12
448.234	1277.12
448.455	1340.12
448.675	1321.12
448.896	1253.12
449.117	1217.12
449.338	1231.12
449.559	1295.12
449.779	1334.12
450	1442.12
450.221	1461.12
450.442	1429.12
450.662	1292.12
450.883	1182.12
451.104	1164.12
451.324	1225.12
451.545	1239.12
451.766	1189.12
451.986	1173.12
452.207	1144.12
452.428	1130.12
452.648	1098.12
452.869	1127.12
453.089	1145.12
453.31	1153.12
453.53	1161.12
453.751	1159.12
453.971	1082.12
454.192	1107.12
454.412	1176.12
454.633	1134.12
454.853	1064.12
455.073	1036.12
455.294	1075.12
455.514	1094.12
455.734	1113.12
455.955	1091.12
456.175	1086.12
456.395	1061.12
456.616	1095.12
456.836	1117.12
457.056	1076.12
457.276	1109.12
457.497	1063.12
457.717	1059.12
457.937	1071.12
458.157	1037.12
458.377	1033.12
458.598	1036.12
458.818	1068.12
459.038	1120.12
459.258	1171.12
459.478	1161.12
459.698	1134.12
459.918	1174.12
460.138	1222.12
460.358	1254.12
460.578	1234.12
460.798	1261.12
461.018	1345.12
461.238	1307.12
461.458	1267.12
461.678	1254.12
461.898	1225.12
462.118	1206.12
462.338	1244.12
462.558	1260.12
462.777	1262.12
462.997	1318.12
463.217	1391.12
463.437	1347.12
463.657	1257.12
463.876	1262.12
464.096	1228.12
464.316	1291.12
464.536	1311.12
464.755	1326.12
464.975	1324.12
465.195	1296.12
465.414	1317.12
465.634	1340.12
465.854	1318.12
466.073	1347.12
466.293	1370.12
466.512	1211.12
466.732	1202.12
466.951	1274.12
467.171	1239.12
467.391	1187.12
467.61	1155.12
467.829	1193.12
468.049	1322.12
468.268	1445.12
468.488	1335.12
468.707	1252.12
468.927	1259.12
469.146	1245.12
469.365	1232.12
469.585	1227.12
469.804	1231.12
470.023	1252.12
470.243	1223.12
470.462	1251.12
470.681	1240.12
470.901	1241.12
471.12	1249.12
471.339	1230.12
471.558	1210.12
471.777	1221.12
471.997	1227.12
472.216	1210.12
472.435	1134.12
472.654	1169.12
472.873	1157.12
473.092	1206.12
473.311	1182.12
473.53	1154.12
473.749	1149.12
473.968	1158.12
474.187	1212.12
474.406	1253.12
474.625	1209.12
474.844	1255.12
475.063	1208.12
475.282	1251.12
475.501	1198.12
475.72	1254.12
475.939	1328.12
476.158	1228.12
476.377	1221.12
476.596	1225.12
476.814	1215.12
477.033	1258.12
477.252	1280.12
477.471	1284.12
477.69	1320.12
477.908	1307.12
478.127	1378.12
478.346	1463.12
478.564	1431.12
478.783	1419.12
479.002	1469.12
479.22	1419.12
479.439	1502.12
479.658	1580.12
479.876	1531.12
480.095	1385.12
480.313	1347.12
480.532	1302.12
480.751	1310.12
480.969	1355.12
481.188	1310.12
481.406	1242.12
481.624	1258.12
481.843	1245.12
482.061	1301.12
482.28	1348.12
482.498	1383.12
482.717	1322.12
482.935	1325.12
483.153	1373.12
483.372	1399.12
483.59	1365.12
483.808	1372.12
484.027	1395.12
484.245	1461.12
484.463	1725.12
484.681	1905.12
484.9	1463.12
485.118	1382.12
485.336	1371.12
485.554	1426.12
485.772	1386.12
485.99	1393.12
486.209	1382.12
486.427	1367.12
486.645	1406.12
486.863	1404.12
487.081	1467.12
487.299	1464.12
487.517	1453.12
487.735	1441.12
487.953	1480.12
488.171	1489.12
488.389	1452.12
488.607	1468.12
488.825	1608.12
489.043	1542.12
489.261	1400.12
489.479	1491.12
489.696	1470.12
489.914	1493.12
490.132	1453.12
490.35	1461.12
490.568	1568.12
490.786	1473.12
491.003	1488.12
491.221	1569.12
491.439	1621.12
491.657	1590.12
491.874	1635.12
492.092	1704.12
492.31	1705.12
492.527	1694.12
492.745	1633.12
492.963	1595.12
493.18	1635.12
493.398	1687.12
493.615	1689.12
493.833	1573.12
494.05	1559.12
494.268	1541.12
494.485	1546.12
494.703	1598.12
494.92	1541.12
495.138	1553.12
495.355	1529.12
495.573	1621.12
495.79	1695.12
496.008	1702.12
496.225	1573.12
496.442	1622.12
496.66	1638.12
496.877	1577.12
497.094	1650.12
497.312	1614.12
497.529	1640.12
497.746	1643.12
497.963	1871.12
498.181	1993.12
498.398	1899.12
498.615	1858.12
498.832	1796.12
499.049	1768.12
499.267	1774.12
499.484	1883.12
499.701	2030.12
499.918	2097.12
500.135	2199.12
500.352	2390.12
500.569	2364.12
500.786	2530.12
501.003	2333.12
501.22	2136.12
501.437	2072.12
501.654	2103.12
501.871	2034.12
502.088	1779.12
502.305	1801.12
502.522	1702.12
502.739	1619.12
502.956	1601.12
503.172	1579.12
503.389	1525.12
503.606	1492.12
503.823	1525.12
504.04	1467.12
504.256	1523.12
504.473	1506.12
504.69	1558.12
504.907	1454.12
505.123	1409.12
505.34	1543.12
505.557	2036.12
505.773	1638.12
505.99	1387.12
506.207	1322.12
506.423	1334.12
506.64	1303.12
506.856	1309.12
507.073	1526.12
507.289	1601.12
507.506	1500.12
507.722	1316.12
507.939	1245.12
508.155	1252.12
508.372	1259.12
508.588	1217.12
508.805	1188.12
509.021	1215.12
509.238	1129.12
509.454	1138.12
509.67	1157.12
509.887	1154.12
510.103	1137.12
510.319	1167.12
510.536	1198.12
510.752	1219.12
510.968	1189.12
511.184	1299.12
511.401	1276.12
511.617	1145.12
511.833	1109.12
512.049	1108.12
512.265	1116.12
512.481	1130.12
512.698	1169.12
512.914	1244.12
513.13	1151.12
513.346	1108.12
513.562	1087.12
513.778	1112.12
513.994	1205.12
514.21	1209.12
514.426	1229.12
514.642	1317.12
514.858	1254.12
515.074	1149.12
515.29	1126.12
515.506	1171.12
515.721	1181.12
515.937	1188.12
516.153	1293.12
516.369	1259.12
516.585	1221.12
516.801	1161.12
517.016	1134.12
517.232	1183.12
517.448	1215.12
517.664	1233.12
517.879	1248.12
518.095	1302.12
518.311	1222.12
518.527	1183.12
518.742	1175.12
518.958	1162.12
519.173	1179.12
519.389	1180.12
519.605	1217.12
519.82	1172.12
520.036	1217.12
520.251	1139.12
520.467	1182.12
520.682	1236.12
520.898	1235.12
521.113	1135.12
521.329	1145.12
521.544	1209.12
521.76	1156.12
521.975	1125.12
522.19	1126.12
522.406	1120.12
522.621	1381.12
522.836	1295.12
523.052	1114.12
523.267	1101.12
523.482	1137.12
523.698	1053.12
523.913	1030.12
524.128	1111.12
524.343	1149.12
524.559	1157.12
524.774	1102.12
524.989	1064.12
525.204	1073.12
525.419	1069.12
525.634	1067.12
525.849	1078.12
526.064	1094.12
526.28	1060.12
526.495	983.12
526.71	990.12
526.925	1004.12
527.14	995.12
527.355	957.12
527.57	971.12
527.785	1023.12
527.999	1008.12
528.214	1011.12
528.429	1021.12
528.644	1039.12
528.859	1069.12
529.074	1076.12
529.289	1133.12
529.503	1141.12
529.718	1084.12
529.933	1075.12
530.148	1001.12
530.363	980.12
530.577	983.12
530.792	1020.12
531.007	1005.12
531.221	993.12
531.436	991.12
531.651	1021.12
531.865	1048.12
532.08	1031.12
532.295	998.12
532.509	949.12
532.724	925.12
532.938	1011.12
533.153	1045.12
533.367	1046.12
533.582	1022.12
533.796	1025.12
534.011	1037.12
534.225	1015.12
534.44	960.12
534.654	983.12
534.868	976.12
535.083	1035.12
535.297	1036.12
535.511	1025.12
535.726	991.12
535.94	1011.12
536.154	963.12
536.369	943.12
536.583	943.12
536.797	937.12
537.011	958.12
537.225	937.12
537.44	921.12
537.654	974.12
537.868	928.12
538.082	919.12
538.296	906.12
538.51	917.12
538.724	944.12
538.938	983.12
539.153	1015.12
539.367	998.12
539.581	968.12
539.795	979.12
540.009	961.12
540.222	942.12
540.436	985.12
540.65	1068.12
540.864	1121.12
541.078	1085.12
541.292	1031.12
541.506	1065.12
541.72	1107.12
541.934	1155.12
542.147	1176.12
542.361	1145.12
542.575	1078.12
542.789	1024.12
543.002	975.12
543.216	940.12
543.43	1024.12
543.644	1053.12
543.857	1114.12
544.071	1123.12
544.285	1098.12
544.498	1107.12
544.712	1066.12
544.925	1090.12
545.139	1130.12
545.352	1071.12
545.566	1060.12
545.779	1050.12
545.993	1062.12
546.206	1081.12
546.42	1051.12
546.633	1053.12
546.847	1061.12
547.06	1079.12
547.274	1098.12
547.487	1058.12
547.7	1091.12
547.914	1123.12
548.127	1113.12
548.34	1099.12
548.554	1076.12
548.767	1053.12
548.98	1074.12
549.193	1078.12
549.407	1097.12
549.62	1111.12
549.833	1059.12
550.046	1084.12
550.259	1069.12
550.473	1033.12
550.686	1036.12
550.899	1011.12
551.112	982.12
551.325	961.12
551.538	1009.12
551.751	1158.12
551.964	913.12
552.177	932.12
552.39	971.12
552.603	987.12
552.816	1037.12
553.029	1069.12
553.242	1089.12
553.455	1044.12
553.667	1085.12
553.88	1047.12
554.093	1013.12
554.306	978.12
554.519	993.12
554.732	968.12
554.944	995.12
555.157	999.12
555.37	943.12
555.583	939.12
555.795	961.12
556.008	893.12
556.221	864.12
556.433	892.12
556.646	862.12
556.859	891.12
557.071	874.12
557.284	894.12
557.496	903.12
557.709	858.12
557.921	893.12
558.134	873.12
558.346	849.12
558.559	878.12
558.771	833.12
558.984	828.12
559.196	809.12
559.409	821.12
559.621	825.12
559.833	797.12
560.046	827.12
560.258	817.12
560.47	860.12
560.683	836.12
560.895	807.12
561.107	826.12
561.32	827.12
561.532	809.12
561.744	787.12
561.956	834.12
562.168	801.12
562.381	782.12
562.593	786.12
562.805	782.12
563.017	771.12
563.229	779.12
563.441	825.12
563.653	784.12
563.865	791.12
564.077	779.12
564.289	797.12
564.501	791.12
564.713	817.12
564.925	833.12
565.137	869.12
565.349	829.12
565.561	817.12
565.773	795.12
565.985	807.12
566.197	845.12
566.408	902.12
566.62	915.12
566.832	921.12
567.044	918.12
567.255	890.12
567.467	911.12
567.679	934.12
567.891	936.12
568.102	926.12
568.314	846.12
568.526	801.12
568.737	775.12
568.949	761.12
569.161	704.12
569.372	695.12
569.584	689.12
569.795	685.12
570.007	676.12
570.218	669.12
570.43	650.12
570.641	659.12
570.853	678.12
571.064	676.12
571.276	666.12
571.487	645.12
571.698	637.12
571.91	626.12
572.121	631.12
572.333	613.12
572.544	631.12
572.755	603.12
572.966	604.12
573.178	584.12
573.389	575.12
573.6	611.12
573.811	651.12
574.023	610.12
574.234	567.12
574.445	582.12
574.656	571.12
574.867	570.12
575.078	557.12
575.289	546.12
575.501	537.12
575.712	561.12
575.923	556.12
576.134	575.12
576.345	558.12
576.556	565.12
576.767	541.12
576.978	532.12
577.188	517.12
577.399	538.12
577.61	526.12
577.821	524.12
578.032	526.12
578.243	541.12
578.454	509.12
578.665	512.12
578.875	500.12
579.086	492.12
579.297	493.12
579.508	546.12
579.718	489.12
579.929	517.12
580.14	476.12
580.35	483.12
580.561	527.12
580.772	563.12
580.982	515.12
581.193	502.12
581.403	503.12
581.614	485.12
581.825	482.12
582.035	489.12
582.246	474.12
582.456	478.12
582.667	482.12
582.877	487.12
583.087	480.12
583.298	460.12
583.508	472.12
583.719	476.12
583.929	483.12
584.139	466.12
584.35	458.12
584.56	474.12
584.77	485.12
584.981	469.12
585.191	462.12
585.401	507.12
585.611	480.12
585.821	476.12
586.032	450.12
586.242	457.12
586.452	461.12
586.662	466.12
586.872	470.12
587.082	455.12
587.292	484.12
587.502	452.12
587.713	473.12
587.923	429.12
588.133	453.12
588.343	467.12
588.553	442.12
588.762	437.12
588.972	454.12
589.182	473.12
589.392	469.12
589.602	467.12
589.812	450.12
590.022	457.12
590.232	444.12
590.441	441.12
590.651	461.12
590.861	435.12
591.071	441.12
591.281	439.12
591.49	444.12
591.7	431.12
591.91	449.12
592.119	457.12
592.329	462.12
592.539	467.12
592.748	465.12
592.958	469.12
593.167	479.12
593.377	491.12
593.587	504.12
593.796	494.12
594.006	462.12
594.215	479.12
594.424	473.12
594.634	457.12
594.843	490.12
595.053	483.12
595.262	476.12
595.472	447.12
595.681	444.12
595.89	446.12
596.1	421.12
596.309	440.12
596.518	435.12
596.727	444.12
596.937	427.12
597.146	417.12
597.355	413.12
597.564	408.12
597.774	387.12
597.983	403.12
598.192	393.12
598.401	399.12
598.61	382.12
598.819	366.12
599.028	404.12
599.237	421.12
599.446	409.12
599.655	397.12
599.864	387.12
600.073	402.12
600.282	379.12
600.491	395.12
600.7	386.12
600.909	385.12
601.118	413.12
601.327	403.12
601.536	418.12
601.745	425.12
601.953	421.12
602.162	438.12
602.371	407.12
602.58	424.12
602.789	428.12
602.997	410.12
603.206	407.12
603.415	413.12
603.623	403.12
603.832	425.12
604.041	396.12
604.249	394.12
604.458	388.12
604.666	382.12
604.875	377.12
605.084	388.12
605.292	420.12
605.501	409.12
605.709	399.12
605.918	383.12
606.126	423.12
606.334	399.12
606.543	417.12
606.751	411.12
606.96	403.12
607.168	411.12
607.376	390.12
607.585	421.12
607.793	406.12
608.001	398.12
608.21	406.12
608.418	405.12
608.626	407.12
608.834	411.12
609.043	402.12
609.251	393.12
609.459	408.12
609.667	405.12
609.875	420.12
610.083	425.12
610.291	418.12
610.499	403.12
610.707	398.12
610.916	381.12
611.124	394.12
611.332	406.12
611.54	390.12
611.748	400.12
611.955	410.12
612.163	389.12
612.371	385.12
612.579	416.12
612.787	390.12
612.995	391.12
613.203	387.12
613.411	423.12
613.618	385.12
613.826	399.12
614.034	412.12
614.242	393.12
614.449	405.12
614.657	402.12
614.865	394.12
615.072	411.12
615.28	382.12
615.488	393.12
615.695	412.12
615.903	391.12
616.111	413.12
616.318	402.12
616.526	399.12
616.733	394.12
616.941	389.12
617.148	395.12
617.356	371.12
617.563	380.12
617.771	387.12
617.978	389.12
618.185	375.12
618.393	372.12
618.6	358.12
618.807	370.12
619.015	391.12
619.222	376.12
619.429	374.12
619.637	369.12
619.844	356.12
620.051	338.12
620.258	358.12
620.466	361.12
620.673	362.12
620.88	353.12
621.087	345.12
621.294	351.12
621.501	340.12
621.708	349.12
621.915	337.12
622.122	365.12
622.329	371.12
622.536	366.12
622.743	344.12
622.95	349.12
623.157	353.12
623.364	352.12
623.571	361.12
623.778	342.12
623.985	355.12
624.192	349.12
624.399	364.12
624.606	362.12
624.812	342.12
625.019	321.12
625.226	321.12
625.433	326.12
625.639	303.12
625.846	305.12
626.053	302.12
626.259	293.12
626.466	307.12
626.673	279.12
626.879	287.12
627.086	301.12
627.293	309.12
627.499	314.12
627.706	316.12
627.912	321.12
628.119	305.12
628.325	310.12
628.532	327.12
628.738	307.12
628.945	333.12
629.151	303.12
629.357	301.12
629.564	305.12
629.77	303.12
629.976	297.12
630.183	291.12
630.389	291.12
630.595	311.12
630.802	305.12
631.008	298.12
631.214	302.12
631.42	305.12
631.627	277.12
631.833	281.12
632.039	298.12
632.245	302.12
632.451	302.12
632.657	296.12
632.863	291.12
633.069	281.12
633.275	290.12
633.481	305.12
633.688	283.12
633.893	273.12
634.099	277.12
634.305	277.12
634.511	272.12
634.717	253.12
634.923	268.12
635.129	273.12
635.335	263.12
635.541	271.12
635.747	267.12
635.952	289.12
636.158	289.12
636.364	294.12
636.57	275.12
636.775	311.12
636.981	285.12
637.187	280.12
637.392	287.12
637.598	285.12
637.804	274.12
638.009	290.12
638.215	284.12
638.421	278.12
638.626	279.12
638.832	278.12
639.037	270.12
639.243	283.12
639.448	258.12
639.654	263.12
639.859	261.12
640.065	245.12
640.27	255.12
640.475	268.12
640.681	281.12
640.886	262.12
641.091	274.12
641.297	284.12
641.502	271.12
641.707	273.12
641.913	267.12
642.118	246.12
642.323	255.12
642.528	270.12
642.733	261.12
642.939	246.12
643.144	283.12
643.349	279.12
643.554	267.12
643.759	251.12
643.964	254.12
644.169	249.12
644.374	277.12
644.579	257.12
644.784	274.12
644.989	263.12
645.194	244.12
645.399	263.12
645.604	267.12
645.809	233.12
646.014	261.12
646.219	267.12
646.423	263.12
646.628	266.12
646.833	255.12
647.038	243.12
647.243	254.12
647.447	251.12
647.652	243.12
647.857	268.12
648.062	260.12
648.266	249.12
648.471	247.12
648.676	252.12
648.88	267.12
649.085	259.12
649.289	252.12
649.494	262.12
649.698	278.12
649.903	249.12
650.107	273.12
650.312	263.12
650.516	261.12
650.721	236.12
650.925	244.12
651.13	238.12
651.334	224.12
651.539	263.12
651.743	243.12
651.947	236.12
652.152	248.12
652.356	229.12
652.56	236.12
652.764	228.12
652.969	228.12
653.173	230.12
653.377	225.12
653.581	221.12
653.785	226.12
653.99	220.12
654.194	224.12
654.398	229.12
654.602	235.12
654.806	232.12
655.01	225.12
655.214	213.12
655.418	228.12
655.622	223.12
655.826	230.12
656.03	254.12
656.234	243.12
656.438	244.12
656.642	265.12
656.846	254.12
657.049	239.12
657.253	220.12
657.457	205.12
657.661	183.12
657.865	196.12
658.068	185.12
658.272	179.12
658.476	157.12
658.68	157.12
658.883	150.12
659.087	148.12
659.291	135.12
659.494	146.12
659.698	151.12
659.901	127.12
660.105	130.12
660.309	122.12
660.512	111.12
660.716	127.12
660.919	118.12
661.123	124.12
661.326	123.12
661.53	121.12
661.733	116.12
661.936	121.12
662.14	112.12
662.343	110.12
662.546	111.12
662.75	92.12
662.953	101.12
663.156	92.12
663.36	97.12
663.563	81.12
663.766	88.12
663.969	100.12
664.173	91.12
664.376	77.12
664.579	89.12
664.782	93.12
664.985	89.12
665.188	83.12
665.391	89.12
665.594	97.12
665.797	90.12
666	74.12
666.203	65.12
666.406	69.12
666.609	79.12
666.812	78.12
667.015	79.12
667.218	97.12
667.421	91.12
667.624	96.12
667.827	76.12
668.03	83.12
668.232	57.12
668.435	83.12
668.638	85.12
668.841	94.12
669.043	107.12
669.246	78.12
669.449	85.12
669.651	73.12
669.854	94.12
670.057	81.12
670.259	85.12
670.462	83.12
670.665	77.12
670.867	81.12
671.07	87.12
671.272	86.12
671.475	86.12
671.677	84.12
671.88	68.12
672.082	85.12
672.284	86.12
672.487	88.12
672.689	83.12
672.892	92.12
