Data from WStandard_LampEnergy8_LIBS07252019.E.O._I.C._HRD10591_15-59-11-929.txt Node
Date: Thu Jul 25 15:59:11 EDT 2019
User: cochatt
Spectrometer: HR+D1059
Trigger mode: 1
Integration Time (sec): 1.000000E-1
Scans to average: 1
Electric dark correction enabled: true
Nonlinearity correction enabled: false
Boxcar width: 0
XAxis mode: Wavelengths
Number of Pixels in Spectrum: 2048
>>>>>Begin Spectral Data<<<<<
223.165	-13.25
223.4	-13.25
223.635	-13.25
223.869	-16.25
224.104	-26.25
224.338	-7.25
224.573	-19.25
224.808	-8.25
225.042	-4.25
225.277	-11.25
225.511	8.75
225.746	7.75
225.98	5.75
226.215	5.75
226.449	12.75
226.683	26.75
226.918	21.75
227.152	16.75
227.387	43.75
227.621	42.75
227.856	50.75
228.09	34.75
228.324	52.75
228.559	57.75
228.793	85.75
229.027	214.75
229.262	206.75
229.496	216.75
229.73	231.75
229.964	231.75
230.199	244.75
230.433	257.75
230.667	280.75
230.901	283.75
231.136	265.75
231.37	247.75
231.604	259.75
231.838	290.75
232.072	264.75
232.306	243.75
232.541	274.75
232.775	308.75
233.009	310.75
233.243	310.75
233.477	265.75
233.711	306.75
233.945	302.75
234.179	312.75
234.413	316.75
234.647	334.75
234.881	313.75
235.115	290.75
235.349	304.75
235.583	296.75
235.817	302.75
236.051	297.75
236.285	270.75
236.519	323.75
236.753	336.75
236.987	350.75
237.221	356.75
237.455	389.75
237.689	355.75
237.922	332.75
238.156	344.75
238.39	337.75
238.624	366.75
238.858	378.75
239.091	408.75
239.325	424.75
239.559	457.75
239.793	462.75
240.027	517.75
240.26	508.75
240.494	382.75
240.728	369.75
240.961	381.75
241.195	397.75
241.429	395.75
241.662	410.75
241.896	407.75
242.13	393.75
242.363	427.75
242.597	466.75
242.83	447.75
243.064	453.75
243.298	435.75
243.531	458.75
243.765	460.75
243.998	462.75
244.232	402.75
244.465	402.75
244.699	412.75
244.932	476.75
245.166	493.75
245.399	493.75
245.633	448.75
245.866	440.75
246.099	478.75
246.333	501.75
246.566	501.75
246.8	538.75
247.033	569.75
247.266	493.75
247.5	522.75
247.733	532.75
247.966	572.75
248.2	604.75
248.433	572.75
248.666	641.75
248.899	670.75
249.133	728.75
249.366	801.75
249.599	664.75
249.832	628.75
250.066	604.75
250.299	615.75
250.532	582.75
250.765	518.75
250.998	560.75
251.231	576.75
251.465	578.75
251.698	552.75
251.931	577.75
252.164	602.75
252.397	610.75
252.63	593.75
252.863	537.75
253.096	522.75
253.329	579.75
253.562	586.75
253.795	612.75
254.028	587.75
254.261	561.75
254.494	573.75
254.727	561.75
254.96	582.75
255.193	640.75
255.426	690.75
255.659	768.75
255.892	768.75
256.124	676.75
256.357	637.75
256.59	690.75
256.823	692.75
257.056	692.75
257.289	793.75
257.521	896.75
257.754	775.75
257.987	773.75
258.22	842.75
258.452	792.75
258.685	678.75
258.918	676.75
259.151	657.75
259.383	633.75
259.616	582.75
259.849	613.75
260.081	667.75
260.314	741.75
260.547	793.75
260.779	796.75
261.012	758.75
261.244	686.75
261.477	649.75
261.71	674.75
261.942	712.75
262.175	666.75
262.407	691.75
262.64	660.75
262.872	612.75
263.105	617.75
263.337	652.75
263.57	631.75
263.802	611.75
264.035	588.75
264.267	557.75
264.499	552.75
264.732	579.75
264.964	640.75
265.197	662.75
265.429	723.75
265.661	755.75
265.894	843.75
266.126	853.75
266.358	792.75
266.591	829.75
266.823	861.75
267.055	791.75
267.287	776.75
267.52	770.75
267.752	749.75
267.984	776.75
268.216	806.75
268.448	804.75
268.681	801.75
268.913	707.75
269.145	675.75
269.377	672.75
269.609	764.75
269.841	880.75
270.073	981.75
270.306	1088.75
270.538	1087.75
270.77	949.75
271.002	868.75
271.234	804.75
271.466	825.75
271.698	914.75
271.93	1053.75
272.162	1029.75
272.394	941.75
272.626	881.75
272.858	801.75
273.09	692.75
273.322	680.75
273.553	683.75
273.785	692.75
274.017	704.75
274.249	752.75
274.481	736.75
274.713	693.75
274.945	694.75
275.176	698.75
275.408	690.75
275.64	669.75
275.872	701.75
276.104	734.75
276.335	834.75
276.567	905.75
276.799	888.75
277.031	842.75
277.262	805.75
277.494	847.75
277.726	887.75
277.957	866.75
278.189	790.75
278.421	738.75
278.652	734.75
278.884	739.75
279.115	723.75
279.347	740.75
279.579	713.75
279.81	742.75
280.042	801.75
280.273	885.75
280.505	859.75
280.736	892.75
280.968	792.75
281.199	727.75
281.431	712.75
281.662	734.75
281.894	738.75
282.125	742.75
282.356	762.75
282.588	764.75
282.819	762.75
283.051	825.75
283.282	892.75
283.513	834.75
283.745	764.75
283.976	709.75
284.207	734.75
284.439	738.75
284.67	774.75
284.901	743.75
285.132	778.75
285.364	774.75
285.595	734.75
285.826	772.75
286.057	776.75
286.288	737.75
286.52	788.75
286.751	858.75
286.982	867.75
287.213	790.75
287.444	733.75
287.675	743.75
287.906	805.75
288.138	821.75
288.369	775.75
288.6	739.75
288.831	717.75
289.062	750.75
289.293	753.75
289.524	778.75
289.755	795.75
289.986	772.75
290.217	712.75
290.448	773.75
290.679	766.75
290.91	800.75
291.141	797.75
291.371	843.75
291.602	805.75
291.833	793.75
292.064	827.75
292.295	844.75
292.526	813.75
292.757	867.75
292.987	852.75
293.218	786.75
293.449	873.75
293.68	964.75
293.91	1018.75
294.141	948.75
294.372	915.75
294.603	931.75
294.833	960.75
295.064	903.75
295.295	816.75
295.525	794.75
295.756	772.75
295.987	762.75
296.217	744.75
296.448	750.75
296.679	789.75
296.909	767.75
297.14	784.75
297.37	808.75
297.601	830.75
297.831	897.75
298.062	832.75
298.292	842.75
298.523	779.75
298.753	788.75
298.984	796.75
299.214	788.75
299.445	833.75
299.675	839.75
299.905	822.75
300.136	789.75
300.366	790.75
300.597	748.75
300.827	804.75
301.057	830.75
301.288	847.75
301.518	858.75
301.748	886.75
301.979	893.75
302.209	938.75
302.439	972.75
302.669	985.75
302.9	930.75
303.13	856.75
303.36	850.75
303.59	875.75
303.82	875.75
304.051	858.75
304.281	850.75
304.511	885.75
304.741	967.75
304.971	1016.75
305.201	1103.75
305.431	939.75
305.661	811.75
305.891	777.75
306.121	773.75
306.352	810.75
306.582	856.75
306.812	904.75
307.042	932.75
307.272	928.75
307.502	995.75
307.731	1032.75
307.961	1088.75
308.191	987.75
308.421	880.75
308.651	850.75
308.881	824.75
309.111	838.75
309.341	823.75
309.571	832.75
309.8	821.75
310.03	828.75
310.26	802.75
310.49	803.75
310.72	844.75
310.949	873.75
311.179	902.75
311.409	870.75
311.639	853.75
311.868	848.75
312.098	845.75
312.328	840.75
312.557	836.75
312.787	861.75
313.017	876.75
313.246	863.75
313.476	867.75
313.706	883.75
313.935	888.75
314.165	897.75
314.394	923.75
314.624	960.75
314.853	1026.75
315.083	1043.75
315.312	1064.75
315.542	992.75
315.771	930.75
316.001	931.75
316.23	978.75
316.46	955.75
316.689	914.75
316.919	903.75
317.148	850.75
317.377	872.75
317.607	968.75
317.836	1062.75
318.065	1100.75
318.295	1033.75
318.524	972.75
318.753	941.75
318.983	964.75
319.212	916.75
319.441	925.75
319.67	911.75
319.9	950.75
320.129	975.75
320.358	1012.75
320.587	1008.75
320.816	1031.75
321.046	986.75
321.275	987.75
321.504	972.75
321.733	1064.75
321.962	983.75
322.191	926.75
322.42	895.75
322.649	900.75
322.878	903.75
323.108	947.75
323.337	942.75
323.566	958.75
323.795	966.75
324.024	954.75
324.253	912.75
324.482	936.75
324.71	908.75
324.939	859.75
325.168	909.75
325.397	932.75
325.626	944.75
325.855	954.75
326.084	923.75
326.313	914.75
326.542	942.75
326.77	969.75
326.999	982.75
327.228	922.75
327.457	868.75
327.686	903.75
327.914	885.75
328.143	962.75
328.372	959.75
328.6	930.75
328.829	911.75
329.058	921.75
329.287	924.75
329.515	952.75
329.744	969.75
329.972	999.75
330.201	1031.75
330.43	995.75
330.658	996.75
330.887	982.75
331.115	994.75
331.344	987.75
331.572	971.75
331.801	982.75
332.03	975.75
332.258	985.75
332.486	987.75
332.715	1011.75
332.943	1015.75
333.172	972.75
333.4	1013.75
333.629	1008.75
333.857	1122.75
334.085	1218.75
334.314	1366.75
334.542	1373.75
334.771	1280.75
334.999	1141.75
335.227	1113.75
335.455	1089.75
335.684	1074.75
335.912	1109.75
336.14	1094.75
336.369	1073.75
336.597	997.75
336.825	979.75
337.053	1054.75
337.281	1128.75
337.51	1127.75
337.738	1157.75
337.966	1094.75
338.194	1026.75
338.422	979.75
338.65	999.75
338.878	957.75
339.106	960.75
339.334	939.75
339.562	951.75
339.79	996.75
340.018	1043.75
340.246	1060.75
340.474	1057.75
340.702	1018.75
340.93	1020.75
341.158	1012.75
341.386	1001.75
341.614	1016.75
341.842	983.75
342.07	980.75
342.298	990.75
342.526	990.75
342.754	992.75
342.981	992.75
343.209	968.75
343.437	962.75
343.665	984.75
343.893	1034.75
344.12	1059.75
344.348	1044.75
344.576	1016.75
344.804	970.75
345.031	961.75
345.259	978.75
345.487	925.75
345.714	914.75
345.942	899.75
346.17	930.75
346.397	933.75
346.625	962.75
346.853	894.75
347.08	882.75
347.308	906.75
347.535	902.75
347.763	949.75
347.99	936.75
348.218	902.75
348.445	924.75
348.673	918.75
348.9	968.75
349.128	990.75
349.355	976.75
349.583	960.75
349.81	920.75
350.037	868.75
350.265	892.75
350.492	880.75
350.72	910.75
350.947	955.75
351.174	950.75
351.402	912.75
351.629	892.75
351.856	855.75
352.083	843.75
352.311	893.75
352.538	906.75
352.765	942.75
352.992	935.75
353.22	893.75
353.447	901.75
353.674	924.75
353.901	925.75
354.128	910.75
354.355	924.75
354.583	960.75
354.81	960.75
355.037	944.75
355.264	946.75
355.491	941.75
355.718	952.75
355.945	910.75
356.172	887.75
356.399	894.75
356.626	916.75
356.853	948.75
357.08	1048.75
357.307	1084.75
357.534	1058.75
357.761	940.75
357.988	902.75
358.215	865.75
358.441	896.75
358.668	880.75
358.895	895.75
359.122	972.75
359.349	1084.75
359.576	1018.75
359.802	947.75
360.029	896.75
360.256	928.75
360.483	925.75
360.709	922.75
360.936	959.75
361.163	1024.75
361.39	1109.75
361.616	1146.75
361.843	1132.75
362.07	1046.75
362.296	941.75
362.523	920.75
362.749	940.75
362.976	954.75
363.203	966.75
363.429	932.75
363.656	905.75
363.882	949.75
364.109	1033.75
364.335	1098.75
364.562	1026.75
364.788	993.75
365.015	914.75
365.241	884.75
365.468	947.75
365.694	979.75
365.92	985.75
366.147	952.75
366.373	907.75
366.599	900.75
366.826	901.75
367.052	913.75
367.278	914.75
367.505	937.75
367.731	963.75
367.957	969.75
368.184	1022.75
368.41	1073.75
368.636	1054.75
368.862	1084.75
369.089	1054.75
369.315	1013.75
369.541	978.75
369.767	937.75
369.993	922.75
370.219	897.75
370.445	967.75
370.672	996.75
370.898	1081.75
371.124	1016.75
371.35	982.75
371.576	1046.75
371.802	1048.75
372.028	1000.75
372.254	930.75
372.48	946.75
372.706	958.75
372.932	954.75
373.158	971.75
373.384	972.75
373.61	1005.75
373.835	1040.75
374.061	1015.75
374.287	983.75
374.513	975.75
374.739	993.75
374.965	990.75
375.191	1022.75
375.416	1012.75
375.642	1028.75
375.868	1115.75
376.094	1121.75
376.319	1052.75
376.545	1026.75
376.771	1058.75
376.997	1098.75
377.222	1048.75
377.448	980.75
377.674	1008.75
377.899	1053.75
378.125	1091.75
378.35	1081.75
378.576	980.75
378.802	944.75
379.027	948.75
379.253	1018.75
379.478	983.75
379.704	1016.75
379.929	981.75
380.155	991.75
380.38	1000.75
380.606	1000.75
380.831	1006.75
381.057	1066.75
381.282	1069.75
381.507	1054.75
381.733	1100.75
381.958	1164.75
382.184	1043.75
382.409	1042.75
382.634	1039.75
382.86	1053.75
383.085	1069.75
383.31	1126.75
383.535	1162.75
383.761	1180.75
383.986	1145.75
384.211	1094.75
384.436	1106.75
384.662	1154.75
384.887	1203.75
385.112	1143.75
385.337	1145.75
385.562	1131.75
385.787	1162.75
386.013	1171.75
386.238	1150.75
386.463	1184.75
386.688	1255.75
386.913	1317.75
387.138	1241.75
387.363	1149.75
387.588	1176.75
387.813	1185.75
388.038	1203.75
388.263	1200.75
388.488	1173.75
388.713	1082.75
388.938	1074.75
389.163	1095.75
389.387	1142.75
389.612	1132.75
389.837	1152.75
390.062	1165.75
390.287	1127.75
390.512	1136.75
390.736	1123.75
390.961	1101.75
391.186	1095.75
391.411	1110.75
391.636	1111.75
391.86	1121.75
392.085	1105.75
392.31	1125.75
392.534	1142.75
392.759	1146.75
392.984	1149.75
393.208	1179.75
393.433	1182.75
393.658	1241.75
393.882	1205.75
394.107	1165.75
394.331	1137.75
394.556	1124.75
394.78	1164.75
395.005	1191.75
395.229	1247.75
395.454	1287.75
395.678	1290.75
395.903	1221.75
396.127	1178.75
396.352	1219.75
396.576	1236.75
396.801	1250.75
397.025	1269.75
397.249	1265.75
397.474	1224.75
397.698	1229.75
397.922	1277.75
398.147	1304.75
398.371	1350.75
398.595	1354.75
398.82	1307.75
399.044	1325.75
399.268	1398.75
399.492	1460.75
399.717	1509.75
399.941	1513.75
400.165	1473.75
400.389	1431.75
400.613	1451.75
400.837	1674.75
401.062	1771.75
401.286	1514.75
401.51	1455.75
401.734	1496.75
401.958	1398.75
402.182	1363.75
402.406	1308.75
402.63	1276.75
402.854	1291.75
403.078	1316.75
403.302	1331.75
403.526	1364.75
403.75	1363.75
403.974	1357.75
404.198	1345.75
404.422	1435.75
404.645	1488.75
404.869	1446.75
405.093	1340.75
405.317	1347.75
405.541	1355.75
405.765	1376.75
405.988	1342.75
406.212	1381.75
406.436	1420.75
406.66	1478.75
406.883	1516.75
407.107	1662.75
407.331	1806.75
407.555	1947.75
407.778	1684.75
408.002	1408.75
408.226	1419.75
408.449	1431.75
408.673	1396.75
408.896	1371.75
409.12	1426.75
409.344	1412.75
409.567	1336.75
409.791	1335.75
410.014	1432.75
410.238	1486.75
410.461	1527.75
410.685	1379.75
410.908	1379.75
411.132	1387.75
411.355	1339.75
411.578	1304.75
411.802	1350.75
412.025	1383.75
412.249	1316.75
412.472	1316.75
412.695	1341.75
412.919	1307.75
413.142	1314.75
413.365	1338.75
413.589	1348.75
413.812	1394.75
414.035	1480.75
414.258	1347.75
414.482	1308.75
414.705	1296.75
414.928	1276.75
415.151	1293.75
415.374	1314.75
415.597	1328.75
415.821	1312.75
416.044	1357.75
416.267	1339.75
416.49	1286.75
416.713	1260.75
416.936	1317.75
417.159	1344.75
417.382	1379.75
417.605	1312.75
417.828	1353.75
418.051	1313.75
418.274	1305.75
418.497	1301.75
418.72	1290.75
418.943	1258.75
419.166	1340.75
419.389	1354.75
419.611	1336.75
419.834	1301.75
420.057	1313.75
420.28	1293.75
420.503	1287.75
420.726	1292.75
420.948	1308.75
421.171	1297.75
421.394	1328.75
421.617	1334.75
421.839	1342.75
422.062	1332.75
422.285	1285.75
422.507	1289.75
422.73	1266.75
422.953	1225.75
423.175	1243.75
423.398	1283.75
423.621	1315.75
423.843	1279.75
424.066	1325.75
424.288	1389.75
424.511	1399.75
424.733	1354.75
424.956	1228.75
425.178	1253.75
425.401	1259.75
425.623	1257.75
425.846	1268.75
426.068	1336.75
426.291	1362.75
426.513	1320.75
426.735	1320.75
426.958	1445.75
427.18	1506.75
427.402	1373.75
427.625	1400.75
427.847	1370.75
428.069	1274.75
428.292	1261.75
428.514	1225.75
428.736	1201.75
428.958	1242.75
429.181	1291.75
429.403	1496.75
429.625	1750.75
429.847	1462.75
430.069	1299.75
430.292	1452.75
430.514	1439.75
430.736	1365.75
430.958	1412.75
431.18	1308.75
431.402	1264.75
431.624	1208.75
431.846	1210.75
432.068	1127.75
432.29	1177.75
432.512	1210.75
432.734	1280.75
432.956	1264.75
433.178	1334.75
433.4	1338.75
433.622	1321.75
433.844	1254.75
434.066	1195.75
434.287	1174.75
434.509	1246.75
434.731	1322.75
434.953	1363.75
435.175	1351.75
435.397	1300.75
435.618	1262.75
435.84	1253.75
436.062	1227.75
436.284	1243.75
436.505	1312.75
436.727	1334.75
436.949	1253.75
437.17	1261.75
437.392	1256.75
437.614	1203.75
437.835	1208.75
438.057	1212.75
438.278	1261.75
438.5	1225.75
438.721	1203.75
438.943	1230.75
439.165	1233.75
439.386	1233.75
439.608	1253.75
439.829	1234.75
440.05	1270.75
440.272	1261.75
440.493	1252.75
440.715	1282.75
440.936	1348.75
441.158	1417.75
441.379	1389.75
441.6	1331.75
441.822	1340.75
442.043	1318.75
442.264	1335.75
442.486	1252.75
442.707	1295.75
442.928	1275.75
443.149	1293.75
443.371	1373.75
443.592	1395.75
443.813	1360.75
444.034	1367.75
444.255	1357.75
444.476	1394.75
444.698	1414.75
444.919	1409.75
445.14	1456.75
445.361	1453.75
445.582	1438.75
445.803	1401.75
446.024	1356.75
446.245	1421.75
446.466	1392.75
446.687	1303.75
446.908	1326.75
447.129	1319.75
447.35	1344.75
447.571	1269.75
447.792	1226.75
448.013	1213.75
448.234	1296.75
448.455	1325.75
448.675	1305.75
448.896	1204.75
449.117	1201.75
449.338	1217.75
449.559	1249.75
449.779	1317.75
450	1419.75
450.221	1506.75
450.442	1416.75
450.662	1276.75
450.883	1169.75
451.104	1189.75
451.324	1173.75
451.545	1228.75
451.766	1203.75
451.986	1139.75
452.207	1136.75
452.428	1084.75
452.648	1100.75
452.869	1129.75
453.089	1145.75
453.31	1141.75
453.53	1185.75
453.751	1120.75
453.971	1042.75
454.192	1128.75
454.412	1141.75
454.633	1158.75
454.853	1113.75
455.073	1069.75
455.294	1062.75
455.514	1060.75
455.734	1081.75
455.955	1092.75
456.175	1067.75
456.395	1043.75
456.616	1106.75
456.836	1149.75
457.056	1107.75
457.276	1085.75
457.497	1032.75
457.717	1013.75
457.937	1047.75
458.157	1069.75
458.377	1038.75
458.598	1043.75
458.818	1051.75
459.038	1107.75
459.258	1149.75
459.478	1167.75
459.698	1108.75
459.918	1167.75
460.138	1222.75
460.358	1276.75
460.578	1233.75
460.798	1309.75
461.018	1335.75
461.238	1299.75
461.458	1282.75
461.678	1250.75
461.898	1225.75
462.118	1188.75
462.338	1266.75
462.558	1274.75
462.777	1291.75
462.997	1370.75
463.217	1364.75
463.437	1345.75
463.657	1308.75
463.876	1252.75
464.096	1231.75
464.316	1294.75
464.536	1300.75
464.755	1304.75
464.975	1291.75
465.195	1280.75
465.414	1309.75
465.634	1296.75
465.854	1325.75
466.073	1364.75
466.293	1364.75
466.512	1217.75
466.732	1231.75
466.951	1224.75
467.171	1219.75
467.391	1207.75
467.61	1195.75
467.829	1227.75
468.049	1359.75
468.268	1458.75
468.488	1316.75
468.707	1265.75
468.927	1252.75
469.146	1208.75
469.365	1219.75
469.585	1227.75
469.804	1237.75
470.023	1228.75
470.243	1244.75
470.462	1232.75
470.681	1235.75
470.901	1237.75
471.12	1274.75
471.339	1214.75
471.558	1205.75
471.777	1171.75
471.997	1202.75
472.216	1186.75
472.435	1139.75
472.654	1126.75
472.873	1170.75
473.092	1229.75
473.311	1212.75
473.53	1126.75
473.749	1152.75
473.968	1184.75
474.187	1194.75
474.406	1228.75
474.625	1213.75
474.844	1202.75
475.063	1192.75
475.282	1205.75
475.501	1207.75
475.72	1194.75
475.939	1318.75
476.158	1254.75
476.377	1200.75
476.596	1177.75
476.814	1210.75
477.033	1186.75
477.252	1268.75
477.471	1313.75
477.69	1272.75
477.908	1277.75
478.127	1328.75
478.346	1448.75
478.564	1428.75
478.783	1402.75
479.002	1473.75
479.22	1401.75
479.439	1447.75
479.658	1576.75
479.876	1498.75
480.095	1394.75
480.313	1341.75
480.532	1304.75
480.751	1307.75
480.969	1288.75
481.188	1251.75
481.406	1238.75
481.624	1230.75
481.843	1268.75
482.061	1323.75
482.28	1316.75
482.498	1334.75
482.717	1317.75
482.935	1317.75
483.153	1368.75
483.372	1365.75
483.59	1364.75
483.808	1337.75
484.027	1363.75
484.245	1442.75
484.463	1730.75
484.681	1866.75
484.9	1490.75
485.118	1403.75
485.336	1360.75
485.554	1364.75
485.772	1401.75
485.99	1330.75
486.209	1402.75
486.427	1399.75
486.645	1390.75
486.863	1428.75
487.081	1480.75
487.299	1456.75
487.517	1392.75
487.735	1449.75
487.953	1474.75
488.171	1486.75
488.389	1454.75
488.607	1457.75
488.825	1593.75
489.043	1537.75
489.261	1395.75
489.479	1444.75
489.696	1467.75
489.914	1454.75
490.132	1427.75
490.35	1450.75
490.568	1551.75
490.786	1526.75
491.003	1469.75
491.221	1563.75
491.439	1602.75
491.657	1588.75
491.874	1640.75
492.092	1664.75
492.31	1714.75
492.527	1673.75
492.745	1648.75
492.963	1556.75
493.18	1626.75
493.398	1712.75
493.615	1735.75
493.833	1564.75
494.05	1545.75
494.268	1551.75
494.485	1561.75
494.703	1563.75
494.92	1561.75
495.138	1557.75
495.355	1560.75
495.573	1608.75
495.79	1668.75
496.008	1693.75
496.225	1602.75
496.442	1613.75
496.66	1626.75
496.877	1600.75
497.094	1680.75
497.312	1659.75
497.529	1657.75
497.746	1658.75
497.963	1849.75
498.181	1961.75
498.398	1892.75
498.615	1852.75
498.832	1804.75
499.049	1754.75
499.267	1801.75
499.484	1905.75
499.701	2080.75
499.918	2091.75
500.135	2239.75
500.352	2352.75
500.569	2357.75
500.786	2579.75
501.003	2323.75
501.22	2129.75
501.437	2080.75
501.654	2082.75
501.871	2035.75
502.088	1769.75
502.305	1754.75
502.522	1707.75
502.739	1594.75
502.956	1564.75
503.172	1568.75
503.389	1562.75
503.606	1499.75
503.823	1457.75
504.04	1458.75
504.256	1496.75
504.473	1477.75
504.69	1552.75
504.907	1441.75
505.123	1403.75
505.34	1554.75
505.557	2029.75
505.773	1658.75
505.99	1393.75
506.207	1315.75
506.423	1296.75
506.64	1304.75
506.856	1329.75
507.073	1499.75
507.289	1550.75
507.506	1468.75
507.722	1291.75
507.939	1228.75
508.155	1216.75
508.372	1261.75
508.588	1177.75
508.805	1195.75
509.021	1160.75
509.238	1152.75
509.454	1134.75
509.67	1170.75
509.887	1156.75
510.103	1123.75
510.319	1139.75
510.536	1214.75
510.752	1214.75
510.968	1230.75
511.184	1275.75
511.401	1214.75
511.617	1109.75
511.833	1085.75
512.049	1068.75
512.265	1107.75
512.481	1111.75
512.698	1146.75
512.914	1195.75
513.13	1165.75
513.346	1125.75
513.562	1100.75
513.778	1099.75
513.994	1220.75
514.21	1185.75
514.426	1216.75
514.642	1354.75
514.858	1239.75
515.074	1140.75
515.29	1115.75
515.506	1156.75
515.721	1170.75
515.937	1161.75
516.153	1344.75
516.369	1228.75
516.585	1160.75
516.801	1162.75
517.016	1150.75
517.232	1224.75
517.448	1221.75
517.664	1214.75
517.879	1230.75
518.095	1281.75
518.311	1230.75
518.527	1162.75
518.742	1173.75
518.958	1146.75
519.173	1136.75
519.389	1156.75
519.605	1179.75
519.82	1189.75
520.036	1176.75
520.251	1188.75
520.467	1167.75
520.682	1247.75
520.898	1248.75
521.113	1138.75
521.329	1126.75
521.544	1184.75
521.76	1137.75
521.975	1084.75
522.19	1092.75
522.406	1116.75
522.621	1419.75
522.836	1340.75
523.052	1107.75
523.267	1078.75
523.482	1141.75
523.698	1080.75
523.913	1056.75
524.128	1091.75
524.343	1162.75
524.559	1156.75
524.774	1126.75
524.989	1115.75
525.204	1070.75
525.419	1073.75
525.634	1047.75
525.849	1074.75
526.064	1084.75
526.28	1089.75
526.495	1017.75
526.71	998.75
526.925	1009.75
527.14	995.75
527.355	970.75
527.57	977.75
527.785	1003.75
527.999	1008.75
528.214	990.75
528.429	996.75
528.644	1029.75
528.859	1065.75
529.074	1069.75
529.289	1112.75
529.503	1123.75
529.718	1093.75
529.933	1000.75
530.148	977.75
530.363	977.75
530.577	982.75
530.792	968.75
531.007	983.75
531.221	980.75
531.436	1008.75
531.651	1004.75
531.865	1080.75
532.08	999.75
532.295	992.75
532.509	947.75
532.724	948.75
532.938	996.75
533.153	1052.75
533.367	1044.75
533.582	1063.75
533.796	1034.75
534.011	1020.75
534.225	1008.75
534.44	951.75
534.654	973.75
534.868	983.75
535.083	1009.75
535.297	1063.75
535.511	1002.75
535.726	1000.75
535.94	1021.75
536.154	976.75
536.369	932.75
536.583	921.75
536.797	956.75
537.011	953.75
537.225	935.75
537.44	945.75
537.654	990.75
537.868	945.75
538.082	914.75
538.296	895.75
538.51	936.75
538.724	945.75
538.938	960.75
539.153	991.75
539.367	993.75
539.581	978.75
539.795	999.75
540.009	973.75
540.222	938.75
540.436	948.75
540.65	1063.75
540.864	1099.75
541.078	1024.75
541.292	1034.75
541.506	1089.75
541.72	1105.75
541.934	1101.75
542.147	1168.75
542.361	1133.75
542.575	1084.75
542.789	1030.75
543.002	989.75
543.216	1008.75
543.43	1024.75
543.644	1043.75
543.857	1122.75
544.071	1117.75
544.285	1086.75
544.498	1090.75
544.712	1078.75
544.925	1112.75
545.139	1146.75
545.352	1101.75
545.566	1056.75
545.779	1035.75
545.993	1090.75
546.206	1108.75
546.42	1060.75
546.633	1068.75
546.847	1059.75
547.06	1106.75
547.274	1076.75
547.487	1073.75
547.7	1086.75
547.914	1068.75
548.127	1094.75
548.34	1122.75
548.554	1069.75
548.767	1055.75
548.98	1054.75
549.193	1078.75
549.407	1099.75
549.62	1083.75
549.833	1062.75
550.046	1058.75
550.259	1027.75
550.473	1044.75
550.686	1041.75
550.899	1024.75
551.112	995.75
551.325	960.75
551.538	1050.75
551.751	1129.75
551.964	915.75
552.177	932.75
552.39	963.75
552.603	1025.75
552.816	994.75
553.029	1054.75
553.242	1072.75
553.455	1072.75
553.667	1015.75
553.88	1022.75
554.093	1017.75
554.306	993.75
554.519	976.75
554.732	972.75
554.944	962.75
555.157	984.75
555.37	958.75
555.583	925.75
555.795	911.75
556.008	913.75
556.221	849.75
556.433	881.75
556.646	888.75
556.859	872.75
557.071	869.75
557.284	854.75
557.496	864.75
557.709	867.75
557.921	888.75
558.134	865.75
558.346	852.75
558.559	858.75
558.771	856.75
558.984	817.75
559.196	809.75
559.409	794.75
559.621	797.75
559.833	790.75
560.046	842.75
560.258	793.75
560.47	826.75
560.683	853.75
560.895	828.75
561.107	844.75
561.32	839.75
561.532	828.75
561.744	828.75
561.956	824.75
562.168	802.75
562.381	796.75
562.593	778.75
562.805	764.75
563.017	770.75
563.229	788.75
563.441	816.75
563.653	751.75
563.865	780.75
564.077	749.75
564.289	796.75
564.501	796.75
564.713	844.75
564.925	841.75
565.137	883.75
565.349	802.75
565.561	804.75
565.773	789.75
565.985	821.75
566.197	868.75
566.408	886.75
566.62	906.75
566.832	914.75
567.044	931.75
567.255	902.75
567.467	925.75
567.679	942.75
567.891	927.75
568.102	891.75
568.314	838.75
568.526	808.75
568.737	772.75
568.949	739.75
569.161	712.75
569.372	700.75
569.584	697.75
569.795	704.75
570.007	705.75
570.218	649.75
570.43	628.75
570.641	649.75
570.853	673.75
571.064	652.75
571.276	659.75
571.487	658.75
571.698	668.75
571.91	629.75
572.121	617.75
572.333	600.75
572.544	603.75
572.755	575.75
572.966	589.75
573.178	573.75
573.389	586.75
573.6	610.75
573.811	650.75
574.023	571.75
574.234	584.75
574.445	575.75
574.656	561.75
574.867	568.75
575.078	577.75
575.289	568.75
575.501	573.75
575.712	536.75
575.923	545.75
576.134	573.75
576.345	562.75
576.556	563.75
576.767	552.75
576.978	538.75
577.188	532.75
577.399	522.75
577.61	524.75
577.821	527.75
578.032	525.75
578.243	520.75
578.454	524.75
578.665	493.75
578.875	526.75
579.086	481.75
579.297	482.75
579.508	497.75
579.718	508.75
579.929	501.75
580.14	515.75
580.35	494.75
580.561	512.75
580.772	554.75
580.982	518.75
581.193	499.75
581.403	497.75
581.614	487.75
581.825	477.75
582.035	484.75
582.246	476.75
582.456	506.75
582.667	477.75
582.877	463.75
583.087	467.75
583.298	463.75
583.508	455.75
583.719	450.75
583.929	474.75
584.139	475.75
584.35	460.75
584.56	459.75
584.77	458.75
584.981	474.75
585.191	480.75
585.401	508.75
585.611	468.75
585.821	476.75
586.032	430.75
586.242	451.75
586.452	448.75
586.662	468.75
586.872	473.75
587.082	455.75
587.292	455.75
587.502	461.75
587.713	458.75
587.923	458.75
588.133	446.75
588.343	466.75
588.553	458.75
588.762	455.75
588.972	454.75
589.182	465.75
589.392	450.75
589.602	456.75
589.812	463.75
590.022	434.75
590.232	440.75
590.441	435.75
590.651	449.75
590.861	450.75
591.071	424.75
591.281	434.75
591.49	432.75
591.7	432.75
591.91	441.75
592.119	425.75
592.329	460.75
592.539	453.75
592.748	455.75
592.958	449.75
593.167	461.75
593.377	458.75
593.587	490.75
593.796	468.75
594.006	468.75
594.215	458.75
594.424	462.75
594.634	469.75
594.843	466.75
595.053	483.75
595.262	441.75
595.472	436.75
595.681	452.75
595.89	429.75
596.1	420.75
596.309	446.75
596.518	432.75
596.727	424.75
596.937	450.75
597.146	411.75
597.355	412.75
597.564	411.75
597.774	409.75
597.983	381.75
598.192	399.75
598.401	388.75
598.61	391.75
598.819	391.75
599.028	385.75
599.237	392.75
599.446	410.75
599.655	386.75
599.864	390.75
600.073	380.75
600.282	396.75
600.491	389.75
600.7	382.75
600.909	380.75
601.118	400.75
601.327	409.75
601.536	440.75
601.745	414.75
601.953	413.75
602.162	406.75
602.371	415.75
602.58	433.75
602.789	405.75
602.997	414.75
603.206	426.75
603.415	409.75
603.623	417.75
603.832	398.75
604.041	402.75
604.249	393.75
604.458	392.75
604.666	379.75
604.875	384.75
605.084	416.75
605.292	417.75
605.501	422.75
605.709	414.75
605.918	414.75
606.126	402.75
606.334	395.75
606.543	378.75
606.751	423.75
606.96	420.75
607.168	420.75
607.376	409.75
607.585	407.75
607.793	405.75
608.001	406.75
608.21	398.75
608.418	404.75
608.626	410.75
608.834	396.75
609.043	412.75
609.251	416.75
609.459	396.75
609.667	402.75
609.875	407.75
610.083	414.75
610.291	417.75
610.499	427.75
610.707	407.75
610.916	408.75
611.124	407.75
611.332	412.75
611.54	385.75
611.748	389.75
611.955	421.75
612.163	394.75
612.371	386.75
612.579	384.75
612.787	403.75
612.995	374.75
613.203	389.75
613.411	380.75
613.618	404.75
613.826	417.75
614.034	406.75
614.242	402.75
614.449	393.75
614.657	378.75
614.865	372.75
615.072	388.75
615.28	403.75
615.488	391.75
615.695	387.75
615.903	412.75
616.111	414.75
616.318	402.75
616.526	383.75
616.733	398.75
616.941	379.75
617.148	394.75
617.356	397.75
617.563	379.75
617.771	391.75
617.978	359.75
618.185	371.75
618.393	368.75
618.6	390.75
618.807	372.75
619.015	378.75
619.222	374.75
619.429	368.75
619.637	367.75
619.844	335.75
620.051	348.75
620.258	352.75
620.466	355.75
620.673	361.75
620.88	350.75
621.087	333.75
621.294	342.75
621.501	332.75
621.708	343.75
621.915	357.75
622.122	357.75
622.329	370.75
622.536	352.75
622.743	356.75
622.95	352.75
623.157	340.75
623.364	348.75
623.571	358.75
623.778	353.75
623.985	368.75
624.192	352.75
624.399	349.75
624.606	341.75
624.812	331.75
625.019	346.75
625.226	337.75
625.433	338.75
625.639	332.75
625.846	313.75
626.053	324.75
626.259	284.75
626.466	305.75
626.673	288.75
626.879	293.75
627.086	304.75
627.293	312.75
627.499	310.75
627.706	310.75
627.912	320.75
628.119	320.75
628.325	315.75
628.532	314.75
628.738	306.75
628.945	306.75
629.151	305.75
629.357	306.75
629.564	312.75
629.77	307.75
629.976	310.75
630.183	290.75
630.389	308.75
630.595	300.75
630.802	293.75
631.008	306.75
631.214	299.75
631.42	294.75
631.627	289.75
631.833	296.75
632.039	295.75
632.245	296.75
632.451	302.75
632.657	287.75
632.863	300.75
633.069	301.75
633.275	295.75
633.481	278.75
633.688	296.75
633.893	298.75
634.099	258.75
634.305	286.75
634.511	291.75
634.717	263.75
634.923	260.75
635.129	245.75
635.335	268.75
635.541	276.75
635.747	286.75
635.952	267.75
636.158	301.75
636.364	283.75
636.57	285.75
636.775	286.75
636.981	274.75
637.187	279.75
637.392	285.75
637.598	289.75
637.804	286.75
638.009	271.75
638.215	288.75
638.421	286.75
638.626	277.75
638.832	265.75
639.037	284.75
639.243	276.75
639.448	263.75
639.654	285.75
639.859	286.75
640.065	251.75
640.27	246.75
640.475	275.75
640.681	282.75
640.886	266.75
641.091	273.75
641.297	264.75
641.502	277.75
641.707	257.75
641.913	268.75
642.118	261.75
642.323	266.75
642.528	259.75
642.733	268.75
642.939	264.75
643.144	266.75
643.349	273.75
643.554	258.75
643.759	262.75
643.964	256.75
644.169	269.75
644.374	274.75
644.579	257.75
644.784	263.75
644.989	275.75
645.194	263.75
645.399	273.75
645.604	253.75
645.809	260.75
646.014	272.75
646.219	262.75
646.423	258.75
646.628	271.75
646.833	267.75
647.038	258.75
647.243	263.75
647.447	272.75
647.652	268.75
647.857	249.75
648.062	244.75
648.266	263.75
648.471	261.75
648.676	267.75
648.88	269.75
649.085	233.75
649.289	265.75
649.494	253.75
649.698	250.75
649.903	255.75
650.107	264.75
650.312	267.75
650.516	244.75
650.721	243.75
650.925	258.75
651.13	266.75
651.334	251.75
651.539	243.75
651.743	254.75
651.947	235.75
652.152	230.75
652.356	235.75
652.56	230.75
652.764	219.75
652.969	214.75
653.173	244.75
653.377	233.75
653.581	228.75
653.785	221.75
653.99	244.75
654.194	226.75
654.398	209.75
654.602	224.75
654.806	226.75
655.01	216.75
655.214	215.75
655.418	220.75
655.622	215.75
655.826	228.75
656.03	232.75
656.234	241.75
656.438	249.75
656.642	272.75
656.846	244.75
657.049	240.75
657.253	227.75
657.457	210.75
657.661	194.75
657.865	185.75
658.068	188.75
658.272	170.75
658.476	161.75
658.68	161.75
658.883	165.75
659.087	135.75
659.291	140.75
659.494	150.75
659.698	122.75
659.901	135.75
660.105	131.75
660.309	133.75
660.512	129.75
660.716	133.75
660.919	132.75
661.123	123.75
661.326	102.75
661.53	118.75
661.733	105.75
661.936	115.75
662.14	101.75
662.343	106.75
662.546	109.75
662.75	81.75
662.953	94.75
663.156	91.75
663.36	88.75
663.563	97.75
663.766	99.75
663.969	92.75
664.173	99.75
664.376	87.75
664.579	94.75
664.782	91.75
664.985	96.75
665.188	91.75
665.391	88.75
665.594	94.75
665.797	84.75
666	76.75
666.203	83.75
666.406	77.75
666.609	86.75
666.812	81.75
667.015	81.75
667.218	81.75
667.421	85.75
667.624	76.75
667.827	93.75
668.03	86.75
668.232	90.75
668.435	82.75
668.638	89.75
668.841	85.75
669.043	85.75
669.246	72.75
669.449	74.75
669.651	89.75
669.854	83.75
670.057	89.75
670.259	75.75
670.462	93.75
670.665	74.75
670.867	90.75
671.07	91.75
671.272	81.75
671.475	78.75
671.677	78.75
671.88	81.75
672.082	92.75
672.284	76.75
672.487	71.75
672.689	74.75
672.892	82.75
