Data from WStandard_LampEnergy8_LIBS07252019.E.O._I.C._HRD10591_15-59-45-929.txt Node
Date: Thu Jul 25 15:59:45 EDT 2019
User: cochatt
Spectrometer: HR+D1059
Trigger mode: 1
Integration Time (sec): 1.000000E-1
Scans to average: 1
Electric dark correction enabled: true
Nonlinearity correction enabled: false
Boxcar width: 0
XAxis mode: Wavelengths
Number of Pixels in Spectrum: 2048
>>>>>Begin Spectral Data<<<<<
223.165	-25.19
223.4	-25.19
223.635	-25.19
223.869	-17.19
224.104	-18.19
224.338	-22.19
224.573	-18.19
224.808	-5.19
225.042	-18.19
225.277	-12.19
225.511	4.81
225.746	8.81
225.98	-8.19
226.215	6.81
226.449	19.81
226.683	29.81
226.918	38.81
227.152	35.81
227.387	38.81
227.621	41.81
227.856	43.81
228.09	49.81
228.324	45.81
228.559	60.81
228.793	107.81
229.027	207.81
229.262	210.81
229.496	239.81
229.73	231.81
229.964	251.81
230.199	255.81
230.433	275.81
230.667	274.81
230.901	296.81
231.136	281.81
231.37	265.81
231.604	253.81
231.838	275.81
232.072	269.81
232.306	243.81
232.541	279.81
232.775	307.81
233.009	307.81
233.243	294.81
233.477	299.81
233.711	295.81
233.945	305.81
234.179	318.81
234.413	326.81
234.647	336.81
234.881	318.81
235.115	285.81
235.349	309.81
235.583	314.81
235.817	309.81
236.051	294.81
236.285	299.81
236.519	336.81
236.753	357.81
236.987	370.81
237.221	353.81
237.455	391.81
237.689	375.81
237.922	347.81
238.156	341.81
238.39	356.81
238.624	359.81
238.858	397.81
239.091	433.81
239.325	423.81
239.559	461.81
239.793	470.81
240.027	528.81
240.26	491.81
240.494	402.81
240.728	369.81
240.961	381.81
241.195	401.81
241.429	418.81
241.662	414.81
241.896	394.81
242.13	392.81
242.363	439.81
242.597	486.81
242.83	455.81
243.064	458.81
243.298	474.81
243.531	507.81
243.765	472.81
243.998	452.81
244.232	420.81
244.465	398.81
244.699	416.81
244.932	463.81
245.166	505.81
245.399	490.81
245.633	455.81
245.866	445.81
246.099	470.81
246.333	491.81
246.566	506.81
246.8	524.81
247.033	594.81
247.266	536.81
247.5	525.81
247.733	555.81
247.966	575.81
248.2	620.81
248.433	617.81
248.666	636.81
248.899	663.81
249.133	729.81
249.366	828.81
249.599	663.81
249.832	618.81
250.066	616.81
250.299	633.81
250.532	601.81
250.765	526.81
250.998	564.81
251.231	605.81
251.465	597.81
251.698	576.81
251.931	599.81
252.164	595.81
252.397	632.81
252.63	612.81
252.863	561.81
253.096	545.81
253.329	570.81
253.562	582.81
253.795	652.81
254.028	611.81
254.261	590.81
254.494	559.81
254.727	549.81
254.96	586.81
255.193	657.81
255.426	712.81
255.659	803.81
255.892	782.81
256.124	642.81
256.357	646.81
256.59	716.81
256.823	704.81
257.056	714.81
257.289	842.81
257.521	906.81
257.754	827.81
257.987	781.81
258.22	830.81
258.452	791.81
258.685	693.81
258.918	682.81
259.151	681.81
259.383	643.81
259.616	617.81
259.849	636.81
260.081	700.81
260.314	780.81
260.547	831.81
260.779	836.81
261.012	776.81
261.244	729.81
261.477	682.81
261.71	675.81
261.942	705.81
262.175	678.81
262.407	721.81
262.64	663.81
262.872	637.81
263.105	620.81
263.337	635.81
263.57	643.81
263.802	637.81
264.035	626.81
264.267	572.81
264.499	563.81
264.732	629.81
264.964	650.81
265.197	667.81
265.429	714.81
265.661	781.81
265.894	870.81
266.126	865.81
266.358	797.81
266.591	808.81
266.823	863.81
267.055	774.81
267.287	769.81
267.52	742.81
267.752	763.81
267.984	765.81
268.216	807.81
268.448	812.81
268.681	801.81
268.913	742.81
269.145	703.81
269.377	699.81
269.609	759.81
269.841	882.81
270.073	995.81
270.306	1122.81
270.538	1093.81
270.77	932.81
271.002	862.81
271.234	815.81
271.466	833.81
271.698	903.81
271.93	1079.81
272.162	1038.81
272.394	963.81
272.626	877.81
272.858	803.81
273.09	713.81
273.322	722.81
273.553	668.81
273.785	714.81
274.017	713.81
274.249	779.81
274.481	760.81
274.713	710.81
274.945	691.81
275.176	697.81
275.408	693.81
275.64	686.81
275.872	695.81
276.104	740.81
276.335	809.81
276.567	940.81
276.799	911.81
277.031	846.81
277.262	810.81
277.494	841.81
277.726	917.81
277.957	893.81
278.189	837.81
278.421	753.81
278.652	748.81
278.884	741.81
279.115	725.81
279.347	767.81
279.579	741.81
279.81	745.81
280.042	804.81
280.273	898.81
280.505	907.81
280.736	902.81
280.968	847.81
281.199	749.81
281.431	725.81
281.662	739.81
281.894	736.81
282.125	729.81
282.356	753.81
282.588	787.81
282.819	798.81
283.051	846.81
283.282	874.81
283.513	830.81
283.745	780.81
283.976	719.81
284.207	725.81
284.439	737.81
284.67	742.81
284.901	781.81
285.132	790.81
285.364	781.81
285.595	782.81
285.826	772.81
286.057	761.81
286.288	768.81
286.52	795.81
286.751	857.81
286.982	854.81
287.213	784.81
287.444	764.81
287.675	739.81
287.906	787.81
288.138	841.81
288.369	785.81
288.6	774.81
288.831	746.81
289.062	764.81
289.293	758.81
289.524	770.81
289.755	804.81
289.986	777.81
290.217	726.81
290.448	727.81
290.679	774.81
290.91	793.81
291.141	790.81
291.371	840.81
291.602	845.81
291.833	829.81
292.064	839.81
292.295	825.81
292.526	852.81
292.757	848.81
292.987	852.81
293.218	813.81
293.449	888.81
293.68	962.81
293.91	1017.81
294.141	939.81
294.372	925.81
294.603	929.81
294.833	980.81
295.064	922.81
295.295	841.81
295.525	794.81
295.756	765.81
295.987	741.81
296.217	771.81
296.448	753.81
296.679	781.81
296.909	802.81
297.14	798.81
297.37	804.81
297.601	870.81
297.831	893.81
298.062	889.81
298.292	842.81
298.523	780.81
298.753	801.81
298.984	805.81
299.214	824.81
299.445	827.81
299.675	857.81
299.905	867.81
300.136	814.81
300.366	796.81
300.597	793.81
300.827	796.81
301.057	812.81
301.288	855.81
301.518	854.81
301.748	897.81
301.979	937.81
302.209	938.81
302.439	1011.81
302.669	979.81
302.9	935.81
303.13	845.81
303.36	833.81
303.59	873.81
303.82	854.81
304.051	873.81
304.281	896.81
304.511	891.81
304.741	961.81
304.971	1026.81
305.201	1083.81
305.431	949.81
305.661	823.81
305.891	765.81
306.121	771.81
306.352	804.81
306.582	853.81
306.812	920.81
307.042	958.81
307.272	979.81
307.502	1042.81
307.731	1085.81
307.961	1110.81
308.191	1037.81
308.421	897.81
308.651	852.81
308.881	825.81
309.111	847.81
309.341	868.81
309.571	881.81
309.8	851.81
310.03	825.81
310.26	806.81
310.49	820.81
310.72	867.81
310.949	901.81
311.179	866.81
311.409	878.81
311.639	888.81
311.868	813.81
312.098	851.81
312.328	859.81
312.557	843.81
312.787	866.81
313.017	866.81
313.246	866.81
313.476	893.81
313.706	887.81
313.935	877.81
314.165	907.81
314.394	931.81
314.624	991.81
314.853	1053.81
315.083	1053.81
315.312	1060.81
315.542	980.81
315.771	920.81
316.001	947.81
316.23	974.81
316.46	959.81
316.689	928.81
316.919	892.81
317.148	879.81
317.377	893.81
317.607	971.81
317.836	1047.81
318.065	1094.81
318.295	1053.81
318.524	1006.81
318.753	976.81
318.983	975.81
319.212	937.81
319.441	915.81
319.67	910.81
319.9	963.81
320.129	1025.81
320.358	1020.81
320.587	1075.81
320.816	1067.81
321.046	1043.81
321.275	940.81
321.504	987.81
321.733	1069.81
321.962	1007.81
322.191	955.81
322.42	928.81
322.649	904.81
322.878	926.81
323.108	961.81
323.337	968.81
323.566	974.81
323.795	978.81
324.024	958.81
324.253	964.81
324.482	942.81
324.71	921.81
324.939	859.81
325.168	920.81
325.397	949.81
325.626	977.81
325.855	912.81
326.084	936.81
326.313	951.81
326.542	917.81
326.77	996.81
326.999	936.81
327.228	900.81
327.457	882.81
327.686	890.81
327.914	914.81
328.143	940.81
328.372	935.81
328.6	924.81
328.829	918.81
329.058	919.81
329.287	899.81
329.515	934.81
329.744	974.81
329.972	1037.81
330.201	1068.81
330.43	1006.81
330.658	989.81
330.887	994.81
331.115	1003.81
331.344	1039.81
331.572	1013.81
331.801	1001.81
332.03	989.81
332.258	993.81
332.486	1042.81
332.715	1001.81
332.943	1013.81
333.172	1004.81
333.4	1019.81
333.629	1050.81
333.857	1114.81
334.085	1253.81
334.314	1380.81
334.542	1421.81
334.771	1285.81
334.999	1155.81
335.227	1099.81
335.455	1067.81
335.684	1079.81
335.912	1120.81
336.14	1137.81
336.369	1048.81
336.597	1018.81
336.825	1028.81
337.053	1048.81
337.281	1098.81
337.51	1205.81
337.738	1208.81
337.966	1139.81
338.194	1001.81
338.422	976.81
338.65	1002.81
338.878	967.81
339.106	964.81
339.334	960.81
339.562	960.81
339.79	982.81
340.018	1026.81
340.246	1078.81
340.474	1049.81
340.702	1037.81
340.93	1052.81
341.158	1022.81
341.386	1008.81
341.614	1003.81
341.842	996.81
342.07	989.81
342.298	985.81
342.526	988.81
342.754	971.81
342.981	980.81
343.209	993.81
343.437	974.81
343.665	982.81
343.893	1029.81
344.12	1067.81
344.348	1059.81
344.576	1011.81
344.804	987.81
345.031	987.81
345.259	980.81
345.487	953.81
345.714	915.81
345.942	925.81
346.17	946.81
346.397	950.81
346.625	934.81
346.853	853.81
347.08	892.81
347.308	912.81
347.535	931.81
347.763	960.81
347.99	926.81
348.218	909.81
348.445	925.81
348.673	934.81
348.9	946.81
349.128	1000.81
349.355	1024.81
349.583	954.81
349.81	945.81
350.037	870.81
350.265	858.81
350.492	866.81
350.72	911.81
350.947	979.81
351.174	965.81
351.402	878.81
351.629	875.81
351.856	851.81
352.083	882.81
352.311	891.81
352.538	895.81
352.765	940.81
352.992	950.81
353.22	937.81
353.447	899.81
353.674	893.81
353.901	947.81
354.128	913.81
354.355	915.81
354.583	942.81
354.81	980.81
355.037	947.81
355.264	953.81
355.491	938.81
355.718	949.81
355.945	929.81
356.172	914.81
356.399	886.81
356.626	894.81
356.853	946.81
357.08	1049.81
357.307	1130.81
357.534	1067.81
357.761	980.81
357.988	897.81
358.215	881.81
358.441	879.81
358.668	881.81
358.895	909.81
359.122	1012.81
359.349	1044.81
359.576	1003.81
359.802	923.81
360.029	901.81
360.256	895.81
360.483	922.81
360.709	922.81
360.936	973.81
361.163	985.81
361.39	1106.81
361.616	1188.81
361.843	1119.81
362.07	1043.81
362.296	937.81
362.523	921.81
362.749	928.81
362.976	953.81
363.203	980.81
363.429	919.81
363.656	906.81
363.882	965.81
364.109	1065.81
364.335	1099.81
364.562	1061.81
364.788	991.81
365.015	931.81
365.241	914.81
365.468	950.81
365.694	972.81
365.92	1026.81
366.147	953.81
366.373	932.81
366.599	891.81
366.826	899.81
367.052	908.81
367.278	930.81
367.505	975.81
367.731	950.81
367.957	985.81
368.184	1004.81
368.41	1059.81
368.636	1094.81
368.862	1095.81
369.089	1062.81
369.315	1045.81
369.541	957.81
369.767	964.81
369.993	933.81
370.219	908.81
370.445	979.81
370.672	1055.81
370.898	1070.81
371.124	1049.81
371.35	1002.81
371.576	1067.81
371.802	1059.81
372.028	1029.81
372.254	980.81
372.48	957.81
372.706	960.81
372.932	957.81
373.158	956.81
373.384	973.81
373.61	1016.81
373.835	1062.81
374.061	1007.81
374.287	993.81
374.513	980.81
374.739	1010.81
374.965	996.81
375.191	1026.81
375.416	1020.81
375.642	1058.81
375.868	1151.81
376.094	1096.81
376.319	1067.81
376.545	1025.81
376.771	1043.81
376.997	1075.81
377.222	1046.81
377.448	1027.81
377.674	1068.81
377.899	1062.81
378.125	1105.81
378.35	1082.81
378.576	998.81
378.802	990.81
379.027	968.81
379.253	1009.81
379.478	1010.81
379.704	982.81
379.929	967.81
380.155	1018.81
380.38	1010.81
380.606	1044.81
380.831	1035.81
381.057	1047.81
381.282	1084.81
381.507	1056.81
381.733	1094.81
381.958	1163.81
382.184	1073.81
382.409	1049.81
382.634	1077.81
382.86	1047.81
383.085	1043.81
383.31	1086.81
383.535	1175.81
383.761	1226.81
383.986	1179.81
384.211	1114.81
384.436	1140.81
384.662	1179.81
384.887	1231.81
385.112	1149.81
385.337	1170.81
385.562	1157.81
385.787	1103.81
386.013	1161.81
386.238	1167.81
386.463	1136.81
386.688	1247.81
386.913	1295.81
387.138	1270.81
387.363	1194.81
387.588	1191.81
387.813	1213.81
388.038	1199.81
388.263	1211.81
388.488	1153.81
388.713	1108.81
388.938	1113.81
389.163	1089.81
389.387	1142.81
389.612	1136.81
389.837	1157.81
390.062	1147.81
390.287	1142.81
390.512	1124.81
390.736	1111.81
390.961	1120.81
391.186	1090.81
391.411	1080.81
391.636	1134.81
391.86	1131.81
392.085	1120.81
392.31	1114.81
392.534	1145.81
392.759	1174.81
392.984	1138.81
393.208	1151.81
393.433	1179.81
393.658	1230.81
393.882	1229.81
394.107	1180.81
394.331	1157.81
394.556	1124.81
394.78	1165.81
395.005	1203.81
395.229	1253.81
395.454	1302.81
395.678	1283.81
395.903	1228.81
396.127	1205.81
396.352	1207.81
396.576	1234.81
396.801	1253.81
397.025	1236.81
397.249	1234.81
397.474	1220.81
397.698	1235.81
397.922	1311.81
398.147	1291.81
398.371	1387.81
398.595	1379.81
398.82	1311.81
399.044	1344.81
399.268	1393.81
399.492	1473.81
399.717	1513.81
399.941	1519.81
400.165	1474.81
400.389	1469.81
400.613	1466.81
400.837	1685.81
401.062	1845.81
401.286	1567.81
401.51	1437.81
401.734	1455.81
401.958	1427.81
402.182	1348.81
402.406	1307.81
402.63	1276.81
402.854	1283.81
403.078	1286.81
403.302	1324.81
403.526	1381.81
403.75	1363.81
403.974	1372.81
404.198	1377.81
404.422	1455.81
404.645	1497.81
404.869	1420.81
405.093	1314.81
405.317	1301.81
405.541	1358.81
405.765	1385.81
405.988	1382.81
406.212	1357.81
406.436	1427.81
406.66	1453.81
406.883	1467.81
407.107	1693.81
407.331	1814.81
407.555	1922.81
407.778	1690.81
408.002	1449.81
408.226	1433.81
408.449	1437.81
408.673	1405.81
408.896	1376.81
409.12	1400.81
409.344	1385.81
409.567	1352.81
409.791	1406.81
410.014	1388.81
410.238	1519.81
410.461	1548.81
410.685	1390.81
410.908	1349.81
411.132	1378.81
411.355	1369.81
411.578	1335.81
411.802	1309.81
412.025	1387.81
412.249	1362.81
412.472	1299.81
412.695	1293.81
412.919	1290.81
413.142	1317.81
413.365	1323.81
413.589	1329.81
413.812	1424.81
414.035	1444.81
414.258	1317.81
414.482	1325.81
414.705	1324.81
414.928	1323.81
415.151	1311.81
415.374	1319.81
415.597	1325.81
415.821	1350.81
416.044	1354.81
416.267	1370.81
416.49	1259.81
416.713	1300.81
416.936	1351.81
417.159	1374.81
417.382	1363.81
417.605	1310.81
417.828	1359.81
418.051	1350.81
418.274	1315.81
418.497	1300.81
418.72	1313.81
418.943	1289.81
419.166	1360.81
419.389	1372.81
419.611	1313.81
419.834	1291.81
420.057	1308.81
420.28	1295.81
420.503	1295.81
420.726	1324.81
420.948	1325.81
421.171	1271.81
421.394	1258.81
421.617	1329.81
421.839	1366.81
422.062	1346.81
422.285	1272.81
422.507	1248.81
422.73	1291.81
422.953	1235.81
423.175	1223.81
423.398	1272.81
423.621	1293.81
423.843	1308.81
424.066	1367.81
424.288	1421.81
424.511	1443.81
424.733	1348.81
424.956	1255.81
425.178	1241.81
425.401	1233.81
425.623	1270.81
425.846	1258.81
426.068	1356.81
426.291	1359.81
426.513	1341.81
426.735	1359.81
426.958	1422.81
427.18	1491.81
427.402	1394.81
427.625	1453.81
427.847	1367.81
428.069	1294.81
428.292	1275.81
428.514	1266.81
428.736	1235.81
428.958	1270.81
429.181	1289.81
429.403	1486.81
429.625	1756.81
429.847	1474.81
430.069	1317.81
430.292	1424.81
430.514	1427.81
430.736	1362.81
430.958	1403.81
431.18	1317.81
431.402	1231.81
431.624	1183.81
431.846	1201.81
432.068	1141.81
432.29	1158.81
432.512	1184.81
432.734	1253.81
432.956	1298.81
433.178	1345.81
433.4	1337.81
433.622	1334.81
433.844	1268.81
434.066	1234.81
434.287	1187.81
434.509	1232.81
434.731	1298.81
434.953	1359.81
435.175	1332.81
435.397	1285.81
435.618	1295.81
435.84	1230.81
436.062	1241.81
436.284	1307.81
436.505	1307.81
436.727	1330.81
436.949	1287.81
437.17	1309.81
437.392	1266.81
437.614	1201.81
437.835	1218.81
438.057	1224.81
438.278	1260.81
438.5	1212.81
438.721	1232.81
438.943	1248.81
439.165	1237.81
439.386	1209.81
439.608	1260.81
439.829	1238.81
440.05	1268.81
440.272	1235.81
440.493	1286.81
440.715	1250.81
440.936	1365.81
441.158	1427.81
441.379	1416.81
441.6	1405.81
441.822	1385.81
442.043	1331.81
442.264	1341.81
442.486	1295.81
442.707	1273.81
442.928	1304.81
443.149	1298.81
443.371	1368.81
443.592	1404.81
443.813	1357.81
444.034	1324.81
444.255	1391.81
444.476	1397.81
444.698	1411.81
444.919	1415.81
445.14	1538.81
445.361	1460.81
445.582	1478.81
445.803	1443.81
446.024	1402.81
446.245	1414.81
446.466	1410.81
446.687	1359.81
446.908	1335.81
447.129	1332.81
447.35	1311.81
447.571	1306.81
447.792	1266.81
448.013	1246.81
448.234	1279.81
448.455	1333.81
448.675	1293.81
448.896	1210.81
449.117	1211.81
449.338	1175.81
449.559	1279.81
449.779	1360.81
450	1441.81
450.221	1494.81
450.442	1421.81
450.662	1318.81
450.883	1200.81
451.104	1185.81
451.324	1186.81
451.545	1242.81
451.766	1215.81
451.986	1156.81
452.207	1139.81
452.428	1082.81
452.648	1084.81
452.869	1143.81
453.089	1137.81
453.31	1180.81
453.53	1156.81
453.751	1131.81
453.971	1091.81
454.192	1126.81
454.412	1195.81
454.633	1137.81
454.853	1119.81
455.073	1057.81
455.294	1053.81
455.514	1070.81
455.734	1082.81
455.955	1101.81
456.175	1089.81
456.395	1050.81
456.616	1082.81
456.836	1086.81
457.056	1088.81
457.276	1075.81
457.497	1060.81
457.717	1045.81
457.937	1058.81
458.157	1060.81
458.377	1024.81
458.598	1060.81
458.818	1070.81
459.038	1135.81
459.258	1139.81
459.478	1172.81
459.698	1114.81
459.918	1155.81
460.138	1221.81
460.358	1265.81
460.578	1251.81
460.798	1333.81
461.018	1329.81
461.238	1315.81
461.458	1265.81
461.678	1250.81
461.898	1246.81
462.118	1220.81
462.338	1262.81
462.558	1302.81
462.777	1297.81
462.997	1299.81
463.217	1396.81
463.437	1350.81
463.657	1322.81
463.876	1283.81
464.096	1272.81
464.316	1279.81
464.536	1291.81
464.755	1297.81
464.975	1333.81
465.195	1289.81
465.414	1341.81
465.634	1321.81
465.854	1320.81
466.073	1423.81
466.293	1374.81
466.512	1225.81
466.732	1207.81
466.951	1267.81
467.171	1255.81
467.391	1205.81
467.61	1175.81
467.829	1226.81
468.049	1351.81
468.268	1464.81
468.488	1333.81
468.707	1258.81
468.927	1214.81
469.146	1201.81
469.365	1227.81
469.585	1237.81
469.804	1231.81
470.023	1251.81
470.243	1255.81
470.462	1244.81
470.681	1223.81
470.901	1236.81
471.12	1260.81
471.339	1215.81
471.558	1222.81
471.777	1203.81
471.997	1239.81
472.216	1177.81
472.435	1141.81
472.654	1111.81
472.873	1197.81
473.092	1254.81
473.311	1219.81
473.53	1173.81
473.749	1188.81
473.968	1214.81
474.187	1239.81
474.406	1241.81
474.625	1231.81
474.844	1206.81
475.063	1237.81
475.282	1233.81
475.501	1170.81
475.72	1249.81
475.939	1291.81
476.158	1245.81
476.377	1174.81
476.596	1228.81
476.814	1211.81
477.033	1219.81
477.252	1289.81
477.471	1316.81
477.69	1309.81
477.908	1295.81
478.127	1390.81
478.346	1415.81
478.564	1438.81
478.783	1401.81
479.002	1483.81
479.22	1415.81
479.439	1501.81
479.658	1595.81
479.876	1540.81
480.095	1371.81
480.313	1341.81
480.532	1319.81
480.751	1303.81
480.969	1334.81
481.188	1258.81
481.406	1285.81
481.624	1236.81
481.843	1282.81
482.061	1335.81
482.28	1333.81
482.498	1319.81
482.717	1319.81
482.935	1318.81
483.153	1365.81
483.372	1385.81
483.59	1400.81
483.808	1393.81
484.027	1405.81
484.245	1444.81
484.463	1734.81
484.681	1840.81
484.9	1494.81
485.118	1419.81
485.336	1367.81
485.554	1389.81
485.772	1394.81
485.99	1370.81
486.209	1423.81
486.427	1374.81
486.645	1415.81
486.863	1446.81
487.081	1483.81
487.299	1451.81
487.517	1436.81
487.735	1465.81
487.953	1508.81
488.171	1504.81
488.389	1495.81
488.607	1487.81
488.825	1633.81
489.043	1541.81
489.261	1397.81
489.479	1494.81
489.696	1490.81
489.914	1497.81
490.132	1464.81
490.35	1471.81
490.568	1505.81
490.786	1499.81
491.003	1482.81
491.221	1554.81
491.439	1596.81
491.657	1587.81
491.874	1644.81
492.092	1677.81
492.31	1667.81
492.527	1659.81
492.745	1627.81
492.963	1601.81
493.18	1605.81
493.398	1705.81
493.615	1723.81
493.833	1609.81
494.05	1567.81
494.268	1563.81
494.485	1593.81
494.703	1563.81
494.92	1566.81
495.138	1547.81
495.355	1602.81
495.573	1626.81
495.79	1684.81
496.008	1689.81
496.225	1605.81
496.442	1634.81
496.66	1624.81
496.877	1634.81
497.094	1665.81
497.312	1661.81
497.529	1618.81
497.746	1669.81
497.963	1882.81
498.181	1973.81
498.398	1903.81
498.615	1854.81
498.832	1816.81
499.049	1805.81
499.267	1769.81
499.484	1945.81
499.701	2051.81
499.918	2051.81
500.135	2239.81
500.352	2372.81
500.569	2387.81
500.786	2564.81
501.003	2385.81
501.22	2116.81
501.437	2042.81
501.654	2133.81
501.871	2058.81
502.088	1825.81
502.305	1768.81
502.522	1704.81
502.739	1605.81
502.956	1595.81
503.172	1553.81
503.389	1547.81
503.606	1523.81
503.823	1493.81
504.04	1523.81
504.256	1536.81
504.473	1501.81
504.69	1545.81
504.907	1472.81
505.123	1426.81
505.34	1561.81
505.557	2041.81
505.773	1650.81
505.99	1390.81
506.207	1351.81
506.423	1300.81
506.64	1286.81
506.856	1343.81
507.073	1521.81
507.289	1609.81
507.506	1512.81
507.722	1299.81
507.939	1253.81
508.155	1259.81
508.372	1270.81
508.588	1227.81
508.805	1204.81
509.021	1142.81
509.238	1184.81
509.454	1209.81
509.67	1179.81
509.887	1162.81
510.103	1152.81
510.319	1160.81
510.536	1219.81
510.752	1269.81
510.968	1211.81
511.184	1305.81
511.401	1243.81
511.617	1134.81
511.833	1100.81
512.049	1126.81
512.265	1121.81
512.481	1119.81
512.698	1151.81
512.914	1221.81
513.13	1166.81
513.346	1127.81
513.562	1090.81
513.778	1134.81
513.994	1177.81
514.21	1186.81
514.426	1231.81
514.642	1317.81
514.858	1263.81
515.074	1146.81
515.29	1137.81
515.506	1179.81
515.721	1181.81
515.937	1179.81
516.153	1304.81
516.369	1269.81
516.585	1203.81
516.801	1154.81
517.016	1164.81
517.232	1211.81
517.448	1245.81
517.664	1243.81
517.879	1208.81
518.095	1309.81
518.311	1235.81
518.527	1183.81
518.742	1172.81
518.958	1143.81
519.173	1141.81
519.389	1190.81
519.605	1165.81
519.82	1197.81
520.036	1167.81
520.251	1163.81
520.467	1198.81
520.682	1252.81
520.898	1274.81
521.113	1181.81
521.329	1122.81
521.544	1205.81
521.76	1129.81
521.975	1138.81
522.19	1083.81
522.406	1122.81
522.621	1373.81
522.836	1316.81
523.052	1115.81
523.267	1131.81
523.482	1150.81
523.698	1086.81
523.913	1055.81
524.128	1090.81
524.343	1159.81
524.559	1178.81
524.774	1085.81
524.989	1060.81
525.204	1100.81
525.419	1042.81
525.634	1064.81
525.849	1083.81
526.064	1050.81
526.28	1045.81
526.495	1012.81
526.71	1028.81
526.925	1019.81
527.14	986.81
527.355	949.81
527.57	997.81
527.785	1028.81
527.999	1006.81
528.214	992.81
528.429	1005.81
528.644	1015.81
528.859	1077.81
529.074	1067.81
529.289	1113.81
529.503	1118.81
529.718	1107.81
529.933	1027.81
530.148	998.81
530.363	981.81
530.577	983.81
530.792	995.81
531.007	979.81
531.221	973.81
531.436	994.81
531.651	1055.81
531.865	1053.81
532.08	1010.81
532.295	960.81
532.509	917.81
532.724	934.81
532.938	985.81
533.153	1079.81
533.367	1053.81
533.582	1051.81
533.796	1059.81
534.011	1014.81
534.225	1021.81
534.44	969.81
534.654	956.81
534.868	1007.81
535.083	1036.81
535.297	1046.81
535.511	1011.81
535.726	1008.81
535.94	1000.81
536.154	978.81
536.369	965.81
536.583	908.81
536.797	950.81
537.011	970.81
537.225	936.81
537.44	929.81
537.654	961.81
537.868	927.81
538.082	914.81
538.296	908.81
538.51	937.81
538.724	949.81
538.938	997.81
539.153	1005.81
539.367	1000.81
539.581	967.81
539.795	1002.81
540.009	986.81
540.222	973.81
540.436	964.81
540.65	1075.81
540.864	1064.81
541.078	1045.81
541.292	1051.81
541.506	1080.81
541.72	1124.81
541.934	1141.81
542.147	1188.81
542.361	1137.81
542.575	1070.81
542.789	1023.81
543.002	953.81
543.216	941.81
543.43	1029.81
543.644	1095.81
543.857	1107.81
544.071	1110.81
544.285	1109.81
544.498	1111.81
544.712	1077.81
544.925	1104.81
545.139	1098.81
545.352	1100.81
545.566	1042.81
545.779	1043.81
545.993	1084.81
546.206	1128.81
546.42	1077.81
546.633	1081.81
546.847	1089.81
547.06	1073.81
547.274	1069.81
547.487	1109.81
547.7	1135.81
547.914	1117.81
548.127	1109.81
548.34	1104.81
548.554	1092.81
548.767	1068.81
548.98	1068.81
549.193	1068.81
549.407	1117.81
549.62	1113.81
549.833	1055.81
550.046	1033.81
550.259	1035.81
550.473	1038.81
550.686	1003.81
550.899	1023.81
551.112	986.81
551.325	1009.81
551.538	1054.81
551.751	1150.81
551.964	932.81
552.177	941.81
552.39	990.81
552.603	1023.81
552.816	1007.81
553.029	1057.81
553.242	1086.81
553.455	1043.81
553.667	1032.81
553.88	1042.81
554.093	1011.81
554.306	1018.81
554.519	992.81
554.732	981.81
554.944	973.81
555.157	1003.81
555.37	947.81
555.583	961.81
555.795	925.81
556.008	901.81
556.221	873.81
556.433	888.81
556.646	899.81
556.859	859.81
557.071	873.81
557.284	898.81
557.496	909.81
557.709	883.81
557.921	861.81
558.134	874.81
558.346	874.81
558.559	844.81
558.771	856.81
558.984	814.81
559.196	812.81
559.409	809.81
559.621	818.81
559.833	799.81
560.046	814.81
560.258	842.81
560.47	830.81
560.683	799.81
560.895	841.81
561.107	830.81
561.32	847.81
561.532	821.81
561.744	797.81
561.956	812.81
562.168	812.81
562.381	791.81
562.593	787.81
562.805	808.81
563.017	762.81
563.229	806.81
563.441	823.81
563.653	818.81
563.865	789.81
564.077	758.81
564.289	804.81
564.501	809.81
564.713	806.81
564.925	819.81
565.137	881.81
565.349	814.81
565.561	803.81
565.773	818.81
565.985	806.81
566.197	881.81
566.408	917.81
566.62	902.81
566.832	916.81
567.044	900.81
567.255	904.81
567.467	911.81
567.679	942.81
567.891	930.81
568.102	904.81
568.314	842.81
568.526	819.81
568.737	791.81
568.949	764.81
569.161	726.81
569.372	705.81
569.584	702.81
569.795	675.81
570.007	685.81
570.218	660.81
570.43	655.81
570.641	647.81
570.853	674.81
571.064	661.81
571.276	667.81
571.487	671.81
571.698	666.81
571.91	648.81
572.121	619.81
572.333	628.81
572.544	602.81
572.755	590.81
572.966	588.81
573.178	575.81
573.389	599.81
573.6	587.81
573.811	641.81
574.023	610.81
574.234	566.81
574.445	578.81
574.656	578.81
574.867	557.81
575.078	572.81
575.289	595.81
575.501	570.81
575.712	547.81
575.923	553.81
576.134	570.81
576.345	541.81
576.556	540.81
576.767	550.81
576.978	540.81
577.188	547.81
577.399	536.81
577.61	529.81
577.821	544.81
578.032	527.81
578.243	530.81
578.454	525.81
578.665	497.81
578.875	498.81
579.086	524.81
579.297	521.81
579.508	536.81
579.718	535.81
579.929	517.81
580.14	482.81
580.35	509.81
580.561	530.81
580.772	560.81
580.982	518.81
581.193	491.81
581.403	502.81
581.614	493.81
581.825	486.81
582.035	478.81
582.246	501.81
582.456	498.81
582.667	491.81
582.877	481.81
583.087	474.81
583.298	465.81
583.508	473.81
583.719	473.81
583.929	475.81
584.139	474.81
584.35	460.81
584.56	459.81
584.77	475.81
584.981	462.81
585.191	488.81
585.401	469.81
585.611	487.81
585.821	471.81
586.032	462.81
586.242	455.81
586.452	454.81
586.662	461.81
586.872	470.81
587.082	438.81
587.292	442.81
587.502	465.81
587.713	454.81
587.923	449.81
588.133	458.81
588.343	454.81
588.553	441.81
588.762	475.81
588.972	447.81
589.182	457.81
589.392	463.81
589.602	457.81
589.812	437.81
590.022	451.81
590.232	447.81
590.441	453.81
590.651	465.81
590.861	446.81
591.071	431.81
591.281	436.81
591.49	417.81
591.7	437.81
591.91	425.81
592.119	467.81
592.329	463.81
592.539	472.81
592.748	475.81
592.958	475.81
593.167	470.81
593.377	470.81
593.587	478.81
593.796	463.81
594.006	472.81
594.215	462.81
594.424	473.81
594.634	485.81
594.843	471.81
595.053	474.81
595.262	463.81
595.472	439.81
595.681	453.81
595.89	466.81
596.1	426.81
596.309	457.81
596.518	441.81
596.727	441.81
596.937	429.81
597.146	418.81
597.355	434.81
597.564	430.81
597.774	397.81
597.983	395.81
598.192	408.81
598.401	413.81
598.61	414.81
598.819	389.81
599.028	414.81
599.237	407.81
599.446	399.81
599.655	403.81
599.864	412.81
600.073	388.81
600.282	421.81
600.491	406.81
600.7	394.81
600.909	376.81
601.118	404.81
601.327	394.81
601.536	414.81
601.745	409.81
601.953	402.81
602.162	415.81
602.371	417.81
602.58	417.81
602.789	418.81
602.997	417.81
603.206	407.81
603.415	406.81
603.623	406.81
603.832	418.81
604.041	393.81
604.249	385.81
604.458	389.81
604.666	387.81
604.875	387.81
605.084	410.81
605.292	395.81
605.501	422.81
605.709	417.81
605.918	393.81
606.126	422.81
606.334	401.81
606.543	400.81
606.751	421.81
606.96	399.81
607.168	411.81
607.376	400.81
607.585	397.81
607.793	406.81
608.001	409.81
608.21	417.81
608.418	408.81
608.626	395.81
608.834	389.81
609.043	374.81
609.251	393.81
609.459	405.81
609.667	402.81
609.875	413.81
610.083	433.81
610.291	407.81
610.499	414.81
610.707	414.81
610.916	418.81
611.124	425.81
611.332	398.81
611.54	398.81
611.748	398.81
611.955	403.81
612.163	400.81
612.371	402.81
612.579	388.81
612.787	395.81
612.995	407.81
613.203	406.81
613.411	400.81
613.618	397.81
613.826	395.81
614.034	399.81
614.242	417.81
614.449	405.81
614.657	405.81
614.865	400.81
615.072	386.81
615.28	386.81
615.488	393.81
615.695	393.81
615.903	411.81
616.111	384.81
616.318	398.81
616.526	393.81
616.733	390.81
616.941	376.81
617.148	375.81
617.356	377.81
617.563	391.81
617.771	379.81
617.978	376.81
618.185	374.81
618.393	383.81
618.6	388.81
618.807	385.81
619.015	390.81
619.222	368.81
619.429	364.81
619.637	346.81
619.844	369.81
620.051	363.81
620.258	362.81
620.466	371.81
620.673	373.81
620.88	365.81
621.087	352.81
621.294	355.81
621.501	356.81
621.708	352.81
621.915	360.81
622.122	355.81
622.329	357.81
622.536	379.81
622.743	360.81
622.95	357.81
623.157	346.81
623.364	343.81
623.571	358.81
623.778	351.81
623.985	345.81
624.192	343.81
624.399	348.81
624.606	348.81
624.812	343.81
625.019	332.81
625.226	342.81
625.433	331.81
625.639	333.81
625.846	314.81
626.053	302.81
626.259	297.81
626.466	305.81
626.673	288.81
626.879	296.81
627.086	298.81
627.293	318.81
627.499	305.81
627.706	322.81
627.912	327.81
628.119	332.81
628.325	318.81
628.532	335.81
628.738	323.81
628.945	314.81
629.151	310.81
629.357	319.81
629.564	311.81
629.77	306.81
629.976	310.81
630.183	301.81
630.389	300.81
630.595	316.81
630.802	318.81
631.008	291.81
631.214	302.81
631.42	311.81
631.627	307.81
631.833	301.81
632.039	278.81
632.245	298.81
632.451	299.81
632.657	296.81
632.863	300.81
633.069	279.81
633.275	291.81
633.481	306.81
633.688	291.81
633.893	278.81
634.099	275.81
634.305	263.81
634.511	292.81
634.717	275.81
634.923	248.81
635.129	279.81
635.335	279.81
635.541	284.81
635.747	279.81
635.952	291.81
636.158	287.81
636.364	270.81
636.57	275.81
636.775	264.81
636.981	273.81
637.187	298.81
637.392	295.81
637.598	295.81
637.804	282.81
638.009	281.81
638.215	271.81
638.421	277.81
638.626	294.81
638.832	280.81
639.037	270.81
639.243	257.81
639.448	248.81
639.654	264.81
639.859	266.81
640.065	255.81
640.27	289.81
640.475	262.81
640.681	277.81
640.886	263.81
641.091	275.81
641.297	279.81
641.502	285.81
641.707	272.81
641.913	259.81
642.118	281.81
642.323	270.81
642.528	261.81
642.733	251.81
642.939	270.81
643.144	266.81
643.349	266.81
643.554	245.81
643.759	277.81
643.964	265.81
644.169	276.81
644.374	265.81
644.579	242.81
644.784	275.81
644.989	269.81
645.194	259.81
645.399	264.81
645.604	264.81
645.809	252.81
646.014	247.81
646.219	252.81
646.423	273.81
646.628	258.81
646.833	248.81
647.038	263.81
647.243	276.81
647.447	255.81
647.652	269.81
647.857	260.81
648.062	254.81
648.266	275.81
648.471	268.81
648.676	281.81
648.88	254.81
649.085	263.81
649.289	258.81
649.494	260.81
649.698	257.81
649.903	263.81
650.107	251.81
650.312	257.81
650.516	238.81
650.721	252.81
650.925	226.81
651.13	238.81
651.334	260.81
651.539	262.81
651.743	251.81
651.947	233.81
652.152	246.81
652.356	255.81
652.56	221.81
652.764	235.81
652.969	236.81
653.173	218.81
653.377	230.81
653.581	229.81
653.785	241.81
653.99	237.81
654.194	218.81
654.398	218.81
654.602	215.81
654.806	208.81
655.01	228.81
655.214	227.81
655.418	228.81
655.622	220.81
655.826	236.81
656.03	231.81
656.234	261.81
656.438	260.81
656.642	271.81
656.846	244.81
657.049	225.81
657.253	236.81
657.457	204.81
657.661	208.81
657.865	194.81
658.068	174.81
658.272	199.81
658.476	170.81
658.68	170.81
658.883	158.81
659.087	147.81
659.291	152.81
659.494	149.81
659.698	145.81
659.901	133.81
660.105	128.81
660.309	125.81
660.512	120.81
660.716	143.81
660.919	122.81
661.123	131.81
661.326	109.81
661.53	115.81
661.733	107.81
661.936	101.81
662.14	99.81
662.343	97.81
662.546	106.81
662.75	102.81
662.953	93.81
663.156	107.81
663.36	89.81
663.563	102.81
663.766	91.81
663.969	94.81
664.173	86.81
664.376	81.81
664.579	93.81
664.782	89.81
664.985	78.81
665.188	94.81
665.391	94.81
665.594	87.81
665.797	100.81
666	92.81
666.203	93.81
666.406	84.81
666.609	97.81
666.812	89.81
667.015	96.81
667.218	84.81
667.421	87.81
667.624	89.81
667.827	95.81
668.03	92.81
668.232	90.81
668.435	88.81
668.638	94.81
668.841	83.81
669.043	78.81
669.246	74.81
669.449	93.81
669.651	86.81
669.854	81.81
670.057	91.81
670.259	86.81
670.462	70.81
670.665	85.81
670.867	75.81
671.07	82.81
671.272	85.81
671.475	78.81
671.677	79.81
671.88	83.81
672.082	83.81
672.284	87.81
672.487	79.81
672.689	71.81
672.892	78.81
