Data from WStandard_LampEnergy8_LIBS07252019.E.O._I.C._HRD10591_15-59-20-929.txt Node
Date: Thu Jul 25 15:59:20 EDT 2019
User: cochatt
Spectrometer: HR+D1059
Trigger mode: 1
Integration Time (sec): 1.000000E-1
Scans to average: 1
Electric dark correction enabled: true
Nonlinearity correction enabled: false
Boxcar width: 0
XAxis mode: Wavelengths
Number of Pixels in Spectrum: 2048
>>>>>Begin Spectral Data<<<<<
223.165	-7.94
223.4	-7.94
223.635	-7.94
223.869	-10.94
224.104	-12.94
224.338	-20.94
224.573	-23.94
224.808	-19.94
225.042	0.06
225.277	-11.94
225.511	2.06
225.746	3.06
225.98	11.06
226.215	10.06
226.449	6.06
226.683	23.06
226.918	26.06
227.152	27.06
227.387	33.06
227.621	32.06
227.856	38.06
228.09	41.06
228.324	40.06
228.559	61.06
228.793	119.06
229.027	199.06
229.262	224.06
229.496	217.06
229.73	236.06
229.964	252.06
230.199	287.06
230.433	267.06
230.667	286.06
230.901	299.06
231.136	264.06
231.37	261.06
231.604	259.06
231.838	262.06
232.072	267.06
232.306	267.06
232.541	283.06
232.775	307.06
233.009	333.06
233.243	328.06
233.477	303.06
233.711	314.06
233.945	321.06
234.179	288.06
234.413	341.06
234.647	353.06
234.881	331.06
235.115	309.06
235.349	310.06
235.583	300.06
235.817	312.06
236.051	305.06
236.285	330.06
236.519	336.06
236.753	349.06
236.987	399.06
237.221	381.06
237.455	392.06
237.689	375.06
237.922	356.06
238.156	356.06
238.39	360.06
238.624	390.06
238.858	387.06
239.091	418.06
239.325	444.06
239.559	477.06
239.793	487.06
240.027	539.06
240.26	527.06
240.494	405.06
240.728	386.06
240.961	392.06
241.195	404.06
241.429	437.06
241.662	428.06
241.896	401.06
242.13	396.06
242.363	457.06
242.597	494.06
242.83	482.06
243.064	447.06
243.298	499.06
243.531	499.06
243.765	474.06
243.998	460.06
244.232	436.06
244.465	407.06
244.699	397.06
244.932	467.06
245.166	532.06
245.399	492.06
245.633	476.06
245.866	477.06
246.099	478.06
246.333	495.06
246.566	505.06
246.8	543.06
247.033	597.06
247.266	547.06
247.5	535.06
247.733	526.06
247.966	581.06
248.2	638.06
248.433	601.06
248.666	638.06
248.899	679.06
249.133	766.06
249.366	838.06
249.599	725.06
249.832	615.06
250.066	633.06
250.299	623.06
250.532	588.06
250.765	544.06
250.998	600.06
251.231	589.06
251.465	618.06
251.698	591.06
251.931	575.06
252.164	594.06
252.397	639.06
252.63	609.06
252.863	597.06
253.096	553.06
253.329	588.06
253.562	620.06
253.795	629.06
254.028	614.06
254.261	607.06
254.494	586.06
254.727	560.06
254.96	594.06
255.193	633.06
255.426	739.06
255.659	804.06
255.892	805.06
256.124	683.06
256.357	688.06
256.59	676.06
256.823	700.06
257.056	731.06
257.289	855.06
257.521	923.06
257.754	849.06
257.987	815.06
258.22	865.06
258.452	816.06
258.685	720.06
258.918	694.06
259.151	695.06
259.383	661.06
259.616	616.06
259.849	638.06
260.081	702.06
260.314	785.06
260.547	834.06
260.779	823.06
261.012	807.06
261.244	719.06
261.477	703.06
261.71	725.06
261.942	712.06
262.175	689.06
262.407	717.06
262.64	671.06
262.872	636.06
263.105	635.06
263.337	647.06
263.57	658.06
263.802	661.06
264.035	602.06
264.267	565.06
264.499	567.06
264.732	614.06
264.964	639.06
265.197	687.06
265.429	729.06
265.661	812.06
265.894	860.06
266.126	876.06
266.358	817.06
266.591	828.06
266.823	885.06
267.055	808.06
267.287	779.06
267.52	791.06
267.752	793.06
267.984	776.06
268.216	818.06
268.448	840.06
268.681	816.06
268.913	758.06
269.145	695.06
269.377	720.06
269.609	785.06
269.841	929.06
270.073	1036.06
270.306	1112.06
270.538	1114.06
270.77	986.06
271.002	845.06
271.234	795.06
271.466	837.06
271.698	938.06
271.93	1066.06
272.162	1087.06
272.394	957.06
272.626	905.06
272.858	821.06
273.09	727.06
273.322	720.06
273.553	700.06
273.785	696.06
274.017	747.06
274.249	786.06
274.481	781.06
274.713	711.06
274.945	696.06
275.176	702.06
275.408	715.06
275.64	716.06
275.872	716.06
276.104	762.06
276.335	839.06
276.567	939.06
276.799	941.06
277.031	863.06
277.262	842.06
277.494	828.06
277.726	937.06
277.957	935.06
278.189	852.06
278.421	747.06
278.652	755.06
278.884	751.06
279.115	759.06
279.347	773.06
279.579	718.06
279.81	744.06
280.042	843.06
280.273	907.06
280.505	913.06
280.736	928.06
280.968	875.06
281.199	760.06
281.431	751.06
281.662	732.06
281.894	736.06
282.125	787.06
282.356	770.06
282.588	798.06
282.819	799.06
283.051	851.06
283.282	905.06
283.513	865.06
283.745	758.06
283.976	722.06
284.207	731.06
284.439	775.06
284.67	760.06
284.901	798.06
285.132	789.06
285.364	805.06
285.595	800.06
285.826	795.06
286.057	778.06
286.288	789.06
286.52	825.06
286.751	875.06
286.982	892.06
287.213	813.06
287.444	739.06
287.675	777.06
287.906	794.06
288.138	847.06
288.369	821.06
288.6	781.06
288.831	728.06
289.062	756.06
289.293	779.06
289.524	789.06
289.755	808.06
289.986	805.06
290.217	746.06
290.448	795.06
290.679	810.06
290.91	791.06
291.141	836.06
291.371	853.06
291.602	829.06
291.833	862.06
292.064	853.06
292.295	847.06
292.526	844.06
292.757	873.06
292.987	847.06
293.218	807.06
293.449	902.06
293.68	990.06
293.91	1045.06
294.141	997.06
294.372	927.06
294.603	955.06
294.833	1015.06
295.064	933.06
295.295	880.06
295.525	833.06
295.756	771.06
295.987	735.06
296.217	775.06
296.448	784.06
296.679	795.06
296.909	823.06
297.14	761.06
297.37	797.06
297.601	860.06
297.831	928.06
298.062	886.06
298.292	823.06
298.523	823.06
298.753	833.06
298.984	807.06
299.214	797.06
299.445	847.06
299.675	861.06
299.905	867.06
300.136	833.06
300.366	831.06
300.597	793.06
300.827	784.06
301.057	840.06
301.288	877.06
301.518	855.06
301.748	877.06
301.979	936.06
302.209	947.06
302.439	997.06
302.669	1034.06
302.9	955.06
303.13	846.06
303.36	863.06
303.59	884.06
303.82	895.06
304.051	899.06
304.281	890.06
304.511	885.06
304.741	959.06
304.971	1042.06
305.201	1085.06
305.431	1009.06
305.661	827.06
305.891	767.06
306.121	803.06
306.352	821.06
306.582	868.06
306.812	961.06
307.042	961.06
307.272	967.06
307.502	1031.06
307.731	1059.06
307.961	1127.06
308.191	1020.06
308.421	896.06
308.651	846.06
308.881	876.06
309.111	812.06
309.341	827.06
309.571	831.06
309.8	877.06
310.03	831.06
310.26	813.06
310.49	827.06
310.72	875.06
310.949	917.06
311.179	897.06
311.409	873.06
311.639	870.06
311.868	857.06
312.098	870.06
312.328	867.06
312.557	872.06
312.787	882.06
313.017	889.06
313.246	876.06
313.476	894.06
313.706	895.06
313.935	911.06
314.165	909.06
314.394	917.06
314.624	1009.06
314.853	1085.06
315.083	1083.06
315.312	1100.06
315.542	1002.06
315.771	937.06
316.001	938.06
316.23	969.06
316.46	942.06
316.689	937.06
316.919	867.06
317.148	864.06
317.377	883.06
317.607	1001.06
317.836	1064.06
318.065	1113.06
318.295	1071.06
318.524	1004.06
318.753	964.06
318.983	979.06
319.212	927.06
319.441	923.06
319.67	940.06
319.9	964.06
320.129	1045.06
320.358	1055.06
320.587	1080.06
320.816	1061.06
321.046	1033.06
321.275	988.06
321.504	1019.06
321.733	1055.06
321.962	988.06
322.191	960.06
322.42	944.06
322.649	941.06
322.878	977.06
323.108	949.06
323.337	983.06
323.566	979.06
323.795	986.06
324.024	976.06
324.253	968.06
324.482	942.06
324.71	921.06
324.939	907.06
325.168	939.06
325.397	944.06
325.626	975.06
325.855	955.06
326.084	920.06
326.313	964.06
326.542	940.06
326.77	998.06
326.999	1009.06
327.228	923.06
327.457	921.06
327.686	874.06
327.914	943.06
328.143	957.06
328.372	951.06
328.6	936.06
328.829	954.06
329.058	937.06
329.287	935.06
329.515	951.06
329.744	959.06
329.972	1047.06
330.201	1057.06
330.43	1017.06
330.658	1017.06
330.887	983.06
331.115	998.06
331.344	1017.06
331.572	1017.06
331.801	983.06
332.03	1001.06
332.258	985.06
332.486	997.06
332.715	1029.06
332.943	1035.06
333.172	1030.06
333.4	1018.06
333.629	1056.06
333.857	1137.06
334.085	1192.06
334.314	1376.06
334.542	1477.06
334.771	1335.06
334.999	1171.06
335.227	1133.06
335.455	1068.06
335.684	1061.06
335.912	1085.06
336.14	1129.06
336.369	1060.06
336.597	1032.06
336.825	1022.06
337.053	1056.06
337.281	1151.06
337.51	1161.06
337.738	1219.06
337.966	1110.06
338.194	1031.06
338.422	997.06
338.65	1002.06
338.878	995.06
339.106	966.06
339.334	947.06
339.562	967.06
339.79	985.06
340.018	1050.06
340.246	1051.06
340.474	1073.06
340.702	1061.06
340.93	1053.06
341.158	1033.06
341.386	1042.06
341.614	1020.06
341.842	990.06
342.07	1035.06
342.298	1019.06
342.526	1021.06
342.754	961.06
342.981	975.06
343.209	956.06
343.437	979.06
343.665	1015.06
343.893	1047.06
344.12	1070.06
344.348	1098.06
344.576	1048.06
344.804	1001.06
345.031	1004.06
345.259	1009.06
345.487	964.06
345.714	948.06
345.942	919.06
346.17	926.06
346.397	957.06
346.625	957.06
346.853	928.06
347.08	906.06
347.308	920.06
347.535	955.06
347.763	958.06
347.99	926.06
348.218	932.06
348.445	931.06
348.673	951.06
348.9	987.06
349.128	1017.06
349.355	1027.06
349.583	1005.06
349.81	949.06
350.037	867.06
350.265	912.06
350.492	897.06
350.72	916.06
350.947	974.06
351.174	954.06
351.402	876.06
351.629	875.06
351.856	897.06
352.083	885.06
352.311	864.06
352.538	923.06
352.765	951.06
352.992	947.06
353.22	944.06
353.447	923.06
353.674	911.06
353.901	949.06
354.128	938.06
354.355	909.06
354.583	934.06
354.81	981.06
355.037	975.06
355.264	945.06
355.491	968.06
355.718	943.06
355.945	936.06
356.172	927.06
356.399	907.06
356.626	894.06
356.853	968.06
357.08	1056.06
357.307	1113.06
357.534	1071.06
357.761	962.06
357.988	913.06
358.215	878.06
358.441	915.06
358.668	893.06
358.895	905.06
359.122	1012.06
359.349	1083.06
359.576	1039.06
359.802	924.06
360.029	914.06
360.256	923.06
360.483	917.06
360.709	957.06
360.936	1006.06
361.163	1047.06
361.39	1141.06
361.616	1170.06
361.843	1159.06
362.07	1079.06
362.296	953.06
362.523	931.06
362.749	933.06
362.976	953.06
363.203	986.06
363.429	909.06
363.656	901.06
363.882	976.06
364.109	1097.06
364.335	1117.06
364.562	1047.06
364.788	972.06
365.015	929.06
365.241	938.06
365.468	939.06
365.694	1002.06
365.92	1011.06
366.147	986.06
366.373	960.06
366.599	939.06
366.826	931.06
367.052	912.06
367.278	960.06
367.505	959.06
367.731	965.06
367.957	1003.06
368.184	1047.06
368.41	1082.06
368.636	1089.06
368.862	1066.06
369.089	1082.06
369.315	1035.06
369.541	1015.06
369.767	959.06
369.993	939.06
370.219	943.06
370.445	987.06
370.672	1060.06
370.898	1109.06
371.124	1079.06
371.35	1021.06
371.576	1073.06
371.802	1067.06
372.028	1051.06
372.254	995.06
372.48	947.06
372.706	953.06
372.932	968.06
373.158	963.06
373.384	1007.06
373.61	1021.06
373.835	1061.06
374.061	1006.06
374.287	1011.06
374.513	1009.06
374.739	992.06
374.965	1014.06
375.191	1052.06
375.416	1039.06
375.642	1039.06
375.868	1113.06
376.094	1120.06
376.319	1063.06
376.545	1023.06
376.771	1021.06
376.997	1104.06
377.222	1079.06
377.448	1075.06
377.674	1047.06
377.899	1067.06
378.125	1134.06
378.35	1100.06
378.576	999.06
378.802	978.06
379.027	970.06
379.253	987.06
379.478	1018.06
379.704	1017.06
379.929	976.06
380.155	1001.06
380.38	1040.06
380.606	1013.06
380.831	1060.06
381.057	1088.06
381.282	1064.06
381.507	1083.06
381.733	1147.06
381.958	1163.06
382.184	1077.06
382.409	1045.06
382.634	1086.06
382.86	1047.06
383.085	1039.06
383.31	1122.06
383.535	1207.06
383.761	1249.06
383.986	1169.06
384.211	1108.06
384.436	1135.06
384.662	1198.06
384.887	1207.06
385.112	1135.06
385.337	1135.06
385.562	1124.06
385.787	1158.06
386.013	1180.06
386.238	1158.06
386.463	1222.06
386.688	1285.06
386.913	1327.06
387.138	1250.06
387.363	1214.06
387.588	1176.06
387.813	1188.06
388.038	1189.06
388.263	1218.06
388.488	1170.06
388.713	1120.06
388.938	1126.06
389.163	1098.06
389.387	1116.06
389.612	1131.06
389.837	1180.06
390.062	1161.06
390.287	1169.06
390.512	1144.06
390.736	1121.06
390.961	1119.06
391.186	1100.06
391.411	1133.06
391.636	1135.06
391.86	1142.06
392.085	1163.06
392.31	1149.06
392.534	1161.06
392.759	1173.06
392.984	1129.06
393.208	1143.06
393.433	1220.06
393.658	1253.06
393.882	1264.06
394.107	1177.06
394.331	1156.06
394.556	1160.06
394.78	1142.06
395.005	1201.06
395.229	1256.06
395.454	1373.06
395.678	1289.06
395.903	1242.06
396.127	1229.06
396.352	1245.06
396.576	1270.06
396.801	1265.06
397.025	1273.06
397.249	1274.06
397.474	1251.06
397.698	1209.06
397.922	1273.06
398.147	1353.06
398.371	1408.06
398.595	1353.06
398.82	1336.06
399.044	1365.06
399.268	1390.06
399.492	1481.06
399.717	1526.06
399.941	1528.06
400.165	1472.06
400.389	1446.06
400.613	1462.06
400.837	1694.06
401.062	1816.06
401.286	1570.06
401.51	1456.06
401.734	1511.06
401.958	1453.06
402.182	1365.06
402.406	1302.06
402.63	1296.06
402.854	1285.06
403.078	1356.06
403.302	1359.06
403.526	1360.06
403.75	1368.06
403.974	1385.06
404.198	1394.06
404.422	1447.06
404.645	1481.06
404.869	1440.06
405.093	1387.06
405.317	1342.06
405.541	1375.06
405.765	1361.06
405.988	1374.06
406.212	1387.06
406.436	1429.06
406.66	1484.06
406.883	1514.06
407.107	1695.06
407.331	1824.06
407.555	1934.06
407.778	1700.06
408.002	1475.06
408.226	1417.06
408.449	1400.06
408.673	1396.06
408.896	1407.06
409.12	1400.06
409.344	1359.06
409.567	1337.06
409.791	1401.06
410.014	1422.06
410.238	1476.06
410.461	1555.06
410.685	1408.06
410.908	1335.06
411.132	1413.06
411.355	1357.06
411.578	1345.06
411.802	1411.06
412.025	1402.06
412.249	1366.06
412.472	1337.06
412.695	1300.06
412.919	1311.06
413.142	1292.06
413.365	1338.06
413.589	1370.06
413.812	1436.06
414.035	1461.06
414.258	1344.06
414.482	1335.06
414.705	1335.06
414.928	1319.06
415.151	1318.06
415.374	1349.06
415.597	1340.06
415.821	1346.06
416.044	1356.06
416.267	1365.06
416.49	1308.06
416.713	1304.06
416.936	1361.06
417.159	1406.06
417.382	1388.06
417.605	1303.06
417.828	1322.06
418.051	1355.06
418.274	1353.06
418.497	1261.06
418.72	1317.06
418.943	1317.06
419.166	1341.06
419.389	1370.06
419.611	1326.06
419.834	1302.06
420.057	1339.06
420.28	1320.06
420.503	1289.06
420.726	1350.06
420.948	1316.06
421.171	1269.06
421.394	1295.06
421.617	1363.06
421.839	1365.06
422.062	1359.06
422.285	1297.06
422.507	1303.06
422.73	1230.06
422.953	1243.06
423.175	1226.06
423.398	1283.06
423.621	1264.06
423.843	1281.06
424.066	1335.06
424.288	1416.06
424.511	1429.06
424.733	1372.06
424.956	1249.06
425.178	1243.06
425.401	1274.06
425.623	1305.06
425.846	1296.06
426.068	1371.06
426.291	1356.06
426.513	1365.06
426.735	1349.06
426.958	1452.06
427.18	1471.06
427.402	1406.06
427.625	1465.06
427.847	1417.06
428.069	1296.06
428.292	1289.06
428.514	1231.06
428.736	1259.06
428.958	1279.06
429.181	1311.06
429.403	1511.06
429.625	1799.06
429.847	1477.06
430.069	1354.06
430.292	1491.06
430.514	1477.06
430.736	1379.06
430.958	1403.06
431.18	1323.06
431.402	1250.06
431.624	1241.06
431.846	1172.06
432.068	1149.06
432.29	1182.06
432.512	1176.06
432.734	1265.06
432.956	1325.06
433.178	1333.06
433.4	1309.06
433.622	1344.06
433.844	1271.06
434.066	1211.06
434.287	1203.06
434.509	1227.06
434.731	1277.06
434.953	1360.06
435.175	1387.06
435.397	1310.06
435.618	1285.06
435.84	1279.06
436.062	1259.06
436.284	1269.06
436.505	1349.06
436.727	1337.06
436.949	1287.06
437.17	1238.06
437.392	1247.06
437.614	1244.06
437.835	1229.06
438.057	1255.06
438.278	1296.06
438.5	1252.06
438.721	1264.06
438.943	1249.06
439.165	1251.06
439.386	1257.06
439.608	1277.06
439.829	1277.06
440.05	1309.06
440.272	1264.06
440.493	1264.06
440.715	1300.06
440.936	1391.06
441.158	1453.06
441.379	1415.06
441.6	1415.06
441.822	1375.06
442.043	1327.06
442.264	1356.06
442.486	1273.06
442.707	1262.06
442.928	1274.06
443.149	1323.06
443.371	1407.06
443.592	1407.06
443.813	1339.06
444.034	1368.06
444.255	1387.06
444.476	1384.06
444.698	1399.06
444.919	1395.06
445.14	1508.06
445.361	1464.06
445.582	1478.06
445.803	1375.06
446.024	1383.06
446.245	1442.06
446.466	1376.06
446.687	1340.06
446.908	1386.06
447.129	1320.06
447.35	1326.06
447.571	1323.06
447.792	1267.06
448.013	1253.06
448.234	1262.06
448.455	1364.06
448.675	1361.06
448.896	1224.06
449.117	1203.06
449.338	1257.06
449.559	1324.06
449.779	1367.06
450	1466.06
450.221	1512.06
450.442	1471.06
450.662	1312.06
450.883	1205.06
451.104	1188.06
451.324	1198.06
451.545	1246.06
451.766	1216.06
451.986	1161.06
452.207	1153.06
452.428	1118.06
452.648	1124.06
452.869	1131.06
453.089	1153.06
453.31	1194.06
453.53	1189.06
453.751	1114.06
453.971	1061.06
454.192	1080.06
454.412	1152.06
454.633	1135.06
454.853	1102.06
455.073	1091.06
455.294	1089.06
455.514	1083.06
455.734	1049.06
455.955	1114.06
456.175	1087.06
456.395	1075.06
456.616	1109.06
456.836	1128.06
457.056	1096.06
457.276	1084.06
457.497	1072.06
457.717	1015.06
457.937	1081.06
458.157	1106.06
458.377	1062.06
458.598	1063.06
458.818	1064.06
459.038	1142.06
459.258	1173.06
459.478	1183.06
459.698	1139.06
459.918	1166.06
460.138	1231.06
460.358	1254.06
460.578	1263.06
460.798	1296.06
461.018	1377.06
461.238	1321.06
461.458	1269.06
461.678	1251.06
461.898	1246.06
462.118	1215.06
462.338	1271.06
462.558	1261.06
462.777	1302.06
462.997	1359.06
463.217	1407.06
463.437	1333.06
463.657	1293.06
463.876	1269.06
464.096	1285.06
464.316	1277.06
464.536	1311.06
464.755	1334.06
464.975	1335.06
465.195	1262.06
465.414	1358.06
465.634	1337.06
465.854	1274.06
466.073	1405.06
466.293	1364.06
466.512	1227.06
466.732	1255.06
466.951	1235.06
467.171	1247.06
467.391	1212.06
467.61	1222.06
467.829	1235.06
468.049	1335.06
468.268	1492.06
468.488	1378.06
468.707	1274.06
468.927	1259.06
469.146	1243.06
469.365	1244.06
469.585	1243.06
469.804	1264.06
470.023	1275.06
470.243	1289.06
470.462	1232.06
470.681	1239.06
470.901	1268.06
471.12	1270.06
471.339	1275.06
471.558	1230.06
471.777	1216.06
471.997	1221.06
472.216	1211.06
472.435	1160.06
472.654	1165.06
472.873	1189.06
473.092	1241.06
473.311	1226.06
473.53	1168.06
473.749	1160.06
473.968	1206.06
474.187	1227.06
474.406	1276.06
474.625	1209.06
474.844	1224.06
475.063	1197.06
475.282	1232.06
475.501	1233.06
475.72	1220.06
475.939	1326.06
476.158	1260.06
476.377	1239.06
476.596	1245.06
476.814	1267.06
477.033	1233.06
477.252	1307.06
477.471	1318.06
477.69	1267.06
477.908	1286.06
478.127	1369.06
478.346	1440.06
478.564	1459.06
478.783	1436.06
479.002	1452.06
479.22	1462.06
479.439	1488.06
479.658	1616.06
479.876	1582.06
480.095	1417.06
480.313	1353.06
480.532	1303.06
480.751	1323.06
480.969	1365.06
481.188	1259.06
481.406	1274.06
481.624	1281.06
481.843	1273.06
482.061	1324.06
482.28	1321.06
482.498	1351.06
482.717	1320.06
482.935	1335.06
483.153	1365.06
483.372	1397.06
483.59	1367.06
483.808	1372.06
484.027	1400.06
484.245	1468.06
484.463	1781.06
484.681	1943.06
484.9	1492.06
485.118	1380.06
485.336	1361.06
485.554	1398.06
485.772	1403.06
485.99	1380.06
486.209	1421.06
486.427	1403.06
486.645	1422.06
486.863	1451.06
487.081	1471.06
487.299	1477.06
487.517	1463.06
487.735	1436.06
487.953	1503.06
488.171	1514.06
488.389	1459.06
488.607	1478.06
488.825	1612.06
489.043	1583.06
489.261	1433.06
489.479	1518.06
489.696	1499.06
489.914	1492.06
490.132	1435.06
490.35	1467.06
490.568	1528.06
490.786	1484.06
491.003	1486.06
491.221	1533.06
491.439	1602.06
491.657	1625.06
491.874	1617.06
492.092	1708.06
492.31	1725.06
492.527	1675.06
492.745	1630.06
492.963	1598.06
493.18	1622.06
493.398	1731.06
493.615	1699.06
493.833	1627.06
494.05	1559.06
494.268	1555.06
494.485	1615.06
494.703	1592.06
494.92	1551.06
495.138	1555.06
495.355	1585.06
495.573	1634.06
495.79	1695.06
496.008	1727.06
496.225	1625.06
496.442	1611.06
496.66	1636.06
496.877	1604.06
497.094	1658.06
497.312	1631.06
497.529	1643.06
497.746	1696.06
497.963	1927.06
498.181	1971.06
498.398	1915.06
498.615	1850.06
498.832	1797.06
499.049	1806.06
499.267	1818.06
499.484	1952.06
499.701	2065.06
499.918	2127.06
500.135	2252.06
500.352	2382.06
500.569	2310.06
500.786	2537.06
501.003	2335.06
501.22	2134.06
501.437	2079.06
501.654	2116.06
501.871	1998.06
502.088	1747.06
502.305	1772.06
502.522	1712.06
502.739	1638.06
502.956	1591.06
503.172	1565.06
503.389	1541.06
503.606	1498.06
503.823	1505.06
504.04	1504.06
504.256	1518.06
504.473	1502.06
504.69	1546.06
504.907	1501.06
505.123	1429.06
505.34	1605.06
505.557	2014.06
505.773	1695.06
505.99	1396.06
506.207	1325.06
506.423	1303.06
506.64	1296.06
506.856	1351.06
507.073	1529.06
507.289	1627.06
507.506	1544.06
507.722	1326.06
507.939	1285.06
508.155	1259.06
508.372	1289.06
508.588	1191.06
508.805	1211.06
509.021	1173.06
509.238	1186.06
509.454	1132.06
509.67	1180.06
509.887	1150.06
510.103	1141.06
510.319	1167.06
510.536	1222.06
510.752	1256.06
510.968	1238.06
511.184	1273.06
511.401	1261.06
511.617	1116.06
511.833	1127.06
512.049	1124.06
512.265	1115.06
512.481	1119.06
512.698	1167.06
512.914	1215.06
513.13	1169.06
513.346	1141.06
513.562	1117.06
513.778	1131.06
513.994	1207.06
514.21	1193.06
514.426	1221.06
514.642	1305.06
514.858	1243.06
515.074	1164.06
515.29	1135.06
515.506	1198.06
515.721	1153.06
515.937	1217.06
516.153	1361.06
516.369	1275.06
516.585	1186.06
516.801	1153.06
517.016	1183.06
517.232	1200.06
517.448	1235.06
517.664	1224.06
517.879	1257.06
518.095	1297.06
518.311	1223.06
518.527	1208.06
518.742	1169.06
518.958	1144.06
519.173	1153.06
519.389	1182.06
519.605	1175.06
519.82	1211.06
520.036	1223.06
520.251	1163.06
520.467	1189.06
520.682	1251.06
520.898	1261.06
521.113	1155.06
521.329	1157.06
521.544	1190.06
521.76	1172.06
521.975	1119.06
522.19	1134.06
522.406	1113.06
522.621	1388.06
522.836	1335.06
523.052	1137.06
523.267	1143.06
523.482	1155.06
523.698	1093.06
523.913	1056.06
524.128	1101.06
524.343	1158.06
524.559	1154.06
524.774	1110.06
524.989	1097.06
525.204	1083.06
525.419	1084.06
525.634	1060.06
525.849	1089.06
526.064	1081.06
526.28	1079.06
526.495	1006.06
526.71	1018.06
526.925	999.06
527.14	984.06
527.355	970.06
527.57	966.06
527.785	1017.06
527.999	992.06
528.214	976.06
528.429	1011.06
528.644	1036.06
528.859	1065.06
529.074	1083.06
529.289	1128.06
529.503	1143.06
529.718	1126.06
529.933	1045.06
530.148	976.06
530.363	974.06
530.577	973.06
530.792	998.06
531.007	973.06
531.221	961.06
531.436	1041.06
531.651	1033.06
531.865	1066.06
532.08	1030.06
532.295	975.06
532.509	971.06
532.724	960.06
532.938	1001.06
533.153	1069.06
533.367	1047.06
533.582	1084.06
533.796	1008.06
534.011	1021.06
534.225	1015.06
534.44	984.06
534.654	1001.06
534.868	984.06
535.083	1062.06
535.297	1038.06
535.511	1013.06
535.726	1023.06
535.94	1015.06
536.154	965.06
536.369	957.06
536.583	951.06
536.797	943.06
537.011	983.06
537.225	937.06
537.44	943.06
537.654	1009.06
537.868	922.06
538.082	930.06
538.296	926.06
538.51	939.06
538.724	950.06
538.938	974.06
539.153	1031.06
539.367	1021.06
539.581	996.06
539.795	1004.06
540.009	957.06
540.222	972.06
540.436	983.06
540.65	1081.06
540.864	1076.06
541.078	1022.06
541.292	1060.06
541.506	1053.06
541.72	1137.06
541.934	1135.06
542.147	1217.06
542.361	1137.06
542.575	1067.06
542.789	1012.06
543.002	999.06
543.216	989.06
543.43	1027.06
543.644	1089.06
543.857	1137.06
544.071	1132.06
544.285	1122.06
544.498	1068.06
544.712	1112.06
544.925	1128.06
545.139	1124.06
545.352	1108.06
545.566	1092.06
545.779	1076.06
545.993	1089.06
546.206	1130.06
546.42	1067.06
546.633	1091.06
546.847	1061.06
547.06	1079.06
547.274	1076.06
547.487	1081.06
547.7	1103.06
547.914	1110.06
548.127	1085.06
548.34	1129.06
548.554	1085.06
548.767	1075.06
548.98	1072.06
549.193	1125.06
549.407	1116.06
549.62	1108.06
549.833	1061.06
550.046	1069.06
550.259	1060.06
550.473	1050.06
550.686	1022.06
550.899	1037.06
551.112	1006.06
551.325	992.06
551.538	1057.06
551.751	1169.06
551.964	937.06
552.177	930.06
552.39	996.06
552.603	990.06
552.816	1005.06
553.029	1054.06
553.242	1087.06
553.455	1084.06
553.667	1050.06
553.88	1065.06
554.093	1039.06
554.306	1006.06
554.519	991.06
554.732	977.06
554.944	995.06
555.157	1005.06
555.37	972.06
555.583	979.06
555.795	939.06
556.008	931.06
556.221	874.06
556.433	864.06
556.646	880.06
556.859	871.06
557.071	878.06
557.284	902.06
557.496	873.06
557.709	869.06
557.921	881.06
558.134	842.06
558.346	875.06
558.559	860.06
558.771	846.06
558.984	845.06
559.196	809.06
559.409	812.06
559.621	827.06
559.833	803.06
560.046	847.06
560.258	845.06
560.47	857.06
560.683	829.06
560.895	795.06
561.107	819.06
561.32	829.06
561.532	824.06
561.744	814.06
561.956	821.06
562.168	799.06
562.381	816.06
562.593	769.06
562.805	810.06
563.017	775.06
563.229	794.06
563.441	816.06
563.653	805.06
563.865	805.06
564.077	801.06
564.289	789.06
564.501	781.06
564.713	804.06
564.925	864.06
565.137	891.06
565.349	813.06
565.561	808.06
565.773	829.06
565.985	822.06
566.197	878.06
566.408	919.06
566.62	901.06
566.832	909.06
567.044	905.06
567.255	900.06
567.467	891.06
567.679	951.06
567.891	943.06
568.102	869.06
568.314	843.06
568.526	809.06
568.737	790.06
568.949	742.06
569.161	715.06
569.372	691.06
569.584	699.06
569.795	685.06
570.007	669.06
570.218	663.06
570.43	653.06
570.641	658.06
570.853	670.06
571.064	678.06
571.276	687.06
571.487	657.06
571.698	663.06
571.91	641.06
572.121	620.06
572.333	630.06
572.544	618.06
572.755	584.06
572.966	593.06
573.178	598.06
573.389	600.06
573.6	612.06
573.811	656.06
574.023	620.06
574.234	604.06
574.445	589.06
574.656	550.06
574.867	583.06
575.078	584.06
575.289	581.06
575.501	566.06
575.712	569.06
575.923	554.06
576.134	556.06
576.345	533.06
576.556	558.06
576.767	535.06
576.978	543.06
577.188	579.06
577.399	538.06
577.61	535.06
577.821	510.06
578.032	517.06
578.243	525.06
578.454	522.06
578.665	501.06
578.875	495.06
579.086	491.06
579.297	532.06
579.508	534.06
579.718	518.06
579.929	514.06
580.14	488.06
580.35	477.06
580.561	528.06
580.772	535.06
580.982	535.06
581.193	515.06
581.403	486.06
581.614	503.06
581.825	482.06
582.035	487.06
582.246	502.06
582.456	509.06
582.667	490.06
582.877	485.06
583.087	452.06
583.298	480.06
583.508	475.06
583.719	484.06
583.929	488.06
584.139	484.06
584.35	483.06
584.56	463.06
584.77	491.06
584.981	471.06
585.191	479.06
585.401	486.06
585.611	481.06
585.821	469.06
586.032	466.06
586.242	451.06
586.452	467.06
586.662	501.06
586.872	472.06
587.082	437.06
587.292	480.06
587.502	463.06
587.713	465.06
587.923	457.06
588.133	461.06
588.343	460.06
588.553	465.06
588.762	475.06
588.972	457.06
589.182	469.06
589.392	464.06
589.602	440.06
589.812	459.06
590.022	448.06
590.232	435.06
590.441	446.06
590.651	447.06
590.861	456.06
591.071	436.06
591.281	447.06
591.49	455.06
591.7	446.06
591.91	445.06
592.119	472.06
592.329	455.06
592.539	459.06
592.748	455.06
592.958	481.06
593.167	483.06
593.377	517.06
593.587	497.06
593.796	483.06
594.006	477.06
594.215	489.06
594.424	471.06
594.634	466.06
594.843	455.06
595.053	473.06
595.262	478.06
595.472	457.06
595.681	476.06
595.89	452.06
596.1	437.06
596.309	447.06
596.518	448.06
596.727	439.06
596.937	426.06
597.146	420.06
597.355	416.06
597.564	413.06
597.774	429.06
597.983	408.06
598.192	409.06
598.401	389.06
598.61	396.06
598.819	415.06
599.028	396.06
599.237	403.06
599.446	395.06
599.655	412.06
599.864	401.06
600.073	399.06
600.282	403.06
600.491	392.06
600.7	392.06
600.909	387.06
601.118	407.06
601.327	397.06
601.536	404.06
601.745	396.06
601.953	407.06
602.162	423.06
602.371	431.06
602.58	442.06
602.789	424.06
602.997	437.06
603.206	420.06
603.415	423.06
603.623	418.06
603.832	427.06
604.041	396.06
604.249	411.06
604.458	377.06
604.666	386.06
604.875	405.06
605.084	391.06
605.292	396.06
605.501	416.06
605.709	430.06
605.918	416.06
606.126	426.06
606.334	415.06
606.543	392.06
606.751	403.06
606.96	411.06
607.168	425.06
607.376	395.06
607.585	407.06
607.793	408.06
608.001	418.06
608.21	401.06
608.418	381.06
608.626	406.06
608.834	394.06
609.043	392.06
609.251	399.06
609.459	399.06
609.667	413.06
609.875	406.06
610.083	418.06
610.291	431.06
610.499	411.06
610.707	412.06
610.916	402.06
611.124	409.06
611.332	397.06
611.54	409.06
611.748	405.06
611.955	385.06
612.163	401.06
612.371	392.06
612.579	389.06
612.787	379.06
612.995	400.06
613.203	396.06
613.411	403.06
613.618	386.06
613.826	382.06
614.034	383.06
614.242	405.06
614.449	389.06
614.657	391.06
614.865	380.06
615.072	374.06
615.28	376.06
615.488	384.06
615.695	397.06
615.903	389.06
616.111	395.06
616.318	396.06
616.526	397.06
616.733	376.06
616.941	390.06
617.148	389.06
617.356	380.06
617.563	385.06
617.771	355.06
617.978	373.06
618.185	361.06
618.393	393.06
618.6	383.06
618.807	367.06
619.015	371.06
619.222	363.06
619.429	368.06
619.637	369.06
619.844	353.06
620.051	355.06
620.258	363.06
620.466	357.06
620.673	367.06
620.88	345.06
621.087	363.06
621.294	355.06
621.501	319.06
621.708	341.06
621.915	356.06
622.122	353.06
622.329	352.06
622.536	349.06
622.743	342.06
622.95	351.06
623.157	342.06
623.364	362.06
623.571	374.06
623.778	350.06
623.985	381.06
624.192	359.06
624.399	347.06
624.606	358.06
624.812	337.06
625.019	336.06
625.226	331.06
625.433	336.06
625.639	324.06
625.846	315.06
626.053	304.06
626.259	303.06
626.466	291.06
626.673	277.06
626.879	292.06
627.086	295.06
627.293	312.06
627.499	335.06
627.706	327.06
627.912	327.06
628.119	310.06
628.325	334.06
628.532	314.06
628.738	331.06
628.945	323.06
629.151	315.06
629.357	325.06
629.564	330.06
629.77	317.06
629.976	291.06
630.183	320.06
630.389	325.06
630.595	314.06
630.802	290.06
631.008	307.06
631.214	293.06
631.42	301.06
631.627	292.06
631.833	309.06
632.039	300.06
632.245	304.06
632.451	299.06
632.657	308.06
632.863	288.06
633.069	285.06
633.275	309.06
633.481	296.06
633.688	287.06
633.893	296.06
634.099	290.06
634.305	283.06
634.511	290.06
634.717	286.06
634.923	274.06
635.129	265.06
635.335	277.06
635.541	286.06
635.747	261.06
635.952	292.06
636.158	287.06
636.364	289.06
636.57	291.06
636.775	273.06
636.981	288.06
637.187	313.06
637.392	253.06
637.598	281.06
637.804	261.06
638.009	269.06
638.215	295.06
638.421	269.06
638.626	279.06
638.832	285.06
639.037	293.06
639.243	260.06
639.448	273.06
639.654	271.06
639.859	262.06
640.065	273.06
640.27	276.06
640.475	269.06
640.681	259.06
640.886	284.06
641.091	263.06
641.297	276.06
641.502	277.06
641.707	271.06
641.913	273.06
642.118	285.06
642.323	273.06
642.528	270.06
642.733	270.06
642.939	271.06
643.144	266.06
643.349	267.06
643.554	276.06
643.759	271.06
643.964	243.06
644.169	250.06
644.374	249.06
644.579	248.06
644.784	254.06
644.989	261.06
645.194	260.06
645.399	268.06
645.604	269.06
645.809	263.06
646.014	275.06
646.219	262.06
646.423	256.06
646.628	271.06
646.833	263.06
647.038	264.06
647.243	263.06
647.447	262.06
647.652	260.06
647.857	268.06
648.062	260.06
648.266	262.06
648.471	278.06
648.676	259.06
648.88	272.06
649.085	264.06
649.289	266.06
649.494	254.06
649.698	265.06
649.903	269.06
650.107	248.06
650.312	257.06
650.516	243.06
650.721	242.06
650.925	267.06
651.13	256.06
651.334	208.06
651.539	236.06
651.743	227.06
651.947	243.06
652.152	261.06
652.356	244.06
652.56	234.06
652.764	229.06
652.969	241.06
653.173	224.06
653.377	224.06
653.581	224.06
653.785	233.06
653.99	247.06
654.194	218.06
654.398	234.06
654.602	228.06
654.806	226.06
655.01	207.06
655.214	221.06
655.418	233.06
655.622	223.06
655.826	254.06
656.03	230.06
656.234	259.06
656.438	270.06
656.642	248.06
656.846	261.06
657.049	247.06
657.253	220.06
657.457	199.06
657.661	195.06
657.865	179.06
658.068	171.06
658.272	165.06
658.476	161.06
658.68	155.06
658.883	181.06
659.087	172.06
659.291	149.06
659.494	139.06
659.698	153.06
659.901	137.06
660.105	147.06
660.309	143.06
660.512	124.06
660.716	140.06
660.919	135.06
661.123	117.06
661.326	126.06
661.53	112.06
661.733	110.06
661.936	110.06
662.14	109.06
662.343	105.06
662.546	106.06
662.75	101.06
662.953	106.06
663.156	95.06
663.36	98.06
663.563	98.06
663.766	88.06
663.969	106.06
664.173	95.06
664.376	93.06
664.579	82.06
664.782	88.06
664.985	79.06
665.188	100.06
665.391	78.06
665.594	91.06
665.797	83.06
666	77.06
666.203	82.06
666.406	87.06
666.609	91.06
666.812	101.06
667.015	108.06
667.218	87.06
667.421	81.06
667.624	95.06
667.827	76.06
668.03	81.06
668.232	74.06
668.435	92.06
668.638	75.06
668.841	85.06
669.043	81.06
669.246	96.06
669.449	96.06
669.651	96.06
669.854	86.06
670.057	86.06
670.259	87.06
670.462	83.06
670.665	83.06
670.867	92.06
671.07	80.06
671.272	83.06
671.475	87.06
671.677	83.06
671.88	95.06
672.082	74.06
672.284	77.06
672.487	94.06
672.689	94.06
672.892	88.06
