Data from WStandard_LampEnergy10_LIBS07252019.E.O._I.C._HRD10591_15-55-44-928.txt Node
Date: Thu Jul 25 15:55:44 EDT 2019
User: cochatt
Spectrometer: HR+D1059
Trigger mode: 1
Integration Time (sec): 1.000000E-1
Scans to average: 1
Electric dark correction enabled: true
Nonlinearity correction enabled: false
Boxcar width: 0
XAxis mode: Wavelengths
Number of Pixels in Spectrum: 2048
>>>>>Begin Spectral Data<<<<<
223.165	-22.88
223.4	-22.88
223.635	-22.88
223.869	-20.88
224.104	-14.88
224.338	-1.88
224.573	-5.88
224.808	-4.88
225.042	-10.88
225.277	-3.88
225.511	-1.88
225.746	-3.88
225.98	4.12
226.215	6.12
226.449	17.12
226.683	14.12
226.918	30.12
227.152	20.12
227.387	33.12
227.621	29.12
227.856	47.12
228.09	45.12
228.324	45.12
228.559	40.12
228.793	72.12
229.027	134.12
229.262	133.12
229.496	152.12
229.73	158.12
229.964	164.12
230.199	169.12
230.433	169.12
230.667	184.12
230.901	177.12
231.136	189.12
231.37	182.12
231.604	178.12
231.838	168.12
232.072	174.12
232.306	178.12
232.541	193.12
232.775	207.12
233.009	201.12
233.243	213.12
233.477	179.12
233.711	186.12
233.945	177.12
234.179	192.12
234.413	207.12
234.647	200.12
234.881	212.12
235.115	187.12
235.349	195.12
235.583	198.12
235.817	205.12
236.051	189.12
236.285	196.12
236.519	208.12
236.753	227.12
236.987	217.12
237.221	222.12
237.455	259.12
237.689	215.12
237.922	226.12
238.156	228.12
238.39	219.12
238.624	244.12
238.858	245.12
239.091	251.12
239.325	268.12
239.559	293.12
239.793	289.12
240.027	314.12
240.26	285.12
240.494	227.12
240.728	228.12
240.961	224.12
241.195	225.12
241.429	244.12
241.662	247.12
241.896	238.12
242.13	246.12
242.363	270.12
242.597	285.12
242.83	279.12
243.064	276.12
243.298	286.12
243.531	288.12
243.765	275.12
243.998	284.12
244.232	232.12
244.465	239.12
244.699	264.12
244.932	293.12
245.166	322.12
245.399	280.12
245.633	279.12
245.866	296.12
246.099	304.12
246.333	279.12
246.566	301.12
246.8	322.12
247.033	336.12
247.266	313.12
247.5	324.12
247.733	319.12
247.966	332.12
248.2	371.12
248.433	339.12
248.666	362.12
248.899	411.12
249.133	415.12
249.366	495.12
249.599	397.12
249.832	360.12
250.066	379.12
250.299	371.12
250.532	321.12
250.765	315.12
250.998	353.12
251.231	357.12
251.465	360.12
251.698	344.12
251.931	323.12
252.164	361.12
252.397	358.12
252.63	348.12
252.863	333.12
253.096	334.12
253.329	337.12
253.562	356.12
253.795	376.12
254.028	355.12
254.261	339.12
254.494	347.12
254.727	325.12
254.96	342.12
255.193	383.12
255.426	415.12
255.659	479.12
255.892	452.12
256.124	385.12
256.357	389.12
256.59	388.12
256.823	403.12
257.056	419.12
257.289	468.12
257.521	515.12
257.754	467.12
257.987	460.12
258.22	484.12
258.452	468.12
258.685	399.12
258.918	410.12
259.151	411.12
259.383	379.12
259.616	353.12
259.849	380.12
260.081	403.12
260.314	458.12
260.547	477.12
260.779	472.12
261.012	413.12
261.244	400.12
261.477	393.12
261.71	426.12
261.942	403.12
262.175	404.12
262.407	403.12
262.64	383.12
262.872	363.12
263.105	359.12
263.337	381.12
263.57	355.12
263.802	379.12
264.035	351.12
264.267	327.12
264.499	344.12
264.732	363.12
264.964	383.12
265.197	383.12
265.429	416.12
265.661	445.12
265.894	494.12
266.126	486.12
266.358	469.12
266.591	469.12
266.823	469.12
267.055	468.12
267.287	458.12
267.52	452.12
267.752	461.12
267.984	448.12
268.216	445.12
268.448	455.12
268.681	471.12
268.913	440.12
269.145	400.12
269.377	427.12
269.609	449.12
269.841	534.12
270.073	569.12
270.306	623.12
270.538	613.12
270.77	554.12
271.002	481.12
271.234	485.12
271.466	464.12
271.698	543.12
271.93	608.12
272.162	594.12
272.394	537.12
272.626	515.12
272.858	457.12
273.09	429.12
273.322	400.12
273.553	405.12
273.785	385.12
274.017	399.12
274.249	451.12
274.481	441.12
274.713	417.12
274.945	432.12
275.176	417.12
275.408	407.12
275.64	405.12
275.872	428.12
276.104	458.12
276.335	501.12
276.567	533.12
276.799	527.12
277.031	471.12
277.262	471.12
277.494	504.12
277.726	504.12
277.957	499.12
278.189	473.12
278.421	420.12
278.652	434.12
278.884	448.12
279.115	438.12
279.347	428.12
279.579	440.12
279.81	461.12
280.042	486.12
280.273	500.12
280.505	507.12
280.736	518.12
280.968	486.12
281.199	425.12
281.431	420.12
281.662	412.12
281.894	437.12
282.125	440.12
282.356	440.12
282.588	441.12
282.819	475.12
283.051	504.12
283.282	521.12
283.513	504.12
283.745	437.12
283.976	427.12
284.207	441.12
284.439	434.12
284.67	452.12
284.901	448.12
285.132	480.12
285.364	438.12
285.595	452.12
285.826	449.12
286.057	440.12
286.288	432.12
286.52	467.12
286.751	510.12
286.982	490.12
287.213	456.12
287.444	424.12
287.675	453.12
287.906	439.12
288.138	485.12
288.369	482.12
288.6	437.12
288.831	432.12
289.062	448.12
289.293	456.12
289.524	449.12
289.755	463.12
289.986	471.12
290.217	441.12
290.448	455.12
290.679	466.12
290.91	474.12
291.141	483.12
291.371	490.12
291.602	468.12
291.833	481.12
292.064	513.12
292.295	483.12
292.526	484.12
292.757	519.12
292.987	505.12
293.218	480.12
293.449	543.12
293.68	579.12
293.91	585.12
294.141	557.12
294.372	572.12
294.603	581.12
294.833	571.12
295.064	552.12
295.295	499.12
295.525	453.12
295.756	450.12
295.987	427.12
296.217	455.12
296.448	454.12
296.679	440.12
296.909	457.12
297.14	466.12
297.37	500.12
297.601	515.12
297.831	523.12
298.062	522.12
298.292	483.12
298.523	467.12
298.753	481.12
298.984	479.12
299.214	488.12
299.445	495.12
299.675	487.12
299.905	512.12
300.136	469.12
300.366	465.12
300.597	464.12
300.827	476.12
301.057	494.12
301.288	511.12
301.518	484.12
301.748	494.12
301.979	550.12
302.209	550.12
302.439	577.12
302.669	591.12
302.9	559.12
303.13	508.12
303.36	518.12
303.59	516.12
303.82	518.12
304.051	519.12
304.281	508.12
304.511	526.12
304.741	563.12
304.971	598.12
305.201	639.12
305.431	549.12
305.661	487.12
305.891	454.12
306.121	456.12
306.352	490.12
306.582	521.12
306.812	545.12
307.042	573.12
307.272	592.12
307.502	595.12
307.731	639.12
307.961	647.12
308.191	572.12
308.421	533.12
308.651	517.12
308.881	507.12
309.111	505.12
309.341	501.12
309.571	514.12
309.8	477.12
310.03	501.12
310.26	481.12
310.49	480.12
310.72	494.12
310.949	521.12
311.179	551.12
311.409	516.12
311.639	541.12
311.868	498.12
312.098	500.12
312.328	513.12
312.557	508.12
312.787	525.12
313.017	523.12
313.246	512.12
313.476	520.12
313.706	523.12
313.935	530.12
314.165	534.12
314.394	576.12
314.624	608.12
314.853	611.12
315.083	617.12
315.312	642.12
315.542	592.12
315.771	544.12
316.001	564.12
316.23	582.12
316.46	575.12
316.689	557.12
316.919	502.12
317.148	525.12
317.377	531.12
317.607	602.12
317.836	628.12
318.065	639.12
318.295	602.12
318.524	588.12
318.753	556.12
318.983	565.12
319.212	555.12
319.441	550.12
319.67	563.12
319.9	577.12
320.129	613.12
320.358	623.12
320.587	628.12
320.816	633.12
321.046	590.12
321.275	576.12
321.504	587.12
321.733	623.12
321.962	592.12
322.191	555.12
322.42	552.12
322.649	550.12
322.878	555.12
323.108	571.12
323.337	603.12
323.566	564.12
323.795	583.12
324.024	570.12
324.253	541.12
324.482	548.12
324.71	531.12
324.939	518.12
325.168	557.12
325.397	575.12
325.626	594.12
325.855	576.12
326.084	573.12
326.313	555.12
326.542	574.12
326.77	575.12
326.999	572.12
327.228	551.12
327.457	547.12
327.686	542.12
327.914	551.12
328.143	576.12
328.372	576.12
328.6	550.12
328.829	540.12
329.058	544.12
329.287	556.12
329.515	551.12
329.744	585.12
329.972	636.12
330.201	638.12
330.43	616.12
330.658	589.12
330.887	595.12
331.115	615.12
331.344	596.12
331.572	601.12
331.801	612.12
332.03	583.12
332.258	593.12
332.486	582.12
332.715	617.12
332.943	607.12
333.172	591.12
333.4	596.12
333.629	624.12
333.857	707.12
334.085	781.12
334.314	823.12
334.542	811.12
334.771	773.12
334.999	701.12
335.227	663.12
335.455	627.12
335.684	624.12
335.912	658.12
336.14	675.12
336.369	624.12
336.597	600.12
336.825	619.12
337.053	637.12
337.281	666.12
337.51	711.12
337.738	709.12
337.966	658.12
338.194	602.12
338.422	593.12
338.65	584.12
338.878	600.12
339.106	575.12
339.334	560.12
339.562	571.12
339.79	595.12
340.018	619.12
340.246	627.12
340.474	635.12
340.702	628.12
340.93	639.12
341.158	621.12
341.386	587.12
341.614	603.12
341.842	630.12
342.07	587.12
342.298	593.12
342.526	598.12
342.754	609.12
342.981	595.12
343.209	569.12
343.437	591.12
343.665	609.12
343.893	609.12
344.12	664.12
344.348	623.12
344.576	643.12
344.804	607.12
345.031	595.12
345.259	588.12
345.487	567.12
345.714	577.12
345.942	582.12
346.17	567.12
346.397	583.12
346.625	547.12
346.853	588.12
347.08	539.12
347.308	564.12
347.535	569.12
347.763	596.12
347.99	567.12
348.218	565.12
348.445	571.12
348.673	582.12
348.9	597.12
349.128	606.12
349.355	622.12
349.583	592.12
349.81	588.12
350.037	532.12
350.265	533.12
350.492	557.12
350.72	571.12
350.947	563.12
351.174	565.12
351.402	570.12
351.629	527.12
351.856	529.12
352.083	544.12
352.311	547.12
352.538	547.12
352.765	579.12
352.992	597.12
353.22	570.12
353.447	560.12
353.674	581.12
353.901	557.12
354.128	537.12
354.355	541.12
354.583	590.12
354.81	603.12
355.037	597.12
355.264	588.12
355.491	579.12
355.718	597.12
355.945	569.12
356.172	567.12
356.399	552.12
356.626	552.12
356.853	598.12
357.08	670.12
357.307	679.12
357.534	641.12
357.761	589.12
357.988	542.12
358.215	540.12
358.441	534.12
358.668	543.12
358.895	542.12
359.122	620.12
359.349	635.12
359.576	611.12
359.802	567.12
360.029	543.12
360.256	546.12
360.483	550.12
360.709	594.12
360.936	624.12
361.163	639.12
361.39	673.12
361.616	727.12
361.843	697.12
362.07	631.12
362.296	585.12
362.523	545.12
362.749	577.12
362.976	568.12
363.203	594.12
363.429	575.12
363.656	568.12
363.882	579.12
364.109	646.12
364.335	679.12
364.562	620.12
364.788	616.12
365.015	580.12
365.241	563.12
365.468	597.12
365.694	617.12
365.92	606.12
366.147	584.12
366.373	571.12
366.599	569.12
366.826	570.12
367.052	582.12
367.278	570.12
367.505	593.12
367.731	595.12
367.957	613.12
368.184	644.12
368.41	653.12
368.636	664.12
368.862	649.12
369.089	638.12
369.315	653.12
369.541	631.12
369.767	618.12
369.993	581.12
370.219	594.12
370.445	615.12
370.672	671.12
370.898	675.12
371.124	663.12
371.35	633.12
371.576	663.12
371.802	655.12
372.028	641.12
372.254	612.12
372.48	606.12
372.706	611.12
372.932	613.12
373.158	625.12
373.384	609.12
373.61	684.12
373.835	663.12
374.061	653.12
374.287	647.12
374.513	639.12
374.739	649.12
374.965	648.12
375.191	645.12
375.416	655.12
375.642	677.12
375.868	711.12
376.094	697.12
376.319	678.12
376.545	649.12
376.771	676.12
376.997	699.12
377.222	691.12
377.448	660.12
377.674	697.12
377.899	687.12
378.125	715.12
378.35	691.12
378.576	637.12
378.802	626.12
379.027	627.12
379.253	624.12
379.478	633.12
379.704	639.12
379.929	631.12
380.155	647.12
380.38	641.12
380.606	661.12
380.831	663.12
381.057	708.12
381.282	715.12
381.507	705.12
381.733	732.12
381.958	743.12
382.184	702.12
382.409	693.12
382.634	700.12
382.86	701.12
383.085	689.12
383.31	723.12
383.535	780.12
383.761	797.12
383.986	746.12
384.211	744.12
384.436	736.12
384.662	755.12
384.887	776.12
385.112	746.12
385.337	766.12
385.562	741.12
385.787	760.12
386.013	771.12
386.238	772.12
386.463	776.12
386.688	847.12
386.913	878.12
387.138	809.12
387.363	771.12
387.588	753.12
387.813	753.12
388.038	797.12
388.263	793.12
388.488	764.12
388.713	751.12
388.938	714.12
389.163	730.12
389.387	754.12
389.612	747.12
389.837	768.12
390.062	783.12
390.287	750.12
390.512	748.12
390.736	752.12
390.961	746.12
391.186	707.12
391.411	731.12
391.636	771.12
391.86	751.12
392.085	759.12
392.31	753.12
392.534	755.12
392.759	795.12
392.984	778.12
393.208	779.12
393.433	807.12
393.658	837.12
393.882	817.12
394.107	783.12
394.331	741.12
394.556	798.12
394.78	785.12
395.005	805.12
395.229	836.12
395.454	842.12
395.678	839.12
395.903	848.12
396.127	807.12
396.352	840.12
396.576	868.12
396.801	830.12
397.025	845.12
397.249	825.12
397.474	814.12
397.698	827.12
397.922	838.12
398.147	898.12
398.371	944.12
398.595	927.12
398.82	869.12
399.044	882.12
399.268	928.12
399.492	966.12
399.717	995.12
399.941	1001.12
400.165	991.12
400.389	960.12
400.613	1001.12
400.837	1142.12
401.062	1179.12
401.286	1050.12
401.51	975.12
401.734	962.12
401.958	940.12
402.182	900.12
402.406	878.12
402.63	888.12
402.854	869.12
403.078	912.12
403.302	926.12
403.526	909.12
403.75	932.12
403.974	941.12
404.198	953.12
404.422	965.12
404.645	1007.12
404.869	966.12
405.093	912.12
405.317	895.12
405.541	903.12
405.765	937.12
405.988	919.12
406.212	966.12
406.436	953.12
406.66	996.12
406.883	1003.12
407.107	1143.12
407.331	1230.12
407.555	1287.12
407.778	1150.12
408.002	975.12
408.226	936.12
408.449	963.12
408.673	943.12
408.896	964.12
409.12	947.12
409.344	948.12
409.567	919.12
409.791	961.12
410.014	961.12
410.238	1013.12
410.461	1081.12
410.685	968.12
410.908	942.12
411.132	928.12
411.355	925.12
411.578	944.12
411.802	909.12
412.025	964.12
412.249	932.12
412.472	911.12
412.695	917.12
412.919	911.12
413.142	908.12
413.365	936.12
413.589	982.12
413.812	990.12
414.035	983.12
414.258	956.12
414.482	913.12
414.705	920.12
414.928	917.12
415.151	905.12
415.374	906.12
415.597	942.12
415.821	911.12
416.044	964.12
416.267	958.12
416.49	907.12
416.713	926.12
416.936	979.12
417.159	968.12
417.382	947.12
417.605	913.12
417.828	930.12
418.051	926.12
418.274	929.12
418.497	905.12
418.72	939.12
418.943	908.12
419.166	963.12
419.389	984.12
419.611	975.12
419.834	956.12
420.057	947.12
420.28	930.12
420.503	931.12
420.726	949.12
420.948	932.12
421.171	909.12
421.394	952.12
421.617	986.12
421.839	967.12
422.062	963.12
422.285	947.12
422.507	924.12
422.73	870.12
422.953	862.12
423.175	895.12
423.398	933.12
423.621	928.12
423.843	962.12
424.066	1017.12
424.288	1013.12
424.511	1034.12
424.733	1002.12
424.956	922.12
425.178	905.12
425.401	928.12
425.623	933.12
425.846	928.12
426.068	992.12
426.291	992.12
426.513	969.12
426.735	961.12
426.958	1046.12
427.18	1021.12
427.402	994.12
427.625	1006.12
427.847	991.12
428.069	896.12
428.292	917.12
428.514	913.12
428.736	899.12
428.958	910.12
429.181	938.12
429.403	1077.12
429.625	1225.12
429.847	1059.12
430.069	919.12
430.292	1068.12
430.514	1027.12
430.736	1002.12
430.958	996.12
431.18	938.12
431.402	889.12
431.624	896.12
431.846	823.12
432.068	727.12
432.29	755.12
432.512	788.12
432.734	859.12
432.956	912.12
433.178	959.12
433.4	963.12
433.622	936.12
433.844	893.12
434.066	840.12
434.287	801.12
434.509	787.12
434.731	837.12
434.953	936.12
435.175	944.12
435.397	899.12
435.618	899.12
435.84	840.12
436.062	823.12
436.284	919.12
436.505	951.12
436.727	948.12
436.949	922.12
437.17	904.12
437.392	901.12
437.614	860.12
437.835	825.12
438.057	817.12
438.278	837.12
438.5	837.12
438.721	901.12
438.943	935.12
439.165	915.12
439.386	911.12
439.608	973.12
439.829	944.12
440.05	941.12
440.272	953.12
440.493	951.12
440.715	984.12
440.936	1023.12
441.158	1071.12
441.379	1038.12
441.6	1049.12
441.822	1012.12
442.043	1040.12
442.264	1006.12
442.486	957.12
442.707	963.12
442.928	944.12
443.149	1006.12
443.371	1037.12
443.592	993.12
443.813	961.12
444.034	1022.12
444.255	1025.12
444.476	1005.12
444.698	1035.12
444.919	1056.12
445.14	1104.12
445.361	1102.12
445.582	1075.12
445.803	1054.12
446.024	1053.12
446.245	1076.12
446.466	1062.12
446.687	1027.12
446.908	1046.12
447.129	1033.12
447.35	1013.12
447.571	997.12
447.792	963.12
448.013	944.12
448.234	979.12
448.455	975.12
448.675	963.12
448.896	935.12
449.117	891.12
449.338	926.12
449.559	963.12
449.779	992.12
450	1027.12
450.221	1031.12
450.442	1012.12
450.662	940.12
450.883	874.12
451.104	873.12
451.324	887.12
451.545	903.12
451.766	851.12
451.986	847.12
452.207	819.12
452.428	793.12
452.648	792.12
452.869	789.12
453.089	793.12
453.31	756.12
453.53	741.12
453.751	749.12
453.971	707.12
454.192	715.12
454.412	761.12
454.633	777.12
454.853	801.12
455.073	768.12
455.294	799.12
455.514	781.12
455.734	757.12
455.955	764.12
456.175	780.12
456.395	734.12
456.616	740.12
456.836	733.12
457.056	740.12
457.276	733.12
457.497	691.12
457.717	681.12
457.937	721.12
458.157	740.12
458.377	689.12
458.598	667.12
458.818	692.12
459.038	685.12
459.258	743.12
459.478	726.12
459.698	707.12
459.918	746.12
460.138	825.12
460.358	828.12
460.578	864.12
460.798	836.12
461.018	933.12
461.238	872.12
461.458	895.12
461.678	831.12
461.898	846.12
462.118	804.12
462.338	843.12
462.558	857.12
462.777	840.12
462.997	877.12
463.217	895.12
463.437	893.12
463.657	858.12
463.876	831.12
464.096	837.12
464.316	802.12
464.536	861.12
464.755	878.12
464.975	880.12
465.195	827.12
465.414	872.12
465.634	871.12
465.854	872.12
466.073	956.12
466.293	945.12
466.512	860.12
466.732	905.12
466.951	913.12
467.171	916.12
467.391	881.12
467.61	890.12
467.829	937.12
468.049	983.12
468.268	1057.12
468.488	963.12
468.707	929.12
468.927	909.12
469.146	888.12
469.365	912.12
469.585	924.12
469.804	891.12
470.023	954.12
470.243	932.12
470.462	919.12
470.681	925.12
470.901	933.12
471.12	955.12
471.339	942.12
471.558	928.12
471.777	903.12
471.997	885.12
472.216	839.12
472.435	771.12
472.654	795.12
472.873	794.12
473.092	832.12
473.311	829.12
473.53	806.12
473.749	820.12
473.968	840.12
474.187	842.12
474.406	839.12
474.625	836.12
474.844	889.12
475.063	862.12
475.282	875.12
475.501	845.12
475.72	863.12
475.939	903.12
476.158	908.12
476.377	854.12
476.596	832.12
476.814	847.12
477.033	812.12
477.252	839.12
477.471	894.12
477.69	892.12
477.908	916.12
478.127	957.12
478.346	1001.12
478.564	1019.12
478.783	1004.12
479.002	1039.12
479.22	993.12
479.439	983.12
479.658	1057.12
479.876	963.12
480.095	899.12
480.313	897.12
480.532	886.12
480.751	857.12
480.969	831.12
481.188	798.12
481.406	792.12
481.624	776.12
481.843	805.12
482.061	837.12
482.28	867.12
482.498	897.12
482.717	850.12
482.935	878.12
483.153	989.12
483.372	1034.12
483.59	1011.12
483.808	1001.12
484.027	948.12
484.245	1010.12
484.463	1190.12
484.681	1275.12
484.9	1014.12
485.118	969.12
485.336	918.12
485.554	904.12
485.772	885.12
485.99	873.12
486.209	890.12
486.427	907.12
486.645	937.12
486.863	1022.12
487.081	1038.12
487.299	1007.12
487.517	1025.12
487.735	1109.12
487.953	1194.12
488.171	1155.12
488.389	1153.12
488.607	1093.12
488.825	1124.12
489.043	1033.12
489.261	978.12
489.479	1022.12
489.696	1094.12
489.914	1039.12
490.132	1036.12
490.35	1077.12
490.568	1179.12
490.786	1184.12
491.003	1161.12
491.221	1241.12
491.439	1301.12
491.657	1335.12
491.874	1370.12
492.092	1452.12
492.31	1512.12
492.527	1478.12
492.745	1396.12
492.963	1283.12
493.18	1273.12
493.398	1364.12
493.615	1353.12
493.833	1294.12
494.05	1215.12
494.268	1242.12
494.485	1232.12
494.703	1221.12
494.92	1219.12
495.138	1215.12
495.355	1268.12
495.573	1246.12
495.79	1274.12
496.008	1293.12
496.225	1269.12
496.442	1239.12
496.66	1222.12
496.877	1200.12
497.094	1214.12
497.312	1209.12
497.529	1180.12
497.746	1191.12
497.963	1264.12
498.181	1283.12
498.398	1251.12
498.615	1205.12
498.832	1179.12
499.049	1169.12
499.267	1163.12
499.484	1259.12
499.701	1312.12
499.918	1375.12
500.135	1479.12
500.352	1577.12
500.569	1542.12
500.786	1704.12
501.003	1591.12
501.22	1415.12
501.437	1420.12
501.654	1398.12
501.871	1340.12
502.088	1216.12
502.305	1227.12
502.522	1143.12
502.739	1099.12
502.956	1082.12
503.172	1069.12
503.389	1029.12
503.606	1031.12
503.823	1030.12
504.04	1004.12
504.256	1006.12
504.473	1000.12
504.69	1008.12
504.907	988.12
505.123	1001.12
505.34	1059.12
505.557	1351.12
505.773	1110.12
505.99	966.12
506.207	896.12
506.423	909.12
506.64	913.12
506.856	921.12
507.073	1023.12
507.289	1088.12
507.506	1033.12
507.722	919.12
507.939	897.12
508.155	871.12
508.372	805.12
508.588	828.12
508.805	793.12
509.021	799.12
509.238	772.12
509.454	773.12
509.67	753.12
509.887	720.12
510.103	743.12
510.319	745.12
510.536	786.12
510.752	774.12
510.968	757.12
511.184	828.12
511.401	763.12
511.617	737.12
511.833	704.12
512.049	697.12
512.265	717.12
512.481	729.12
512.698	735.12
512.914	771.12
513.13	730.12
513.346	693.12
513.562	704.12
513.778	688.12
513.994	747.12
514.21	731.12
514.426	781.12
514.642	845.12
514.858	766.12
515.074	743.12
515.29	705.12
515.506	763.12
515.721	747.12
515.937	744.12
516.153	831.12
516.369	763.12
516.585	735.12
516.801	730.12
517.016	727.12
517.232	759.12
517.448	755.12
517.664	792.12
517.879	795.12
518.095	809.12
518.311	775.12
518.527	743.12
518.742	753.12
518.958	734.12
519.173	765.12
519.389	777.12
519.605	807.12
519.82	806.12
520.036	788.12
520.251	767.12
520.467	761.12
520.682	816.12
520.898	799.12
521.113	721.12
521.329	725.12
521.544	761.12
521.76	735.12
521.975	717.12
522.19	711.12
522.406	734.12
522.621	916.12
522.836	843.12
523.052	722.12
523.267	723.12
523.482	727.12
523.698	722.12
523.913	724.12
524.128	769.12
524.343	807.12
524.559	824.12
524.774	779.12
524.989	779.12
525.204	769.12
525.419	764.12
525.634	744.12
525.849	733.12
526.064	741.12
526.28	718.12
526.495	649.12
526.71	651.12
526.925	642.12
527.14	624.12
527.355	619.12
527.57	640.12
527.785	639.12
527.999	655.12
528.214	663.12
528.429	691.12
528.644	720.12
528.859	785.12
529.074	817.12
529.289	873.12
529.503	881.12
529.718	812.12
529.933	755.12
530.148	671.12
530.363	654.12
530.577	633.12
530.792	646.12
531.007	618.12
531.221	601.12
531.436	644.12
531.651	651.12
531.865	682.12
532.08	640.12
532.295	638.12
532.509	605.12
532.724	631.12
532.938	650.12
533.153	706.12
533.367	720.12
533.582	716.12
533.796	732.12
534.011	716.12
534.225	668.12
534.44	632.12
534.654	631.12
534.868	651.12
535.083	712.12
535.297	711.12
535.511	659.12
535.726	682.12
535.94	690.12
536.154	651.12
536.369	631.12
536.583	592.12
536.797	596.12
537.011	606.12
537.225	596.12
537.44	620.12
537.654	672.12
537.868	647.12
538.082	611.12
538.296	583.12
538.51	620.12
538.724	670.12
538.938	697.12
539.153	728.12
539.367	730.12
539.581	683.12
539.795	665.12
540.009	656.12
540.222	653.12
540.436	672.12
540.65	750.12
540.864	786.12
541.078	835.12
541.292	855.12
541.506	881.12
541.72	963.12
541.934	1016.12
542.147	1069.12
542.361	976.12
542.575	923.12
542.789	847.12
543.002	765.12
543.216	737.12
543.43	775.12
543.644	789.12
543.857	914.12
544.071	897.12
544.285	906.12
544.498	936.12
544.712	947.12
544.925	959.12
545.139	965.12
545.352	908.12
545.566	916.12
545.779	933.12
545.993	952.12
546.206	974.12
546.42	939.12
546.633	961.12
546.847	944.12
547.06	935.12
547.274	976.12
547.487	968.12
547.7	989.12
547.914	959.12
548.127	942.12
548.34	929.12
548.554	919.12
548.767	899.12
548.98	938.12
549.193	942.12
549.407	965.12
549.62	942.12
549.833	903.12
550.046	896.12
550.259	908.12
550.473	864.12
550.686	890.12
550.899	848.12
551.112	863.12
551.325	807.12
551.538	851.12
551.751	867.12
551.964	724.12
552.177	731.12
552.39	782.12
552.603	831.12
552.816	884.12
553.029	924.12
553.242	935.12
553.455	887.12
553.667	888.12
553.88	931.12
554.093	867.12
554.306	850.12
554.519	808.12
554.732	802.12
554.944	849.12
555.157	851.12
555.37	801.12
555.583	801.12
555.795	772.12
556.008	771.12
556.221	716.12
556.433	723.12
556.646	711.12
556.859	717.12
557.071	748.12
557.284	741.12
557.496	742.12
557.709	760.12
557.921	747.12
558.134	743.12
558.346	723.12
558.559	711.12
558.771	716.12
558.984	678.12
559.196	695.12
559.409	668.12
559.621	671.12
559.833	669.12
560.046	663.12
560.258	696.12
560.47	693.12
560.683	648.12
560.895	683.12
561.107	669.12
561.32	686.12
561.532	670.12
561.744	662.12
561.956	699.12
562.168	648.12
562.381	636.12
562.593	635.12
562.805	618.12
563.017	647.12
563.229	629.12
563.441	635.12
563.653	632.12
563.865	641.12
564.077	624.12
564.289	623.12
564.501	611.12
564.713	641.12
564.925	657.12
565.137	653.12
565.349	629.12
565.561	621.12
565.773	617.12
565.985	625.12
566.197	653.12
566.408	668.12
566.62	673.12
566.832	693.12
567.044	668.12
567.255	662.12
567.467	654.12
567.679	670.12
567.891	665.12
568.102	602.12
568.314	560.12
568.526	555.12
568.737	526.12
568.949	497.12
569.161	470.12
569.372	458.12
569.584	471.12
569.795	479.12
570.007	453.12
570.218	461.12
570.43	436.12
570.641	458.12
570.853	470.12
571.064	453.12
571.276	508.12
571.487	478.12
571.698	460.12
571.91	465.12
572.121	446.12
572.333	451.12
572.544	439.12
572.755	429.12
572.966	406.12
573.178	397.12
573.389	405.12
573.6	412.12
573.811	449.12
574.023	409.12
574.234	386.12
574.445	385.12
574.656	381.12
574.867	404.12
575.078	405.12
575.289	408.12
575.501	401.12
575.712	393.12
575.923	401.12
576.134	394.12
576.345	419.12
576.556	404.12
576.767	397.12
576.978	397.12
577.188	402.12
577.399	379.12
577.61	368.12
577.821	360.12
578.032	354.12
578.243	372.12
578.454	367.12
578.665	357.12
578.875	348.12
579.086	337.12
579.297	340.12
579.508	373.12
579.718	353.12
579.929	363.12
580.14	341.12
580.35	349.12
580.561	361.12
580.772	391.12
580.982	368.12
581.193	345.12
581.403	364.12
581.614	324.12
581.825	358.12
582.035	350.12
582.246	352.12
582.456	356.12
582.667	352.12
582.877	336.12
583.087	349.12
583.298	340.12
583.508	313.12
583.719	320.12
583.929	334.12
584.139	313.12
584.35	329.12
584.56	335.12
584.77	318.12
584.981	325.12
585.191	329.12
585.401	340.12
585.611	337.12
585.821	324.12
586.032	315.12
586.242	315.12
586.452	332.12
586.662	314.12
586.872	316.12
587.082	323.12
587.292	313.12
587.502	328.12
587.713	329.12
587.923	295.12
588.133	312.12
588.343	316.12
588.553	320.12
588.762	321.12
588.972	317.12
589.182	320.12
589.392	323.12
589.602	323.12
589.812	315.12
590.022	323.12
590.232	326.12
590.441	313.12
590.651	325.12
590.861	307.12
591.071	307.12
591.281	313.12
591.49	302.12
591.7	314.12
591.91	318.12
592.119	304.12
592.329	321.12
592.539	338.12
592.748	331.12
592.958	327.12
593.167	304.12
593.377	317.12
593.587	344.12
593.796	324.12
594.006	322.12
594.215	348.12
594.424	333.12
594.634	345.12
594.843	334.12
595.053	343.12
595.262	322.12
595.472	325.12
595.681	315.12
595.89	322.12
596.1	301.12
596.309	321.12
596.518	328.12
596.727	330.12
596.937	329.12
597.146	314.12
597.355	289.12
597.564	296.12
597.774	289.12
597.983	303.12
598.192	301.12
598.401	284.12
598.61	292.12
598.819	289.12
599.028	307.12
599.237	309.12
599.446	292.12
599.655	299.12
599.864	295.12
600.073	296.12
600.282	296.12
600.491	312.12
600.7	297.12
600.909	317.12
601.118	300.12
601.327	332.12
601.536	348.12
601.745	346.12
601.953	340.12
602.162	346.12
602.371	351.12
602.58	352.12
602.789	359.12
602.997	336.12
603.206	360.12
603.415	356.12
603.623	364.12
603.832	367.12
604.041	334.12
604.249	317.12
604.458	296.12
604.666	296.12
604.875	293.12
605.084	330.12
605.292	329.12
605.501	349.12
605.709	371.12
605.918	361.12
606.126	359.12
606.334	346.12
606.543	353.12
606.751	362.12
606.96	345.12
607.168	369.12
607.376	359.12
607.585	352.12
607.793	343.12
608.001	361.12
608.21	371.12
608.418	359.12
608.626	375.12
608.834	364.12
609.043	347.12
609.251	358.12
609.459	342.12
609.667	372.12
609.875	357.12
610.083	372.12
610.291	366.12
610.499	367.12
610.707	375.12
610.916	346.12
611.124	373.12
611.332	371.12
611.54	364.12
611.748	365.12
611.955	364.12
612.163	365.12
612.371	358.12
612.579	377.12
612.787	364.12
612.995	366.12
613.203	369.12
613.411	369.12
613.618	346.12
613.826	359.12
614.034	372.12
614.242	368.12
614.449	373.12
614.657	366.12
614.865	361.12
615.072	372.12
615.28	367.12
615.488	387.12
615.695	388.12
615.903	372.12
616.111	348.12
616.318	341.12
616.526	357.12
616.733	354.12
616.941	365.12
617.148	339.12
617.356	342.12
617.563	363.12
617.771	330.12
617.978	301.12
618.185	344.12
618.393	343.12
618.6	350.12
618.807	357.12
619.015	353.12
619.222	364.12
619.429	322.12
619.637	313.12
619.844	314.12
620.051	310.12
620.258	323.12
620.466	326.12
620.673	326.12
620.88	324.12
621.087	331.12
621.294	319.12
621.501	302.12
621.708	310.12
621.915	323.12
622.122	331.12
622.329	326.12
622.536	330.12
622.743	327.12
622.95	329.12
623.157	328.12
623.364	344.12
623.571	340.12
623.778	327.12
623.985	331.12
624.192	320.12
624.399	328.12
624.606	335.12
624.812	313.12
625.019	303.12
625.226	298.12
625.433	290.12
625.639	284.12
625.846	268.12
626.053	272.12
626.259	240.12
626.466	233.12
626.673	252.12
626.879	240.12
627.086	273.12
627.293	279.12
627.499	292.12
627.706	301.12
627.912	309.12
628.119	296.12
628.325	296.12
628.532	275.12
628.738	285.12
628.945	291.12
629.151	290.12
629.357	297.12
629.564	280.12
629.77	278.12
629.976	287.12
630.183	264.12
630.389	275.12
630.595	279.12
630.802	281.12
631.008	272.12
631.214	288.12
631.42	251.12
631.627	275.12
631.833	265.12
632.039	251.12
632.245	280.12
632.451	274.12
632.657	282.12
632.863	282.12
633.069	268.12
633.275	286.12
633.481	275.12
633.688	261.12
633.893	251.12
634.099	256.12
634.305	252.12
634.511	262.12
634.717	229.12
634.923	219.12
635.129	249.12
635.335	241.12
635.541	248.12
635.747	248.12
635.952	248.12
636.158	249.12
636.364	266.12
636.57	247.12
636.775	261.12
636.981	286.12
637.187	273.12
637.392	271.12
637.598	281.12
637.804	270.12
638.009	261.12
638.215	240.12
638.421	270.12
638.626	265.12
638.832	257.12
639.037	254.12
639.243	243.12
639.448	233.12
639.654	267.12
639.859	249.12
640.065	236.12
640.27	273.12
640.475	254.12
640.681	261.12
640.886	261.12
641.091	237.12
641.297	263.12
641.502	246.12
641.707	255.12
641.913	265.12
642.118	251.12
642.323	257.12
642.528	259.12
642.733	240.12
642.939	234.12
643.144	253.12
643.349	250.12
643.554	255.12
643.759	234.12
643.964	241.12
644.169	236.12
644.374	230.12
644.579	248.12
644.784	255.12
644.989	258.12
645.194	255.12
645.399	227.12
645.604	252.12
645.809	241.12
646.014	271.12
646.219	244.12
646.423	240.12
646.628	248.12
646.833	233.12
647.038	248.12
647.243	228.12
647.447	255.12
647.652	252.12
647.857	228.12
648.062	243.12
648.266	240.12
648.471	251.12
648.676	225.12
648.88	243.12
649.085	244.12
649.289	245.12
649.494	239.12
649.698	247.12
649.903	247.12
650.107	260.12
650.312	236.12
650.516	231.12
650.721	236.12
650.925	217.12
651.13	245.12
651.334	224.12
651.539	245.12
651.743	242.12
651.947	220.12
652.152	207.12
652.356	215.12
652.56	202.12
652.764	205.12
652.969	203.12
653.173	215.12
653.377	218.12
653.581	216.12
653.785	215.12
653.99	209.12
654.194	223.12
654.398	198.12
654.602	190.12
654.806	213.12
655.01	219.12
655.214	208.12
655.418	214.12
655.622	209.12
655.826	202.12
656.03	209.12
656.234	223.12
656.438	228.12
656.642	241.12
656.846	220.12
657.049	225.12
657.253	208.12
657.457	195.12
657.661	184.12
657.865	175.12
658.068	179.12
658.272	171.12
658.476	164.12
658.68	150.12
658.883	153.12
659.087	145.12
659.291	136.12
659.494	125.12
659.698	151.12
659.901	129.12
660.105	124.12
660.309	112.12
660.512	137.12
660.716	136.12
660.919	125.12
661.123	115.12
661.326	101.12
661.53	121.12
661.733	119.12
661.936	102.12
662.14	101.12
662.343	106.12
662.546	92.12
662.75	107.12
662.953	105.12
663.156	90.12
663.36	83.12
663.563	97.12
663.766	84.12
663.969	101.12
664.173	111.12
664.376	93.12
664.579	84.12
664.782	87.12
664.985	68.12
665.188	97.12
665.391	86.12
665.594	89.12
665.797	92.12
666	91.12
666.203	83.12
666.406	87.12
666.609	90.12
666.812	89.12
667.015	96.12
667.218	80.12
667.421	84.12
667.624	89.12
667.827	108.12
668.03	81.12
668.232	80.12
668.435	74.12
668.638	78.12
668.841	95.12
669.043	84.12
669.246	87.12
669.449	92.12
669.651	87.12
669.854	86.12
670.057	91.12
670.259	79.12
670.462	86.12
670.665	83.12
670.867	95.12
671.07	92.12
671.272	79.12
671.475	94.12
671.677	92.12
671.88	91.12
672.082	84.12
672.284	81.12
672.487	90.12
672.689	91.12
672.892	91.12
