Data from WStandard_LampEnergy8_LIBS07252019.E.O._I.C._HRD10591_15-59-42-929.txt Node
Date: Thu Jul 25 15:59:42 EDT 2019
User: cochatt
Spectrometer: HR+D1059
Trigger mode: 1
Integration Time (sec): 1.000000E-1
Scans to average: 1
Electric dark correction enabled: true
Nonlinearity correction enabled: false
Boxcar width: 0
XAxis mode: Wavelengths
Number of Pixels in Spectrum: 2048
>>>>>Begin Spectral Data<<<<<
223.165	-17.12
223.4	-17.12
223.635	-17.12
223.869	-19.12
224.104	-11.12
224.338	-10.12
224.573	-6.12
224.808	-18.12
225.042	-16.12
225.277	1.88
225.511	-3.12
225.746	11.88
225.98	9.88
226.215	-4.12
226.449	14.88
226.683	6.88
226.918	29.88
227.152	29.88
227.387	36.88
227.621	32.88
227.856	38.88
228.09	49.88
228.324	42.88
228.559	59.88
228.793	94.88
229.027	205.88
229.262	206.88
229.496	221.88
229.73	207.88
229.964	231.88
230.199	249.88
230.433	258.88
230.667	273.88
230.901	277.88
231.136	263.88
231.37	259.88
231.604	261.88
231.838	262.88
232.072	265.88
232.306	248.88
232.541	265.88
232.775	302.88
233.009	319.88
233.243	317.88
233.477	289.88
233.711	299.88
233.945	304.88
234.179	314.88
234.413	318.88
234.647	334.88
234.881	308.88
235.115	284.88
235.349	315.88
235.583	284.88
235.817	303.88
236.051	294.88
236.285	292.88
236.519	306.88
236.753	330.88
236.987	348.88
237.221	342.88
237.455	373.88
237.689	377.88
237.922	348.88
238.156	336.88
238.39	365.88
238.624	353.88
238.858	393.88
239.091	383.88
239.325	415.88
239.559	470.88
239.793	451.88
240.027	500.88
240.26	483.88
240.494	380.88
240.728	355.88
240.961	367.88
241.195	378.88
241.429	401.88
241.662	433.88
241.896	388.88
242.13	392.88
242.363	428.88
242.597	456.88
242.83	439.88
243.064	419.88
243.298	466.88
243.531	454.88
243.765	479.88
243.998	463.88
244.232	402.88
244.465	397.88
244.699	411.88
244.932	447.88
245.166	499.88
245.399	470.88
245.633	456.88
245.866	437.88
246.099	455.88
246.333	474.88
246.566	479.88
246.8	521.88
247.033	548.88
247.266	541.88
247.5	528.88
247.733	518.88
247.966	527.88
248.2	590.88
248.433	578.88
248.666	635.88
248.899	635.88
249.133	718.88
249.366	778.88
249.599	694.88
249.832	582.88
250.066	595.88
250.299	610.88
250.532	585.88
250.765	544.88
250.998	538.88
251.231	565.88
251.465	573.88
251.698	540.88
251.931	569.88
252.164	580.88
252.397	607.88
252.63	604.88
252.863	557.88
253.096	532.88
253.329	547.88
253.562	550.88
253.795	603.88
254.028	586.88
254.261	556.88
254.494	563.88
254.727	519.88
254.96	572.88
255.193	630.88
255.426	690.88
255.659	777.88
255.892	754.88
256.124	653.88
256.357	656.88
256.59	703.88
256.823	686.88
257.056	703.88
257.289	820.88
257.521	863.88
257.754	775.88
257.987	738.88
258.22	818.88
258.452	788.88
258.685	661.88
258.918	657.88
259.151	668.88
259.383	612.88
259.616	577.88
259.849	604.88
260.081	669.88
260.314	737.88
260.547	805.88
260.779	804.88
261.012	739.88
261.244	679.88
261.477	665.88
261.71	666.88
261.942	672.88
262.175	673.88
262.407	686.88
262.64	652.88
262.872	650.88
263.105	623.88
263.337	634.88
263.57	617.88
263.802	591.88
264.035	564.88
264.267	581.88
264.499	555.88
264.732	613.88
264.964	636.88
265.197	654.88
265.429	696.88
265.661	750.88
265.894	797.88
266.126	841.88
266.358	772.88
266.591	787.88
266.823	846.88
267.055	791.88
267.287	749.88
267.52	729.88
267.752	731.88
267.984	750.88
268.216	775.88
268.448	782.88
268.681	767.88
268.913	692.88
269.145	692.88
269.377	643.88
269.609	742.88
269.841	855.88
270.073	984.88
270.306	1039.88
270.538	1089.88
270.77	892.88
271.002	813.88
271.234	792.88
271.466	822.88
271.698	890.88
271.93	1051.88
272.162	986.88
272.394	936.88
272.626	874.88
272.858	788.88
273.09	695.88
273.322	663.88
273.553	689.88
273.785	668.88
274.017	696.88
274.249	748.88
274.481	749.88
274.713	671.88
274.945	670.88
275.176	668.88
275.408	661.88
275.64	683.88
275.872	683.88
276.104	738.88
276.335	805.88
276.567	885.88
276.799	878.88
277.031	813.88
277.262	772.88
277.494	828.88
277.726	883.88
277.957	863.88
278.189	794.88
278.421	737.88
278.652	709.88
278.884	700.88
279.115	717.88
279.347	730.88
279.579	713.88
279.81	731.88
280.042	787.88
280.273	841.88
280.505	840.88
280.736	839.88
280.968	805.88
281.199	734.88
281.431	689.88
281.662	711.88
281.894	747.88
282.125	737.88
282.356	770.88
282.588	778.88
282.819	749.88
283.051	816.88
283.282	881.88
283.513	849.88
283.745	753.88
283.976	701.88
284.207	723.88
284.439	734.88
284.67	746.88
284.901	715.88
285.132	805.88
285.364	759.88
285.595	753.88
285.826	737.88
286.057	735.88
286.288	715.88
286.52	769.88
286.751	833.88
286.982	827.88
287.213	791.88
287.444	713.88
287.675	726.88
287.906	787.88
288.138	821.88
288.369	787.88
288.6	733.88
288.831	721.88
289.062	747.88
289.293	767.88
289.524	750.88
289.755	783.88
289.986	762.88
290.217	739.88
290.448	726.88
290.679	753.88
290.91	774.88
291.141	806.88
291.371	801.88
291.602	814.88
291.833	803.88
292.064	820.88
292.295	842.88
292.526	823.88
292.757	849.88
292.987	807.88
293.218	789.88
293.449	844.88
293.68	932.88
293.91	989.88
294.141	930.88
294.372	887.88
294.603	929.88
294.833	932.88
295.064	890.88
295.295	835.88
295.525	802.88
295.756	738.88
295.987	719.88
296.217	753.88
296.448	782.88
296.679	749.88
296.909	780.88
297.14	745.88
297.37	767.88
297.601	827.88
297.831	862.88
298.062	852.88
298.292	796.88
298.523	779.88
298.753	774.88
298.984	807.88
299.214	787.88
299.445	829.88
299.675	815.88
299.905	823.88
300.136	813.88
300.366	774.88
300.597	770.88
300.827	746.88
301.057	774.88
301.288	837.88
301.518	817.88
301.748	853.88
301.979	923.88
302.209	917.88
302.439	947.88
302.669	1014.88
302.9	937.88
303.13	822.88
303.36	819.88
303.59	844.88
303.82	871.88
304.051	861.88
304.281	845.88
304.511	851.88
304.741	902.88
304.971	1029.88
305.201	1053.88
305.431	902.88
305.661	785.88
305.891	750.88
306.121	745.88
306.352	778.88
306.582	840.88
306.812	860.88
307.042	913.88
307.272	938.88
307.502	981.88
307.731	1024.88
307.961	1043.88
308.191	952.88
308.421	878.88
308.651	818.88
308.881	817.88
309.111	804.88
309.341	805.88
309.571	830.88
309.8	822.88
310.03	810.88
310.26	792.88
310.49	800.88
310.72	818.88
310.949	853.88
311.179	869.88
311.409	842.88
311.639	830.88
311.868	825.88
312.098	836.88
312.328	833.88
312.557	825.88
312.787	826.88
313.017	865.88
313.246	867.88
313.476	854.88
313.706	870.88
313.935	883.88
314.165	886.88
314.394	919.88
314.624	979.88
314.853	1006.88
315.083	1049.88
315.312	1048.88
315.542	940.88
315.771	894.88
316.001	909.88
316.23	961.88
316.46	959.88
316.689	889.88
316.919	849.88
317.148	851.88
317.377	874.88
317.607	948.88
317.836	1020.88
318.065	1032.88
318.295	1005.88
318.524	968.88
318.753	939.88
318.983	917.88
319.212	910.88
319.441	922.88
319.67	909.88
319.9	934.88
320.129	965.88
320.358	1023.88
320.587	998.88
320.816	1013.88
321.046	1013.88
321.275	927.88
321.504	986.88
321.733	1017.88
321.962	1002.88
322.191	935.88
322.42	894.88
322.649	904.88
322.878	909.88
323.108	940.88
323.337	931.88
323.566	933.88
323.795	942.88
324.024	931.88
324.253	955.88
324.482	921.88
324.71	901.88
324.939	847.88
325.168	874.88
325.397	914.88
325.626	924.88
325.855	942.88
326.084	906.88
326.313	958.88
326.542	918.88
326.77	929.88
326.999	933.88
327.228	909.88
327.457	862.88
327.686	857.88
327.914	909.88
328.143	900.88
328.372	907.88
328.6	911.88
328.829	932.88
329.058	901.88
329.287	914.88
329.515	940.88
329.744	969.88
329.972	1000.88
330.201	1031.88
330.43	1007.88
330.658	962.88
330.887	982.88
331.115	967.88
331.344	965.88
331.572	974.88
331.801	996.88
332.03	981.88
332.258	970.88
332.486	1010.88
332.715	1015.88
332.943	995.88
333.172	962.88
333.4	950.88
333.629	1029.88
333.857	1091.88
334.085	1171.88
334.314	1310.88
334.542	1391.88
334.771	1238.88
334.999	1146.88
335.227	1087.88
335.455	1051.88
335.684	1015.88
335.912	1069.88
336.14	1089.88
336.369	1027.88
336.597	994.88
336.825	961.88
337.053	1040.88
337.281	1069.88
337.51	1160.88
337.738	1167.88
337.966	1077.88
338.194	998.88
338.422	962.88
338.65	948.88
338.878	964.88
339.106	935.88
339.334	953.88
339.562	922.88
339.79	953.88
340.018	1013.88
340.246	1020.88
340.474	1011.88
340.702	1011.88
340.93	1006.88
341.158	1004.88
341.386	990.88
341.614	979.88
341.842	973.88
342.07	959.88
342.298	986.88
342.526	964.88
342.754	954.88
342.981	985.88
343.209	959.88
343.437	954.88
343.665	977.88
343.893	1005.88
344.12	1018.88
344.348	1047.88
344.576	998.88
344.804	966.88
345.031	987.88
345.259	945.88
345.487	953.88
345.714	921.88
345.942	902.88
346.17	921.88
346.397	936.88
346.625	924.88
346.853	885.88
347.08	895.88
347.308	899.88
347.535	925.88
347.763	918.88
347.99	912.88
348.218	901.88
348.445	901.88
348.673	904.88
348.9	935.88
349.128	953.88
349.355	974.88
349.583	950.88
349.81	904.88
350.037	865.88
350.265	845.88
350.492	871.88
350.72	899.88
350.947	935.88
351.174	920.88
351.402	872.88
351.629	843.88
351.856	837.88
352.083	866.88
352.311	852.88
352.538	902.88
352.765	953.88
352.992	937.88
353.22	890.88
353.447	900.88
353.674	936.88
353.901	886.88
354.128	884.88
354.355	899.88
354.583	940.88
354.81	959.88
355.037	925.88
355.264	930.88
355.491	926.88
355.718	919.88
355.945	911.88
356.172	891.88
356.399	875.88
356.626	845.88
356.853	947.88
357.08	995.88
357.307	1090.88
357.534	1054.88
357.761	939.88
357.988	875.88
358.215	896.88
358.441	874.88
358.668	877.88
358.895	937.88
359.122	979.88
359.349	1058.88
359.576	981.88
359.802	878.88
360.029	878.88
360.256	878.88
360.483	893.88
360.709	924.88
360.936	952.88
361.163	980.88
361.39	1078.88
361.616	1112.88
361.843	1109.88
362.07	1056.88
362.296	923.88
362.523	907.88
362.749	898.88
362.976	921.88
363.203	963.88
363.429	906.88
363.656	886.88
363.882	980.88
364.109	1035.88
364.335	1045.88
364.562	998.88
364.788	958.88
365.015	923.88
365.241	905.88
365.468	936.88
365.694	949.88
365.92	990.88
366.147	948.88
366.373	891.88
366.599	890.88
366.826	871.88
367.052	902.88
367.278	915.88
367.505	930.88
367.731	943.88
367.957	957.88
368.184	972.88
368.41	1018.88
368.636	1006.88
368.862	1038.88
369.089	1053.88
369.315	981.88
369.541	954.88
369.767	950.88
369.993	946.88
370.219	914.88
370.445	946.88
370.672	1001.88
370.898	1053.88
371.124	1018.88
371.35	949.88
371.576	1019.88
371.802	1027.88
372.028	1001.88
372.254	953.88
372.48	922.88
372.706	924.88
372.932	951.88
373.158	935.88
373.384	986.88
373.61	984.88
373.835	1026.88
374.061	970.88
374.287	980.88
374.513	957.88
374.739	964.88
374.965	989.88
375.191	976.88
375.416	992.88
375.642	1030.88
375.868	1079.88
376.094	1086.88
376.319	1034.88
376.545	996.88
376.771	1019.88
376.997	1082.88
377.222	1037.88
377.448	1029.88
377.674	1001.88
377.899	1053.88
378.125	1090.88
378.35	1054.88
378.576	978.88
378.802	948.88
379.027	949.88
379.253	964.88
379.478	998.88
379.704	966.88
379.929	977.88
380.155	972.88
380.38	985.88
380.606	1001.88
380.831	991.88
381.057	1087.88
381.282	1069.88
381.507	1015.88
381.733	1122.88
381.958	1125.88
382.184	1033.88
382.409	1015.88
382.634	1025.88
382.86	1019.88
383.085	1023.88
383.31	1073.88
383.535	1145.88
383.761	1211.88
383.986	1148.88
384.211	1084.88
384.436	1111.88
384.662	1157.88
384.887	1190.88
385.112	1131.88
385.337	1125.88
385.562	1099.88
385.787	1100.88
386.013	1121.88
386.238	1133.88
386.463	1146.88
386.688	1214.88
386.913	1267.88
387.138	1232.88
387.363	1180.88
387.588	1141.88
387.813	1149.88
388.038	1210.88
388.263	1186.88
388.488	1139.88
388.713	1078.88
388.938	1042.88
389.163	1073.88
389.387	1115.88
389.612	1098.88
389.837	1113.88
390.062	1113.88
390.287	1127.88
390.512	1138.88
390.736	1091.88
390.961	1102.88
391.186	1063.88
391.411	1069.88
391.636	1086.88
391.86	1110.88
392.085	1091.88
392.31	1150.88
392.534	1122.88
392.759	1137.88
392.984	1115.88
393.208	1145.88
393.433	1178.88
393.658	1195.88
393.882	1175.88
394.107	1134.88
394.331	1117.88
394.556	1130.88
394.78	1125.88
395.005	1147.88
395.229	1226.88
395.454	1281.88
395.678	1273.88
395.903	1213.88
396.127	1182.88
396.352	1190.88
396.576	1235.88
396.801	1242.88
397.025	1225.88
397.249	1183.88
397.474	1189.88
397.698	1223.88
397.922	1288.88
398.147	1282.88
398.371	1371.88
398.595	1313.88
398.82	1267.88
399.044	1308.88
399.268	1400.88
399.492	1421.88
399.717	1488.88
399.941	1461.88
400.165	1441.88
400.389	1414.88
400.613	1428.88
400.837	1636.88
401.062	1779.88
401.286	1529.88
401.51	1444.88
401.734	1447.88
401.958	1394.88
402.182	1338.88
402.406	1271.88
402.63	1215.88
402.854	1284.88
403.078	1296.88
403.302	1270.88
403.526	1307.88
403.75	1318.88
403.974	1356.88
404.198	1327.88
404.422	1411.88
404.645	1463.88
404.869	1417.88
405.093	1316.88
405.317	1306.88
405.541	1345.88
405.765	1351.88
405.988	1322.88
406.212	1364.88
406.436	1396.88
406.66	1447.88
406.883	1483.88
407.107	1661.88
407.331	1772.88
407.555	1908.88
407.778	1680.88
408.002	1429.88
408.226	1372.88
408.449	1382.88
408.673	1339.88
408.896	1357.88
409.12	1398.88
409.344	1333.88
409.567	1296.88
409.791	1343.88
410.014	1373.88
410.238	1459.88
410.461	1518.88
410.685	1368.88
410.908	1294.88
411.132	1334.88
411.355	1346.88
411.578	1309.88
411.802	1340.88
412.025	1340.88
412.249	1330.88
412.472	1261.88
412.695	1295.88
412.919	1301.88
413.142	1244.88
413.365	1315.88
413.589	1379.88
413.812	1380.88
414.035	1455.88
414.258	1313.88
414.482	1281.88
414.705	1295.88
414.928	1283.88
415.151	1293.88
415.374	1285.88
415.597	1325.88
415.821	1301.88
416.044	1344.88
416.267	1326.88
416.49	1264.88
416.713	1249.88
416.936	1313.88
417.159	1346.88
417.382	1319.88
417.605	1269.88
417.828	1298.88
418.051	1325.88
418.274	1295.88
418.497	1228.88
418.72	1257.88
418.943	1260.88
419.166	1334.88
419.389	1357.88
419.611	1285.88
419.834	1270.88
420.057	1301.88
420.28	1311.88
420.503	1272.88
420.726	1270.88
420.948	1254.88
421.171	1245.88
421.394	1268.88
421.617	1329.88
421.839	1299.88
422.062	1301.88
422.285	1286.88
422.507	1276.88
422.73	1224.88
422.953	1217.88
423.175	1206.88
423.398	1274.88
423.621	1265.88
423.843	1282.88
424.066	1314.88
424.288	1395.88
424.511	1434.88
424.733	1366.88
424.956	1227.88
425.178	1229.88
425.401	1243.88
425.623	1274.88
425.846	1282.88
426.068	1338.88
426.291	1337.88
426.513	1334.88
426.735	1325.88
426.958	1394.88
427.18	1448.88
427.402	1329.88
427.625	1401.88
427.847	1347.88
428.069	1278.88
428.292	1272.88
428.514	1196.88
428.736	1214.88
428.958	1237.88
429.181	1249.88
429.403	1467.88
429.625	1725.88
429.847	1425.88
430.069	1296.88
430.292	1454.88
430.514	1423.88
430.736	1295.88
430.958	1354.88
431.18	1290.88
431.402	1192.88
431.624	1182.88
431.846	1208.88
432.068	1112.88
432.29	1152.88
432.512	1191.88
432.734	1231.88
432.956	1284.88
433.178	1342.88
433.4	1297.88
433.622	1319.88
433.844	1247.88
434.066	1176.88
434.287	1192.88
434.509	1206.88
434.731	1239.88
434.953	1306.88
435.175	1295.88
435.397	1251.88
435.618	1255.88
435.84	1245.88
436.062	1224.88
436.284	1240.88
436.505	1269.88
436.727	1270.88
436.949	1259.88
437.17	1237.88
437.392	1225.88
437.614	1189.88
437.835	1143.88
438.057	1209.88
438.278	1234.88
438.5	1186.88
438.721	1214.88
438.943	1249.88
439.165	1212.88
439.386	1198.88
439.608	1212.88
439.829	1280.88
440.05	1241.88
440.272	1209.88
440.493	1229.88
440.715	1258.88
440.936	1357.88
441.158	1406.88
441.379	1390.88
441.6	1371.88
441.822	1327.88
442.043	1331.88
442.264	1290.88
442.486	1254.88
442.707	1271.88
442.928	1269.88
443.149	1292.88
443.371	1307.88
443.592	1363.88
443.813	1356.88
444.034	1344.88
444.255	1330.88
444.476	1366.88
444.698	1390.88
444.919	1374.88
445.14	1503.88
445.361	1407.88
445.582	1422.88
445.803	1381.88
446.024	1352.88
446.245	1383.88
446.466	1363.88
446.687	1286.88
446.908	1293.88
447.129	1289.88
447.35	1296.88
447.571	1268.88
447.792	1231.88
448.013	1213.88
448.234	1281.88
448.455	1304.88
448.675	1287.88
448.896	1197.88
449.117	1173.88
449.338	1224.88
449.559	1256.88
449.779	1305.88
450	1386.88
450.221	1469.88
450.442	1407.88
450.662	1287.88
450.883	1153.88
451.104	1150.88
451.324	1213.88
451.545	1198.88
451.766	1175.88
451.986	1140.88
452.207	1113.88
452.428	1077.88
452.648	1098.88
452.869	1089.88
453.089	1116.88
453.31	1124.88
453.53	1148.88
453.751	1061.88
453.971	1050.88
454.192	1081.88
454.412	1143.88
454.633	1148.88
454.853	1112.88
455.073	1059.88
455.294	1053.88
455.514	1045.88
455.734	1085.88
455.955	1097.88
456.175	1089.88
456.395	1035.88
456.616	1062.88
456.836	1082.88
457.056	1075.88
457.276	1017.88
457.497	1053.88
457.717	1019.88
457.937	1051.88
458.157	1035.88
458.377	1030.88
458.598	1006.88
458.818	1043.88
459.038	1082.88
459.258	1147.88
459.478	1099.88
459.698	1103.88
459.918	1117.88
460.138	1200.88
460.358	1223.88
460.578	1215.88
460.798	1250.88
461.018	1300.88
461.238	1269.88
461.458	1250.88
461.678	1221.88
461.898	1224.88
462.118	1205.88
462.338	1262.88
462.558	1250.88
462.777	1230.88
462.997	1319.88
463.217	1310.88
463.437	1307.88
463.657	1234.88
463.876	1245.88
464.096	1222.88
464.316	1247.88
464.536	1283.88
464.755	1266.88
464.975	1266.88
465.195	1232.88
465.414	1323.88
465.634	1279.88
465.854	1272.88
466.073	1378.88
466.293	1295.88
466.512	1171.88
466.732	1197.88
466.951	1265.88
467.171	1243.88
467.391	1185.88
467.61	1198.88
467.829	1213.88
468.049	1312.88
468.268	1421.88
468.488	1299.88
468.707	1238.88
468.927	1203.88
469.146	1188.88
469.365	1193.88
469.585	1242.88
469.804	1224.88
470.023	1229.88
470.243	1245.88
470.462	1217.88
470.681	1199.88
470.901	1201.88
471.12	1217.88
471.339	1223.88
471.558	1174.88
471.777	1184.88
471.997	1178.88
472.216	1142.88
472.435	1114.88
472.654	1086.88
472.873	1134.88
473.092	1221.88
473.311	1169.88
473.53	1145.88
473.749	1109.88
473.968	1179.88
474.187	1213.88
474.406	1215.88
474.625	1173.88
474.844	1163.88
475.063	1199.88
475.282	1224.88
475.501	1178.88
475.72	1187.88
475.939	1251.88
476.158	1218.88
476.377	1195.88
476.596	1179.88
476.814	1173.88
477.033	1211.88
477.252	1249.88
477.471	1261.88
477.69	1246.88
477.908	1307.88
478.127	1324.88
478.346	1441.88
478.564	1374.88
478.783	1377.88
479.002	1435.88
479.22	1417.88
479.439	1444.88
479.658	1555.88
479.876	1502.88
480.095	1362.88
480.313	1312.88
480.532	1310.88
480.751	1301.88
480.969	1271.88
481.188	1224.88
481.406	1225.88
481.624	1218.88
481.843	1229.88
482.061	1231.88
482.28	1316.88
482.498	1317.88
482.717	1275.88
482.935	1318.88
483.153	1328.88
483.372	1355.88
483.59	1369.88
483.808	1346.88
484.027	1358.88
484.245	1438.88
484.463	1673.88
484.681	1808.88
484.9	1435.88
485.118	1369.88
485.336	1309.88
485.554	1345.88
485.772	1371.88
485.99	1379.88
486.209	1368.88
486.427	1382.88
486.645	1393.88
486.863	1399.88
487.081	1411.88
487.299	1458.88
487.517	1429.88
487.735	1415.88
487.953	1463.88
488.171	1490.88
488.389	1419.88
488.607	1437.88
488.825	1564.88
489.043	1504.88
489.261	1380.88
489.479	1448.88
489.696	1411.88
489.914	1416.88
490.132	1414.88
490.35	1428.88
490.568	1515.88
490.786	1465.88
491.003	1477.88
491.221	1517.88
491.439	1566.88
491.657	1534.88
491.874	1581.88
492.092	1635.88
492.31	1682.88
492.527	1631.88
492.745	1604.88
492.963	1551.88
493.18	1614.88
493.398	1677.88
493.615	1644.88
493.833	1566.88
494.05	1503.88
494.268	1547.88
494.485	1573.88
494.703	1557.88
494.92	1549.88
495.138	1506.88
495.355	1555.88
495.573	1590.88
495.79	1647.88
496.008	1634.88
496.225	1594.88
496.442	1583.88
496.66	1611.88
496.877	1571.88
497.094	1612.88
497.312	1632.88
497.529	1593.88
497.746	1624.88
497.963	1812.88
498.181	1902.88
498.398	1844.88
498.615	1820.88
498.832	1768.88
499.049	1757.88
499.267	1761.88
499.484	1849.88
499.701	1981.88
499.918	2060.88
500.135	2172.88
500.352	2348.88
500.569	2308.88
500.786	2521.88
501.003	2255.88
501.22	2077.88
501.437	2029.88
501.654	2089.88
501.871	1977.88
502.088	1717.88
502.305	1731.88
502.522	1635.88
502.739	1592.88
502.956	1550.88
503.172	1552.88
503.389	1486.88
503.606	1455.88
503.823	1492.88
504.04	1479.88
504.256	1486.88
504.473	1475.88
504.69	1477.88
504.907	1449.88
505.123	1422.88
505.34	1502.88
505.557	1935.88
505.773	1621.88
505.99	1366.88
506.207	1255.88
506.423	1265.88
506.64	1289.88
506.856	1266.88
507.073	1457.88
507.289	1577.88
507.506	1436.88
507.722	1299.88
507.939	1198.88
508.155	1217.88
508.372	1245.88
508.588	1198.88
508.805	1171.88
509.021	1137.88
509.238	1140.88
509.454	1118.88
509.67	1145.88
509.887	1089.88
510.103	1116.88
510.319	1113.88
510.536	1184.88
510.752	1217.88
510.968	1189.88
511.184	1244.88
511.401	1210.88
511.617	1093.88
511.833	1093.88
512.049	1080.88
512.265	1103.88
512.481	1083.88
512.698	1120.88
512.914	1179.88
513.13	1149.88
513.346	1105.88
513.562	1052.88
513.778	1128.88
513.994	1139.88
514.21	1139.88
514.426	1219.88
514.642	1281.88
514.858	1204.88
515.074	1121.88
515.29	1097.88
515.506	1144.88
515.721	1146.88
515.937	1168.88
516.153	1281.88
516.369	1212.88
516.585	1175.88
516.801	1120.88
517.016	1116.88
517.232	1160.88
517.448	1221.88
517.664	1190.88
517.879	1182.88
518.095	1239.88
518.311	1247.88
518.527	1180.88
518.742	1160.88
518.958	1123.88
519.173	1107.88
519.389	1143.88
519.605	1148.88
519.82	1145.88
520.036	1157.88
520.251	1119.88
520.467	1147.88
520.682	1232.88
520.898	1219.88
521.113	1100.88
521.329	1083.88
521.544	1168.88
521.76	1118.88
521.975	1083.88
522.19	1058.88
522.406	1107.88
522.621	1366.88
522.836	1306.88
523.052	1115.88
523.267	1116.88
523.482	1085.88
523.698	1064.88
523.913	1045.88
524.128	1079.88
524.343	1161.88
524.559	1153.88
524.774	1100.88
524.989	1058.88
525.204	1050.88
525.419	1050.88
525.634	1062.88
525.849	1053.88
526.064	1028.88
526.28	1059.88
526.495	1003.88
526.71	998.88
526.925	994.88
527.14	967.88
527.355	963.88
527.57	945.88
527.785	1035.88
527.999	1009.88
528.214	999.88
528.429	991.88
528.644	1018.88
528.859	1043.88
529.074	1066.88
529.289	1118.88
529.503	1087.88
529.718	1053.88
529.933	1028.88
530.148	948.88
530.363	976.88
530.577	960.88
530.792	950.88
531.007	938.88
531.221	958.88
531.436	956.88
531.651	1005.88
531.865	1025.88
532.08	1003.88
532.295	946.88
532.509	919.88
532.724	933.88
532.938	997.88
533.153	1042.88
533.367	1035.88
533.582	1031.88
533.796	990.88
534.011	996.88
534.225	1004.88
534.44	955.88
534.654	976.88
534.868	967.88
535.083	1020.88
535.297	1027.88
535.511	989.88
535.726	991.88
535.94	978.88
536.154	945.88
536.369	934.88
536.583	899.88
536.797	903.88
537.011	952.88
537.225	913.88
537.44	906.88
537.654	971.88
537.868	902.88
538.082	901.88
538.296	877.88
538.51	913.88
538.724	923.88
538.938	952.88
539.153	965.88
539.367	981.88
539.581	966.88
539.795	985.88
540.009	957.88
540.222	931.88
540.436	927.88
540.65	1069.88
540.864	1088.88
541.078	1048.88
541.292	1019.88
541.506	1046.88
541.72	1074.88
541.934	1140.88
542.147	1211.88
542.361	1109.88
542.575	1036.88
542.789	985.88
543.002	945.88
543.216	946.88
543.43	1020.88
543.644	1045.88
543.857	1119.88
544.071	1083.88
544.285	1062.88
544.498	1081.88
544.712	1077.88
544.925	1061.88
545.139	1130.88
545.352	1059.88
545.566	1023.88
545.779	1014.88
545.993	1078.88
546.206	1058.88
546.42	1078.88
546.633	1052.88
546.847	1042.88
547.06	1043.88
547.274	1049.88
547.487	1045.88
547.7	1090.88
547.914	1087.88
548.127	1076.88
548.34	1069.88
548.554	1040.88
548.767	1049.88
548.98	1037.88
549.193	1047.88
549.407	1121.88
549.62	1090.88
549.833	1055.88
550.046	1023.88
550.259	1042.88
550.473	1007.88
550.686	1024.88
550.899	988.88
551.112	1009.88
551.325	959.88
551.538	1034.88
551.751	1114.88
551.964	891.88
552.177	911.88
552.39	926.88
552.603	999.88
552.816	1012.88
553.029	1046.88
553.242	1055.88
553.455	1023.88
553.667	1027.88
553.88	1018.88
554.093	999.88
554.306	965.88
554.519	950.88
554.732	935.88
554.944	937.88
555.157	990.88
555.37	950.88
555.583	946.88
555.795	912.88
556.008	895.88
556.221	869.88
556.433	852.88
556.646	886.88
556.859	871.88
557.071	853.88
557.284	873.88
557.496	890.88
557.709	849.88
557.921	871.88
558.134	860.88
558.346	847.88
558.559	851.88
558.771	823.88
558.984	827.88
559.196	781.88
559.409	825.88
559.621	789.88
559.833	817.88
560.046	837.88
560.258	842.88
560.47	780.88
560.683	811.88
560.895	802.88
561.107	825.88
561.32	804.88
561.532	835.88
561.744	782.88
561.956	791.88
562.168	766.88
562.381	760.88
562.593	754.88
562.805	764.88
563.017	775.88
563.229	794.88
563.441	778.88
563.653	765.88
563.865	781.88
564.077	758.88
564.289	782.88
564.501	748.88
564.713	790.88
564.925	814.88
565.137	860.88
565.349	822.88
565.561	802.88
565.773	807.88
565.985	807.88
566.197	874.88
566.408	895.88
566.62	897.88
566.832	901.88
567.044	874.88
567.255	864.88
567.467	899.88
567.679	918.88
567.891	930.88
568.102	905.88
568.314	827.88
568.526	810.88
568.737	772.88
568.949	710.88
569.161	693.88
569.372	680.88
569.584	665.88
569.795	664.88
570.007	661.88
570.218	641.88
570.43	641.88
570.641	670.88
570.853	675.88
571.064	670.88
571.276	677.88
571.487	659.88
571.698	643.88
571.91	634.88
572.121	634.88
572.333	602.88
572.544	601.88
572.755	576.88
572.966	571.88
573.178	549.88
573.389	577.88
573.6	601.88
573.811	635.88
574.023	580.88
574.234	539.88
574.445	534.88
574.656	541.88
574.867	543.88
575.078	556.88
575.289	549.88
575.501	581.88
575.712	540.88
575.923	569.88
576.134	571.88
576.345	530.88
576.556	545.88
576.767	537.88
576.978	518.88
577.188	551.88
577.399	521.88
577.61	529.88
577.821	525.88
578.032	536.88
578.243	501.88
578.454	509.88
578.665	512.88
578.875	491.88
579.086	480.88
579.297	500.88
579.508	523.88
579.718	490.88
579.929	492.88
580.14	483.88
580.35	470.88
580.561	501.88
580.772	559.88
580.982	515.88
581.193	487.88
581.403	486.88
581.614	466.88
581.825	482.88
582.035	492.88
582.246	474.88
582.456	490.88
582.667	463.88
582.877	469.88
583.087	479.88
583.298	474.88
583.508	458.88
583.719	465.88
583.929	467.88
584.139	470.88
584.35	467.88
584.56	452.88
584.77	481.88
584.981	447.88
585.191	468.88
585.401	466.88
585.611	458.88
585.821	474.88
586.032	455.88
586.242	454.88
586.452	462.88
586.662	459.88
586.872	442.88
587.082	443.88
587.292	455.88
587.502	447.88
587.713	459.88
587.923	454.88
588.133	466.88
588.343	455.88
588.553	447.88
588.762	445.88
588.972	440.88
589.182	453.88
589.392	462.88
589.602	425.88
589.812	455.88
590.022	442.88
590.232	445.88
590.441	439.88
590.651	437.88
590.861	441.88
591.071	435.88
591.281	426.88
591.49	426.88
591.7	440.88
591.91	432.88
592.119	457.88
592.329	426.88
592.539	458.88
592.748	455.88
592.958	445.88
593.167	463.88
593.377	458.88
593.587	462.88
593.796	461.88
594.006	462.88
594.215	446.88
594.424	461.88
594.634	455.88
594.843	456.88
595.053	469.88
595.262	456.88
595.472	447.88
595.681	444.88
595.89	437.88
596.1	412.88
596.309	434.88
596.518	423.88
596.727	443.88
596.937	440.88
597.146	427.88
597.355	429.88
597.564	407.88
597.774	404.88
597.983	396.88
598.192	377.88
598.401	379.88
598.61	381.88
598.819	380.88
599.028	409.88
599.237	390.88
599.446	377.88
599.655	386.88
599.864	395.88
600.073	386.88
600.282	395.88
600.491	377.88
600.7	378.88
600.909	379.88
601.118	395.88
601.327	403.88
601.536	429.88
601.745	415.88
601.953	404.88
602.162	410.88
602.371	403.88
602.58	424.88
602.789	403.88
602.997	408.88
603.206	422.88
603.415	415.88
603.623	423.88
603.832	414.88
604.041	383.88
604.249	397.88
604.458	406.88
604.666	386.88
604.875	402.88
605.084	409.88
605.292	407.88
605.501	408.88
605.709	398.88
605.918	387.88
606.126	412.88
606.334	417.88
606.543	383.88
606.751	385.88
606.96	405.88
607.168	400.88
607.376	384.88
607.585	387.88
607.793	373.88
608.001	403.88
608.21	393.88
608.418	418.88
608.626	410.88
608.834	397.88
609.043	405.88
609.251	392.88
609.459	386.88
609.667	377.88
609.875	405.88
610.083	419.88
610.291	435.88
610.499	406.88
610.707	408.88
610.916	405.88
611.124	413.88
611.332	389.88
611.54	398.88
611.748	396.88
611.955	392.88
612.163	390.88
612.371	389.88
612.579	373.88
612.787	375.88
612.995	405.88
613.203	394.88
613.411	397.88
613.618	399.88
613.826	355.88
614.034	383.88
614.242	378.88
614.449	387.88
614.657	410.88
614.865	382.88
615.072	372.88
615.28	376.88
615.488	396.88
615.695	395.88
615.903	395.88
616.111	394.88
616.318	387.88
616.526	391.88
616.733	366.88
616.941	381.88
617.148	383.88
617.356	383.88
617.563	393.88
617.771	367.88
617.978	373.88
618.185	373.88
618.393	377.88
618.6	374.88
618.807	374.88
619.015	375.88
619.222	369.88
619.429	358.88
619.637	350.88
619.844	348.88
620.051	360.88
620.258	355.88
620.466	328.88
620.673	345.88
620.88	347.88
621.087	348.88
621.294	333.88
621.501	329.88
621.708	321.88
621.915	351.88
622.122	341.88
622.329	344.88
622.536	364.88
622.743	363.88
622.95	340.88
623.157	333.88
623.364	350.88
623.571	338.88
623.778	334.88
623.985	366.88
624.192	352.88
624.399	342.88
624.606	347.88
624.812	325.88
625.019	342.88
625.226	341.88
625.433	339.88
625.639	326.88
625.846	319.88
626.053	307.88
626.259	293.88
626.466	296.88
626.673	289.88
626.879	288.88
627.086	290.88
627.293	293.88
627.499	323.88
627.706	318.88
627.912	328.88
628.119	338.88
628.325	321.88
628.532	329.88
628.738	315.88
628.945	302.88
629.151	338.88
629.357	311.88
629.564	316.88
629.77	319.88
629.976	321.88
630.183	296.88
630.389	275.88
630.595	306.88
630.802	310.88
631.008	299.88
631.214	284.88
631.42	289.88
631.627	289.88
631.833	270.88
632.039	274.88
632.245	293.88
632.451	308.88
632.657	308.88
632.863	309.88
633.069	275.88
633.275	269.88
633.481	308.88
633.688	289.88
633.893	285.88
634.099	284.88
634.305	283.88
634.511	281.88
634.717	260.88
634.923	254.88
635.129	261.88
635.335	271.88
635.541	284.88
635.747	273.88
635.952	266.88
636.158	273.88
636.364	274.88
636.57	279.88
636.775	273.88
636.981	275.88
637.187	279.88
637.392	298.88
637.598	271.88
637.804	274.88
638.009	283.88
638.215	265.88
638.421	251.88
638.626	298.88
638.832	256.88
639.037	271.88
639.243	267.88
639.448	257.88
639.654	249.88
639.859	269.88
640.065	263.88
640.27	268.88
640.475	266.88
640.681	266.88
640.886	277.88
641.091	261.88
641.297	270.88
641.502	269.88
641.707	271.88
641.913	263.88
642.118	268.88
642.323	279.88
642.528	269.88
642.733	257.88
642.939	264.88
643.144	255.88
643.349	261.88
643.554	245.88
643.759	244.88
643.964	258.88
644.169	255.88
644.374	262.88
644.579	258.88
644.784	266.88
644.989	265.88
645.194	252.88
645.399	263.88
645.604	271.88
645.809	267.88
646.014	261.88
646.219	253.88
646.423	260.88
646.628	247.88
646.833	261.88
647.038	246.88
647.243	276.88
647.447	257.88
647.652	267.88
647.857	254.88
648.062	251.88
648.266	237.88
648.471	249.88
648.676	253.88
648.88	256.88
649.085	259.88
649.289	275.88
649.494	261.88
649.698	260.88
649.903	246.88
650.107	270.88
650.312	250.88
650.516	263.88
650.721	241.88
650.925	263.88
651.13	248.88
651.334	232.88
651.539	246.88
651.743	254.88
651.947	236.88
652.152	234.88
652.356	223.88
652.56	227.88
652.764	223.88
652.969	242.88
653.173	227.88
653.377	222.88
653.581	235.88
653.785	231.88
653.99	205.88
654.194	226.88
654.398	201.88
654.602	214.88
654.806	221.88
655.01	226.88
655.214	226.88
655.418	248.88
655.622	237.88
655.826	241.88
656.03	241.88
656.234	263.88
656.438	285.88
656.642	259.88
656.846	238.88
657.049	225.88
657.253	214.88
657.457	218.88
657.661	204.88
657.865	196.88
658.068	175.88
658.272	177.88
658.476	177.88
658.68	156.88
658.883	154.88
659.087	137.88
659.291	149.88
659.494	157.88
659.698	134.88
659.901	137.88
660.105	142.88
660.309	122.88
660.512	125.88
660.716	121.88
660.919	134.88
661.123	109.88
661.326	115.88
661.53	115.88
661.733	115.88
661.936	101.88
662.14	92.88
662.343	106.88
662.546	94.88
662.75	90.88
662.953	99.88
663.156	98.88
663.36	83.88
663.563	89.88
663.766	86.88
663.969	92.88
664.173	98.88
664.376	77.88
664.579	85.88
664.782	93.88
664.985	97.88
665.188	96.88
665.391	90.88
665.594	93.88
665.797	87.88
666	90.88
666.203	94.88
666.406	95.88
666.609	88.88
666.812	78.88
667.015	91.88
667.218	92.88
667.421	89.88
667.624	81.88
667.827	94.88
668.03	87.88
668.232	84.88
668.435	80.88
668.638	95.88
668.841	82.88
669.043	89.88
669.246	87.88
669.449	80.88
669.651	89.88
669.854	84.88
670.057	84.88
670.259	84.88
670.462	81.88
670.665	83.88
670.867	87.88
671.07	79.88
671.272	81.88
671.475	88.88
671.677	92.88
671.88	83.88
672.082	76.88
672.284	74.88
672.487	81.88
672.689	95.88
672.892	83.88
