Data from WStandard_LampEnergy10_LIBS07252019.E.O._I.C._HRD10591_15-52-53-928.txt Node
Date: Thu Jul 25 15:52:53 EDT 2019
User: cochatt
Spectrometer: HR+D1059
Trigger mode: 1
Integration Time (sec): 1.000000E-1
Scans to average: 1
Electric dark correction enabled: true
Nonlinearity correction enabled: false
Boxcar width: 0
XAxis mode: Wavelengths
Number of Pixels in Spectrum: 2048
>>>>>Begin Spectral Data<<<<<
223.165	-4.25
223.4	-4.25
223.635	-4.25
223.869	-22.25
224.104	-22.25
224.338	-18.25
224.573	-18.25
224.808	-19.25
225.042	-6.25
225.277	-9.25
225.511	1.75
225.746	-1.25
225.98	7.75
226.215	9.75
226.449	10.75
226.683	29.75
226.918	36.75
227.152	24.75
227.387	45.75
227.621	47.75
227.856	33.75
228.09	35.75
228.324	50.75
228.559	59.75
228.793	78.75
229.027	133.75
229.262	158.75
229.496	156.75
229.73	173.75
229.964	181.75
230.199	195.75
230.433	181.75
230.667	197.75
230.901	189.75
231.136	169.75
231.37	185.75
231.604	183.75
231.838	189.75
232.072	193.75
232.306	183.75
232.541	195.75
232.775	200.75
233.009	226.75
233.243	221.75
233.477	218.75
233.711	215.75
233.945	222.75
234.179	211.75
234.413	216.75
234.647	233.75
234.881	214.75
235.115	204.75
235.349	223.75
235.583	206.75
235.817	212.75
236.051	206.75
236.285	211.75
236.519	228.75
236.753	239.75
236.987	234.75
237.221	236.75
237.455	263.75
237.689	275.75
237.922	220.75
238.156	229.75
238.39	240.75
238.624	233.75
238.858	278.75
239.091	291.75
239.325	289.75
239.559	311.75
239.793	328.75
240.027	341.75
240.26	333.75
240.494	254.75
240.728	233.75
240.961	283.75
241.195	264.75
241.429	296.75
241.662	278.75
241.896	273.75
242.13	286.75
242.363	287.75
242.597	306.75
242.83	309.75
243.064	313.75
243.298	331.75
243.531	323.75
243.765	322.75
243.998	297.75
244.232	277.75
244.465	274.75
244.699	304.75
244.932	330.75
245.166	347.75
245.399	325.75
245.633	325.75
245.866	311.75
246.099	326.75
246.333	326.75
246.566	340.75
246.8	345.75
247.033	387.75
247.266	364.75
247.5	351.75
247.733	352.75
247.966	375.75
248.2	403.75
248.433	410.75
248.666	416.75
248.899	439.75
249.133	489.75
249.366	539.75
249.599	450.75
249.832	380.75
250.066	403.75
250.299	406.75
250.532	390.75
250.765	349.75
250.998	383.75
251.231	388.75
251.465	401.75
251.698	382.75
251.931	387.75
252.164	389.75
252.397	383.75
252.63	387.75
252.863	362.75
253.096	356.75
253.329	383.75
253.562	402.75
253.795	417.75
254.028	397.75
254.261	395.75
254.494	375.75
254.727	381.75
254.96	386.75
255.193	405.75
255.426	469.75
255.659	501.75
255.892	534.75
256.124	444.75
256.357	437.75
256.59	463.75
256.823	465.75
257.056	475.75
257.289	546.75
257.521	578.75
257.754	517.75
257.987	497.75
258.22	526.75
258.452	517.75
258.685	449.75
258.918	437.75
259.151	440.75
259.383	430.75
259.616	380.75
259.849	413.75
260.081	465.75
260.314	507.75
260.547	528.75
260.779	526.75
261.012	520.75
261.244	459.75
261.477	439.75
261.71	455.75
261.942	449.75
262.175	433.75
262.407	477.75
262.64	436.75
262.872	428.75
263.105	401.75
263.337	414.75
263.57	409.75
263.802	421.75
264.035	397.75
264.267	376.75
264.499	378.75
264.732	408.75
264.964	454.75
265.197	466.75
265.429	471.75
265.661	527.75
265.894	553.75
266.126	574.75
266.358	525.75
266.591	529.75
266.823	561.75
267.055	514.75
267.287	500.75
267.52	502.75
267.752	486.75
267.984	490.75
268.216	537.75
268.448	540.75
268.681	492.75
268.913	475.75
269.145	475.75
269.377	469.75
269.609	515.75
269.841	581.75
270.073	660.75
270.306	697.75
270.538	695.75
270.77	588.75
271.002	538.75
271.234	523.75
271.466	549.75
271.698	614.75
271.93	682.75
272.162	650.75
272.394	617.75
272.626	577.75
272.858	518.75
273.09	467.75
273.322	466.75
273.553	455.75
273.785	453.75
274.017	454.75
274.249	525.75
274.481	477.75
274.713	447.75
274.945	457.75
275.176	458.75
275.408	484.75
275.64	457.75
275.872	451.75
276.104	510.75
276.335	532.75
276.567	593.75
276.799	606.75
277.031	545.75
277.262	540.75
277.494	548.75
277.726	587.75
277.957	567.75
278.189	510.75
278.421	516.75
278.652	464.75
278.884	483.75
279.115	483.75
279.347	512.75
279.579	479.75
279.81	479.75
280.042	567.75
280.273	574.75
280.505	578.75
280.736	569.75
280.968	550.75
281.199	483.75
281.431	478.75
281.662	482.75
281.894	486.75
282.125	488.75
282.356	506.75
282.588	517.75
282.819	524.75
283.051	548.75
283.282	545.75
283.513	569.75
283.745	480.75
283.976	458.75
284.207	497.75
284.439	481.75
284.67	488.75
284.901	497.75
285.132	503.75
285.364	509.75
285.595	498.75
285.826	516.75
286.057	500.75
286.288	511.75
286.52	538.75
286.751	545.75
286.982	561.75
287.213	503.75
287.444	487.75
287.675	490.75
287.906	521.75
288.138	547.75
288.369	514.75
288.6	491.75
288.831	471.75
289.062	504.75
289.293	492.75
289.524	526.75
289.755	535.75
289.986	497.75
290.217	489.75
290.448	484.75
290.679	514.75
290.91	509.75
291.141	529.75
291.371	526.75
291.602	554.75
291.833	557.75
292.064	547.75
292.295	573.75
292.526	566.75
292.757	562.75
292.987	548.75
293.218	521.75
293.449	583.75
293.68	647.75
293.91	663.75
294.141	637.75
294.372	607.75
294.603	619.75
294.833	631.75
295.064	591.75
295.295	563.75
295.525	517.75
295.756	495.75
295.987	487.75
296.217	480.75
296.448	498.75
296.679	516.75
296.909	550.75
297.14	512.75
297.37	532.75
297.601	553.75
297.831	595.75
298.062	573.75
298.292	517.75
298.523	535.75
298.753	533.75
298.984	531.75
299.214	553.75
299.445	542.75
299.675	532.75
299.905	551.75
300.136	540.75
300.366	527.75
300.597	497.75
300.827	518.75
301.057	540.75
301.288	577.75
301.518	562.75
301.748	557.75
301.979	600.75
302.209	620.75
302.439	665.75
302.669	673.75
302.9	620.75
303.13	553.75
303.36	561.75
303.59	571.75
303.82	565.75
304.051	550.75
304.281	581.75
304.511	603.75
304.741	639.75
304.971	683.75
305.201	717.75
305.431	631.75
305.661	528.75
305.891	537.75
306.121	517.75
306.352	539.75
306.582	581.75
306.812	584.75
307.042	610.75
307.272	648.75
307.502	669.75
307.731	713.75
307.961	696.75
308.191	644.75
308.421	579.75
308.651	547.75
308.881	546.75
309.111	574.75
309.341	556.75
309.571	537.75
309.8	553.75
310.03	554.75
310.26	550.75
310.49	562.75
310.72	572.75
310.949	611.75
311.179	573.75
311.409	574.75
311.639	557.75
311.868	563.75
312.098	581.75
312.328	566.75
312.557	572.75
312.787	573.75
313.017	582.75
313.246	597.75
313.476	573.75
313.706	612.75
313.935	577.75
314.165	607.75
314.394	615.75
314.624	652.75
314.853	681.75
315.083	698.75
315.312	703.75
315.542	651.75
315.771	610.75
316.001	623.75
316.23	631.75
316.46	634.75
316.689	593.75
316.919	573.75
317.148	558.75
317.377	601.75
317.607	677.75
317.836	718.75
318.065	724.75
318.295	694.75
318.524	630.75
318.753	641.75
318.983	638.75
319.212	609.75
319.441	617.75
319.67	602.75
319.9	626.75
320.129	679.75
320.358	684.75
320.587	689.75
320.816	668.75
321.046	682.75
321.275	639.75
321.504	691.75
321.733	707.75
321.962	673.75
322.191	654.75
322.42	635.75
322.649	632.75
322.878	609.75
323.108	638.75
323.337	635.75
323.566	661.75
323.795	629.75
324.024	659.75
324.253	632.75
324.482	620.75
324.71	599.75
324.939	587.75
325.168	640.75
325.397	641.75
325.626	671.75
325.855	644.75
326.084	609.75
326.313	605.75
326.542	653.75
326.77	648.75
326.999	637.75
327.228	611.75
327.457	607.75
327.686	607.75
327.914	610.75
328.143	627.75
328.372	616.75
328.6	649.75
328.829	605.75
329.058	614.75
329.287	614.75
329.515	655.75
329.744	638.75
329.972	699.75
330.201	690.75
330.43	662.75
330.658	655.75
330.887	666.75
331.115	672.75
331.344	660.75
331.572	662.75
331.801	662.75
332.03	658.75
332.258	666.75
332.486	671.75
332.715	660.75
332.943	672.75
333.172	653.75
333.4	678.75
333.629	693.75
333.857	730.75
334.085	844.75
334.314	927.75
334.542	945.75
334.771	870.75
334.999	761.75
335.227	718.75
335.455	697.75
335.684	732.75
335.912	731.75
336.14	722.75
336.369	686.75
336.597	655.75
336.825	679.75
337.053	728.75
337.281	745.75
337.51	787.75
337.738	777.75
337.966	715.75
338.194	677.75
338.422	673.75
338.65	676.75
338.878	635.75
339.106	631.75
339.334	637.75
339.562	620.75
339.79	659.75
340.018	701.75
340.246	714.75
340.474	695.75
340.702	681.75
340.93	673.75
341.158	705.75
341.386	679.75
341.614	671.75
341.842	662.75
342.07	685.75
342.298	677.75
342.526	661.75
342.754	661.75
342.981	656.75
343.209	668.75
343.437	662.75
343.665	665.75
343.893	689.75
344.12	724.75
344.348	720.75
344.576	684.75
344.804	652.75
345.031	663.75
345.259	662.75
345.487	626.75
345.714	613.75
345.942	613.75
346.17	632.75
346.397	623.75
346.625	647.75
346.853	595.75
347.08	619.75
347.308	603.75
347.535	631.75
347.763	659.75
347.99	645.75
348.218	607.75
348.445	635.75
348.673	638.75
348.9	663.75
349.128	686.75
349.355	685.75
349.583	670.75
349.81	599.75
350.037	563.75
350.265	604.75
350.492	607.75
350.72	610.75
350.947	641.75
351.174	648.75
351.402	599.75
351.629	571.75
351.856	565.75
352.083	562.75
352.311	581.75
352.538	611.75
352.765	635.75
352.992	647.75
353.22	622.75
353.447	610.75
353.674	623.75
353.901	630.75
354.128	604.75
354.355	643.75
354.583	655.75
354.81	683.75
355.037	639.75
355.264	618.75
355.491	618.75
355.718	644.75
355.945	603.75
356.172	613.75
356.399	571.75
356.626	597.75
356.853	670.75
357.08	709.75
357.307	753.75
357.534	705.75
357.761	629.75
357.988	597.75
358.215	593.75
358.441	588.75
358.668	582.75
358.895	636.75
359.122	667.75
359.349	715.75
359.576	682.75
359.802	635.75
360.029	627.75
360.256	591.75
360.483	619.75
360.709	649.75
360.936	669.75
361.163	699.75
361.39	773.75
361.616	780.75
361.843	778.75
362.07	694.75
362.296	633.75
362.523	622.75
362.749	609.75
362.976	636.75
363.203	647.75
363.429	626.75
363.656	626.75
363.882	680.75
364.109	725.75
364.335	748.75
364.562	686.75
364.788	667.75
365.015	646.75
365.241	625.75
365.468	651.75
365.694	678.75
365.92	669.75
366.147	659.75
366.373	610.75
366.599	622.75
366.826	650.75
367.052	638.75
367.278	645.75
367.505	652.75
367.731	698.75
367.957	681.75
368.184	708.75
368.41	714.75
368.636	737.75
368.862	760.75
369.089	736.75
369.315	703.75
369.541	698.75
369.767	656.75
369.993	649.75
370.219	654.75
370.445	683.75
370.672	724.75
370.898	746.75
371.124	721.75
371.35	687.75
371.576	721.75
371.802	726.75
372.028	672.75
372.254	655.75
372.48	695.75
372.706	650.75
372.932	671.75
373.158	667.75
373.384	674.75
373.61	726.75
373.835	698.75
374.061	675.75
374.287	689.75
374.513	713.75
374.739	699.75
374.965	698.75
375.191	715.75
375.416	706.75
375.642	725.75
375.868	783.75
376.094	795.75
376.319	738.75
376.545	727.75
376.771	724.75
376.997	739.75
377.222	751.75
377.448	737.75
377.674	753.75
377.899	745.75
378.125	760.75
378.35	755.75
378.576	707.75
378.802	698.75
379.027	690.75
379.253	683.75
379.478	723.75
379.704	701.75
379.929	708.75
380.155	719.75
380.38	728.75
380.606	723.75
380.831	725.75
381.057	794.75
381.282	773.75
381.507	773.75
381.733	807.75
381.958	815.75
382.184	745.75
382.409	740.75
382.634	762.75
382.86	753.75
383.085	757.75
383.31	759.75
383.535	868.75
383.761	861.75
383.986	826.75
384.211	812.75
384.436	787.75
384.662	844.75
384.887	843.75
385.112	823.75
385.337	814.75
385.562	803.75
385.787	802.75
386.013	830.75
386.238	838.75
386.463	837.75
386.688	877.75
386.913	914.75
387.138	913.75
387.363	861.75
387.588	844.75
387.813	831.75
388.038	853.75
388.263	890.75
388.488	853.75
388.713	787.75
388.938	781.75
389.163	797.75
389.387	817.75
389.612	815.75
389.837	847.75
390.062	830.75
390.287	823.75
390.512	821.75
390.736	823.75
390.961	801.75
391.186	809.75
391.411	786.75
391.636	807.75
391.86	829.75
392.085	819.75
392.31	829.75
392.534	874.75
392.759	815.75
392.984	821.75
393.208	854.75
393.433	858.75
393.658	875.75
393.882	897.75
394.107	853.75
394.331	846.75
394.556	837.75
394.78	861.75
395.005	883.75
395.229	926.75
395.454	938.75
395.678	959.75
395.903	920.75
396.127	895.75
396.352	908.75
396.576	921.75
396.801	933.75
397.025	907.75
397.249	911.75
397.474	910.75
397.698	892.75
397.922	957.75
398.147	989.75
398.371	1009.75
398.595	979.75
398.82	949.75
399.044	962.75
399.268	992.75
399.492	1060.75
399.717	1070.75
399.941	1064.75
400.165	1079.75
400.389	1037.75
400.613	1073.75
400.837	1203.75
401.062	1287.75
401.286	1103.75
401.51	1076.75
401.734	1050.75
401.958	1026.75
402.182	983.75
402.406	930.75
402.63	991.75
402.854	977.75
403.078	975.75
403.302	984.75
403.526	987.75
403.75	991.75
403.974	1015.75
404.198	1031.75
404.422	1081.75
404.645	1101.75
404.869	1034.75
405.093	1016.75
405.317	979.75
405.541	1028.75
405.765	1013.75
405.988	1021.75
406.212	1007.75
406.436	1081.75
406.66	1069.75
406.883	1123.75
407.107	1239.75
407.331	1335.75
407.555	1390.75
407.778	1202.75
408.002	1060.75
408.226	1068.75
408.449	1028.75
408.673	1034.75
408.896	1066.75
409.12	1068.75
409.344	1001.75
409.567	1003.75
409.791	1047.75
410.014	1054.75
410.238	1134.75
410.461	1170.75
410.685	1038.75
410.908	1037.75
411.132	1036.75
411.355	1015.75
411.578	1016.75
411.802	1015.75
412.025	1027.75
412.249	1001.75
412.472	1001.75
412.695	971.75
412.919	969.75
413.142	988.75
413.365	1001.75
413.589	1041.75
413.812	1071.75
414.035	1074.75
414.258	1004.75
414.482	996.75
414.705	1039.75
414.928	998.75
415.151	1006.75
415.374	1025.75
415.597	1006.75
415.821	1022.75
416.044	995.75
416.267	1019.75
416.49	1009.75
416.713	1024.75
416.936	1029.75
417.159	1052.75
417.382	1070.75
417.605	987.75
417.828	1010.75
418.051	1047.75
418.274	1044.75
418.497	992.75
418.72	1014.75
418.943	1026.75
419.166	1024.75
419.389	1064.75
419.611	1029.75
419.834	1028.75
420.057	1032.75
420.28	1022.75
420.503	999.75
420.726	1044.75
420.948	1030.75
421.171	986.75
421.394	1014.75
421.617	1071.75
421.839	1066.75
422.062	1067.75
422.285	1012.75
422.507	1015.75
422.73	956.75
422.953	935.75
423.175	969.75
423.398	989.75
423.621	987.75
423.843	1026.75
424.066	1047.75
424.288	1067.75
424.511	1109.75
424.733	1075.75
424.956	1001.75
425.178	1014.75
425.401	980.75
425.623	1009.75
425.846	1010.75
426.068	1057.75
426.291	1058.75
426.513	1040.75
426.735	1055.75
426.958	1163.75
427.18	1161.75
427.402	1055.75
427.625	1135.75
427.847	1050.75
428.069	1011.75
428.292	989.75
428.514	997.75
428.736	973.75
428.958	997.75
429.181	994.75
429.403	1158.75
429.625	1330.75
429.847	1142.75
430.069	1038.75
430.292	1127.75
430.514	1124.75
430.736	1068.75
430.958	1060.75
431.18	996.75
431.402	974.75
431.624	913.75
431.846	881.75
432.068	819.75
432.29	809.75
432.512	880.75
432.734	957.75
432.956	1017.75
433.178	1057.75
433.4	1051.75
433.622	1016.75
433.844	997.75
434.066	901.75
434.287	849.75
434.509	863.75
434.731	917.75
434.953	996.75
435.175	1025.75
435.397	973.75
435.618	973.75
435.84	933.75
436.062	934.75
436.284	947.75
436.505	1000.75
436.727	1014.75
436.949	1009.75
437.17	971.75
437.392	957.75
437.614	918.75
437.835	892.75
438.057	895.75
438.278	927.75
438.5	948.75
438.721	969.75
438.943	1014.75
439.165	1004.75
439.386	1011.75
439.608	1033.75
439.829	1055.75
440.05	1050.75
440.272	1036.75
440.493	1003.75
440.715	1047.75
440.936	1100.75
441.158	1139.75
441.379	1144.75
441.6	1127.75
441.822	1094.75
442.043	1099.75
442.264	1096.75
442.486	1049.75
442.707	1063.75
442.928	1029.75
443.149	1052.75
443.371	1077.75
443.592	1094.75
443.813	1101.75
444.034	1112.75
444.255	1075.75
444.476	1092.75
444.698	1121.75
444.919	1119.75
445.14	1229.75
445.361	1165.75
445.582	1162.75
445.803	1138.75
446.024	1110.75
446.245	1167.75
446.466	1173.75
446.687	1118.75
446.908	1120.75
447.129	1094.75
447.35	1122.75
447.571	1064.75
447.792	1042.75
448.013	1039.75
448.234	1033.75
448.455	1066.75
448.675	1076.75
448.896	1013.75
449.117	1010.75
449.338	1025.75
449.559	1059.75
449.779	1051.75
450	1114.75
450.221	1129.75
450.442	1093.75
450.662	1009.75
450.883	959.75
451.104	933.75
451.324	974.75
451.545	975.75
451.766	947.75
451.986	909.75
452.207	917.75
452.428	889.75
452.648	867.75
452.869	875.75
453.089	871.75
453.31	867.75
453.53	854.75
453.751	822.75
453.971	787.75
454.192	812.75
454.412	854.75
454.633	878.75
454.853	858.75
455.073	822.75
455.294	845.75
455.514	824.75
455.734	821.75
455.955	838.75
456.175	823.75
456.395	813.75
456.616	817.75
456.836	805.75
457.056	791.75
457.276	788.75
457.497	763.75
457.717	727.75
457.937	789.75
458.157	775.75
458.377	769.75
458.598	726.75
458.818	739.75
459.038	749.75
459.258	775.75
459.478	793.75
459.698	787.75
459.918	830.75
460.138	881.75
460.358	899.75
460.578	920.75
460.798	930.75
461.018	975.75
461.238	972.75
461.458	939.75
461.678	919.75
461.898	893.75
462.118	868.75
462.338	913.75
462.558	924.75
462.777	921.75
462.997	945.75
463.217	985.75
463.437	998.75
463.657	899.75
463.876	903.75
464.096	910.75
464.316	905.75
464.536	965.75
464.755	952.75
464.975	970.75
465.195	951.75
465.414	951.75
465.634	953.75
465.854	975.75
466.073	1063.75
466.293	971.75
466.512	945.75
466.732	951.75
466.951	976.75
467.171	984.75
467.391	945.75
467.61	935.75
467.829	957.75
468.049	1098.75
468.268	1146.75
468.488	1037.75
468.707	1041.75
468.927	983.75
469.146	967.75
469.365	993.75
469.585	1018.75
469.804	1046.75
470.023	1023.75
470.243	1029.75
470.462	995.75
470.681	982.75
470.901	995.75
471.12	1003.75
471.339	994.75
471.558	1000.75
471.777	979.75
471.997	977.75
472.216	917.75
472.435	830.75
472.654	822.75
472.873	866.75
473.092	909.75
473.311	899.75
473.53	868.75
473.749	893.75
473.968	893.75
474.187	924.75
474.406	925.75
474.625	939.75
474.844	951.75
475.063	960.75
475.282	943.75
475.501	905.75
475.72	926.75
475.939	979.75
476.158	947.75
476.377	963.75
476.596	918.75
476.814	905.75
477.033	873.75
477.252	931.75
477.471	998.75
477.69	996.75
477.908	1034.75
478.127	1071.75
478.346	1117.75
478.564	1092.75
478.783	1092.75
479.002	1083.75
479.22	1081.75
479.439	1127.75
479.658	1113.75
479.876	1058.75
480.095	1015.75
480.313	974.75
480.532	953.75
480.751	932.75
480.969	901.75
481.188	870.75
481.406	842.75
481.624	811.75
481.843	890.75
482.061	919.75
482.28	972.75
482.498	971.75
482.717	958.75
482.935	957.75
483.153	1064.75
483.372	1112.75
483.59	1086.75
483.808	1039.75
484.027	1028.75
484.245	1082.75
484.463	1334.75
484.681	1435.75
484.9	1096.75
485.118	1021.75
485.336	991.75
485.554	1005.75
485.772	980.75
485.99	965.75
486.209	984.75
486.427	985.75
486.645	1014.75
486.863	1082.75
487.081	1124.75
487.299	1095.75
487.517	1087.75
487.735	1183.75
487.953	1274.75
488.171	1281.75
488.389	1236.75
488.607	1125.75
488.825	1224.75
489.043	1171.75
489.261	1094.75
489.479	1111.75
489.696	1124.75
489.914	1140.75
490.132	1115.75
490.35	1173.75
490.568	1275.75
490.786	1291.75
491.003	1281.75
491.221	1331.75
491.439	1384.75
491.657	1369.75
491.874	1476.75
492.092	1529.75
492.31	1601.75
492.527	1551.75
492.745	1476.75
492.963	1410.75
493.18	1450.75
493.398	1464.75
493.615	1445.75
493.833	1367.75
494.05	1303.75
494.268	1329.75
494.485	1361.75
494.703	1342.75
494.92	1342.75
495.138	1327.75
495.355	1335.75
495.573	1333.75
495.79	1423.75
496.008	1413.75
496.225	1329.75
496.442	1341.75
496.66	1333.75
496.877	1324.75
497.094	1325.75
497.312	1317.75
497.529	1322.75
497.746	1291.75
497.963	1409.75
498.181	1420.75
498.398	1408.75
498.615	1336.75
498.832	1275.75
499.049	1295.75
499.267	1255.75
499.484	1372.75
499.701	1457.75
499.918	1501.75
500.135	1576.75
500.352	1739.75
500.569	1720.75
500.786	1843.75
501.003	1688.75
501.22	1555.75
501.437	1548.75
501.654	1581.75
501.871	1505.75
502.088	1290.75
502.305	1303.75
502.522	1252.75
502.739	1182.75
502.956	1162.75
503.172	1167.75
503.389	1112.75
503.606	1101.75
503.823	1091.75
504.04	1088.75
504.256	1128.75
504.473	1063.75
504.69	1099.75
504.907	1026.75
505.123	1046.75
505.34	1192.75
505.557	1467.75
505.773	1226.75
505.99	1025.75
506.207	997.75
506.423	972.75
506.64	995.75
506.856	981.75
507.073	1132.75
507.289	1201.75
507.506	1121.75
507.722	963.75
507.939	919.75
508.155	935.75
508.372	932.75
508.588	882.75
508.805	863.75
509.021	848.75
509.238	832.75
509.454	838.75
509.67	850.75
509.887	795.75
510.103	805.75
510.319	827.75
510.536	861.75
510.752	848.75
510.968	814.75
511.184	894.75
511.401	848.75
511.617	803.75
511.833	769.75
512.049	783.75
512.265	792.75
512.481	765.75
512.698	802.75
512.914	817.75
513.13	836.75
513.346	790.75
513.562	783.75
513.778	810.75
513.994	843.75
514.21	861.75
514.426	861.75
514.642	897.75
514.858	835.75
515.074	823.75
515.29	802.75
515.506	811.75
515.721	815.75
515.937	805.75
516.153	877.75
516.369	868.75
516.585	775.75
516.801	771.75
517.016	791.75
517.232	809.75
517.448	850.75
517.664	860.75
517.879	865.75
518.095	869.75
518.311	862.75
518.527	838.75
518.742	805.75
518.958	826.75
519.173	842.75
519.389	871.75
519.605	843.75
519.82	865.75
520.036	850.75
520.251	826.75
520.467	826.75
520.682	894.75
520.898	892.75
521.113	807.75
521.329	833.75
521.544	847.75
521.76	817.75
521.975	799.75
522.19	761.75
522.406	827.75
522.621	1029.75
522.836	945.75
523.052	791.75
523.267	813.75
523.482	853.75
523.698	810.75
523.913	812.75
524.128	843.75
524.343	867.75
524.559	879.75
524.774	852.75
524.989	826.75
525.204	815.75
525.419	807.75
525.634	788.75
525.849	789.75
526.064	781.75
526.28	787.75
526.495	732.75
526.71	721.75
526.925	705.75
527.14	658.75
527.355	674.75
527.57	694.75
527.785	741.75
527.999	724.75
528.214	750.75
528.429	753.75
528.644	803.75
528.859	850.75
529.074	885.75
529.289	918.75
529.503	922.75
529.718	878.75
529.933	808.75
530.148	724.75
530.363	693.75
530.577	701.75
530.792	720.75
531.007	701.75
531.221	677.75
531.436	696.75
531.651	699.75
531.865	775.75
532.08	727.75
532.295	682.75
532.509	659.75
532.724	677.75
532.938	728.75
533.153	778.75
533.367	783.75
533.582	803.75
533.796	765.75
534.011	773.75
534.225	713.75
534.44	710.75
534.654	693.75
534.868	728.75
535.083	742.75
535.297	771.75
535.511	728.75
535.726	755.75
535.94	731.75
536.154	699.75
536.369	699.75
536.583	686.75
536.797	673.75
537.011	691.75
537.225	671.75
537.44	668.75
537.654	713.75
537.868	702.75
538.082	635.75
538.296	626.75
538.51	682.75
538.724	723.75
538.938	760.75
539.153	821.75
539.367	806.75
539.581	767.75
539.795	735.75
540.009	707.75
540.222	678.75
540.436	710.75
540.65	830.75
540.864	885.75
541.078	861.75
541.292	885.75
541.506	956.75
541.72	998.75
541.934	1095.75
542.147	1130.75
542.361	1063.75
542.575	990.75
542.789	895.75
543.002	826.75
543.216	813.75
543.43	817.75
543.644	866.75
543.857	928.75
544.071	988.75
544.285	978.75
544.498	1011.75
544.712	979.75
544.925	1009.75
545.139	1028.75
545.352	994.75
545.566	999.75
545.779	994.75
545.993	1013.75
546.206	1047.75
546.42	1031.75
546.633	1017.75
546.847	1028.75
547.06	1014.75
547.274	1036.75
547.487	1058.75
547.7	1052.75
547.914	1028.75
548.127	1040.75
548.34	1004.75
548.554	996.75
548.767	983.75
548.98	1023.75
549.193	1023.75
549.407	1041.75
549.62	1020.75
549.833	1010.75
550.046	967.75
550.259	997.75
550.473	954.75
550.686	940.75
550.899	921.75
551.112	889.75
551.325	895.75
551.538	897.75
551.751	934.75
551.964	767.75
552.177	803.75
552.39	844.75
552.603	920.75
552.816	926.75
553.029	968.75
553.242	1017.75
553.455	973.75
553.667	973.75
553.88	945.75
554.093	930.75
554.306	909.75
554.519	902.75
554.732	879.75
554.944	905.75
555.157	878.75
555.37	862.75
555.583	859.75
555.795	835.75
556.008	769.75
556.221	749.75
556.433	774.75
556.646	770.75
556.859	783.75
557.071	789.75
557.284	806.75
557.496	797.75
557.709	804.75
557.921	779.75
558.134	817.75
558.346	775.75
558.559	772.75
558.771	774.75
558.984	766.75
559.196	739.75
559.409	711.75
559.621	730.75
559.833	719.75
560.046	712.75
560.258	739.75
560.47	717.75
560.683	717.75
560.895	728.75
561.107	734.75
561.32	721.75
561.532	732.75
561.744	727.75
561.956	732.75
562.168	706.75
562.381	680.75
562.593	682.75
562.805	701.75
563.017	661.75
563.229	685.75
563.441	703.75
563.653	689.75
563.865	685.75
564.077	663.75
564.289	633.75
564.501	641.75
564.713	651.75
564.925	687.75
565.137	699.75
565.349	685.75
565.561	685.75
565.773	662.75
565.985	650.75
566.197	723.75
566.408	712.75
566.62	726.75
566.832	731.75
567.044	725.75
567.255	693.75
567.467	690.75
567.679	701.75
567.891	688.75
568.102	673.75
568.314	637.75
568.526	590.75
568.737	541.75
568.949	534.75
569.161	509.75
569.372	516.75
569.584	518.75
569.795	493.75
570.007	482.75
570.218	472.75
570.43	479.75
570.641	482.75
570.853	493.75
571.064	499.75
571.276	534.75
571.487	503.75
571.698	529.75
571.91	504.75
572.121	485.75
572.333	470.75
572.544	461.75
572.755	447.75
572.966	443.75
573.178	418.75
573.389	423.75
573.6	447.75
573.811	472.75
574.023	416.75
574.234	442.75
574.445	419.75
574.656	426.75
574.867	427.75
575.078	465.75
575.289	443.75
575.501	440.75
575.712	419.75
575.923	424.75
576.134	445.75
576.345	451.75
576.556	450.75
576.767	412.75
576.978	405.75
577.188	407.75
577.399	423.75
577.61	419.75
577.821	399.75
578.032	418.75
578.243	400.75
578.454	402.75
578.665	377.75
578.875	368.75
579.086	366.75
579.297	369.75
579.508	363.75
579.718	373.75
579.929	382.75
580.14	379.75
580.35	363.75
580.561	381.75
580.772	421.75
580.982	395.75
581.193	372.75
581.403	364.75
581.614	372.75
581.825	352.75
582.035	361.75
582.246	387.75
582.456	382.75
582.667	371.75
582.877	382.75
583.087	373.75
583.298	357.75
583.508	352.75
583.719	346.75
583.929	345.75
584.139	357.75
584.35	339.75
584.56	346.75
584.77	343.75
584.981	360.75
585.191	369.75
585.401	348.75
585.611	374.75
585.821	343.75
586.032	332.75
586.242	323.75
586.452	336.75
586.662	360.75
586.872	320.75
587.082	340.75
587.292	354.75
587.502	351.75
587.713	349.75
587.923	315.75
588.133	331.75
588.343	328.75
588.553	325.75
588.762	331.75
588.972	327.75
589.182	331.75
589.392	339.75
589.602	350.75
589.812	326.75
590.022	344.75
590.232	326.75
590.441	346.75
590.651	345.75
590.861	328.75
591.071	332.75
591.281	319.75
591.49	338.75
591.7	321.75
591.91	325.75
592.119	331.75
592.329	321.75
592.539	357.75
592.748	363.75
592.958	328.75
593.167	351.75
593.377	341.75
593.587	359.75
593.796	344.75
594.006	353.75
594.215	343.75
594.424	346.75
594.634	378.75
594.843	362.75
595.053	391.75
595.262	373.75
595.472	363.75
595.681	338.75
595.89	330.75
596.1	325.75
596.309	338.75
596.518	355.75
596.727	354.75
596.937	340.75
597.146	341.75
597.355	351.75
597.564	338.75
597.774	322.75
597.983	308.75
598.192	303.75
598.401	298.75
598.61	297.75
598.819	310.75
599.028	307.75
599.237	332.75
599.446	334.75
599.655	326.75
599.864	306.75
600.073	304.75
600.282	306.75
600.491	317.75
600.7	309.75
600.909	329.75
601.118	349.75
601.327	347.75
601.536	358.75
601.745	373.75
601.953	378.75
602.162	374.75
602.371	384.75
602.58	377.75
602.789	373.75
602.997	378.75
603.206	381.75
603.415	359.75
603.623	347.75
603.832	346.75
604.041	346.75
604.249	339.75
604.458	315.75
604.666	313.75
604.875	317.75
605.084	343.75
605.292	379.75
605.501	370.75
605.709	379.75
605.918	376.75
606.126	389.75
606.334	377.75
606.543	389.75
606.751	383.75
606.96	400.75
607.168	390.75
607.376	353.75
607.585	371.75
607.793	373.75
608.001	375.75
608.21	365.75
608.418	373.75
608.626	375.75
608.834	359.75
609.043	376.75
609.251	389.75
609.459	392.75
609.667	405.75
609.875	396.75
610.083	407.75
610.291	377.75
610.499	409.75
610.707	374.75
610.916	375.75
611.124	378.75
611.332	390.75
611.54	377.75
611.748	372.75
611.955	387.75
612.163	385.75
612.371	373.75
612.579	378.75
612.787	363.75
612.995	375.75
613.203	393.75
613.411	376.75
613.618	387.75
613.826	389.75
614.034	395.75
614.242	386.75
614.449	366.75
614.657	373.75
614.865	375.75
615.072	390.75
615.28	372.75
615.488	370.75
615.695	357.75
615.903	377.75
616.111	379.75
616.318	390.75
616.526	359.75
616.733	358.75
616.941	363.75
617.148	375.75
617.356	377.75
617.563	359.75
617.771	347.75
617.978	332.75
618.185	335.75
618.393	344.75
618.6	381.75
618.807	359.75
619.015	363.75
619.222	372.75
619.429	347.75
619.637	339.75
619.844	314.75
620.051	314.75
620.258	341.75
620.466	324.75
620.673	349.75
620.88	350.75
621.087	331.75
621.294	340.75
621.501	311.75
621.708	317.75
621.915	359.75
622.122	351.75
622.329	334.75
622.536	353.75
622.743	353.75
622.95	323.75
623.157	328.75
623.364	356.75
623.571	326.75
623.778	349.75
623.985	333.75
624.192	341.75
624.399	322.75
624.606	313.75
624.812	333.75
625.019	322.75
625.226	326.75
625.433	299.75
625.639	300.75
625.846	289.75
626.053	278.75
626.259	254.75
626.466	252.75
626.673	255.75
626.879	252.75
627.086	289.75
627.293	285.75
627.499	287.75
627.706	315.75
627.912	325.75
628.119	318.75
628.325	306.75
628.532	309.75
628.738	313.75
628.945	306.75
629.151	309.75
629.357	311.75
629.564	311.75
629.77	292.75
629.976	281.75
630.183	270.75
630.389	289.75
630.595	278.75
630.802	282.75
631.008	294.75
631.214	279.75
631.42	299.75
631.627	293.75
631.833	273.75
632.039	275.75
632.245	292.75
632.451	280.75
632.657	282.75
632.863	285.75
633.069	271.75
633.275	277.75
633.481	250.75
633.688	265.75
633.893	276.75
634.099	254.75
634.305	266.75
634.511	252.75
634.717	265.75
634.923	238.75
635.129	233.75
635.335	253.75
635.541	261.75
635.747	247.75
635.952	276.75
636.158	269.75
636.364	250.75
636.57	283.75
636.775	282.75
636.981	273.75
637.187	278.75
637.392	250.75
637.598	260.75
637.804	263.75
638.009	263.75
638.215	269.75
638.421	253.75
638.626	259.75
638.832	252.75
639.037	257.75
639.243	246.75
639.448	250.75
639.654	246.75
639.859	255.75
640.065	278.75
640.27	252.75
640.475	257.75
640.681	245.75
640.886	262.75
641.091	247.75
641.297	267.75
641.502	251.75
641.707	251.75
641.913	261.75
642.118	264.75
642.323	269.75
642.528	257.75
642.733	259.75
642.939	248.75
643.144	233.75
643.349	245.75
643.554	259.75
643.759	255.75
643.964	260.75
644.169	268.75
644.374	263.75
644.579	252.75
644.784	272.75
644.989	258.75
645.194	261.75
645.399	257.75
645.604	248.75
645.809	262.75
646.014	261.75
646.219	255.75
646.423	238.75
646.628	254.75
646.833	269.75
647.038	243.75
647.243	252.75
647.447	238.75
647.652	255.75
647.857	252.75
648.062	246.75
648.266	241.75
648.471	257.75
648.676	251.75
648.88	245.75
649.085	240.75
649.289	235.75
649.494	251.75
649.698	258.75
649.903	234.75
650.107	265.75
650.312	266.75
650.516	242.75
650.721	243.75
650.925	223.75
651.13	233.75
651.334	237.75
651.539	255.75
651.743	243.75
651.947	242.75
652.152	220.75
652.356	211.75
652.56	228.75
652.764	223.75
652.969	214.75
653.173	218.75
653.377	215.75
653.581	219.75
653.785	206.75
653.99	204.75
654.194	207.75
654.398	213.75
654.602	206.75
654.806	224.75
655.01	233.75
655.214	211.75
655.418	213.75
655.622	206.75
655.826	190.75
656.03	225.75
656.234	226.75
656.438	246.75
656.642	231.75
656.846	241.75
657.049	235.75
657.253	203.75
657.457	195.75
657.661	186.75
657.865	179.75
658.068	180.75
658.272	163.75
658.476	151.75
658.68	155.75
658.883	155.75
659.087	149.75
659.291	145.75
659.494	136.75
659.698	142.75
659.901	136.75
660.105	129.75
660.309	137.75
660.512	130.75
660.716	134.75
660.919	123.75
661.123	115.75
661.326	113.75
661.53	97.75
661.733	106.75
661.936	99.75
662.14	89.75
662.343	102.75
662.546	115.75
662.75	95.75
662.953	98.75
663.156	106.75
663.36	81.75
663.563	97.75
663.766	85.75
663.969	79.75
664.173	83.75
664.376	82.75
664.579	87.75
664.782	89.75
664.985	89.75
665.188	88.75
665.391	78.75
665.594	90.75
665.797	98.75
666	78.75
666.203	83.75
666.406	77.75
666.609	75.75
666.812	85.75
667.015	93.75
667.218	83.75
667.421	97.75
667.624	94.75
667.827	84.75
668.03	81.75
668.232	101.75
668.435	80.75
668.638	91.75
668.841	86.75
669.043	83.75
669.246	78.75
669.449	80.75
669.651	73.75
669.854	74.75
670.057	85.75
670.259	81.75
670.462	90.75
670.665	82.75
670.867	94.75
671.07	86.75
671.272	85.75
671.475	77.75
671.677	82.75
671.88	80.75
672.082	75.75
672.284	81.75
672.487	94.75
672.689	77.75
672.892	86.75
