Data from WStandard_LampEnergy5.5LIBS07252019.E.O._I.C._HRD10591_16-06-35-920.txt Node
Date: Thu Jul 25 16:06:35 EDT 2019
User: cochatt
Spectrometer: HR+D1059
Trigger mode: 1
Integration Time (sec): 1.000000E-1
Scans to average: 1
Electric dark correction enabled: true
Nonlinearity correction enabled: false
Boxcar width: 0
XAxis mode: Wavelengths
Number of Pixels in Spectrum: 2048
>>>>>Begin Spectral Data<<<<<
223.165	-24.31
223.4	-24.31
223.635	-24.31
223.869	-16.31
224.104	-14.31
224.338	1.69
224.573	-25.31
224.808	-18.31
225.042	-3.31
225.277	3.69
225.511	-6.31
225.746	3.69
225.98	4.69
226.215	18.69
226.449	17.69
226.683	33.69
226.918	17.69
227.152	6.69
227.387	37.69
227.621	36.69
227.856	40.69
228.09	36.69
228.324	50.69
228.559	50.69
228.793	145.69
229.027	348.69
229.262	354.69
229.496	371.69
229.73	393.69
229.964	432.69
230.199	434.69
230.433	473.69
230.667	477.69
230.901	532.69
231.136	466.69
231.37	471.69
231.604	438.69
231.838	448.69
232.072	464.69
232.306	426.69
232.541	460.69
232.775	530.69
233.009	597.69
233.243	593.69
233.477	521.69
233.711	541.69
233.945	578.69
234.179	548.69
234.413	564.69
234.647	621.69
234.881	584.69
235.115	529.69
235.349	549.69
235.583	568.69
235.817	544.69
236.051	520.69
236.285	532.69
236.519	567.69
236.753	629.69
236.987	666.69
237.221	644.69
237.455	738.69
237.689	729.69
237.922	668.69
238.156	628.69
238.39	641.69
238.624	678.69
238.858	723.69
239.091	740.69
239.325	812.69
239.559	904.69
239.793	944.69
240.027	1034.69
240.26	996.69
240.494	735.69
240.728	691.69
240.961	718.69
241.195	726.69
241.429	802.69
241.662	829.69
241.896	738.69
242.13	758.69
242.363	822.69
242.597	897.69
242.83	828.69
243.064	867.69
243.298	919.69
243.531	895.69
243.765	894.69
243.998	876.69
244.232	801.69
244.465	759.69
244.699	764.69
244.932	872.69
245.166	1008.69
245.399	973.69
245.633	865.69
245.866	871.69
246.099	880.69
246.333	922.69
246.566	959.69
246.8	1037.69
247.033	1164.69
247.266	1055.69
247.5	1038.69
247.733	1012.69
247.966	1095.69
248.2	1213.69
248.433	1146.69
248.666	1152.69
248.899	1229.69
249.133	1488.69
249.366	1709.69
249.599	1402.69
249.832	1214.69
250.066	1240.69
250.299	1266.69
250.532	1177.69
250.765	1053.69
250.998	1132.69
251.231	1186.69
251.465	1216.69
251.698	1144.69
251.931	1155.69
252.164	1150.69
252.397	1210.69
252.63	1189.69
252.863	1077.69
253.096	1047.69
253.329	1099.69
253.562	1135.69
253.795	1278.69
254.028	1241.69
254.261	1113.69
254.494	1135.69
254.727	1069.69
254.96	1098.69
255.193	1247.69
255.426	1376.69
255.659	1561.69
255.892	1632.69
256.124	1338.69
256.357	1277.69
256.59	1418.69
256.823	1406.69
257.056	1386.69
257.289	1684.69
257.521	1852.69
257.754	1668.69
257.987	1539.69
258.22	1718.69
258.452	1701.69
258.685	1378.69
258.918	1313.69
259.151	1377.69
259.383	1301.69
259.616	1145.69
259.849	1173.69
260.081	1348.69
260.314	1535.69
260.547	1609.69
260.779	1683.69
261.012	1536.69
261.244	1398.69
261.477	1349.69
261.71	1390.69
261.942	1372.69
262.175	1332.69
262.407	1420.69
262.64	1335.69
262.872	1259.69
263.105	1183.69
263.337	1249.69
263.57	1212.69
263.802	1266.69
264.035	1211.69
264.267	1102.69
264.499	1110.69
264.732	1212.69
264.964	1271.69
265.197	1318.69
265.429	1372.69
265.661	1512.69
265.894	1654.69
266.126	1732.69
266.358	1573.69
266.591	1582.69
266.823	1748.69
267.055	1535.69
267.287	1535.69
267.52	1501.69
267.752	1489.69
267.984	1502.69
268.216	1562.69
268.448	1628.69
268.681	1608.69
268.913	1467.69
269.145	1371.69
269.377	1353.69
269.609	1463.69
269.841	1702.69
270.073	1990.69
270.306	2209.69
270.538	2392.69
270.77	1987.69
271.002	1667.69
271.234	1600.69
271.466	1586.69
271.698	1769.69
271.93	2128.69
272.162	2135.69
272.394	1911.69
272.626	1884.69
272.858	1628.69
273.09	1394.69
273.322	1409.69
273.553	1352.69
273.785	1364.69
274.017	1412.69
274.249	1518.69
274.481	1537.69
274.713	1401.69
274.945	1349.69
275.176	1417.69
275.408	1374.69
275.64	1336.69
275.872	1311.69
276.104	1417.69
276.335	1600.69
276.567	1842.69
276.799	1869.69
277.031	1694.69
277.262	1555.69
277.494	1652.69
277.726	1783.69
277.957	1796.69
278.189	1629.69
278.421	1505.69
278.652	1451.69
278.884	1431.69
279.115	1418.69
279.347	1488.69
279.579	1418.69
279.81	1406.69
280.042	1582.69
280.273	1731.69
280.505	1692.69
280.736	1785.69
280.968	1670.69
281.199	1459.69
281.431	1407.69
281.662	1423.69
281.894	1397.69
282.125	1425.69
282.356	1484.69
282.588	1488.69
282.819	1494.69
283.051	1615.69
283.282	1763.69
283.513	1698.69
283.745	1463.69
283.976	1368.69
284.207	1393.69
284.439	1430.69
284.67	1432.69
284.901	1482.69
285.132	1504.69
285.364	1477.69
285.595	1488.69
285.826	1517.69
286.057	1460.69
286.288	1442.69
286.52	1508.69
286.751	1633.69
286.982	1684.69
287.213	1518.69
287.444	1433.69
287.675	1403.69
287.906	1511.69
288.138	1598.69
288.369	1557.69
288.6	1481.69
288.831	1437.69
289.062	1424.69
289.293	1474.69
289.524	1440.69
289.755	1492.69
289.986	1493.69
290.217	1418.69
290.448	1443.69
290.679	1469.69
290.91	1511.69
291.141	1528.69
291.371	1598.69
291.602	1560.69
291.833	1558.69
292.064	1621.69
292.295	1572.69
292.526	1607.69
292.757	1680.69
292.987	1625.69
293.218	1514.69
293.449	1627.69
293.68	1848.69
293.91	1960.69
294.141	1831.69
294.372	1707.69
294.603	1748.69
294.833	1896.69
295.064	1770.69
295.295	1593.69
295.525	1558.69
295.756	1427.69
295.987	1380.69
296.217	1433.69
296.448	1447.69
296.679	1453.69
296.909	1470.69
297.14	1416.69
297.37	1464.69
297.601	1541.69
297.831	1693.69
298.062	1721.69
298.292	1526.69
298.523	1455.69
298.753	1466.69
298.984	1481.69
299.214	1501.69
299.445	1516.69
299.675	1576.69
299.905	1537.69
300.136	1545.69
300.366	1528.69
300.597	1448.69
300.827	1437.69
301.057	1505.69
301.288	1613.69
301.518	1604.69
301.748	1604.69
301.979	1692.69
302.209	1697.69
302.439	1834.69
302.669	1910.69
302.9	1798.69
303.13	1570.69
303.36	1596.69
303.59	1651.69
303.82	1656.69
304.051	1612.69
304.281	1641.69
304.511	1614.69
304.741	1673.69
304.971	1835.69
305.201	1998.69
305.431	1918.69
305.661	1588.69
305.891	1397.69
306.121	1411.69
306.352	1462.69
306.582	1562.69
306.812	1647.69
307.042	1742.69
307.272	1767.69
307.502	1813.69
307.731	1967.69
307.961	2144.69
308.191	1927.69
308.421	1695.69
308.651	1568.69
308.881	1530.69
309.111	1532.69
309.341	1499.69
309.571	1537.69
309.8	1564.69
310.03	1528.69
310.26	1504.69
310.49	1548.69
310.72	1592.69
310.949	1613.69
311.179	1649.69
311.409	1628.69
311.639	1603.69
311.868	1526.69
312.098	1580.69
312.328	1570.69
312.557	1521.69
312.787	1569.69
313.017	1633.69
313.246	1648.69
313.476	1594.69
313.706	1629.69
313.935	1589.69
314.165	1681.69
314.394	1676.69
314.624	1790.69
314.853	1903.69
315.083	1955.69
315.312	2015.69
315.542	1889.69
315.771	1661.69
316.001	1653.69
316.23	1756.69
316.46	1735.69
316.689	1705.69
316.919	1650.69
317.148	1596.69
317.377	1603.69
317.607	1697.69
317.836	1902.69
318.065	1996.69
318.295	1889.69
318.524	1836.69
318.753	1753.69
318.983	1790.69
319.212	1756.69
319.441	1689.69
319.67	1660.69
319.9	1726.69
320.129	1771.69
320.358	1862.69
320.587	1873.69
320.816	1865.69
321.046	1864.69
321.275	1725.69
321.504	1788.69
321.733	1876.69
321.962	1880.69
322.191	1715.69
322.42	1676.69
322.649	1686.69
322.878	1680.69
323.108	1684.69
323.337	1773.69
323.566	1790.69
323.795	1781.69
324.024	1744.69
324.253	1679.69
324.482	1729.69
324.71	1721.69
324.939	1622.69
325.168	1610.69
325.397	1680.69
325.626	1749.69
325.855	1759.69
326.084	1682.69
326.313	1743.69
326.542	1749.69
326.77	1749.69
326.999	1776.69
327.228	1712.69
327.457	1582.69
327.686	1592.69
327.914	1635.69
328.143	1677.69
328.372	1691.69
328.6	1719.69
328.829	1694.69
329.058	1644.69
329.287	1688.69
329.515	1704.69
329.744	1718.69
329.972	1813.69
330.201	1915.69
330.43	1881.69
330.658	1800.69
330.887	1836.69
331.115	1774.69
331.344	1859.69
331.572	1770.69
331.801	1737.69
332.03	1783.69
332.258	1787.69
332.486	1817.69
332.715	1844.69
332.943	1813.69
333.172	1800.69
333.4	1832.69
333.629	1857.69
333.857	1965.69
334.085	2117.69
334.314	2405.69
334.542	2686.69
334.771	2474.69
334.999	2175.69
335.227	2038.69
335.455	1944.69
335.684	1958.69
335.912	1948.69
336.14	2049.69
336.369	1940.69
336.597	1850.69
336.825	1828.69
337.053	1885.69
337.281	1953.69
337.51	2030.69
337.738	2137.69
337.966	2035.69
338.194	1865.69
338.422	1801.69
338.65	1806.69
338.878	1751.69
339.106	1731.69
339.334	1727.69
339.562	1680.69
339.79	1701.69
340.018	1800.69
340.246	1883.69
340.474	1877.69
340.702	1855.69
340.93	1843.69
341.158	1818.69
341.386	1792.69
341.614	1808.69
341.842	1760.69
342.07	1767.69
342.298	1834.69
342.526	1805.69
342.754	1763.69
342.981	1743.69
343.209	1748.69
343.437	1713.69
343.665	1749.69
343.893	1826.69
344.12	1893.69
344.348	1929.69
344.576	1809.69
344.804	1774.69
345.031	1757.69
345.259	1753.69
345.487	1760.69
345.714	1640.69
345.942	1632.69
346.17	1600.69
346.397	1676.69
346.625	1684.69
346.853	1599.69
347.08	1564.69
347.308	1611.69
347.535	1648.69
347.763	1694.69
347.99	1670.69
348.218	1585.69
348.445	1620.69
348.673	1664.69
348.9	1682.69
349.128	1769.69
349.355	1835.69
349.583	1740.69
349.81	1694.69
350.037	1536.69
350.265	1523.69
350.492	1589.69
350.72	1583.69
350.947	1663.69
351.174	1683.69
351.402	1620.69
351.629	1535.69
351.856	1516.69
352.083	1590.69
352.311	1570.69
352.538	1592.69
352.765	1609.69
352.992	1662.69
353.22	1631.69
353.447	1580.69
353.674	1615.69
353.901	1630.69
354.128	1567.69
354.355	1574.69
354.583	1677.69
354.81	1646.69
355.037	1682.69
355.264	1699.69
355.491	1630.69
355.718	1632.69
355.945	1616.69
356.172	1624.69
356.399	1590.69
356.626	1553.69
356.853	1620.69
357.08	1745.69
357.307	1916.69
357.534	1972.69
357.761	1686.69
357.988	1576.69
358.215	1511.69
358.441	1553.69
358.668	1557.69
358.895	1556.69
359.122	1634.69
359.349	1836.69
359.576	1836.69
359.802	1646.69
360.029	1591.69
360.256	1554.69
360.483	1592.69
360.709	1615.69
360.936	1731.69
361.163	1702.69
361.39	1878.69
361.616	2037.69
361.843	2000.69
362.07	1890.69
362.296	1675.69
362.523	1577.69
362.749	1601.69
362.976	1637.69
363.203	1678.69
363.429	1647.69
363.656	1571.69
363.882	1594.69
364.109	1785.69
364.335	1948.69
364.562	1813.69
364.788	1734.69
365.015	1679.69
365.241	1628.69
365.468	1631.69
365.694	1693.69
365.92	1747.69
366.147	1715.69
366.373	1592.69
366.599	1560.69
366.826	1553.69
367.052	1572.69
367.278	1608.69
367.505	1638.69
367.731	1687.69
367.957	1672.69
368.184	1695.69
368.41	1791.69
368.636	1817.69
368.862	1840.69
369.089	1842.69
369.315	1750.69
369.541	1673.69
369.767	1690.69
369.993	1600.69
370.219	1650.69
370.445	1649.69
370.672	1726.69
370.898	1813.69
371.124	1810.69
371.35	1696.69
371.576	1761.69
371.802	1797.69
372.028	1758.69
372.254	1680.69
372.48	1627.69
372.706	1616.69
372.932	1674.69
373.158	1664.69
373.384	1653.69
373.61	1680.69
373.835	1772.69
374.061	1711.69
374.287	1728.69
374.513	1716.69
374.739	1702.69
374.965	1744.69
375.191	1717.69
375.416	1750.69
375.642	1761.69
375.868	1842.69
376.094	1879.69
376.319	1831.69
376.545	1708.69
376.771	1732.69
376.997	1826.69
377.222	1812.69
377.448	1758.69
377.674	1745.69
377.899	1767.69
378.125	1862.69
378.35	1898.69
378.576	1746.69
378.802	1667.69
379.027	1670.69
379.253	1676.69
379.478	1698.69
379.704	1711.69
379.929	1648.69
380.155	1728.69
380.38	1721.69
380.606	1721.69
380.831	1688.69
381.057	1826.69
381.282	1830.69
381.507	1769.69
381.733	1857.69
381.958	1967.69
382.184	1815.69
382.409	1728.69
382.634	1748.69
382.86	1776.69
383.085	1772.69
383.31	1794.69
383.535	1974.69
383.761	2094.69
383.986	1981.69
384.211	1934.69
384.436	1921.69
384.662	1980.69
384.887	2070.69
385.112	1953.69
385.337	1980.69
385.562	1983.69
385.787	1939.69
386.013	1997.69
386.238	1999.69
386.463	1960.69
386.688	2079.69
386.913	2195.69
387.138	2238.69
387.363	2028.69
387.588	2001.69
387.813	1989.69
388.038	2017.69
388.263	2071.69
388.488	2021.69
388.713	1876.69
388.938	1847.69
389.163	1895.69
389.387	1917.69
389.612	1914.69
389.837	1934.69
390.062	1993.69
390.287	1963.69
390.512	1953.69
390.736	1944.69
390.961	1893.69
391.186	1878.69
391.411	1886.69
391.636	1948.69
391.86	1960.69
392.085	1914.69
392.31	1902.69
392.534	1956.69
392.759	1933.69
392.984	1954.69
393.208	1991.69
393.433	2068.69
393.658	2140.69
393.882	2112.69
394.107	1979.69
394.331	1929.69
394.556	1902.69
394.78	1968.69
395.005	2000.69
395.229	2075.69
395.454	2227.69
395.678	2192.69
395.903	2160.69
396.127	2023.69
396.352	2064.69
396.576	2146.69
396.801	2151.69
397.025	2111.69
397.249	2156.69
397.474	2066.69
397.698	2090.69
397.922	2172.69
398.147	2252.69
398.371	2307.69
398.595	2324.69
398.82	2191.69
399.044	2304.69
399.268	2421.69
399.492	2532.69
399.717	2588.69
399.941	2705.69
400.165	2605.69
400.389	2529.69
400.613	2460.69
400.837	2712.69
401.062	3078.69
401.286	2665.69
401.51	2398.69
401.734	2576.69
401.958	2486.69
402.182	2312.69
402.406	2256.69
402.63	2206.69
402.854	2220.69
403.078	2240.69
403.302	2266.69
403.526	2330.69
403.75	2302.69
403.974	2336.69
404.198	2337.69
404.422	2373.69
404.645	2502.69
404.869	2475.69
405.093	2282.69
405.317	2241.69
405.541	2363.69
405.765	2404.69
405.988	2361.69
406.212	2405.69
406.436	2389.69
406.66	2478.69
406.883	2522.69
407.107	2753.69
407.331	3028.69
407.555	3145.69
407.778	2964.69
408.002	2514.69
408.226	2465.69
408.449	2476.69
408.673	2369.69
408.896	2372.69
409.12	2422.69
409.344	2324.69
409.567	2304.69
409.791	2352.69
410.014	2386.69
410.238	2472.69
410.461	2593.69
410.685	2393.69
410.908	2253.69
411.132	2340.69
411.355	2302.69
411.578	2264.69
411.802	2286.69
412.025	2312.69
412.249	2315.69
412.472	2184.69
412.695	2232.69
412.919	2181.69
413.142	2163.69
413.365	2240.69
413.589	2300.69
413.812	2373.69
414.035	2481.69
414.258	2273.69
414.482	2174.69
414.705	2211.69
414.928	2215.69
415.151	2231.69
415.374	2196.69
415.597	2270.69
415.821	2260.69
416.044	2372.69
416.267	2344.69
416.49	2157.69
416.713	2114.69
416.936	2198.69
417.159	2267.69
417.382	2288.69
417.605	2114.69
417.828	2216.69
418.051	2275.69
418.274	2254.69
418.497	2168.69
418.72	2162.69
418.943	2143.69
419.166	2284.69
419.389	2367.69
419.611	2235.69
419.834	2244.69
420.057	2199.69
420.28	2132.69
420.503	2149.69
420.726	2182.69
420.948	2177.69
421.171	2157.69
421.394	2148.69
421.617	2208.69
421.839	2194.69
422.062	2142.69
422.285	2101.69
422.507	2112.69
422.73	2040.69
422.953	2037.69
423.175	2061.69
423.398	2115.69
423.621	2146.69
423.843	2130.69
424.066	2162.69
424.288	2254.69
424.511	2312.69
424.733	2223.69
424.956	2034.69
425.178	2005.69
425.401	2083.69
425.623	2100.69
425.846	2068.69
426.068	2184.69
426.291	2187.69
426.513	2130.69
426.735	2123.69
426.958	2306.69
427.18	2467.69
427.402	2267.69
427.625	2334.69
427.847	2356.69
428.069	2166.69
428.292	2064.69
428.514	2028.69
428.736	1958.69
428.958	2067.69
429.181	2055.69
429.403	2312.69
429.625	2870.69
429.847	2502.69
430.069	2136.69
430.292	2321.69
430.514	2388.69
430.736	2214.69
430.958	2325.69
431.18	2252.69
431.402	2086.69
431.624	2026.69
431.846	2076.69
432.068	1984.69
432.29	2020.69
432.512	2081.69
432.734	2109.69
432.956	2129.69
433.178	2249.69
433.4	2267.69
433.622	2211.69
433.844	2133.69
434.066	2078.69
434.287	2054.69
434.509	2133.69
434.731	2232.69
434.953	2348.69
435.175	2368.69
435.397	2220.69
435.618	2173.69
435.84	2161.69
436.062	2172.69
436.284	2176.69
436.505	2173.69
436.727	2211.69
436.949	2160.69
437.17	2068.69
437.392	2071.69
437.614	2134.69
437.835	2048.69
438.057	2115.69
438.278	2258.69
438.5	2126.69
438.721	2099.69
438.943	2075.69
439.165	2057.69
439.386	2036.69
439.608	2025.69
439.829	2055.69
440.05	2070.69
440.272	2037.69
440.493	2005.69
440.715	2112.69
440.936	2185.69
441.158	2400.69
441.379	2372.69
441.6	2240.69
441.822	2214.69
442.043	2242.69
442.264	2179.69
442.486	2028.69
442.707	2067.69
442.928	1989.69
443.149	2107.69
443.371	2276.69
443.592	2314.69
443.813	2274.69
444.034	2267.69
444.255	2200.69
444.476	2351.69
444.698	2359.69
444.919	2332.69
445.14	2403.69
445.361	2430.69
445.582	2455.69
445.803	2361.69
446.024	2250.69
446.245	2342.69
446.466	2248.69
446.687	2164.69
446.908	2152.69
447.129	2090.69
447.35	2142.69
447.571	2096.69
447.792	2034.69
448.013	1991.69
448.234	2085.69
448.455	2146.69
448.675	2156.69
448.896	2046.69
449.117	1953.69
449.338	2008.69
449.559	2069.69
449.779	2210.69
450	2437.69
450.221	2600.69
450.442	2554.69
450.662	2222.69
450.883	1968.69
451.104	1949.69
451.324	1950.69
451.545	2072.69
451.766	1996.69
451.986	1918.69
452.207	1918.69
452.428	1908.69
452.648	1849.69
452.869	1880.69
453.089	1991.69
453.31	2023.69
453.53	2103.69
453.751	2021.69
453.971	1851.69
454.192	1961.69
454.412	2001.69
454.633	2015.69
454.853	1897.69
455.073	1818.69
455.294	1764.69
455.514	1773.69
455.734	1832.69
455.955	1845.69
456.175	1820.69
456.395	1837.69
456.616	1895.69
456.836	1937.69
457.056	1889.69
457.276	1877.69
457.497	1852.69
457.717	1779.69
457.937	1794.69
458.157	1869.69
458.377	1846.69
458.598	1820.69
458.818	1844.69
459.038	1994.69
459.258	2073.69
459.478	2050.69
459.698	1974.69
459.918	2062.69
460.138	2160.69
460.358	2256.69
460.578	2231.69
460.798	2286.69
461.018	2396.69
461.238	2311.69
461.458	2213.69
461.678	2205.69
461.898	2161.69
462.118	2104.69
462.338	2257.69
462.558	2214.69
462.777	2236.69
462.997	2350.69
463.217	2481.69
463.437	2453.69
463.657	2278.69
463.876	2231.69
464.096	2226.69
464.316	2229.69
464.536	2296.69
464.755	2294.69
464.975	2360.69
465.195	2288.69
465.414	2311.69
465.634	2332.69
465.854	2200.69
466.073	2332.69
466.293	2299.69
466.512	2044.69
466.732	2045.69
466.951	2099.69
467.171	2142.69
467.391	2020.69
467.61	1944.69
467.829	1977.69
468.049	2138.69
468.268	2397.69
468.488	2240.69
468.707	2139.69
468.927	2081.69
469.146	2044.69
469.365	1965.69
469.585	1991.69
469.804	1993.69
470.023	2029.69
470.243	2042.69
470.462	2041.69
470.681	1961.69
470.901	2028.69
471.12	2047.69
471.339	2002.69
471.558	1932.69
471.777	1944.69
471.997	1939.69
472.216	1967.69
472.435	1904.69
472.654	1957.69
472.873	1988.69
473.092	2175.69
473.311	2057.69
473.53	1903.69
473.749	1936.69
473.968	1982.69
474.187	2086.69
474.406	2166.69
474.625	2070.69
474.844	2022.69
475.063	2017.69
475.282	2063.69
475.501	2053.69
475.72	2020.69
475.939	2165.69
476.158	2074.69
476.377	2069.69
476.596	2070.69
476.814	2109.69
477.033	2122.69
477.252	2173.69
477.471	2268.69
477.69	2173.69
477.908	2158.69
478.127	2222.69
478.346	2439.69
478.564	2420.69
478.783	2392.69
479.002	2439.69
479.22	2425.69
479.439	2518.69
479.658	2855.69
479.876	2797.69
480.095	2435.69
480.313	2352.69
480.532	2197.69
480.751	2270.69
480.969	2329.69
481.188	2318.69
481.406	2291.69
481.624	2208.69
481.843	2218.69
482.061	2280.69
482.28	2296.69
482.498	2375.69
482.717	2332.69
482.935	2228.69
483.153	2247.69
483.372	2268.69
483.59	2205.69
483.808	2238.69
484.027	2279.69
484.245	2435.69
484.463	2800.69
484.681	3206.69
484.9	2499.69
485.118	2327.69
485.336	2255.69
485.554	2369.69
485.772	2471.69
485.99	2454.69
486.209	2466.69
486.427	2419.69
486.645	2432.69
486.863	2387.69
487.081	2422.69
487.299	2508.69
487.517	2428.69
487.735	2333.69
487.953	2380.69
488.171	2336.69
488.389	2334.69
488.607	2312.69
488.825	2552.69
489.043	2624.69
489.261	2325.69
489.479	2482.69
489.696	2566.69
489.914	2518.69
490.132	2429.69
490.35	2354.69
490.568	2484.69
490.786	2409.69
491.003	2322.69
491.221	2368.69
491.439	2452.69
491.657	2422.69
491.874	2454.69
492.092	2478.69
492.31	2469.69
492.527	2424.69
492.745	2424.69
492.963	2423.69
493.18	2518.69
493.398	2655.69
493.615	2727.69
493.833	2516.69
494.05	2440.69
494.268	2464.69
494.485	2530.69
494.703	2496.69
494.92	2447.69
495.138	2448.69
495.355	2452.69
495.573	2514.69
495.79	2688.69
496.008	2773.69
496.225	2568.69
496.442	2567.69
496.66	2611.69
496.877	2557.69
497.094	2734.69
497.312	2729.69
497.529	2668.69
497.746	2711.69
497.963	3192.69
498.181	3512.69
498.398	3309.69
498.615	3246.69
498.832	3190.69
499.049	3135.69
499.267	3112.69
499.484	3355.69
499.701	3650.69
499.918	3660.69
500.135	3966.69
500.352	4298.69
500.569	4217.69
500.786	4512.69
501.003	4203.69
501.22	3814.69
501.437	3688.69
501.654	3675.69
501.871	3570.69
502.088	3148.69
502.305	3180.69
502.522	3021.69
502.739	2812.69
502.956	2706.69
503.172	2743.69
503.389	2628.69
503.606	2610.69
503.823	2628.69
504.04	2652.69
504.256	2588.69
504.473	2596.69
504.69	2695.69
504.907	2567.69
505.123	2406.69
505.34	2552.69
505.557	3274.69
505.773	2822.69
505.99	2396.69
506.207	2240.69
506.423	2230.69
506.64	2187.69
506.856	2237.69
507.073	2467.69
507.289	2686.69
507.506	2597.69
507.722	2250.69
507.939	2117.69
508.155	2173.69
508.372	2174.69
508.588	2068.69
508.805	2021.69
509.021	2012.69
509.238	1977.69
509.454	2009.69
509.67	2025.69
509.887	1978.69
510.103	1970.69
510.319	1986.69
510.536	2128.69
510.752	2198.69
510.968	2229.69
511.184	2310.69
511.401	2283.69
511.617	2005.69
511.833	1954.69
512.049	1968.69
512.265	1939.69
512.481	1897.69
512.698	1988.69
512.914	2162.69
513.13	2121.69
513.346	1960.69
513.562	1925.69
513.778	1999.69
513.994	2089.69
514.21	2184.69
514.426	2142.69
514.642	2398.69
514.858	2254.69
515.074	2079.69
515.29	1987.69
515.506	2060.69
515.721	2079.69
515.937	2076.69
516.153	2412.69
516.369	2298.69
516.585	2158.69
516.801	2050.69
517.016	2044.69
517.232	2113.69
517.448	2160.69
517.664	2164.69
517.879	2201.69
518.095	2326.69
518.311	2213.69
518.527	2058.69
518.742	2046.69
518.958	2009.69
519.173	2005.69
519.389	2065.69
519.605	2025.69
519.82	2002.69
520.036	2065.69
520.251	1974.69
520.467	1990.69
520.682	2166.69
520.898	2210.69
521.113	2001.69
521.329	1964.69
521.544	2136.69
521.76	1987.69
521.975	1909.69
522.19	1884.69
522.406	1886.69
522.621	2253.69
522.836	2274.69
523.052	1894.69
523.267	1885.69
523.482	1860.69
523.698	1833.69
523.913	1761.69
524.128	1822.69
524.343	1909.69
524.559	1941.69
524.774	1836.69
524.989	1813.69
525.204	1816.69
525.419	1767.69
525.634	1744.69
525.849	1763.69
526.064	1772.69
526.28	1820.69
526.495	1758.69
526.71	1718.69
526.925	1732.69
527.14	1722.69
527.355	1712.69
527.57	1705.69
527.785	1742.69
527.999	1723.69
528.214	1692.69
528.429	1680.69
528.644	1670.69
528.859	1746.69
529.074	1740.69
529.289	1694.69
529.503	1728.69
529.718	1774.69
529.933	1705.69
530.148	1669.69
530.363	1682.69
530.577	1704.69
530.792	1733.69
531.007	1747.69
531.221	1678.69
531.436	1756.69
531.651	1795.69
531.865	1856.69
532.08	1788.69
532.295	1697.69
532.509	1648.69
532.724	1668.69
532.938	1742.69
533.153	1864.69
533.367	1790.69
533.582	1696.69
533.796	1692.69
534.011	1692.69
534.225	1740.69
534.44	1698.69
534.654	1668.69
534.868	1653.69
535.083	1726.69
535.297	1718.69
535.511	1673.69
535.726	1675.69
535.94	1713.69
536.154	1675.69
536.369	1694.69
536.583	1621.69
536.797	1631.69
537.011	1688.69
537.225	1605.69
537.44	1566.69
537.654	1704.69
537.868	1617.69
538.082	1542.69
538.296	1552.69
538.51	1532.69
538.724	1516.69
538.938	1597.69
539.153	1598.69
539.367	1602.69
539.581	1629.69
539.795	1682.69
540.009	1657.69
540.222	1651.69
540.436	1622.69
540.65	1767.69
540.864	1789.69
541.078	1692.69
541.292	1573.69
541.506	1569.69
541.72	1599.69
541.934	1631.69
542.147	1662.69
542.361	1614.69
542.575	1556.69
542.789	1529.69
543.002	1512.69
543.216	1517.69
543.43	1614.69
543.644	1679.69
543.857	1753.69
544.071	1669.69
544.285	1610.69
544.498	1617.69
544.712	1614.69
544.925	1635.69
545.139	1637.69
545.352	1570.69
545.566	1504.69
545.779	1533.69
545.993	1604.69
546.206	1561.69
546.42	1496.69
546.633	1461.69
546.847	1468.69
547.06	1480.69
547.274	1528.69
547.487	1517.69
547.7	1479.69
547.914	1508.69
548.127	1541.69
548.34	1579.69
548.554	1536.69
548.767	1522.69
548.98	1540.69
549.193	1516.69
549.407	1585.69
549.62	1627.69
549.833	1513.69
550.046	1498.69
550.259	1477.69
550.473	1496.69
550.686	1501.69
550.899	1490.69
551.112	1464.69
551.325	1417.69
551.538	1545.69
551.751	1738.69
551.964	1487.69
552.177	1424.69
552.39	1479.69
552.603	1472.69
552.816	1514.69
553.029	1564.69
553.242	1600.69
553.455	1508.69
553.667	1508.69
553.88	1487.69
554.093	1498.69
554.306	1422.69
554.519	1426.69
554.732	1383.69
554.944	1415.69
555.157	1432.69
555.37	1409.69
555.583	1418.69
555.795	1384.69
556.008	1342.69
556.221	1344.69
556.433	1328.69
556.646	1304.69
556.859	1289.69
557.071	1328.69
557.284	1254.69
557.496	1298.69
557.709	1289.69
557.921	1249.69
558.134	1264.69
558.346	1260.69
558.559	1233.69
558.771	1260.69
558.984	1234.69
559.196	1211.69
559.409	1214.69
559.621	1209.69
559.833	1224.69
560.046	1315.69
560.258	1264.69
560.47	1236.69
560.683	1241.69
560.895	1248.69
561.107	1254.69
561.32	1244.69
561.532	1261.69
561.744	1240.69
561.956	1249.69
562.168	1223.69
562.381	1184.69
562.593	1168.69
562.805	1221.69
563.017	1202.69
563.229	1237.69
563.441	1242.69
563.653	1201.69
563.865	1198.69
564.077	1198.69
564.289	1206.69
564.501	1216.69
564.713	1297.69
564.925	1303.69
565.137	1390.69
565.349	1305.69
565.561	1284.69
565.773	1271.69
565.985	1308.69
566.197	1412.69
566.408	1491.69
566.62	1480.69
566.832	1482.69
567.044	1512.69
567.255	1459.69
567.467	1478.69
567.679	1546.69
567.891	1545.69
568.102	1528.69
568.314	1475.69
568.526	1422.69
568.737	1374.69
568.949	1294.69
569.161	1271.69
569.372	1162.69
569.584	1190.69
569.795	1210.69
570.007	1172.69
570.218	1114.69
570.43	1101.69
570.641	1091.69
570.853	1115.69
571.064	1096.69
571.276	1080.69
571.487	1060.69
571.698	1047.69
571.91	1023.69
572.121	1016.69
572.333	978.69
572.544	998.69
572.755	970.69
572.966	978.69
573.178	972.69
573.389	986.69
573.6	996.69
573.811	1101.69
574.023	1022.69
574.234	952.69
574.445	912.69
574.656	925.69
574.867	898.69
575.078	928.69
575.289	939.69
575.501	910.69
575.712	928.69
575.923	904.69
576.134	925.69
576.345	908.69
576.556	906.69
576.767	878.69
576.978	880.69
577.188	891.69
577.399	864.69
577.61	871.69
577.821	872.69
578.032	826.69
578.243	850.69
578.454	854.69
578.665	840.69
578.875	807.69
579.086	822.69
579.297	822.69
579.508	882.69
579.718	850.69
579.929	819.69
580.14	782.69
580.35	825.69
580.561	850.69
580.772	909.69
580.982	844.69
581.193	821.69
581.403	829.69
581.614	802.69
581.825	800.69
582.035	765.69
582.246	813.69
582.456	816.69
582.667	791.69
582.877	819.69
583.087	798.69
583.298	784.69
583.508	804.69
583.719	795.69
583.929	790.69
584.139	767.69
584.35	755.69
584.56	753.69
584.77	794.69
584.981	756.69
585.191	759.69
585.401	808.69
585.611	775.69
585.821	729.69
586.032	752.69
586.242	744.69
586.452	755.69
586.662	755.69
586.872	733.69
587.082	749.69
587.292	766.69
587.502	761.69
587.713	759.69
587.923	748.69
588.133	744.69
588.343	778.69
588.553	740.69
588.762	753.69
588.972	745.69
589.182	745.69
589.392	736.69
589.602	777.69
589.812	757.69
590.022	697.69
590.232	731.69
590.441	740.69
590.651	732.69
590.861	729.69
591.071	706.69
591.281	740.69
591.49	726.69
591.7	703.69
591.91	746.69
592.119	746.69
592.329	768.69
592.539	772.69
592.748	758.69
592.958	771.69
593.167	775.69
593.377	772.69
593.587	777.69
593.796	787.69
594.006	804.69
594.215	794.69
594.424	768.69
594.634	760.69
594.843	738.69
595.053	753.69
595.262	752.69
595.472	710.69
595.681	734.69
595.89	689.69
596.1	713.69
596.309	725.69
596.518	708.69
596.727	726.69
596.937	689.69
597.146	663.69
597.355	662.69
597.564	660.69
597.774	656.69
597.983	649.69
598.192	620.69
598.401	654.69
598.61	645.69
598.819	647.69
599.028	646.69
599.237	629.69
599.446	604.69
599.655	582.69
599.864	601.69
600.073	603.69
600.282	605.69
600.491	623.69
600.7	616.69
600.909	576.69
601.118	569.69
601.327	609.69
601.536	630.69
601.745	604.69
601.953	588.69
602.162	625.69
602.371	606.69
602.58	596.69
602.789	575.69
602.997	586.69
603.206	593.69
603.415	602.69
603.623	579.69
603.832	567.69
604.041	570.69
604.249	572.69
604.458	575.69
604.666	570.69
604.875	564.69
605.084	578.69
605.292	572.69
605.501	573.69
605.709	567.69
605.918	564.69
606.126	566.69
606.334	561.69
606.543	558.69
606.751	566.69
606.96	556.69
607.168	538.69
607.376	543.69
607.585	586.69
607.793	537.69
608.001	565.69
608.21	566.69
608.418	535.69
608.626	567.69
608.834	523.69
609.043	517.69
609.251	538.69
609.459	548.69
609.667	550.69
609.875	534.69
610.083	562.69
610.291	589.69
610.499	575.69
610.707	544.69
610.916	527.69
611.124	525.69
611.332	532.69
611.54	522.69
611.748	533.69
611.955	532.69
612.163	542.69
612.371	514.69
612.579	522.69
612.787	521.69
612.995	526.69
613.203	528.69
613.411	513.69
613.618	552.69
613.826	528.69
614.034	518.69
614.242	531.69
614.449	527.69
614.657	515.69
614.865	496.69
615.072	516.69
615.28	520.69
615.488	523.69
615.695	557.69
615.903	530.69
616.111	517.69
616.318	543.69
616.526	522.69
616.733	522.69
616.941	508.69
617.148	517.69
617.356	514.69
617.563	497.69
617.771	512.69
617.978	501.69
618.185	481.69
618.393	504.69
618.6	485.69
618.807	486.69
619.015	522.69
619.222	518.69
619.429	493.69
619.637	510.69
619.844	465.69
620.051	503.69
620.258	476.69
620.466	462.69
620.673	465.69
620.88	452.69
621.087	457.69
621.294	464.69
621.501	460.69
621.708	456.69
621.915	457.69
622.122	485.69
622.329	473.69
622.536	472.69
622.743	464.69
622.95	447.69
623.157	437.69
623.364	440.69
623.571	449.69
623.778	461.69
623.985	460.69
624.192	457.69
624.399	448.69
624.606	438.69
624.812	440.69
625.019	449.69
625.226	444.69
625.433	435.69
625.639	438.69
625.846	433.69
626.053	425.69
626.259	422.69
626.466	402.69
626.673	418.69
626.879	404.69
627.086	417.69
627.293	412.69
627.499	429.69
627.706	401.69
627.912	411.69
628.119	426.69
628.325	407.69
628.532	401.69
628.738	419.69
628.945	394.69
629.151	380.69
629.357	426.69
629.564	401.69
629.77	390.69
629.976	392.69
630.183	396.69
630.389	405.69
630.595	423.69
630.802	391.69
631.008	389.69
631.214	394.69
631.42	390.69
631.627	383.69
631.833	376.69
632.039	367.69
632.245	352.69
632.451	364.69
632.657	376.69
632.863	357.69
633.069	374.69
633.275	369.69
633.481	352.69
633.688	374.69
633.893	351.69
634.099	380.69
634.305	360.69
634.511	355.69
634.717	353.69
634.923	364.69
635.129	359.69
635.335	340.69
635.541	360.69
635.747	337.69
635.952	359.69
636.158	368.69
636.364	358.69
636.57	351.69
636.775	366.69
636.981	343.69
637.187	358.69
637.392	341.69
637.598	351.69
637.804	348.69
638.009	340.69
638.215	330.69
638.421	345.69
638.626	352.69
638.832	341.69
639.037	316.69
639.243	305.69
639.448	339.69
639.654	335.69
639.859	324.69
640.065	328.69
640.27	338.69
640.475	358.69
640.681	335.69
640.886	340.69
641.091	333.69
641.297	334.69
641.502	334.69
641.707	325.69
641.913	337.69
642.118	321.69
642.323	309.69
642.528	328.69
642.733	312.69
642.939	329.69
643.144	328.69
643.349	316.69
643.554	317.69
643.759	335.69
643.964	304.69
644.169	298.69
644.374	310.69
644.579	312.69
644.784	323.69
644.989	301.69
645.194	302.69
645.399	312.69
645.604	314.69
645.809	306.69
646.014	318.69
646.219	323.69
646.423	313.69
646.628	324.69
646.833	329.69
647.038	322.69
647.243	305.69
647.447	289.69
647.652	327.69
647.857	319.69
648.062	313.69
648.266	327.69
648.471	317.69
648.676	308.69
648.88	309.69
649.085	298.69
649.289	312.69
649.494	304.69
649.698	311.69
649.903	310.69
650.107	302.69
650.312	306.69
650.516	319.69
650.721	288.69
650.925	272.69
651.13	289.69
651.334	262.69
651.539	282.69
651.743	276.69
651.947	286.69
652.152	286.69
652.356	265.69
652.56	267.69
652.764	270.69
652.969	243.69
653.173	264.69
653.377	250.69
653.581	257.69
653.785	260.69
653.99	259.69
654.194	236.69
654.398	239.69
654.602	239.69
654.806	248.69
655.01	259.69
655.214	238.69
655.418	244.69
655.622	260.69
655.826	238.69
656.03	232.69
656.234	248.69
656.438	264.69
656.642	269.69
656.846	254.69
657.049	235.69
657.253	223.69
657.457	197.69
657.661	190.69
657.865	180.69
658.068	189.69
658.272	156.69
658.476	164.69
658.68	157.69
658.883	154.69
659.087	142.69
659.291	136.69
659.494	147.69
659.698	124.69
659.901	111.69
660.105	125.69
660.309	115.69
660.512	116.69
660.716	130.69
660.919	100.69
661.123	112.69
661.326	110.69
661.53	103.69
661.733	108.69
661.936	91.69
662.14	100.69
662.343	89.69
662.546	93.69
662.75	105.69
662.953	97.69
663.156	79.69
663.36	82.69
663.563	92.69
663.766	88.69
663.969	85.69
664.173	79.69
664.376	83.69
664.579	92.69
664.782	85.69
664.985	92.69
665.188	77.69
665.391	77.69
665.594	79.69
665.797	74.69
666	92.69
666.203	80.69
666.406	71.69
666.609	85.69
666.812	85.69
667.015	70.69
667.218	74.69
667.421	79.69
667.624	70.69
667.827	74.69
668.03	74.69
668.232	83.69
668.435	85.69
668.638	88.69
668.841	88.69
669.043	96.69
669.246	89.69
669.449	70.69
669.651	69.69
669.854	96.69
670.057	89.69
670.259	78.69
670.462	70.69
670.665	92.69
670.867	75.69
671.07	78.69
671.272	81.69
671.475	76.69
671.677	70.69
671.88	64.69
672.082	67.69
672.284	71.69
672.487	78.69
672.689	82.69
672.892	90.69
