Data from WStandard_LampEnergy8_LIBS07252019.E.O._I.C._HRD10591_15-59-19-929.txt Node
Date: Thu Jul 25 15:59:19 EDT 2019
User: cochatt
Spectrometer: HR+D1059
Trigger mode: 1
Integration Time (sec): 1.000000E-1
Scans to average: 1
Electric dark correction enabled: true
Nonlinearity correction enabled: false
Boxcar width: 0
XAxis mode: Wavelengths
Number of Pixels in Spectrum: 2048
>>>>>Begin Spectral Data<<<<<
223.165	-23.25
223.4	-23.25
223.635	-23.25
223.869	-17.25
224.104	-21.25
224.338	-15.25
224.573	-19.25
224.808	-5.25
225.042	-4.25
225.277	-10.25
225.511	2.75
225.746	9.75
225.98	12.75
226.215	-6.25
226.449	4.75
226.683	35.75
226.918	36.75
227.152	19.75
227.387	20.75
227.621	14.75
227.856	37.75
228.09	55.75
228.324	56.75
228.559	61.75
228.793	87.75
229.027	198.75
229.262	211.75
229.496	224.75
229.73	229.75
229.964	286.75
230.199	250.75
230.433	274.75
230.667	286.75
230.901	301.75
231.136	281.75
231.37	267.75
231.604	251.75
231.838	259.75
232.072	266.75
232.306	268.75
232.541	272.75
232.775	311.75
233.009	321.75
233.243	311.75
233.477	291.75
233.711	310.75
233.945	308.75
234.179	309.75
234.413	334.75
234.647	333.75
234.881	313.75
235.115	292.75
235.349	306.75
235.583	315.75
235.817	303.75
236.051	311.75
236.285	292.75
236.519	320.75
236.753	338.75
236.987	361.75
237.221	353.75
237.455	391.75
237.689	357.75
237.922	342.75
238.156	336.75
238.39	350.75
238.624	376.75
238.858	390.75
239.091	399.75
239.325	416.75
239.559	466.75
239.793	487.75
240.027	518.75
240.26	496.75
240.494	402.75
240.728	373.75
240.961	382.75
241.195	395.75
241.429	406.75
241.662	416.75
241.896	408.75
242.13	404.75
242.363	444.75
242.597	458.75
242.83	451.75
243.064	461.75
243.298	481.75
243.531	469.75
243.765	473.75
243.998	467.75
244.232	403.75
244.465	411.75
244.699	435.75
244.932	470.75
245.166	532.75
245.399	497.75
245.633	467.75
245.866	468.75
246.099	490.75
246.333	469.75
246.566	499.75
246.8	534.75
247.033	567.75
247.266	536.75
247.5	526.75
247.733	532.75
247.966	568.75
248.2	653.75
248.433	602.75
248.666	626.75
248.899	679.75
249.133	758.75
249.366	803.75
249.599	690.75
249.832	634.75
250.066	633.75
250.299	616.75
250.532	595.75
250.765	544.75
250.998	574.75
251.231	622.75
251.465	616.75
251.698	581.75
251.931	588.75
252.164	586.75
252.397	603.75
252.63	613.75
252.863	552.75
253.096	564.75
253.329	591.75
253.562	608.75
253.795	619.75
254.028	624.75
254.261	570.75
254.494	584.75
254.727	554.75
254.96	589.75
255.193	661.75
255.426	752.75
255.659	784.75
255.892	822.75
256.124	692.75
256.357	665.75
256.59	718.75
256.823	717.75
257.056	736.75
257.289	873.75
257.521	901.75
257.754	836.75
257.987	781.75
258.22	831.75
258.452	829.75
258.685	690.75
258.918	690.75
259.151	703.75
259.383	647.75
259.616	586.75
259.849	619.75
260.081	682.75
260.314	763.75
260.547	845.75
260.779	862.75
261.012	760.75
261.244	707.75
261.477	682.75
261.71	706.75
261.942	697.75
262.175	673.75
262.407	759.75
262.64	694.75
262.872	644.75
263.105	626.75
263.337	631.75
263.57	658.75
263.802	656.75
264.035	592.75
264.267	584.75
264.499	582.75
264.732	622.75
264.964	653.75
265.197	671.75
265.429	709.75
265.661	810.75
265.894	880.75
266.126	863.75
266.358	812.75
266.591	836.75
266.823	842.75
267.055	778.75
267.287	773.75
267.52	784.75
267.752	784.75
267.984	770.75
268.216	812.75
268.448	844.75
268.681	810.75
268.913	729.75
269.145	710.75
269.377	688.75
269.609	800.75
269.841	876.75
270.073	1035.75
270.306	1143.75
270.538	1163.75
270.77	972.75
271.002	846.75
271.234	820.75
271.466	839.75
271.698	947.75
271.93	1071.75
272.162	1061.75
272.394	951.75
272.626	910.75
272.858	802.75
273.09	687.75
273.322	702.75
273.553	680.75
273.785	689.75
274.017	739.75
274.249	770.75
274.481	797.75
274.713	730.75
274.945	686.75
275.176	718.75
275.408	723.75
275.64	715.75
275.872	699.75
276.104	778.75
276.335	844.75
276.567	920.75
276.799	931.75
277.031	857.75
277.262	806.75
277.494	854.75
277.726	904.75
277.957	931.75
278.189	820.75
278.421	786.75
278.652	748.75
278.884	755.75
279.115	739.75
279.347	767.75
279.579	737.75
279.81	759.75
280.042	834.75
280.273	906.75
280.505	908.75
280.736	904.75
280.968	834.75
281.199	752.75
281.431	739.75
281.662	730.75
281.894	715.75
282.125	730.75
282.356	782.75
282.588	788.75
282.819	801.75
283.051	843.75
283.282	909.75
283.513	850.75
283.745	733.75
283.976	711.75
284.207	715.75
284.439	750.75
284.67	770.75
284.901	783.75
285.132	799.75
285.364	787.75
285.595	782.75
285.826	782.75
286.057	780.75
286.288	776.75
286.52	791.75
286.751	890.75
286.982	865.75
287.213	788.75
287.444	744.75
287.675	725.75
287.906	786.75
288.138	862.75
288.369	807.75
288.6	762.75
288.831	764.75
289.062	748.75
289.293	744.75
289.524	746.75
289.755	772.75
289.986	784.75
290.217	737.75
290.448	769.75
290.679	787.75
290.91	798.75
291.141	815.75
291.371	835.75
291.602	820.75
291.833	820.75
292.064	862.75
292.295	864.75
292.526	891.75
292.757	873.75
292.987	841.75
293.218	830.75
293.449	897.75
293.68	985.75
293.91	1054.75
294.141	962.75
294.372	915.75
294.603	998.75
294.833	990.75
295.064	929.75
295.295	848.75
295.525	814.75
295.756	771.75
295.987	740.75
296.217	756.75
296.448	774.75
296.679	786.75
296.909	796.75
297.14	784.75
297.37	814.75
297.601	863.75
297.831	934.75
298.062	871.75
298.292	836.75
298.523	812.75
298.753	798.75
298.984	816.75
299.214	828.75
299.445	851.75
299.675	842.75
299.905	826.75
300.136	824.75
300.366	794.75
300.597	768.75
300.827	803.75
301.057	822.75
301.288	858.75
301.518	870.75
301.748	905.75
301.979	930.75
302.209	951.75
302.439	999.75
302.669	1060.75
302.9	941.75
303.13	894.75
303.36	839.75
303.59	888.75
303.82	863.75
304.051	858.75
304.281	871.75
304.511	879.75
304.741	968.75
304.971	1063.75
305.201	1061.75
305.431	985.75
305.661	837.75
305.891	772.75
306.121	752.75
306.352	802.75
306.582	846.75
306.812	925.75
307.042	964.75
307.272	972.75
307.502	1014.75
307.731	1091.75
307.961	1095.75
308.191	997.75
308.421	899.75
308.651	840.75
308.881	841.75
309.111	842.75
309.341	839.75
309.571	849.75
309.8	850.75
310.03	842.75
310.26	848.75
310.49	823.75
310.72	864.75
310.949	887.75
311.179	916.75
311.409	870.75
311.639	869.75
311.868	861.75
312.098	857.75
312.328	846.75
312.557	864.75
312.787	860.75
313.017	862.75
313.246	878.75
313.476	864.75
313.706	904.75
313.935	913.75
314.165	904.75
314.394	938.75
314.624	1010.75
314.853	1060.75
315.083	1078.75
315.312	1078.75
315.542	991.75
315.771	928.75
316.001	930.75
316.23	975.75
316.46	953.75
316.689	960.75
316.919	908.75
317.148	873.75
317.377	898.75
317.607	965.75
317.836	1068.75
318.065	1116.75
318.295	1069.75
318.524	1032.75
318.753	968.75
318.983	971.75
319.212	933.75
319.441	922.75
319.67	920.75
319.9	960.75
320.129	977.75
320.358	1036.75
320.587	1050.75
320.816	1033.75
321.046	1029.75
321.275	972.75
321.504	1010.75
321.733	1056.75
321.962	987.75
322.191	939.75
322.42	926.75
322.649	920.75
322.878	927.75
323.108	937.75
323.337	1006.75
323.566	976.75
323.795	962.75
324.024	964.75
324.253	942.75
324.482	954.75
324.71	904.75
324.939	855.75
325.168	912.75
325.397	946.75
325.626	982.75
325.855	969.75
326.084	926.75
326.313	950.75
326.542	953.75
326.77	987.75
326.999	983.75
327.228	915.75
327.457	897.75
327.686	925.75
327.914	902.75
328.143	950.75
328.372	935.75
328.6	949.75
328.829	947.75
329.058	924.75
329.287	933.75
329.515	932.75
329.744	982.75
329.972	1040.75
330.201	1046.75
330.43	1043.75
330.658	985.75
330.887	1002.75
331.115	999.75
331.344	995.75
331.572	1009.75
331.801	990.75
332.03	965.75
332.258	1015.75
332.486	1016.75
332.715	1011.75
332.943	1040.75
333.172	1019.75
333.4	1014.75
333.629	1043.75
333.857	1140.75
334.085	1263.75
334.314	1392.75
334.542	1440.75
334.771	1313.75
334.999	1198.75
335.227	1130.75
335.455	1092.75
335.684	1099.75
335.912	1107.75
336.14	1106.75
336.369	1093.75
336.597	1006.75
336.825	1018.75
337.053	1034.75
337.281	1136.75
337.51	1146.75
337.738	1195.75
337.966	1147.75
338.194	1056.75
338.422	1024.75
338.65	971.75
338.878	969.75
339.106	947.75
339.334	949.75
339.562	949.75
339.79	987.75
340.018	1049.75
340.246	1048.75
340.474	1093.75
340.702	1044.75
340.93	1043.75
341.158	1038.75
341.386	1050.75
341.614	987.75
341.842	1022.75
342.07	996.75
342.298	1006.75
342.526	996.75
342.754	1003.75
342.981	990.75
343.209	978.75
343.437	983.75
343.665	1010.75
343.893	1028.75
344.12	1066.75
344.348	1028.75
344.576	1041.75
344.804	1000.75
345.031	980.75
345.259	991.75
345.487	969.75
345.714	920.75
345.942	886.75
346.17	934.75
346.397	945.75
346.625	970.75
346.853	916.75
347.08	913.75
347.308	883.75
347.535	936.75
347.763	935.75
347.99	931.75
348.218	916.75
348.445	940.75
348.673	942.75
348.9	963.75
349.128	986.75
349.355	1042.75
349.583	972.75
349.81	940.75
350.037	879.75
350.265	867.75
350.492	882.75
350.72	934.75
350.947	960.75
351.174	950.75
351.402	917.75
351.629	890.75
351.856	888.75
352.083	868.75
352.311	850.75
352.538	910.75
352.765	943.75
352.992	954.75
353.22	933.75
353.447	908.75
353.674	917.75
353.901	960.75
354.128	912.75
354.355	916.75
354.583	962.75
354.81	985.75
355.037	1002.75
355.264	953.75
355.491	945.75
355.718	920.75
355.945	930.75
356.172	882.75
356.399	900.75
356.626	922.75
356.853	963.75
357.08	1036.75
357.307	1122.75
357.534	1097.75
357.761	970.75
357.988	910.75
358.215	885.75
358.441	911.75
358.668	904.75
358.895	935.75
359.122	977.75
359.349	1072.75
359.576	1009.75
359.802	921.75
360.029	924.75
360.256	899.75
360.483	928.75
360.709	953.75
360.936	960.75
361.163	1043.75
361.39	1110.75
361.616	1162.75
361.843	1156.75
362.07	1074.75
362.296	952.75
362.523	916.75
362.749	924.75
362.976	954.75
363.203	952.75
363.429	913.75
363.656	903.75
363.882	996.75
364.109	1093.75
364.335	1096.75
364.562	1042.75
364.788	997.75
365.015	970.75
365.241	926.75
365.468	940.75
365.694	987.75
365.92	1004.75
366.147	962.75
366.373	913.75
366.599	922.75
366.826	915.75
367.052	929.75
367.278	920.75
367.505	942.75
367.731	967.75
367.957	960.75
368.184	1015.75
368.41	1054.75
368.636	1078.75
368.862	1050.75
369.089	1081.75
369.315	1030.75
369.541	972.75
369.767	958.75
369.993	929.75
370.219	940.75
370.445	972.75
370.672	1030.75
370.898	1106.75
371.124	1051.75
371.35	998.75
371.576	1031.75
371.802	1091.75
372.028	998.75
372.254	986.75
372.48	960.75
372.706	938.75
372.932	947.75
373.158	969.75
373.384	1003.75
373.61	1041.75
373.835	1053.75
374.061	1003.75
374.287	992.75
374.513	979.75
374.739	1002.75
374.965	993.75
375.191	1018.75
375.416	1034.75
375.642	1057.75
375.868	1086.75
376.094	1124.75
376.319	1083.75
376.545	1018.75
376.771	1048.75
376.997	1104.75
377.222	1067.75
377.448	1056.75
377.674	1042.75
377.899	1047.75
378.125	1157.75
378.35	1099.75
378.576	986.75
378.802	965.75
379.027	983.75
379.253	995.75
379.478	998.75
379.704	1007.75
379.929	1008.75
380.155	1009.75
380.38	1033.75
380.606	1005.75
380.831	998.75
381.057	1059.75
381.282	1095.75
381.507	1074.75
381.733	1121.75
381.958	1168.75
382.184	1096.75
382.409	1051.75
382.634	1070.75
382.86	1045.75
383.085	1032.75
383.31	1106.75
383.535	1198.75
383.761	1227.75
383.986	1169.75
384.211	1147.75
384.436	1150.75
384.662	1196.75
384.887	1236.75
385.112	1150.75
385.337	1176.75
385.562	1175.75
385.787	1210.75
386.013	1202.75
386.238	1191.75
386.463	1186.75
386.688	1280.75
386.913	1353.75
387.138	1302.75
387.363	1191.75
387.588	1164.75
387.813	1183.75
388.038	1201.75
388.263	1206.75
388.488	1153.75
388.713	1066.75
388.938	1083.75
389.163	1099.75
389.387	1141.75
389.612	1103.75
389.837	1175.75
390.062	1136.75
390.287	1138.75
390.512	1129.75
390.736	1126.75
390.961	1095.75
391.186	1099.75
391.411	1112.75
391.636	1112.75
391.86	1152.75
392.085	1130.75
392.31	1114.75
392.534	1144.75
392.759	1144.75
392.984	1152.75
393.208	1168.75
393.433	1194.75
393.658	1257.75
393.882	1238.75
394.107	1195.75
394.331	1136.75
394.556	1151.75
394.78	1202.75
395.005	1206.75
395.229	1225.75
395.454	1324.75
395.678	1307.75
395.903	1227.75
396.127	1228.75
396.352	1241.75
396.576	1278.75
396.801	1268.75
397.025	1216.75
397.249	1252.75
397.474	1256.75
397.698	1253.75
397.922	1338.75
398.147	1341.75
398.371	1378.75
398.595	1367.75
398.82	1328.75
399.044	1348.75
399.268	1445.75
399.492	1462.75
399.717	1519.75
399.941	1558.75
400.165	1491.75
400.389	1507.75
400.613	1482.75
400.837	1695.75
401.062	1822.75
401.286	1589.75
401.51	1454.75
401.734	1502.75
401.958	1421.75
402.182	1361.75
402.406	1292.75
402.63	1286.75
402.854	1297.75
403.078	1314.75
403.302	1321.75
403.526	1386.75
403.75	1362.75
403.974	1385.75
404.198	1351.75
404.422	1441.75
404.645	1538.75
404.869	1457.75
405.093	1349.75
405.317	1319.75
405.541	1374.75
405.765	1353.75
405.988	1388.75
406.212	1398.75
406.436	1443.75
406.66	1459.75
406.883	1513.75
407.107	1682.75
407.331	1840.75
407.555	1928.75
407.778	1688.75
408.002	1474.75
408.226	1423.75
408.449	1406.75
408.673	1377.75
408.896	1395.75
409.12	1419.75
409.344	1406.75
409.567	1366.75
409.791	1366.75
410.014	1395.75
410.238	1468.75
410.461	1583.75
410.685	1381.75
410.908	1350.75
411.132	1393.75
411.355	1365.75
411.578	1328.75
411.802	1371.75
412.025	1381.75
412.249	1350.75
412.472	1308.75
412.695	1310.75
412.919	1307.75
413.142	1305.75
413.365	1336.75
413.589	1381.75
413.812	1421.75
414.035	1450.75
414.258	1341.75
414.482	1336.75
414.705	1359.75
414.928	1313.75
415.151	1320.75
415.374	1310.75
415.597	1388.75
415.821	1341.75
416.044	1361.75
416.267	1344.75
416.49	1290.75
416.713	1276.75
416.936	1346.75
417.159	1410.75
417.382	1395.75
417.605	1312.75
417.828	1315.75
418.051	1335.75
418.274	1326.75
418.497	1301.75
418.72	1298.75
418.943	1286.75
419.166	1366.75
419.389	1391.75
419.611	1347.75
419.834	1318.75
420.057	1317.75
420.28	1321.75
420.503	1321.75
420.726	1331.75
420.948	1340.75
421.171	1273.75
421.394	1334.75
421.617	1367.75
421.839	1383.75
422.062	1352.75
422.285	1310.75
422.507	1304.75
422.73	1292.75
422.953	1243.75
423.175	1228.75
423.398	1289.75
423.621	1299.75
423.843	1297.75
424.066	1335.75
424.288	1395.75
424.511	1423.75
424.733	1356.75
424.956	1259.75
425.178	1250.75
425.401	1249.75
425.623	1272.75
425.846	1300.75
426.068	1367.75
426.291	1371.75
426.513	1364.75
426.735	1345.75
426.958	1456.75
427.18	1538.75
427.402	1394.75
427.625	1434.75
427.847	1411.75
428.069	1286.75
428.292	1295.75
428.514	1259.75
428.736	1262.75
428.958	1215.75
429.181	1302.75
429.403	1488.75
429.625	1777.75
429.847	1476.75
430.069	1324.75
430.292	1494.75
430.514	1472.75
430.736	1366.75
430.958	1420.75
431.18	1316.75
431.402	1256.75
431.624	1212.75
431.846	1222.75
432.068	1169.75
432.29	1165.75
432.512	1203.75
432.734	1244.75
432.956	1306.75
433.178	1357.75
433.4	1328.75
433.622	1338.75
433.844	1234.75
434.066	1196.75
434.287	1231.75
434.509	1214.75
434.731	1304.75
434.953	1380.75
435.175	1322.75
435.397	1300.75
435.618	1316.75
435.84	1270.75
436.062	1235.75
436.284	1276.75
436.505	1317.75
436.727	1354.75
436.949	1283.75
437.17	1255.75
437.392	1224.75
437.614	1219.75
437.835	1191.75
438.057	1230.75
438.278	1293.75
438.5	1279.75
438.721	1259.75
438.943	1272.75
439.165	1249.75
439.386	1219.75
439.608	1259.75
439.829	1232.75
440.05	1281.75
440.272	1236.75
440.493	1262.75
440.715	1257.75
440.936	1342.75
441.158	1462.75
441.379	1392.75
441.6	1362.75
441.822	1378.75
442.043	1346.75
442.264	1360.75
442.486	1299.75
442.707	1264.75
442.928	1274.75
443.149	1309.75
443.371	1348.75
443.592	1390.75
443.813	1354.75
444.034	1382.75
444.255	1383.75
444.476	1414.75
444.698	1399.75
444.919	1379.75
445.14	1504.75
445.361	1474.75
445.582	1447.75
445.803	1425.75
446.024	1366.75
446.245	1430.75
446.466	1418.75
446.687	1380.75
446.908	1390.75
447.129	1299.75
447.35	1318.75
447.571	1306.75
447.792	1259.75
448.013	1253.75
448.234	1298.75
448.455	1315.75
448.675	1328.75
448.896	1238.75
449.117	1231.75
449.338	1250.75
449.559	1313.75
449.779	1346.75
450	1434.75
450.221	1490.75
450.442	1469.75
450.662	1304.75
450.883	1192.75
451.104	1189.75
451.324	1191.75
451.545	1253.75
451.766	1215.75
451.986	1158.75
452.207	1163.75
452.428	1108.75
452.648	1134.75
452.869	1109.75
453.089	1180.75
453.31	1165.75
453.53	1175.75
453.751	1151.75
453.971	1076.75
454.192	1124.75
454.412	1222.75
454.633	1170.75
454.853	1138.75
455.073	1069.75
455.294	1087.75
455.514	1099.75
455.734	1082.75
455.955	1087.75
456.175	1085.75
456.395	1099.75
456.616	1086.75
456.836	1081.75
457.056	1124.75
457.276	1108.75
457.497	1062.75
457.717	1056.75
457.937	1057.75
458.157	1101.75
458.377	1078.75
458.598	1065.75
458.818	1058.75
459.038	1145.75
459.258	1188.75
459.478	1145.75
459.698	1150.75
459.918	1174.75
460.138	1241.75
460.358	1286.75
460.578	1286.75
460.798	1300.75
461.018	1372.75
461.238	1311.75
461.458	1314.75
461.678	1279.75
461.898	1245.75
462.118	1219.75
462.338	1259.75
462.558	1296.75
462.777	1253.75
462.997	1316.75
463.217	1391.75
463.437	1348.75
463.657	1284.75
463.876	1286.75
464.096	1268.75
464.316	1320.75
464.536	1335.75
464.755	1311.75
464.975	1335.75
465.195	1286.75
465.414	1318.75
465.634	1323.75
465.854	1328.75
466.073	1410.75
466.293	1374.75
466.512	1206.75
466.732	1202.75
466.951	1220.75
467.171	1241.75
467.391	1185.75
467.61	1228.75
467.829	1249.75
468.049	1335.75
468.268	1504.75
468.488	1349.75
468.707	1275.75
468.927	1220.75
469.146	1216.75
469.365	1205.75
469.585	1237.75
469.804	1223.75
470.023	1280.75
470.243	1259.75
470.462	1262.75
470.681	1211.75
470.901	1225.75
471.12	1265.75
471.339	1253.75
471.558	1203.75
471.777	1192.75
471.997	1182.75
472.216	1192.75
472.435	1140.75
472.654	1155.75
472.873	1190.75
473.092	1254.75
473.311	1216.75
473.53	1191.75
473.749	1180.75
473.968	1191.75
474.187	1247.75
474.406	1253.75
474.625	1227.75
474.844	1212.75
475.063	1228.75
475.282	1264.75
475.501	1204.75
475.72	1189.75
475.939	1307.75
476.158	1272.75
476.377	1211.75
476.596	1242.75
476.814	1222.75
477.033	1240.75
477.252	1258.75
477.471	1328.75
477.69	1310.75
477.908	1312.75
478.127	1359.75
478.346	1445.75
478.564	1444.75
478.783	1431.75
479.002	1477.75
479.22	1425.75
479.439	1507.75
479.658	1633.75
479.876	1553.75
480.095	1443.75
480.313	1364.75
480.532	1318.75
480.751	1323.75
480.969	1317.75
481.188	1306.75
481.406	1287.75
481.624	1240.75
481.843	1270.75
482.061	1310.75
482.28	1367.75
482.498	1387.75
482.717	1329.75
482.935	1333.75
483.153	1380.75
483.372	1383.75
483.59	1371.75
483.808	1378.75
484.027	1368.75
484.245	1488.75
484.463	1756.75
484.681	1923.75
484.9	1498.75
485.118	1402.75
485.336	1356.75
485.554	1421.75
485.772	1402.75
485.99	1353.75
486.209	1409.75
486.427	1400.75
486.645	1417.75
486.863	1416.75
487.081	1477.75
487.299	1472.75
487.517	1442.75
487.735	1475.75
487.953	1522.75
488.171	1525.75
488.389	1485.75
488.607	1482.75
488.825	1616.75
489.043	1574.75
489.261	1405.75
489.479	1507.75
489.696	1478.75
489.914	1459.75
490.132	1462.75
490.35	1454.75
490.568	1562.75
490.786	1494.75
491.003	1462.75
491.221	1571.75
491.439	1622.75
491.657	1606.75
491.874	1645.75
492.092	1705.75
492.31	1730.75
492.527	1714.75
492.745	1641.75
492.963	1578.75
493.18	1638.75
493.398	1698.75
493.615	1749.75
493.833	1590.75
494.05	1610.75
494.268	1564.75
494.485	1618.75
494.703	1577.75
494.92	1539.75
495.138	1555.75
495.355	1577.75
495.573	1653.75
495.79	1716.75
496.008	1722.75
496.225	1621.75
496.442	1640.75
496.66	1641.75
496.877	1616.75
497.094	1655.75
497.312	1635.75
497.529	1634.75
497.746	1684.75
497.963	1899.75
498.181	2006.75
498.398	1932.75
498.615	1855.75
498.832	1840.75
499.049	1791.75
499.267	1829.75
499.484	1916.75
499.701	2061.75
499.918	2073.75
500.135	2247.75
500.352	2324.75
500.569	2387.75
500.786	2574.75
501.003	2321.75
501.22	2135.75
501.437	2072.75
501.654	2157.75
501.871	2015.75
502.088	1802.75
502.305	1781.75
502.522	1701.75
502.739	1617.75
502.956	1595.75
503.172	1574.75
503.389	1530.75
503.606	1515.75
503.823	1498.75
504.04	1492.75
504.256	1480.75
504.473	1524.75
504.69	1604.75
504.907	1446.75
505.123	1427.75
505.34	1583.75
505.557	2047.75
505.773	1686.75
505.99	1406.75
506.207	1319.75
506.423	1308.75
506.64	1313.75
506.856	1322.75
507.073	1526.75
507.289	1620.75
507.506	1541.75
507.722	1307.75
507.939	1281.75
508.155	1250.75
508.372	1293.75
508.588	1284.75
508.805	1178.75
509.021	1173.75
509.238	1184.75
509.454	1159.75
509.67	1169.75
509.887	1172.75
510.103	1150.75
510.319	1148.75
510.536	1222.75
510.752	1249.75
510.968	1226.75
511.184	1328.75
511.401	1255.75
511.617	1140.75
511.833	1111.75
512.049	1115.75
512.265	1127.75
512.481	1135.75
512.698	1163.75
512.914	1231.75
513.13	1158.75
513.346	1133.75
513.562	1113.75
513.778	1162.75
513.994	1216.75
514.21	1209.75
514.426	1225.75
514.642	1319.75
514.858	1252.75
515.074	1155.75
515.29	1135.75
515.506	1170.75
515.721	1179.75
515.937	1212.75
516.153	1338.75
516.369	1281.75
516.585	1228.75
516.801	1153.75
517.016	1188.75
517.232	1215.75
517.448	1209.75
517.664	1234.75
517.879	1239.75
518.095	1302.75
518.311	1249.75
518.527	1210.75
518.742	1230.75
518.958	1154.75
519.173	1183.75
519.389	1152.75
519.605	1218.75
519.82	1211.75
520.036	1186.75
520.251	1161.75
520.467	1212.75
520.682	1242.75
520.898	1229.75
521.113	1151.75
521.329	1113.75
521.544	1217.75
521.76	1195.75
521.975	1123.75
522.19	1110.75
522.406	1146.75
522.621	1413.75
522.836	1362.75
523.052	1113.75
523.267	1110.75
523.482	1125.75
523.698	1094.75
523.913	1051.75
524.128	1112.75
524.343	1172.75
524.559	1158.75
524.774	1098.75
524.989	1126.75
525.204	1098.75
525.419	1068.75
525.634	1080.75
525.849	1058.75
526.064	1063.75
526.28	1065.75
526.495	1020.75
526.71	1017.75
526.925	987.75
527.14	978.75
527.355	968.75
527.57	1004.75
527.785	1025.75
527.999	1014.75
528.214	994.75
528.429	1026.75
528.644	1028.75
528.859	1079.75
529.074	1072.75
529.289	1115.75
529.503	1122.75
529.718	1128.75
529.933	1040.75
530.148	985.75
530.363	969.75
530.577	968.75
530.792	1030.75
531.007	996.75
531.221	998.75
531.436	1013.75
531.651	1051.75
531.865	1094.75
532.08	1028.75
532.295	976.75
532.509	946.75
532.724	979.75
532.938	1011.75
533.153	1086.75
533.367	1080.75
533.582	1031.75
533.796	1028.75
534.011	1019.75
534.225	1025.75
534.44	987.75
534.654	977.75
534.868	984.75
535.083	1058.75
535.297	1020.75
535.511	1004.75
535.726	1028.75
535.94	1018.75
536.154	999.75
536.369	968.75
536.583	941.75
536.797	927.75
537.011	958.75
537.225	937.75
537.44	923.75
537.654	978.75
537.868	952.75
538.082	910.75
538.296	905.75
538.51	944.75
538.724	960.75
538.938	985.75
539.153	992.75
539.367	983.75
539.581	1003.75
539.795	987.75
540.009	970.75
540.222	937.75
540.436	988.75
540.65	1098.75
540.864	1107.75
541.078	1070.75
541.292	1042.75
541.506	1092.75
541.72	1121.75
541.934	1168.75
542.147	1190.75
542.361	1135.75
542.575	1071.75
542.789	1051.75
543.002	990.75
543.216	979.75
543.43	1007.75
543.644	1079.75
543.857	1114.75
544.071	1114.75
544.285	1129.75
544.498	1070.75
544.712	1106.75
544.925	1124.75
545.139	1150.75
545.352	1096.75
545.566	1058.75
545.779	1036.75
545.993	1116.75
546.206	1104.75
546.42	1064.75
546.633	1081.75
546.847	1089.75
547.06	1090.75
547.274	1084.75
547.487	1092.75
547.7	1100.75
547.914	1124.75
548.127	1100.75
548.34	1089.75
548.554	1068.75
548.767	1078.75
548.98	1084.75
549.193	1082.75
549.407	1120.75
549.62	1125.75
549.833	1050.75
550.046	1054.75
550.259	1064.75
550.473	1038.75
550.686	1047.75
550.899	1015.75
551.112	987.75
551.325	998.75
551.538	1041.75
551.751	1134.75
551.964	934.75
552.177	915.75
552.39	950.75
552.603	989.75
552.816	1019.75
553.029	1082.75
553.242	1108.75
553.455	1061.75
553.667	1053.75
553.88	1047.75
554.093	1016.75
554.306	991.75
554.519	948.75
554.732	955.75
554.944	967.75
555.157	1007.75
555.37	973.75
555.583	962.75
555.795	952.75
556.008	900.75
556.221	873.75
556.433	880.75
556.646	904.75
556.859	873.75
557.071	875.75
557.284	887.75
557.496	874.75
557.709	877.75
557.921	878.75
558.134	884.75
558.346	877.75
558.559	865.75
558.771	853.75
558.984	850.75
559.196	810.75
559.409	808.75
559.621	814.75
559.833	836.75
560.046	833.75
560.258	842.75
560.47	835.75
560.683	854.75
560.895	830.75
561.107	830.75
561.32	832.75
561.532	830.75
561.744	816.75
561.956	806.75
562.168	839.75
562.381	815.75
562.593	775.75
562.805	786.75
563.017	786.75
563.229	810.75
563.441	811.75
563.653	786.75
563.865	782.75
564.077	776.75
564.289	782.75
564.501	804.75
564.713	819.75
564.925	831.75
565.137	875.75
565.349	815.75
565.561	823.75
565.773	806.75
565.985	823.75
566.197	886.75
566.408	942.75
566.62	906.75
566.832	897.75
567.044	905.75
567.255	883.75
567.467	916.75
567.679	923.75
567.891	941.75
568.102	893.75
568.314	836.75
568.526	830.75
568.737	784.75
568.949	774.75
569.161	726.75
569.372	702.75
569.584	686.75
569.795	681.75
570.007	669.75
570.218	646.75
570.43	649.75
570.641	648.75
570.853	640.75
571.064	669.75
571.276	686.75
571.487	666.75
571.698	660.75
571.91	652.75
572.121	642.75
572.333	629.75
572.544	632.75
572.755	607.75
572.966	582.75
573.178	565.75
573.389	585.75
573.6	630.75
573.811	653.75
574.023	614.75
574.234	592.75
574.445	583.75
574.656	568.75
574.867	548.75
575.078	584.75
575.289	580.75
575.501	551.75
575.712	543.75
575.923	563.75
576.134	561.75
576.345	542.75
576.556	598.75
576.767	539.75
576.978	533.75
577.188	524.75
577.399	539.75
577.61	532.75
577.821	530.75
578.032	537.75
578.243	518.75
578.454	518.75
578.665	498.75
578.875	510.75
579.086	502.75
579.297	516.75
579.508	526.75
579.718	512.75
579.929	508.75
580.14	496.75
580.35	485.75
580.561	510.75
580.772	569.75
580.982	514.75
581.193	505.75
581.403	489.75
581.614	485.75
581.825	491.75
582.035	480.75
582.246	482.75
582.456	506.75
582.667	498.75
582.877	477.75
583.087	474.75
583.298	463.75
583.508	473.75
583.719	471.75
583.929	483.75
584.139	488.75
584.35	466.75
584.56	449.75
584.77	456.75
584.981	495.75
585.191	469.75
585.401	487.75
585.611	487.75
585.821	460.75
586.032	462.75
586.242	441.75
586.452	454.75
586.662	456.75
586.872	460.75
587.082	458.75
587.292	479.75
587.502	478.75
587.713	484.75
587.923	456.75
588.133	457.75
588.343	461.75
588.553	433.75
588.762	457.75
588.972	460.75
589.182	455.75
589.392	455.75
589.602	443.75
589.812	450.75
590.022	440.75
590.232	454.75
590.441	451.75
590.651	456.75
590.861	445.75
591.071	426.75
591.281	425.75
591.49	436.75
591.7	464.75
591.91	450.75
592.119	442.75
592.329	462.75
592.539	473.75
592.748	434.75
592.958	455.75
593.167	460.75
593.377	442.75
593.587	452.75
593.796	479.75
594.006	463.75
594.215	459.75
594.424	476.75
594.634	460.75
594.843	464.75
595.053	499.75
595.262	448.75
595.472	445.75
595.681	468.75
595.89	439.75
596.1	448.75
596.309	451.75
596.518	429.75
596.727	453.75
596.937	436.75
597.146	411.75
597.355	409.75
597.564	436.75
597.774	406.75
597.983	401.75
598.192	386.75
598.401	379.75
598.61	394.75
598.819	387.75
599.028	392.75
599.237	395.75
599.446	385.75
599.655	416.75
599.864	401.75
600.073	403.75
600.282	379.75
600.491	371.75
600.7	408.75
600.909	388.75
601.118	407.75
601.327	414.75
601.536	409.75
601.745	421.75
601.953	406.75
602.162	407.75
602.371	409.75
602.58	447.75
602.789	397.75
602.997	400.75
603.206	420.75
603.415	420.75
603.623	423.75
603.832	406.75
604.041	407.75
604.249	399.75
604.458	387.75
604.666	390.75
604.875	386.75
605.084	399.75
605.292	406.75
605.501	412.75
605.709	410.75
605.918	397.75
606.126	393.75
606.334	398.75
606.543	390.75
606.751	414.75
606.96	421.75
607.168	410.75
607.376	392.75
607.585	383.75
607.793	406.75
608.001	402.75
608.21	408.75
608.418	419.75
608.626	404.75
608.834	393.75
609.043	397.75
609.251	391.75
609.459	396.75
609.667	396.75
609.875	388.75
610.083	427.75
610.291	407.75
610.499	408.75
610.707	404.75
610.916	407.75
611.124	415.75
611.332	401.75
611.54	414.75
611.748	395.75
611.955	396.75
612.163	412.75
612.371	404.75
612.579	373.75
612.787	388.75
612.995	387.75
613.203	400.75
613.411	384.75
613.618	394.75
613.826	397.75
614.034	389.75
614.242	395.75
614.449	396.75
614.657	403.75
614.865	396.75
615.072	389.75
615.28	383.75
615.488	383.75
615.695	411.75
615.903	404.75
616.111	394.75
616.318	410.75
616.526	404.75
616.733	393.75
616.941	376.75
617.148	379.75
617.356	383.75
617.563	394.75
617.771	366.75
617.978	357.75
618.185	378.75
618.393	370.75
618.6	384.75
618.807	378.75
619.015	380.75
619.222	377.75
619.429	358.75
619.637	372.75
619.844	340.75
620.051	353.75
620.258	368.75
620.466	345.75
620.673	329.75
620.88	342.75
621.087	342.75
621.294	342.75
621.501	328.75
621.708	342.75
621.915	383.75
622.122	352.75
622.329	349.75
622.536	362.75
622.743	358.75
622.95	357.75
623.157	346.75
623.364	346.75
623.571	343.75
623.778	348.75
623.985	340.75
624.192	352.75
624.399	350.75
624.606	338.75
624.812	314.75
625.019	309.75
625.226	313.75
625.433	309.75
625.639	319.75
625.846	308.75
626.053	304.75
626.259	295.75
626.466	295.75
626.673	289.75
626.879	290.75
627.086	298.75
627.293	321.75
627.499	302.75
627.706	321.75
627.912	331.75
628.119	298.75
628.325	333.75
628.532	319.75
628.738	313.75
628.945	321.75
629.151	296.75
629.357	313.75
629.564	310.75
629.77	310.75
629.976	295.75
630.183	287.75
630.389	299.75
630.595	290.75
630.802	300.75
631.008	306.75
631.214	290.75
631.42	286.75
631.627	287.75
631.833	286.75
632.039	286.75
632.245	304.75
632.451	305.75
632.657	307.75
632.863	292.75
633.069	296.75
633.275	279.75
633.481	295.75
633.688	282.75
633.893	289.75
634.099	280.75
634.305	276.75
634.511	272.75
634.717	265.75
634.923	264.75
635.129	269.75
635.335	269.75
635.541	263.75
635.747	262.75
635.952	274.75
636.158	298.75
636.364	279.75
636.57	273.75
636.775	278.75
636.981	272.75
637.187	290.75
637.392	293.75
637.598	280.75
637.804	289.75
638.009	287.75
638.215	276.75
638.421	279.75
638.626	264.75
638.832	271.75
639.037	286.75
639.243	268.75
639.448	275.75
639.654	260.75
639.859	267.75
640.065	264.75
640.27	272.75
640.475	268.75
640.681	269.75
640.886	259.75
641.091	278.75
641.297	250.75
641.502	263.75
641.707	278.75
641.913	262.75
642.118	258.75
642.323	240.75
642.528	241.75
642.733	266.75
642.939	264.75
643.144	257.75
643.349	253.75
643.554	274.75
643.759	254.75
643.964	251.75
644.169	258.75
644.374	259.75
644.579	265.75
644.784	241.75
644.989	259.75
645.194	257.75
645.399	254.75
645.604	273.75
645.809	263.75
646.014	249.75
646.219	257.75
646.423	266.75
646.628	260.75
646.833	253.75
647.038	244.75
647.243	236.75
647.447	276.75
647.652	254.75
647.857	266.75
648.062	241.75
648.266	280.75
648.471	262.75
648.676	245.75
648.88	257.75
649.085	255.75
649.289	257.75
649.494	260.75
649.698	261.75
649.903	246.75
650.107	245.75
650.312	264.75
650.516	264.75
650.721	229.75
650.925	229.75
651.13	250.75
651.334	252.75
651.539	251.75
651.743	228.75
651.947	242.75
652.152	231.75
652.356	222.75
652.56	242.75
652.764	244.75
652.969	224.75
653.173	227.75
653.377	236.75
653.581	219.75
653.785	212.75
653.99	223.75
654.194	216.75
654.398	231.75
654.602	191.75
654.806	219.75
655.01	226.75
655.214	236.75
655.418	234.75
655.622	215.75
655.826	228.75
656.03	241.75
656.234	252.75
656.438	264.75
656.642	267.75
656.846	254.75
657.049	232.75
657.253	214.75
657.457	206.75
657.661	188.75
657.865	188.75
658.068	162.75
658.272	166.75
658.476	152.75
658.68	163.75
658.883	154.75
659.087	146.75
659.291	154.75
659.494	147.75
659.698	136.75
659.901	144.75
660.105	155.75
660.309	126.75
660.512	118.75
660.716	121.75
660.919	129.75
661.123	119.75
661.326	122.75
661.53	115.75
661.733	115.75
661.936	113.75
662.14	101.75
662.343	104.75
662.546	101.75
662.75	95.75
662.953	91.75
663.156	84.75
663.36	96.75
663.563	102.75
663.766	79.75
663.969	92.75
664.173	88.75
664.376	85.75
664.579	85.75
664.782	85.75
664.985	90.75
665.188	84.75
665.391	86.75
665.594	74.75
665.797	92.75
666	82.75
666.203	82.75
666.406	75.75
666.609	79.75
666.812	88.75
667.015	83.75
667.218	79.75
667.421	83.75
667.624	85.75
667.827	83.75
668.03	83.75
668.232	85.75
668.435	73.75
668.638	89.75
668.841	94.75
669.043	82.75
669.246	83.75
669.449	85.75
669.651	84.75
669.854	75.75
670.057	81.75
670.259	71.75
670.462	80.75
670.665	68.75
670.867	86.75
671.07	76.75
671.272	89.75
671.475	76.75
671.677	86.75
671.88	80.75
672.082	78.75
672.284	75.75
672.487	87.75
672.689	68.75
672.892	68.75
