Data from WStandard_LampEnergy10_LIBS07252019.E.O._I.C._HRD10591_15-55-32-928.txt Node
Date: Thu Jul 25 15:55:32 EDT 2019
User: cochatt
Spectrometer: HR+D1059
Trigger mode: 1
Integration Time (sec): 1.000000E-1
Scans to average: 1
Electric dark correction enabled: true
Nonlinearity correction enabled: false
Boxcar width: 0
XAxis mode: Wavelengths
Number of Pixels in Spectrum: 2048
>>>>>Begin Spectral Data<<<<<
223.165	-23.31
223.4	-23.31
223.635	-23.31
223.869	-18.31
224.104	-29.31
224.338	-18.31
224.573	-11.31
224.808	-3.31
225.042	3.69
225.277	-11.31
225.511	-7.31
225.746	5.69
225.98	-2.31
226.215	11.69
226.449	13.69
226.683	24.69
226.918	30.69
227.152	34.69
227.387	34.69
227.621	33.69
227.856	40.69
228.09	47.69
228.324	41.69
228.559	51.69
228.793	90.69
229.027	126.69
229.262	137.69
229.496	153.69
229.73	166.69
229.964	175.69
230.199	161.69
230.433	170.69
230.667	173.69
230.901	181.69
231.136	170.69
231.37	174.69
231.604	163.69
231.838	193.69
232.072	172.69
232.306	170.69
232.541	177.69
232.775	200.69
233.009	206.69
233.243	177.69
233.477	189.69
233.711	187.69
233.945	187.69
234.179	199.69
234.413	197.69
234.647	189.69
234.881	193.69
235.115	180.69
235.349	187.69
235.583	192.69
235.817	199.69
236.051	203.69
236.285	210.69
236.519	199.69
236.753	211.69
236.987	211.69
237.221	232.69
237.455	224.69
237.689	219.69
237.922	199.69
238.156	222.69
238.39	203.69
238.624	226.69
238.858	240.69
239.091	251.69
239.325	261.69
239.559	284.69
239.793	292.69
240.027	292.69
240.26	300.69
240.494	234.69
240.728	220.69
240.961	218.69
241.195	235.69
241.429	259.69
241.662	253.69
241.896	227.69
242.13	233.69
242.363	263.69
242.597	282.69
242.83	262.69
243.064	268.69
243.298	288.69
243.531	283.69
243.765	282.69
243.998	276.69
244.232	249.69
244.465	225.69
244.699	251.69
244.932	257.69
245.166	304.69
245.399	276.69
245.633	270.69
245.866	284.69
246.099	280.69
246.333	280.69
246.566	278.69
246.8	301.69
247.033	339.69
247.266	297.69
247.5	295.69
247.733	304.69
247.966	324.69
248.2	355.69
248.433	322.69
248.666	372.69
248.899	381.69
249.133	423.69
249.366	467.69
249.599	385.69
249.832	330.69
250.066	352.69
250.299	364.69
250.532	342.69
250.765	322.69
250.998	336.69
251.231	344.69
251.465	347.69
251.698	344.69
251.931	316.69
252.164	355.69
252.397	345.69
252.63	354.69
252.863	313.69
253.096	323.69
253.329	333.69
253.562	327.69
253.795	360.69
254.028	351.69
254.261	327.69
254.494	331.69
254.727	316.69
254.96	342.69
255.193	375.69
255.426	412.69
255.659	428.69
255.892	443.69
256.124	376.69
256.357	379.69
256.59	393.69
256.823	391.69
257.056	416.69
257.289	459.69
257.521	484.69
257.754	447.69
257.987	446.69
258.22	475.69
258.452	461.69
258.685	416.69
258.918	391.69
259.151	370.69
259.383	361.69
259.616	349.69
259.849	380.69
260.081	405.69
260.314	429.69
260.547	454.69
260.779	474.69
261.012	435.69
261.244	391.69
261.477	377.69
261.71	408.69
261.942	390.69
262.175	380.69
262.407	403.69
262.64	394.69
262.872	364.69
263.105	352.69
263.337	351.69
263.57	368.69
263.802	353.69
264.035	343.69
264.267	329.69
264.499	354.69
264.732	368.69
264.964	375.69
265.197	380.69
265.429	412.69
265.661	441.69
265.894	479.69
266.126	495.69
266.358	424.69
266.591	449.69
266.823	460.69
267.055	453.69
267.287	435.69
267.52	437.69
267.752	432.69
267.984	444.69
268.216	441.69
268.448	447.69
268.681	455.69
268.913	420.69
269.145	399.69
269.377	405.69
269.609	435.69
269.841	503.69
270.073	551.69
270.306	621.69
270.538	611.69
270.77	536.69
271.002	457.69
271.234	453.69
271.466	472.69
271.698	533.69
271.93	580.69
272.162	594.69
272.394	527.69
272.626	517.69
272.858	437.69
273.09	405.69
273.322	393.69
273.553	385.69
273.785	387.69
274.017	415.69
274.249	454.69
274.481	441.69
274.713	393.69
274.945	375.69
275.176	362.69
275.408	401.69
275.64	397.69
275.872	407.69
276.104	416.69
276.335	472.69
276.567	514.69
276.799	506.69
277.031	465.69
277.262	472.69
277.494	472.69
277.726	528.69
277.957	497.69
278.189	461.69
278.421	426.69
278.652	408.69
278.884	414.69
279.115	417.69
279.347	434.69
279.579	429.69
279.81	421.69
280.042	469.69
280.273	503.69
280.505	497.69
280.736	496.69
280.968	453.69
281.199	415.69
281.431	408.69
281.662	425.69
281.894	415.69
282.125	439.69
282.356	448.69
282.588	445.69
282.819	438.69
283.051	480.69
283.282	499.69
283.513	495.69
283.745	436.69
283.976	423.69
284.207	431.69
284.439	439.69
284.67	444.69
284.901	457.69
285.132	457.69
285.364	456.69
285.595	456.69
285.826	456.69
286.057	458.69
286.288	435.69
286.52	474.69
286.751	469.69
286.982	481.69
287.213	464.69
287.444	437.69
287.675	439.69
287.906	459.69
288.138	466.69
288.369	457.69
288.6	428.69
288.831	432.69
289.062	425.69
289.293	445.69
289.524	454.69
289.755	462.69
289.986	456.69
290.217	418.69
290.448	419.69
290.679	444.69
290.91	460.69
291.141	446.69
291.371	473.69
291.602	473.69
291.833	487.69
292.064	487.69
292.295	470.69
292.526	492.69
292.757	487.69
292.987	472.69
293.218	456.69
293.449	523.69
293.68	560.69
293.91	596.69
294.141	547.69
294.372	551.69
294.603	535.69
294.833	551.69
295.064	508.69
295.295	469.69
295.525	472.69
295.756	452.69
295.987	423.69
296.217	447.69
296.448	445.69
296.679	458.69
296.909	462.69
297.14	449.69
297.37	464.69
297.601	490.69
297.831	514.69
298.062	497.69
298.292	470.69
298.523	450.69
298.753	471.69
298.984	464.69
299.214	474.69
299.445	493.69
299.675	508.69
299.905	469.69
300.136	472.69
300.366	473.69
300.597	450.69
300.827	445.69
301.057	471.69
301.288	496.69
301.518	483.69
301.748	515.69
301.979	537.69
302.209	559.69
302.439	569.69
302.669	568.69
302.9	516.69
303.13	501.69
303.36	512.69
303.59	505.69
303.82	506.69
304.051	505.69
304.281	531.69
304.511	513.69
304.741	588.69
304.971	607.69
305.201	588.69
305.431	551.69
305.661	487.69
305.891	433.69
306.121	461.69
306.352	475.69
306.582	504.69
306.812	506.69
307.042	547.69
307.272	530.69
307.502	601.69
307.731	604.69
307.961	607.69
308.191	572.69
308.421	511.69
308.651	491.69
308.881	481.69
309.111	486.69
309.341	471.69
309.571	476.69
309.8	484.69
310.03	479.69
310.26	474.69
310.49	481.69
310.72	503.69
310.949	512.69
311.179	522.69
311.409	510.69
311.639	489.69
311.868	499.69
312.098	515.69
312.328	509.69
312.557	509.69
312.787	503.69
313.017	524.69
313.246	520.69
313.476	511.69
313.706	510.69
313.935	523.69
314.165	522.69
314.394	544.69
314.624	572.69
314.853	622.69
315.083	598.69
315.312	629.69
315.542	558.69
315.771	532.69
316.001	572.69
316.23	532.69
316.46	556.69
316.689	531.69
316.919	522.69
317.148	519.69
317.377	515.69
317.607	589.69
317.836	635.69
318.065	644.69
318.295	606.69
318.524	583.69
318.753	567.69
318.983	563.69
319.212	524.69
319.441	527.69
319.67	561.69
319.9	559.69
320.129	586.69
320.358	598.69
320.587	615.69
320.816	616.69
321.046	583.69
321.275	577.69
321.504	595.69
321.733	605.69
321.962	593.69
322.191	563.69
322.42	541.69
322.649	565.69
322.878	534.69
323.108	561.69
323.337	567.69
323.566	561.69
323.795	580.69
324.024	551.69
324.253	561.69
324.482	563.69
324.71	531.69
324.939	530.69
325.168	538.69
325.397	544.69
325.626	566.69
325.855	552.69
326.084	531.69
326.313	562.69
326.542	579.69
326.77	588.69
326.999	558.69
327.228	538.69
327.457	507.69
327.686	524.69
327.914	524.69
328.143	560.69
328.372	551.69
328.6	539.69
328.829	540.69
329.058	550.69
329.287	554.69
329.515	554.69
329.744	568.69
329.972	594.69
330.201	635.69
330.43	611.69
330.658	580.69
330.887	550.69
331.115	595.69
331.344	616.69
331.572	567.69
331.801	580.69
332.03	569.69
332.258	604.69
332.486	586.69
332.715	585.69
332.943	607.69
333.172	568.69
333.4	585.69
333.629	634.69
333.857	639.69
334.085	717.69
334.314	836.69
334.542	812.69
334.771	748.69
334.999	672.69
335.227	637.69
335.455	640.69
335.684	633.69
335.912	649.69
336.14	643.69
336.369	613.69
336.597	585.69
336.825	587.69
337.053	611.69
337.281	669.69
337.51	696.69
337.738	717.69
337.966	655.69
338.194	588.69
338.422	581.69
338.65	598.69
338.878	579.69
339.106	567.69
339.334	554.69
339.562	564.69
339.79	568.69
340.018	603.69
340.246	622.69
340.474	612.69
340.702	614.69
340.93	611.69
341.158	591.69
341.386	602.69
341.614	594.69
341.842	603.69
342.07	593.69
342.298	561.69
342.526	583.69
342.754	599.69
342.981	583.69
343.209	586.69
343.437	583.69
343.665	602.69
343.893	627.69
344.12	627.69
344.348	624.69
344.576	618.69
344.804	593.69
345.031	599.69
345.259	586.69
345.487	581.69
345.714	559.69
345.942	546.69
346.17	565.69
346.397	578.69
346.625	554.69
346.853	540.69
347.08	545.69
347.308	535.69
347.535	557.69
347.763	554.69
347.99	556.69
348.218	562.69
348.445	559.69
348.673	551.69
348.9	583.69
349.128	586.69
349.355	598.69
349.583	601.69
349.81	555.69
350.037	550.69
350.265	525.69
350.492	531.69
350.72	528.69
350.947	577.69
351.174	564.69
351.402	547.69
351.629	538.69
351.856	508.69
352.083	525.69
352.311	518.69
352.538	559.69
352.765	578.69
352.992	569.69
353.22	568.69
353.447	567.69
353.674	551.69
353.901	555.69
354.128	536.69
354.355	547.69
354.583	581.69
354.81	585.69
355.037	565.69
355.264	545.69
355.491	594.69
355.718	586.69
355.945	556.69
356.172	538.69
356.399	571.69
356.626	557.69
356.853	592.69
357.08	610.69
357.307	689.69
357.534	647.69
357.761	570.69
357.988	566.69
358.215	573.69
358.441	534.69
358.668	545.69
358.895	565.69
359.122	597.69
359.349	636.69
359.576	598.69
359.802	587.69
360.029	559.69
360.256	532.69
360.483	581.69
360.709	570.69
360.936	594.69
361.163	617.69
361.39	655.69
361.616	717.69
361.843	664.69
362.07	633.69
362.296	555.69
362.523	569.69
362.749	556.69
362.976	584.69
363.203	583.69
363.429	554.69
363.656	580.69
363.882	599.69
364.109	651.69
364.335	655.69
364.562	636.69
364.788	577.69
365.015	581.69
365.241	593.69
365.468	568.69
365.694	595.69
365.92	635.69
366.147	582.69
366.373	543.69
366.599	538.69
366.826	579.69
367.052	560.69
367.278	563.69
367.505	578.69
367.731	594.69
367.957	593.69
368.184	621.69
368.41	633.69
368.636	648.69
368.862	661.69
369.089	662.69
369.315	626.69
369.541	603.69
369.767	596.69
369.993	576.69
370.219	585.69
370.445	605.69
370.672	649.69
370.898	649.69
371.124	644.69
371.35	626.69
371.576	627.69
371.802	663.69
372.028	633.69
372.254	600.69
372.48	595.69
372.706	603.69
372.932	600.69
373.158	608.69
373.384	633.69
373.61	667.69
373.835	652.69
374.061	619.69
374.287	610.69
374.513	623.69
374.739	615.69
374.965	639.69
375.191	641.69
375.416	653.69
375.642	645.69
375.868	691.69
376.094	700.69
376.319	655.69
376.545	636.69
376.771	666.69
376.997	685.69
377.222	698.69
377.448	660.69
377.674	665.69
377.899	677.69
378.125	697.69
378.35	660.69
378.576	631.69
378.802	621.69
379.027	617.69
379.253	624.69
379.478	652.69
379.704	615.69
379.929	642.69
380.155	635.69
380.38	635.69
380.606	628.69
380.831	682.69
381.057	689.69
381.282	695.69
381.507	699.69
381.733	723.69
381.958	681.69
382.184	665.69
382.409	670.69
382.634	675.69
382.86	688.69
383.085	680.69
383.31	718.69
383.535	786.69
383.761	780.69
383.986	747.69
384.211	728.69
384.436	707.69
384.662	766.69
384.887	758.69
385.112	740.69
385.337	723.69
385.562	714.69
385.787	727.69
386.013	760.69
386.238	739.69
386.463	757.69
386.688	815.69
386.913	841.69
387.138	820.69
387.363	752.69
387.588	736.69
387.813	756.69
388.038	783.69
388.263	801.69
388.488	764.69
388.713	703.69
388.938	711.69
389.163	705.69
389.387	726.69
389.612	735.69
389.837	746.69
390.062	770.69
390.287	755.69
390.512	758.69
390.736	709.69
390.961	737.69
391.186	713.69
391.411	735.69
391.636	759.69
391.86	725.69
392.085	733.69
392.31	743.69
392.534	738.69
392.759	773.69
392.984	762.69
393.208	778.69
393.433	789.69
393.658	805.69
393.882	816.69
394.107	771.69
394.331	763.69
394.556	739.69
394.78	751.69
395.005	799.69
395.229	842.69
395.454	860.69
395.678	835.69
395.903	832.69
396.127	799.69
396.352	789.69
396.576	850.69
396.801	843.69
397.025	808.69
397.249	854.69
397.474	803.69
397.698	847.69
397.922	827.69
398.147	880.69
398.371	913.69
398.595	912.69
398.82	877.69
399.044	852.69
399.268	917.69
399.492	965.69
399.717	988.69
399.941	973.69
400.165	976.69
400.389	963.69
400.613	992.69
400.837	1096.69
401.062	1172.69
401.286	1009.69
401.51	959.69
401.734	976.69
401.958	887.69
402.182	887.69
402.406	843.69
402.63	846.69
402.854	877.69
403.078	868.69
403.302	889.69
403.526	895.69
403.75	902.69
403.974	902.69
404.198	934.69
404.422	963.69
404.645	997.69
404.869	955.69
405.093	924.69
405.317	899.69
405.541	904.69
405.765	909.69
405.988	932.69
406.212	949.69
406.436	980.69
406.66	994.69
406.883	983.69
407.107	1120.69
407.331	1221.69
407.555	1274.69
407.778	1084.69
408.002	972.69
408.226	958.69
408.449	969.69
408.673	918.69
408.896	920.69
409.12	961.69
409.344	925.69
409.567	916.69
409.791	930.69
410.014	938.69
410.238	1031.69
410.461	1046.69
410.685	987.69
410.908	962.69
411.132	934.69
411.355	935.69
411.578	915.69
411.802	917.69
412.025	900.69
412.249	906.69
412.472	920.69
412.695	920.69
412.919	868.69
413.142	890.69
413.365	909.69
413.589	919.69
413.812	976.69
414.035	1019.69
414.258	933.69
414.482	882.69
414.705	918.69
414.928	888.69
415.151	900.69
415.374	900.69
415.597	931.69
415.821	951.69
416.044	954.69
416.267	943.69
416.49	907.69
416.713	901.69
416.936	925.69
417.159	973.69
417.382	956.69
417.605	909.69
417.828	929.69
418.051	923.69
418.274	929.69
418.497	892.69
418.72	923.69
418.943	913.69
419.166	908.69
419.389	955.69
419.611	967.69
419.834	940.69
420.057	937.69
420.28	929.69
420.503	929.69
420.726	933.69
420.948	926.69
421.171	904.69
421.394	957.69
421.617	949.69
421.839	985.69
422.062	967.69
422.285	943.69
422.507	893.69
422.73	897.69
422.953	867.69
423.175	901.69
423.398	901.69
423.621	896.69
423.843	924.69
424.066	972.69
424.288	1042.69
424.511	1010.69
424.733	994.69
424.956	897.69
425.178	919.69
425.401	910.69
425.623	937.69
425.846	948.69
426.068	973.69
426.291	936.69
426.513	931.69
426.735	931.69
426.958	1026.69
427.18	1025.69
427.402	979.69
427.625	1012.69
427.847	949.69
428.069	924.69
428.292	930.69
428.514	882.69
428.736	877.69
428.958	880.69
429.181	901.69
429.403	1053.69
429.625	1182.69
429.847	1007.69
430.069	931.69
430.292	1035.69
430.514	1002.69
430.736	964.69
430.958	968.69
431.18	905.69
431.402	860.69
431.624	826.69
431.846	797.69
432.068	731.69
432.29	727.69
432.512	795.69
432.734	876.69
432.956	903.69
433.178	946.69
433.4	957.69
433.622	953.69
433.844	918.69
434.066	825.69
434.287	818.69
434.509	789.69
434.731	837.69
434.953	896.69
435.175	927.69
435.397	897.69
435.618	867.69
435.84	875.69
436.062	870.69
436.284	904.69
436.505	911.69
436.727	949.69
436.949	907.69
437.17	896.69
437.392	882.69
437.614	851.69
437.835	792.69
438.057	821.69
438.278	840.69
438.5	852.69
438.721	915.69
438.943	931.69
439.165	922.69
439.386	923.69
439.608	932.69
439.829	932.69
440.05	931.69
440.272	925.69
440.493	949.69
440.715	969.69
440.936	995.69
441.158	1049.69
441.379	1025.69
441.6	1013.69
441.822	1003.69
442.043	991.69
442.264	968.69
442.486	960.69
442.707	931.69
442.928	909.69
443.149	1000.69
443.371	985.69
443.592	1058.69
443.813	1002.69
444.034	1023.69
444.255	991.69
444.476	1011.69
444.698	1029.69
444.919	1012.69
445.14	1096.69
445.361	1080.69
445.582	1090.69
445.803	1065.69
446.024	1003.69
446.245	1053.69
446.466	1043.69
446.687	1017.69
446.908	1056.69
447.129	991.69
447.35	989.69
447.571	980.69
447.792	945.69
448.013	951.69
448.234	976.69
448.455	958.69
448.675	990.69
448.896	890.69
449.117	905.69
449.338	897.69
449.559	941.69
449.779	932.69
450	1041.69
450.221	1035.69
450.442	992.69
450.662	930.69
450.883	867.69
451.104	871.69
451.324	857.69
451.545	867.69
451.766	859.69
451.986	812.69
452.207	810.69
452.428	772.69
452.648	785.69
452.869	776.69
453.089	753.69
453.31	743.69
453.53	771.69
453.751	718.69
453.971	693.69
454.192	732.69
454.412	785.69
454.633	754.69
454.853	765.69
455.073	748.69
455.294	778.69
455.514	777.69
455.734	772.69
455.955	757.69
456.175	735.69
456.395	723.69
456.616	719.69
456.836	740.69
457.056	721.69
457.276	726.69
457.497	681.69
457.717	700.69
457.937	703.69
458.157	708.69
458.377	680.69
458.598	672.69
458.818	651.69
459.038	722.69
459.258	706.69
459.478	702.69
459.698	709.69
459.918	731.69
460.138	764.69
460.358	826.69
460.578	841.69
460.798	850.69
461.018	887.69
461.238	879.69
461.458	839.69
461.678	817.69
461.898	805.69
462.118	795.69
462.338	827.69
462.558	830.69
462.777	832.69
462.997	876.69
463.217	892.69
463.437	892.69
463.657	831.69
463.876	822.69
464.096	845.69
464.316	810.69
464.536	853.69
464.755	881.69
464.975	839.69
465.195	872.69
465.414	863.69
465.634	868.69
465.854	872.69
466.073	950.69
466.293	919.69
466.512	844.69
466.732	887.69
466.951	909.69
467.171	896.69
467.391	870.69
467.61	876.69
467.829	895.69
468.049	952.69
468.268	1061.69
468.488	965.69
468.707	905.69
468.927	902.69
469.146	888.69
469.365	887.69
469.585	946.69
469.804	895.69
470.023	924.69
470.243	916.69
470.462	959.69
470.681	919.69
470.901	899.69
471.12	893.69
471.339	915.69
471.558	915.69
471.777	891.69
471.997	840.69
472.216	832.69
472.435	789.69
472.654	767.69
472.873	800.69
473.092	804.69
473.311	794.69
473.53	801.69
473.749	812.69
473.968	860.69
474.187	853.69
474.406	807.69
474.625	847.69
474.844	873.69
475.063	887.69
475.282	870.69
475.501	823.69
475.72	827.69
475.939	881.69
476.158	879.69
476.377	883.69
476.596	832.69
476.814	836.69
477.033	803.69
477.252	832.69
477.471	895.69
477.69	914.69
477.908	931.69
478.127	963.69
478.346	1002.69
478.564	988.69
478.783	985.69
479.002	1002.69
479.22	996.69
479.439	1004.69
479.658	1052.69
479.876	962.69
480.095	901.69
480.313	872.69
480.532	865.69
480.751	856.69
480.969	789.69
481.188	803.69
481.406	771.69
481.624	773.69
481.843	799.69
482.061	826.69
482.28	877.69
482.498	896.69
482.717	843.69
482.935	874.69
483.153	946.69
483.372	1008.69
483.59	1003.69
483.808	955.69
484.027	921.69
484.245	966.69
484.463	1173.69
484.681	1312.69
484.9	1014.69
485.118	949.69
485.336	929.69
485.554	903.69
485.772	871.69
485.99	850.69
486.209	892.69
486.427	909.69
486.645	927.69
486.863	971.69
487.081	1024.69
487.299	1006.69
487.517	996.69
487.735	1093.69
487.953	1183.69
488.171	1155.69
488.389	1132.69
488.607	1101.69
488.825	1152.69
489.043	1063.69
489.261	968.69
489.479	1023.69
489.696	1067.69
489.914	1011.69
490.132	1036.69
490.35	1085.69
490.568	1151.69
490.786	1155.69
491.003	1151.69
491.221	1214.69
491.439	1281.69
491.657	1281.69
491.874	1376.69
492.092	1419.69
492.31	1480.69
492.527	1445.69
492.745	1368.69
492.963	1311.69
493.18	1303.69
493.398	1310.69
493.615	1313.69
493.833	1255.69
494.05	1248.69
494.268	1236.69
494.485	1220.69
494.703	1204.69
494.92	1180.69
495.138	1194.69
495.355	1235.69
495.573	1235.69
495.79	1304.69
496.008	1254.69
496.225	1220.69
496.442	1229.69
496.66	1212.69
496.877	1210.69
497.094	1234.69
497.312	1221.69
497.529	1173.69
497.746	1176.69
497.963	1260.69
498.181	1299.69
498.398	1249.69
498.615	1187.69
498.832	1150.69
499.049	1158.69
499.267	1178.69
499.484	1271.69
499.701	1336.69
499.918	1354.69
500.135	1506.69
500.352	1512.69
500.569	1561.69
500.786	1663.69
501.003	1520.69
501.22	1400.69
501.437	1376.69
501.654	1419.69
501.871	1340.69
502.088	1183.69
502.305	1227.69
502.522	1131.69
502.739	1091.69
502.956	1055.69
503.172	1044.69
503.389	1019.69
503.606	1009.69
503.823	999.69
504.04	984.69
504.256	972.69
504.473	989.69
504.69	1019.69
504.907	978.69
505.123	980.69
505.34	1057.69
505.557	1348.69
505.773	1099.69
505.99	928.69
506.207	915.69
506.423	880.69
506.64	881.69
506.856	904.69
507.073	1034.69
507.289	1052.69
507.506	1012.69
507.722	882.69
507.939	867.69
508.155	851.69
508.372	854.69
508.588	816.69
508.805	760.69
509.021	764.69
509.238	742.69
509.454	763.69
509.67	753.69
509.887	736.69
510.103	729.69
510.319	755.69
510.536	759.69
510.752	767.69
510.968	752.69
511.184	822.69
511.401	755.69
511.617	712.69
511.833	696.69
512.049	709.69
512.265	710.69
512.481	699.69
512.698	727.69
512.914	769.69
513.13	734.69
513.346	692.69
513.562	687.69
513.778	707.69
513.994	756.69
514.21	751.69
514.426	779.69
514.642	812.69
514.858	784.69
515.074	744.69
515.29	730.69
515.506	721.69
515.721	738.69
515.937	740.69
516.153	803.69
516.369	796.69
516.585	745.69
516.801	730.69
517.016	724.69
517.232	741.69
517.448	781.69
517.664	787.69
517.879	798.69
518.095	793.69
518.311	785.69
518.527	751.69
518.742	731.69
518.958	725.69
519.173	763.69
519.389	759.69
519.605	764.69
519.82	796.69
520.036	785.69
520.251	740.69
520.467	759.69
520.682	792.69
520.898	768.69
521.113	716.69
521.329	699.69
521.544	754.69
521.76	741.69
521.975	742.69
522.19	715.69
522.406	755.69
522.621	910.69
522.836	851.69
523.052	737.69
523.267	770.69
523.482	740.69
523.698	729.69
523.913	720.69
524.128	786.69
524.343	795.69
524.559	814.69
524.774	758.69
524.989	755.69
525.204	753.69
525.419	759.69
525.634	727.69
525.849	739.69
526.064	741.69
526.28	697.69
526.495	673.69
526.71	654.69
526.925	652.69
527.14	640.69
527.355	612.69
527.57	618.69
527.785	653.69
527.999	672.69
528.214	668.69
528.429	708.69
528.644	746.69
528.859	757.69
529.074	812.69
529.289	841.69
529.503	841.69
529.718	797.69
529.933	709.69
530.148	648.69
530.363	605.69
530.577	641.69
530.792	639.69
531.007	609.69
531.221	621.69
531.436	628.69
531.651	623.69
531.865	657.69
532.08	645.69
532.295	639.69
532.509	612.69
532.724	617.69
532.938	671.69
533.153	710.69
533.367	684.69
533.582	700.69
533.796	711.69
534.011	678.69
534.225	652.69
534.44	632.69
534.654	612.69
534.868	634.69
535.083	689.69
535.297	691.69
535.511	660.69
535.726	684.69
535.94	652.69
536.154	648.69
536.369	619.69
536.583	591.69
536.797	582.69
537.011	598.69
537.225	589.69
537.44	604.69
537.654	655.69
537.868	619.69
538.082	579.69
538.296	596.69
538.51	620.69
538.724	656.69
538.938	723.69
539.153	721.69
539.367	720.69
539.581	691.69
539.795	673.69
540.009	651.69
540.222	646.69
540.436	666.69
540.65	753.69
540.864	785.69
541.078	803.69
541.292	843.69
541.506	893.69
541.72	929.69
541.934	1030.69
542.147	1021.69
542.361	1002.69
542.575	901.69
542.789	830.69
543.002	744.69
543.216	746.69
543.43	752.69
543.644	799.69
543.857	847.69
544.071	887.69
544.285	953.69
544.498	905.69
544.712	901.69
544.925	912.69
545.139	942.69
545.352	938.69
545.566	930.69
545.779	912.69
545.993	948.69
546.206	920.69
546.42	945.69
546.633	945.69
546.847	963.69
547.06	937.69
547.274	955.69
547.487	976.69
547.7	993.69
547.914	963.69
548.127	945.69
548.34	957.69
548.554	915.69
548.767	964.69
548.98	938.69
549.193	922.69
549.407	947.69
549.62	950.69
549.833	924.69
550.046	906.69
550.259	894.69
550.473	873.69
550.686	873.69
550.899	862.69
551.112	852.69
551.325	804.69
551.538	864.69
551.751	845.69
551.964	691.69
552.177	750.69
552.39	788.69
552.603	823.69
552.816	849.69
553.029	904.69
553.242	929.69
553.455	913.69
553.667	885.69
553.88	887.69
554.093	864.69
554.306	849.69
554.519	836.69
554.732	825.69
554.944	813.69
555.157	833.69
555.37	802.69
555.583	779.69
555.795	748.69
556.008	736.69
556.221	705.69
556.433	716.69
556.646	723.69
556.859	737.69
557.071	720.69
557.284	727.69
557.496	756.69
557.709	769.69
557.921	745.69
558.134	709.69
558.346	732.69
558.559	710.69
558.771	689.69
558.984	680.69
559.196	689.69
559.409	665.69
559.621	657.69
559.833	647.69
560.046	655.69
560.258	680.69
560.47	671.69
560.683	653.69
560.895	680.69
561.107	670.69
561.32	689.69
561.532	677.69
561.744	643.69
561.956	672.69
562.168	656.69
562.381	656.69
562.593	641.69
562.805	627.69
563.017	631.69
563.229	605.69
563.441	635.69
563.653	642.69
563.865	612.69
564.077	610.69
564.289	608.69
564.501	617.69
564.713	636.69
564.925	641.69
565.137	675.69
565.349	613.69
565.561	607.69
565.773	603.69
565.985	620.69
566.197	646.69
566.408	641.69
566.62	680.69
566.832	669.69
567.044	659.69
567.255	640.69
567.467	660.69
567.679	656.69
567.891	651.69
568.102	627.69
568.314	556.69
568.526	531.69
568.737	509.69
568.949	496.69
569.161	470.69
569.372	465.69
569.584	439.69
569.795	441.69
570.007	444.69
570.218	436.69
570.43	424.69
570.641	440.69
570.853	449.69
571.064	473.69
571.276	476.69
571.487	473.69
571.698	462.69
571.91	450.69
572.121	440.69
572.333	426.69
572.544	433.69
572.755	407.69
572.966	401.69
573.178	404.69
573.389	400.69
573.6	409.69
573.811	425.69
574.023	413.69
574.234	386.69
574.445	386.69
574.656	383.69
574.867	380.69
575.078	399.69
575.289	409.69
575.501	376.69
575.712	382.69
575.923	379.69
576.134	401.69
576.345	387.69
576.556	401.69
576.767	389.69
576.978	395.69
577.188	372.69
577.399	357.69
577.61	346.69
577.821	368.69
578.032	380.69
578.243	380.69
578.454	370.69
578.665	345.69
578.875	344.69
579.086	323.69
579.297	341.69
579.508	347.69
579.718	334.69
579.929	339.69
580.14	325.69
580.35	326.69
580.561	348.69
580.772	391.69
580.982	359.69
581.193	350.69
581.403	340.69
581.614	346.69
581.825	359.69
582.035	363.69
582.246	331.69
582.456	342.69
582.667	344.69
582.877	349.69
583.087	330.69
583.298	332.69
583.508	330.69
583.719	324.69
583.929	308.69
584.139	319.69
584.35	328.69
584.56	307.69
584.77	319.69
584.981	317.69
585.191	325.69
585.401	349.69
585.611	319.69
585.821	328.69
586.032	304.69
586.242	315.69
586.452	313.69
586.662	334.69
586.872	322.69
587.082	312.69
587.292	308.69
587.502	310.69
587.713	323.69
587.923	305.69
588.133	306.69
588.343	321.69
588.553	314.69
588.762	317.69
588.972	296.69
589.182	296.69
589.392	291.69
589.602	325.69
589.812	304.69
590.022	305.69
590.232	310.69
590.441	316.69
590.651	305.69
590.861	291.69
591.071	296.69
591.281	289.69
591.49	303.69
591.7	299.69
591.91	303.69
592.119	311.69
592.329	329.69
592.539	324.69
592.748	324.69
592.958	311.69
593.167	322.69
593.377	329.69
593.587	325.69
593.796	327.69
594.006	327.69
594.215	311.69
594.424	335.69
594.634	331.69
594.843	336.69
595.053	356.69
595.262	328.69
595.472	316.69
595.681	320.69
595.89	316.69
596.1	316.69
596.309	323.69
596.518	308.69
596.727	348.69
596.937	341.69
597.146	309.69
597.355	307.69
597.564	303.69
597.774	289.69
597.983	294.69
598.192	266.69
598.401	273.69
598.61	288.69
598.819	279.69
599.028	282.69
599.237	292.69
599.446	296.69
599.655	304.69
599.864	301.69
600.073	285.69
600.282	285.69
600.491	299.69
600.7	301.69
600.909	283.69
601.118	306.69
601.327	321.69
601.536	339.69
601.745	327.69
601.953	352.69
602.162	347.69
602.371	349.69
602.58	342.69
602.789	318.69
602.997	345.69
603.206	334.69
603.415	343.69
603.623	367.69
603.832	346.69
604.041	321.69
604.249	334.69
604.458	307.69
604.666	290.69
604.875	296.69
605.084	332.69
605.292	332.69
605.501	343.69
605.709	344.69
605.918	345.69
606.126	350.69
606.334	348.69
606.543	340.69
606.751	345.69
606.96	375.69
607.168	353.69
607.376	347.69
607.585	348.69
607.793	351.69
608.001	355.69
608.21	368.69
608.418	377.69
608.626	357.69
608.834	341.69
609.043	345.69
609.251	351.69
609.459	339.69
609.667	364.69
609.875	387.69
610.083	383.69
610.291	380.69
610.499	364.69
610.707	360.69
610.916	362.69
611.124	362.69
611.332	345.69
611.54	359.69
611.748	349.69
611.955	368.69
612.163	357.69
612.371	374.69
612.579	349.69
612.787	363.69
612.995	356.69
613.203	344.69
613.411	355.69
613.618	353.69
613.826	347.69
614.034	327.69
614.242	344.69
614.449	355.69
614.657	349.69
614.865	364.69
615.072	349.69
615.28	351.69
615.488	348.69
615.695	369.69
615.903	345.69
616.111	364.69
616.318	357.69
616.526	355.69
616.733	367.69
616.941	350.69
617.148	361.69
617.356	335.69
617.563	336.69
617.771	344.69
617.978	319.69
618.185	324.69
618.393	337.69
618.6	346.69
618.807	335.69
619.015	336.69
619.222	346.69
619.429	321.69
619.637	315.69
619.844	271.69
620.051	326.69
620.258	315.69
620.466	317.69
620.673	303.69
620.88	315.69
621.087	308.69
621.294	320.69
621.501	306.69
621.708	308.69
621.915	293.69
622.122	321.69
622.329	330.69
622.536	332.69
622.743	332.69
622.95	328.69
623.157	311.69
623.364	324.69
623.571	316.69
623.778	310.69
623.985	301.69
624.192	305.69
624.399	317.69
624.606	316.69
624.812	329.69
625.019	308.69
625.226	294.69
625.433	289.69
625.639	291.69
625.846	255.69
626.053	264.69
626.259	256.69
626.466	239.69
626.673	263.69
626.879	226.69
627.086	236.69
627.293	257.69
627.499	281.69
627.706	293.69
627.912	307.69
628.119	283.69
628.325	277.69
628.532	290.69
628.738	286.69
628.945	276.69
629.151	279.69
629.357	277.69
629.564	281.69
629.77	283.69
629.976	261.69
630.183	268.69
630.389	269.69
630.595	276.69
630.802	275.69
631.008	274.69
631.214	277.69
631.42	263.69
631.627	256.69
631.833	239.69
632.039	248.69
632.245	275.69
632.451	267.69
632.657	282.69
632.863	276.69
633.069	263.69
633.275	266.69
633.481	247.69
633.688	253.69
633.893	249.69
634.099	261.69
634.305	253.69
634.511	242.69
634.717	240.69
634.923	240.69
635.129	218.69
635.335	234.69
635.541	204.69
635.747	220.69
635.952	242.69
636.158	242.69
636.364	258.69
636.57	277.69
636.775	273.69
636.981	253.69
637.187	251.69
637.392	245.69
637.598	257.69
637.804	276.69
638.009	255.69
638.215	253.69
638.421	247.69
638.626	241.69
638.832	263.69
639.037	244.69
639.243	235.69
639.448	236.69
639.654	256.69
639.859	243.69
640.065	240.69
640.27	253.69
640.475	245.69
640.681	241.69
640.886	263.69
641.091	259.69
641.297	270.69
641.502	232.69
641.707	251.69
641.913	251.69
642.118	254.69
642.323	232.69
642.528	237.69
642.733	248.69
642.939	255.69
643.144	235.69
643.349	243.69
643.554	247.69
643.759	239.69
643.964	256.69
644.169	234.69
644.374	251.69
644.579	249.69
644.784	252.69
644.989	229.69
645.194	220.69
645.399	233.69
645.604	241.69
645.809	239.69
646.014	233.69
646.219	243.69
646.423	231.69
646.628	236.69
646.833	238.69
647.038	235.69
647.243	230.69
647.447	253.69
647.652	252.69
647.857	236.69
648.062	240.69
648.266	245.69
648.471	228.69
648.676	248.69
648.88	260.69
649.085	250.69
649.289	248.69
649.494	238.69
649.698	235.69
649.903	235.69
650.107	255.69
650.312	228.69
650.516	216.69
650.721	217.69
650.925	220.69
651.13	236.69
651.334	219.69
651.539	218.69
651.743	233.69
651.947	214.69
652.152	221.69
652.356	211.69
652.56	197.69
652.764	220.69
652.969	193.69
653.173	206.69
653.377	196.69
653.581	207.69
653.785	203.69
653.99	213.69
654.194	204.69
654.398	204.69
654.602	177.69
654.806	216.69
655.01	199.69
655.214	200.69
655.418	199.69
655.622	210.69
655.826	213.69
656.03	228.69
656.234	217.69
656.438	230.69
656.642	259.69
656.846	227.69
657.049	214.69
657.253	207.69
657.457	176.69
657.661	179.69
657.865	166.69
658.068	162.69
658.272	165.69
658.476	151.69
658.68	161.69
658.883	147.69
659.087	143.69
659.291	138.69
659.494	145.69
659.698	139.69
659.901	134.69
660.105	136.69
660.309	122.69
660.512	132.69
660.716	123.69
660.919	117.69
661.123	121.69
661.326	109.69
661.53	116.69
661.733	104.69
661.936	106.69
662.14	106.69
662.343	80.69
662.546	90.69
662.75	100.69
662.953	96.69
663.156	99.69
663.36	71.69
663.563	91.69
663.766	81.69
663.969	84.69
664.173	84.69
664.376	83.69
664.579	86.69
664.782	97.69
664.985	92.69
665.188	99.69
665.391	88.69
665.594	91.69
665.797	77.69
666	80.69
666.203	88.69
666.406	66.69
666.609	90.69
666.812	89.69
667.015	77.69
667.218	82.69
667.421	83.69
667.624	75.69
667.827	72.69
668.03	80.69
668.232	83.69
668.435	104.69
668.638	102.69
668.841	91.69
669.043	93.69
669.246	77.69
669.449	84.69
669.651	76.69
669.854	91.69
670.057	71.69
670.259	74.69
670.462	87.69
670.665	87.69
670.867	82.69
671.07	84.69
671.272	81.69
671.475	79.69
671.677	73.69
671.88	84.69
672.082	73.69
672.284	85.69
672.487	77.69
672.689	74.69
672.892	78.69
