Data from WStandard_LampEnergy10_LIBS07252019.E.O._I.C._HRD10591_15-53-42-928.txt Node
Date: Thu Jul 25 15:53:42 EDT 2019
User: cochatt
Spectrometer: HR+D1059
Trigger mode: 1
Integration Time (sec): 1.000000E-1
Scans to average: 1
Electric dark correction enabled: true
Nonlinearity correction enabled: false
Boxcar width: 0
XAxis mode: Wavelengths
Number of Pixels in Spectrum: 2048
>>>>>Begin Spectral Data<<<<<
223.165	-13.75
223.4	-13.75
223.635	-13.75
223.869	-4.75
224.104	-36.75
224.338	-19.75
224.573	-5.75
224.808	-9.75
225.042	-2.75
225.277	-9.75
225.511	3.25
225.746	9.25
225.98	11.25
226.215	-6.75
226.449	6.25
226.683	27.25
226.918	28.25
227.152	24.25
227.387	37.25
227.621	44.25
227.856	42.25
228.09	51.25
228.324	55.25
228.559	57.25
228.793	85.25
229.027	127.25
229.262	138.25
229.496	147.25
229.73	166.25
229.964	165.25
230.199	173.25
230.433	166.25
230.667	190.25
230.901	202.25
231.136	178.25
231.37	164.25
231.604	164.25
231.838	181.25
232.072	186.25
232.306	195.25
232.541	184.25
232.775	203.25
233.009	201.25
233.243	202.25
233.477	199.25
233.711	191.25
233.945	197.25
234.179	196.25
234.413	206.25
234.647	210.25
234.881	197.25
235.115	188.25
235.349	201.25
235.583	205.25
235.817	196.25
236.051	188.25
236.285	181.25
236.519	218.25
236.753	265.25
236.987	237.25
237.221	224.25
237.455	245.25
237.689	218.25
237.922	233.25
238.156	236.25
238.39	214.25
238.624	230.25
238.858	259.25
239.091	267.25
239.325	265.25
239.559	269.25
239.793	299.25
240.027	291.25
240.26	278.25
240.494	251.25
240.728	236.25
240.961	218.25
241.195	235.25
241.429	242.25
241.662	241.25
241.896	257.25
242.13	230.25
242.363	267.25
242.597	297.25
242.83	270.25
243.064	271.25
243.298	315.25
243.531	287.25
243.765	293.25
243.998	289.25
244.232	241.25
244.465	242.25
244.699	275.25
244.932	295.25
245.166	319.25
245.399	316.25
245.633	291.25
245.866	277.25
246.099	292.25
246.333	289.25
246.566	298.25
246.8	332.25
247.033	347.25
247.266	304.25
247.5	325.25
247.733	328.25
247.966	326.25
248.2	365.25
248.433	359.25
248.666	386.25
248.899	395.25
249.133	448.25
249.366	467.25
249.599	406.25
249.832	366.25
250.066	373.25
250.299	377.25
250.532	354.25
250.765	331.25
250.998	347.25
251.231	357.25
251.465	367.25
251.698	341.25
251.931	363.25
252.164	364.25
252.397	369.25
252.63	341.25
252.863	325.25
253.096	327.25
253.329	338.25
253.562	351.25
253.795	347.25
254.028	357.25
254.261	348.25
254.494	361.25
254.727	326.25
254.96	370.25
255.193	377.25
255.426	408.25
255.659	460.25
255.892	466.25
256.124	397.25
256.357	390.25
256.59	409.25
256.823	436.25
257.056	435.25
257.289	495.25
257.521	517.25
257.754	467.25
257.987	465.25
258.22	515.25
258.452	469.25
258.685	405.25
258.918	400.25
259.151	388.25
259.383	387.25
259.616	360.25
259.849	395.25
260.081	389.25
260.314	437.25
260.547	492.25
260.779	477.25
261.012	450.25
261.244	415.25
261.477	409.25
261.71	411.25
261.942	386.25
262.175	395.25
262.407	429.25
262.64	401.25
262.872	377.25
263.105	372.25
263.337	382.25
263.57	383.25
263.802	375.25
264.035	355.25
264.267	362.25
264.499	330.25
264.732	383.25
264.964	391.25
265.197	390.25
265.429	425.25
265.661	471.25
265.894	495.25
266.126	498.25
266.358	471.25
266.591	475.25
266.823	497.25
267.055	447.25
267.287	454.25
267.52	441.25
267.752	456.25
267.984	445.25
268.216	478.25
268.448	478.25
268.681	474.25
268.913	439.25
269.145	429.25
269.377	420.25
269.609	458.25
269.841	515.25
270.073	583.25
270.306	640.25
270.538	606.25
270.77	550.25
271.002	498.25
271.234	489.25
271.466	474.25
271.698	546.25
271.93	618.25
272.162	583.25
272.394	542.25
272.626	529.25
272.858	468.25
273.09	408.25
273.322	421.25
273.553	412.25
273.785	406.25
274.017	411.25
274.249	459.25
274.481	458.25
274.713	423.25
274.945	414.25
275.176	422.25
275.408	408.25
275.64	420.25
275.872	410.25
276.104	455.25
276.335	493.25
276.567	548.25
276.799	525.25
277.031	474.25
277.262	470.25
277.494	501.25
277.726	534.25
277.957	522.25
278.189	475.25
278.421	438.25
278.652	432.25
278.884	443.25
279.115	434.25
279.347	442.25
279.579	421.25
279.81	441.25
280.042	469.25
280.273	517.25
280.505	538.25
280.736	517.25
280.968	479.25
281.199	442.25
281.431	427.25
281.662	426.25
281.894	417.25
282.125	459.25
282.356	461.25
282.588	441.25
282.819	446.25
283.051	505.25
283.282	527.25
283.513	497.25
283.745	436.25
283.976	447.25
284.207	428.25
284.439	429.25
284.67	447.25
284.901	460.25
285.132	459.25
285.364	464.25
285.595	444.25
285.826	456.25
286.057	485.25
286.288	472.25
286.52	474.25
286.751	530.25
286.982	509.25
287.213	476.25
287.444	430.25
287.675	452.25
287.906	481.25
288.138	499.25
288.369	463.25
288.6	441.25
288.831	455.25
289.062	436.25
289.293	463.25
289.524	466.25
289.755	451.25
289.986	459.25
290.217	461.25
290.448	453.25
290.679	455.25
290.91	487.25
291.141	487.25
291.371	493.25
291.602	488.25
291.833	490.25
292.064	515.25
292.295	509.25
292.526	485.25
292.757	521.25
292.987	492.25
293.218	497.25
293.449	548.25
293.68	598.25
293.91	592.25
294.141	570.25
294.372	533.25
294.603	554.25
294.833	577.25
295.064	561.25
295.295	518.25
295.525	475.25
295.756	465.25
295.987	460.25
296.217	447.25
296.448	451.25
296.679	481.25
296.909	459.25
297.14	461.25
297.37	492.25
297.601	521.25
297.831	537.25
298.062	547.25
298.292	470.25
298.523	471.25
298.753	474.25
298.984	458.25
299.214	482.25
299.445	509.25
299.675	505.25
299.905	493.25
300.136	490.25
300.366	483.25
300.597	454.25
300.827	489.25
301.057	501.25
301.288	507.25
301.518	508.25
301.748	540.25
301.979	562.25
302.209	565.25
302.439	604.25
302.669	597.25
302.9	550.25
303.13	515.25
303.36	530.25
303.59	529.25
303.82	513.25
304.051	529.25
304.281	520.25
304.511	541.25
304.741	586.25
304.971	620.25
305.201	642.25
305.431	571.25
305.661	470.25
305.891	423.25
306.121	460.25
306.352	503.25
306.582	506.25
306.812	559.25
307.042	571.25
307.272	562.25
307.502	619.25
307.731	654.25
307.961	622.25
308.191	584.25
308.421	530.25
308.651	505.25
308.881	505.25
309.111	507.25
309.341	521.25
309.571	519.25
309.8	500.25
310.03	488.25
310.26	486.25
310.49	488.25
310.72	517.25
310.949	532.25
311.179	524.25
311.409	520.25
311.639	501.25
311.868	501.25
312.098	522.25
312.328	493.25
312.557	503.25
312.787	519.25
313.017	533.25
313.246	531.25
313.476	522.25
313.706	531.25
313.935	545.25
314.165	535.25
314.394	579.25
314.624	596.25
314.853	626.25
315.083	633.25
315.312	617.25
315.542	555.25
315.771	561.25
316.001	575.25
316.23	583.25
316.46	565.25
316.689	549.25
316.919	531.25
317.148	533.25
317.377	580.25
317.607	619.25
317.836	643.25
318.065	667.25
318.295	616.25
318.524	603.25
318.753	580.25
318.983	575.25
319.212	561.25
319.441	577.25
319.67	547.25
319.9	579.25
320.129	611.25
320.358	646.25
320.587	651.25
320.816	625.25
321.046	620.25
321.275	603.25
321.504	586.25
321.733	627.25
321.962	591.25
322.191	567.25
322.42	579.25
322.649	559.25
322.878	555.25
323.108	589.25
323.337	561.25
323.566	585.25
323.795	568.25
324.024	592.25
324.253	580.25
324.482	557.25
324.71	578.25
324.939	580.25
325.168	554.25
325.397	563.25
325.626	584.25
325.855	571.25
326.084	561.25
326.313	569.25
326.542	570.25
326.77	579.25
326.999	605.25
327.228	551.25
327.457	529.25
327.686	533.25
327.914	550.25
328.143	557.25
328.372	579.25
328.6	572.25
328.829	561.25
329.058	535.25
329.287	535.25
329.515	563.25
329.744	586.25
329.972	621.25
330.201	633.25
330.43	595.25
330.658	599.25
330.887	590.25
331.115	597.25
331.344	613.25
331.572	587.25
331.801	580.25
332.03	589.25
332.258	585.25
332.486	594.25
332.715	615.25
332.943	598.25
333.172	596.25
333.4	623.25
333.629	621.25
333.857	695.25
334.085	741.25
334.314	828.25
334.542	837.25
334.771	767.25
334.999	703.25
335.227	654.25
335.455	636.25
335.684	648.25
335.912	668.25
336.14	640.25
336.369	635.25
336.597	615.25
336.825	608.25
337.053	641.25
337.281	675.25
337.51	693.25
337.738	697.25
337.966	661.25
338.194	603.25
338.422	599.25
338.65	590.25
338.878	590.25
339.106	563.25
339.334	571.25
339.562	581.25
339.79	603.25
340.018	623.25
340.246	635.25
340.474	636.25
340.702	601.25
340.93	620.25
341.158	625.25
341.386	600.25
341.614	629.25
341.842	596.25
342.07	611.25
342.298	610.25
342.526	597.25
342.754	592.25
342.981	601.25
343.209	608.25
343.437	589.25
343.665	594.25
343.893	630.25
344.12	659.25
344.348	673.25
344.576	613.25
344.804	599.25
345.031	615.25
345.259	575.25
345.487	582.25
345.714	539.25
345.942	556.25
346.17	568.25
346.397	573.25
346.625	571.25
346.853	550.25
347.08	548.25
347.308	551.25
347.535	580.25
347.763	586.25
347.99	564.25
348.218	562.25
348.445	579.25
348.673	581.25
348.9	595.25
349.128	605.25
349.355	616.25
349.583	595.25
349.81	561.25
350.037	531.25
350.265	526.25
350.492	555.25
350.72	563.25
350.947	578.25
351.174	575.25
351.402	548.25
351.629	542.25
351.856	539.25
352.083	526.25
352.311	531.25
352.538	578.25
352.765	577.25
352.992	590.25
353.22	561.25
353.447	554.25
353.674	571.25
353.901	581.25
354.128	567.25
354.355	565.25
354.583	589.25
354.81	588.25
355.037	596.25
355.264	592.25
355.491	572.25
355.718	573.25
355.945	577.25
356.172	543.25
356.399	569.25
356.626	551.25
356.853	598.25
357.08	644.25
357.307	684.25
357.534	662.25
357.761	582.25
357.988	539.25
358.215	549.25
358.441	551.25
358.668	545.25
358.895	586.25
359.122	617.25
359.349	650.25
359.576	606.25
359.802	584.25
360.029	561.25
360.256	548.25
360.483	570.25
360.709	573.25
360.936	616.25
361.163	655.25
361.39	683.25
361.616	716.25
361.843	705.25
362.07	650.25
362.296	567.25
362.523	575.25
362.749	589.25
362.976	572.25
363.203	579.25
363.429	544.25
363.656	578.25
363.882	607.25
364.109	666.25
364.335	676.25
364.562	637.25
364.788	595.25
365.015	591.25
365.241	568.25
365.468	597.25
365.694	602.25
365.92	586.25
366.147	593.25
366.373	556.25
366.599	578.25
366.826	562.25
367.052	571.25
367.278	564.25
367.505	598.25
367.731	609.25
367.957	605.25
368.184	654.25
368.41	680.25
368.636	668.25
368.862	660.25
369.089	683.25
369.315	618.25
369.541	637.25
369.767	596.25
369.993	602.25
370.219	616.25
370.445	616.25
370.672	651.25
370.898	695.25
371.124	655.25
371.35	633.25
371.576	656.25
371.802	705.25
372.028	646.25
372.254	626.25
372.48	608.25
372.706	591.25
372.932	616.25
373.158	632.25
373.384	617.25
373.61	655.25
373.835	682.25
374.061	639.25
374.287	643.25
374.513	647.25
374.739	641.25
374.965	637.25
375.191	657.25
375.416	667.25
375.642	693.25
375.868	713.25
376.094	691.25
376.319	699.25
376.545	661.25
376.771	671.25
376.997	686.25
377.222	676.25
377.448	672.25
377.674	691.25
377.899	682.25
378.125	704.25
378.35	706.25
378.576	642.25
378.802	617.25
379.027	620.25
379.253	633.25
379.478	630.25
379.704	665.25
379.929	621.25
380.155	652.25
380.38	637.25
380.606	649.25
380.831	676.25
381.057	707.25
381.282	714.25
381.507	699.25
381.733	759.25
381.958	755.25
382.184	695.25
382.409	661.25
382.634	676.25
382.86	680.25
383.085	697.25
383.31	725.25
383.535	773.25
383.761	808.25
383.986	758.25
384.211	734.25
384.436	733.25
384.662	771.25
384.887	781.25
385.112	713.25
385.337	747.25
385.562	751.25
385.787	759.25
386.013	769.25
386.238	752.25
386.463	775.25
386.688	835.25
386.913	841.25
387.138	843.25
387.363	809.25
387.588	786.25
387.813	780.25
388.038	807.25
388.263	820.25
388.488	769.25
388.713	724.25
388.938	755.25
389.163	721.25
389.387	763.25
389.612	752.25
389.837	777.25
390.062	752.25
390.287	774.25
390.512	751.25
390.736	735.25
390.961	729.25
391.186	736.25
391.411	722.25
391.636	753.25
391.86	749.25
392.085	745.25
392.31	758.25
392.534	757.25
392.759	767.25
392.984	755.25
393.208	776.25
393.433	818.25
393.658	851.25
393.882	804.25
394.107	759.25
394.331	759.25
394.556	777.25
394.78	769.25
395.005	817.25
395.229	874.25
395.454	898.25
395.678	889.25
395.903	868.25
396.127	780.25
396.352	818.25
396.576	865.25
396.801	858.25
397.025	831.25
397.249	864.25
397.474	851.25
397.698	848.25
397.922	871.25
398.147	899.25
398.371	915.25
398.595	910.25
398.82	876.25
399.044	915.25
399.268	931.25
399.492	967.25
399.717	1001.25
399.941	992.25
400.165	969.25
400.389	981.25
400.613	983.25
400.837	1123.25
401.062	1201.25
401.286	1034.25
401.51	972.25
401.734	998.25
401.958	971.25
402.182	923.25
402.406	869.25
402.63	855.25
402.854	887.25
403.078	903.25
403.302	901.25
403.526	907.25
403.75	947.25
403.974	940.25
404.198	948.25
404.422	955.25
404.645	1031.25
404.869	997.25
405.093	900.25
405.317	912.25
405.541	921.25
405.765	923.25
405.988	905.25
406.212	923.25
406.436	960.25
406.66	1007.25
406.883	975.25
407.107	1169.25
407.331	1266.25
407.555	1282.25
407.778	1151.25
408.002	999.25
408.226	959.25
408.449	984.25
408.673	951.25
408.896	944.25
409.12	943.25
409.344	929.25
409.567	921.25
409.791	969.25
410.014	978.25
410.238	1034.25
410.461	1075.25
410.685	964.25
410.908	932.25
411.132	972.25
411.355	932.25
411.578	923.25
411.802	945.25
412.025	953.25
412.249	925.25
412.472	893.25
412.695	921.25
412.919	909.25
413.142	920.25
413.365	920.25
413.589	931.25
413.812	1025.25
414.035	1030.25
414.258	959.25
414.482	921.25
414.705	931.25
414.928	936.25
415.151	922.25
415.374	928.25
415.597	933.25
415.821	923.25
416.044	943.25
416.267	945.25
416.49	934.25
416.713	908.25
416.936	974.25
417.159	987.25
417.382	989.25
417.605	912.25
417.828	945.25
418.051	964.25
418.274	966.25
418.497	925.25
418.72	929.25
418.943	941.25
419.166	944.25
419.389	1005.25
419.611	963.25
419.834	959.25
420.057	965.25
420.28	933.25
420.503	967.25
420.726	973.25
420.948	922.25
421.171	937.25
421.394	969.25
421.617	995.25
421.839	983.25
422.062	993.25
422.285	940.25
422.507	951.25
422.73	916.25
422.953	899.25
423.175	883.25
423.398	919.25
423.621	935.25
423.843	925.25
424.066	966.25
424.288	1056.25
424.511	1037.25
424.733	1027.25
424.956	919.25
425.178	943.25
425.401	922.25
425.623	975.25
425.846	946.25
426.068	1002.25
426.291	976.25
426.513	991.25
426.735	974.25
426.958	1075.25
427.18	1099.25
427.402	1013.25
427.625	1036.25
427.847	978.25
428.069	945.25
428.292	945.25
428.514	891.25
428.736	905.25
428.958	920.25
429.181	965.25
429.403	1079.25
429.625	1247.25
429.847	1092.25
430.069	992.25
430.292	1091.25
430.514	1000.25
430.736	962.25
430.958	1016.25
431.18	945.25
431.402	908.25
431.624	854.25
431.846	827.25
432.068	736.25
432.29	757.25
432.512	827.25
432.734	905.25
432.956	938.25
433.178	994.25
433.4	971.25
433.622	942.25
433.844	867.25
434.066	854.25
434.287	807.25
434.509	774.25
434.731	838.25
434.953	941.25
435.175	945.25
435.397	937.25
435.618	894.25
435.84	846.25
436.062	844.25
436.284	928.25
436.505	939.25
436.727	974.25
436.949	955.25
437.17	915.25
437.392	878.25
437.614	841.25
437.835	820.25
438.057	840.25
438.278	867.25
438.5	841.25
438.721	905.25
438.943	913.25
439.165	925.25
439.386	914.25
439.608	967.25
439.829	968.25
440.05	966.25
440.272	969.25
440.493	952.25
440.715	993.25
440.936	1010.25
441.158	1075.25
441.379	1032.25
441.6	1049.25
441.822	1035.25
442.043	1013.25
442.264	1004.25
442.486	967.25
442.707	932.25
442.928	978.25
443.149	980.25
443.371	1034.25
443.592	1031.25
443.813	1035.25
444.034	1020.25
444.255	999.25
444.476	1025.25
444.698	1084.25
444.919	1041.25
445.14	1159.25
445.361	1081.25
445.582	1073.25
445.803	1067.25
446.024	1065.25
446.245	1068.25
446.466	1056.25
446.687	1050.25
446.908	1092.25
447.129	1059.25
447.35	1025.25
447.571	1003.25
447.792	1005.25
448.013	955.25
448.234	987.25
448.455	988.25
448.675	998.25
448.896	946.25
449.117	959.25
449.338	956.25
449.559	1000.25
449.779	945.25
450	1024.25
450.221	1075.25
450.442	1022.25
450.662	935.25
450.883	879.25
451.104	888.25
451.324	885.25
451.545	889.25
451.766	877.25
451.986	821.25
452.207	828.25
452.428	805.25
452.648	799.25
452.869	796.25
453.089	767.25
453.31	763.25
453.53	780.25
453.751	749.25
453.971	709.25
454.192	748.25
454.412	779.25
454.633	798.25
454.853	793.25
455.073	787.25
455.294	779.25
455.514	784.25
455.734	751.25
455.955	787.25
456.175	768.25
456.395	724.25
456.616	724.25
456.836	743.25
457.056	750.25
457.276	722.25
457.497	714.25
457.717	685.25
457.937	727.25
458.157	712.25
458.377	691.25
458.598	689.25
458.818	689.25
459.038	688.25
459.258	732.25
459.478	720.25
459.698	709.25
459.918	748.25
460.138	816.25
460.358	849.25
460.578	838.25
460.798	876.25
461.018	879.25
461.238	867.25
461.458	860.25
461.678	843.25
461.898	825.25
462.118	822.25
462.338	819.25
462.558	880.25
462.777	861.25
462.997	870.25
463.217	899.25
463.437	855.25
463.657	858.25
463.876	831.25
464.096	823.25
464.316	844.25
464.536	877.25
464.755	859.25
464.975	890.25
465.195	873.25
465.414	897.25
465.634	893.25
465.854	879.25
466.073	988.25
466.293	970.25
466.512	873.25
466.732	872.25
466.951	915.25
467.171	893.25
467.391	869.25
467.61	880.25
467.829	921.25
468.049	992.25
468.268	1046.25
468.488	975.25
468.707	927.25
468.927	924.25
469.146	928.25
469.365	916.25
469.585	937.25
469.804	911.25
470.023	938.25
470.243	937.25
470.462	937.25
470.681	910.25
470.901	963.25
471.12	922.25
471.339	963.25
471.558	913.25
471.777	916.25
471.997	887.25
472.216	861.25
472.435	759.25
472.654	793.25
472.873	816.25
473.092	846.25
473.311	831.25
473.53	823.25
473.749	833.25
473.968	849.25
474.187	864.25
474.406	855.25
474.625	837.25
474.844	882.25
475.063	887.25
475.282	857.25
475.501	835.25
475.72	852.25
475.939	917.25
476.158	908.25
476.377	881.25
476.596	844.25
476.814	858.25
477.033	815.25
477.252	891.25
477.471	893.25
477.69	912.25
477.908	941.25
478.127	976.25
478.346	1030.25
478.564	1002.25
478.783	1020.25
479.002	1068.25
479.22	1024.25
479.439	1037.25
479.658	1068.25
479.876	997.25
480.095	941.25
480.313	921.25
480.532	886.25
480.751	864.25
480.969	853.25
481.188	796.25
481.406	815.25
481.624	798.25
481.843	799.25
482.061	858.25
482.28	895.25
482.498	915.25
482.717	873.25
482.935	897.25
483.153	977.25
483.372	1032.25
483.59	1041.25
483.808	970.25
484.027	961.25
484.245	994.25
484.463	1247.25
484.681	1328.25
484.9	1052.25
485.118	933.25
485.336	938.25
485.554	931.25
485.772	908.25
485.99	881.25
486.209	924.25
486.427	904.25
486.645	957.25
486.863	1028.25
487.081	1041.25
487.299	1005.25
487.517	1027.25
487.735	1114.25
487.953	1187.25
488.171	1210.25
488.389	1126.25
488.607	1125.25
488.825	1171.25
489.043	1076.25
489.261	1004.25
489.479	1039.25
489.696	1087.25
489.914	1070.25
490.132	1054.25
490.35	1085.25
490.568	1179.25
490.786	1171.25
491.003	1220.25
491.221	1255.25
491.439	1307.25
491.657	1330.25
491.874	1393.25
492.092	1435.25
492.31	1498.25
492.527	1477.25
492.745	1383.25
492.963	1299.25
493.18	1346.25
493.398	1358.25
493.615	1388.25
493.833	1268.25
494.05	1232.25
494.268	1238.25
494.485	1238.25
494.703	1244.25
494.92	1236.25
495.138	1259.25
495.355	1280.25
495.573	1270.25
495.79	1312.25
496.008	1286.25
496.225	1266.25
496.442	1265.25
496.66	1249.25
496.877	1211.25
497.094	1243.25
497.312	1203.25
497.529	1203.25
497.746	1191.25
497.963	1296.25
498.181	1313.25
498.398	1263.25
498.615	1202.25
498.832	1163.25
499.049	1161.25
499.267	1179.25
499.484	1275.25
499.701	1338.25
499.918	1384.25
500.135	1451.25
500.352	1555.25
500.569	1555.25
500.786	1722.25
501.003	1538.25
501.22	1439.25
501.437	1394.25
501.654	1458.25
501.871	1325.25
502.088	1231.25
502.305	1163.25
502.522	1141.25
502.739	1113.25
502.956	1135.25
503.172	1053.25
503.389	1036.25
503.606	1010.25
503.823	981.25
504.04	983.25
504.256	1001.25
504.473	1021.25
504.69	1016.25
504.907	1029.25
505.123	961.25
505.34	1110.25
505.557	1357.25
505.773	1152.25
505.99	999.25
506.207	921.25
506.423	882.25
506.64	906.25
506.856	940.25
507.073	1045.25
507.289	1117.25
507.506	1031.25
507.722	890.25
507.939	873.25
508.155	884.25
508.372	819.25
508.588	825.25
508.805	819.25
509.021	801.25
509.238	777.25
509.454	792.25
509.67	761.25
509.887	749.25
510.103	724.25
510.319	733.25
510.536	778.25
510.752	784.25
510.968	787.25
511.184	794.25
511.401	795.25
511.617	721.25
511.833	711.25
512.049	707.25
512.265	695.25
512.481	738.25
512.698	764.25
512.914	773.25
513.13	770.25
513.346	723.25
513.562	707.25
513.778	710.25
513.994	767.25
514.21	739.25
514.426	783.25
514.642	823.25
514.858	769.25
515.074	734.25
515.29	741.25
515.506	735.25
515.721	752.25
515.937	748.25
516.153	811.25
516.369	799.25
516.585	755.25
516.801	715.25
517.016	754.25
517.232	769.25
517.448	769.25
517.664	785.25
517.879	794.25
518.095	819.25
518.311	794.25
518.527	758.25
518.742	754.25
518.958	745.25
519.173	754.25
519.389	785.25
519.605	775.25
519.82	812.25
520.036	756.25
520.251	773.25
520.467	763.25
520.682	827.25
520.898	797.25
521.113	716.25
521.329	728.25
521.544	764.25
521.76	785.25
521.975	733.25
522.19	699.25
522.406	745.25
522.621	957.25
522.836	886.25
523.052	753.25
523.267	740.25
523.482	764.25
523.698	789.25
523.913	748.25
524.128	771.25
524.343	827.25
524.559	851.25
524.774	803.25
524.989	784.25
525.204	775.25
525.419	745.25
525.634	743.25
525.849	761.25
526.064	725.25
526.28	727.25
526.495	671.25
526.71	647.25
526.925	628.25
527.14	615.25
527.355	602.25
527.57	629.25
527.785	675.25
527.999	676.25
528.214	667.25
528.429	720.25
528.644	745.25
528.859	784.25
529.074	831.25
529.289	886.25
529.503	885.25
529.718	817.25
529.933	764.25
530.148	695.25
530.363	645.25
530.577	635.25
530.792	643.25
531.007	639.25
531.221	631.25
531.436	634.25
531.651	662.25
531.865	668.25
532.08	677.25
532.295	618.25
532.509	611.25
532.724	635.25
532.938	657.25
533.153	706.25
533.367	732.25
533.582	754.25
533.796	730.25
534.011	736.25
534.225	646.25
534.44	608.25
534.654	634.25
534.868	676.25
535.083	695.25
535.297	700.25
535.511	700.25
535.726	705.25
535.94	686.25
536.154	657.25
536.369	618.25
536.583	599.25
536.797	618.25
537.011	644.25
537.225	593.25
537.44	618.25
537.654	661.25
537.868	625.25
538.082	608.25
538.296	599.25
538.51	641.25
538.724	706.25
538.938	714.25
539.153	756.25
539.367	730.25
539.581	707.25
539.795	670.25
540.009	647.25
540.222	643.25
540.436	698.25
540.65	746.25
540.864	818.25
541.078	819.25
541.292	880.25
541.506	887.25
541.72	983.25
541.934	1047.25
542.147	1086.25
542.361	1009.25
542.575	919.25
542.789	844.25
543.002	767.25
543.216	779.25
543.43	780.25
543.644	817.25
543.857	884.25
544.071	913.25
544.285	931.25
544.498	926.25
544.712	918.25
544.925	946.25
545.139	973.25
545.352	945.25
545.566	936.25
545.779	939.25
545.993	967.25
546.206	983.25
546.42	971.25
546.633	948.25
546.847	953.25
547.06	936.25
547.274	963.25
547.487	996.25
547.7	977.25
547.914	1003.25
548.127	964.25
548.34	973.25
548.554	927.25
548.767	921.25
548.98	943.25
549.193	927.25
549.407	987.25
549.62	970.25
549.833	906.25
550.046	907.25
550.259	911.25
550.473	910.25
550.686	897.25
550.899	874.25
551.112	870.25
551.325	825.25
551.538	841.25
551.751	890.25
551.964	745.25
552.177	724.25
552.39	795.25
552.603	847.25
552.816	877.25
553.029	889.25
553.242	948.25
553.455	934.25
553.667	945.25
553.88	915.25
554.093	890.25
554.306	853.25
554.519	836.25
554.732	821.25
554.944	850.25
555.157	837.25
555.37	841.25
555.583	806.25
555.795	769.25
556.008	716.25
556.221	720.25
556.433	722.25
556.646	733.25
556.859	763.25
557.071	747.25
557.284	743.25
557.496	758.25
557.709	754.25
557.921	775.25
558.134	741.25
558.346	748.25
558.559	738.25
558.771	739.25
558.984	717.25
559.196	682.25
559.409	682.25
559.621	655.25
559.833	656.25
560.046	668.25
560.258	672.25
560.47	668.25
560.683	688.25
560.895	687.25
561.107	674.25
561.32	653.25
561.532	713.25
561.744	674.25
561.956	676.25
562.168	689.25
562.381	653.25
562.593	665.25
562.805	643.25
563.017	634.25
563.229	640.25
563.441	664.25
563.653	639.25
563.865	612.25
564.077	616.25
564.289	625.25
564.501	639.25
564.713	609.25
564.925	669.25
565.137	677.25
565.349	641.25
565.561	623.25
565.773	619.25
565.985	628.25
566.197	675.25
566.408	704.25
566.62	703.25
566.832	694.25
567.044	669.25
567.255	677.25
567.467	661.25
567.679	667.25
567.891	652.25
568.102	632.25
568.314	555.25
568.526	537.25
568.737	562.25
568.949	500.25
569.161	468.25
569.372	455.25
569.584	459.25
569.795	465.25
570.007	460.25
570.218	441.25
570.43	453.25
570.641	457.25
570.853	468.25
571.064	481.25
571.276	473.25
571.487	473.25
571.698	479.25
571.91	470.25
572.121	461.25
572.333	456.25
572.544	423.25
572.755	410.25
572.966	402.25
573.178	392.25
573.389	399.25
573.6	402.25
573.811	441.25
574.023	427.25
574.234	399.25
574.445	392.25
574.656	399.25
574.867	408.25
575.078	411.25
575.289	406.25
575.501	418.25
575.712	407.25
575.923	391.25
576.134	406.25
576.345	406.25
576.556	405.25
576.767	379.25
576.978	391.25
577.188	390.25
577.399	373.25
577.61	373.25
577.821	364.25
578.032	356.25
578.243	386.25
578.454	370.25
578.665	360.25
578.875	359.25
579.086	353.25
579.297	353.25
579.508	366.25
579.718	352.25
579.929	358.25
580.14	339.25
580.35	354.25
580.561	346.25
580.772	385.25
580.982	372.25
581.193	356.25
581.403	364.25
581.614	352.25
581.825	343.25
582.035	348.25
582.246	337.25
582.456	363.25
582.667	347.25
582.877	362.25
583.087	355.25
583.298	343.25
583.508	327.25
583.719	323.25
583.929	349.25
584.139	317.25
584.35	309.25
584.56	326.25
584.77	327.25
584.981	329.25
585.191	333.25
585.401	315.25
585.611	317.25
585.821	333.25
586.032	345.25
586.242	321.25
586.452	315.25
586.662	325.25
586.872	312.25
587.082	299.25
587.292	327.25
587.502	327.25
587.713	314.25
587.923	313.25
588.133	335.25
588.343	332.25
588.553	326.25
588.762	292.25
588.972	317.25
589.182	320.25
589.392	306.25
589.602	323.25
589.812	316.25
590.022	314.25
590.232	308.25
590.441	329.25
590.651	345.25
590.861	296.25
591.071	284.25
591.281	314.25
591.49	308.25
591.7	298.25
591.91	325.25
592.119	317.25
592.329	325.25
592.539	322.25
592.748	312.25
592.958	329.25
593.167	331.25
593.377	331.25
593.587	307.25
593.796	333.25
594.006	330.25
594.215	322.25
594.424	339.25
594.634	339.25
594.843	338.25
595.053	343.25
595.262	331.25
595.472	332.25
595.681	321.25
595.89	316.25
596.1	316.25
596.309	328.25
596.518	329.25
596.727	338.25
596.937	354.25
597.146	325.25
597.355	329.25
597.564	319.25
597.774	303.25
597.983	282.25
598.192	278.25
598.401	306.25
598.61	298.25
598.819	286.25
599.028	311.25
599.237	287.25
599.446	285.25
599.655	304.25
599.864	296.25
600.073	305.25
600.282	300.25
600.491	292.25
600.7	308.25
600.909	283.25
601.118	319.25
601.327	341.25
601.536	348.25
601.745	351.25
601.953	337.25
602.162	354.25
602.371	338.25
602.58	368.25
602.789	370.25
602.997	376.25
603.206	347.25
603.415	348.25
603.623	373.25
603.832	342.25
604.041	341.25
604.249	310.25
604.458	323.25
604.666	311.25
604.875	307.25
605.084	313.25
605.292	337.25
605.501	363.25
605.709	363.25
605.918	376.25
606.126	353.25
606.334	338.25
606.543	355.25
606.751	368.25
606.96	370.25
607.168	358.25
607.376	349.25
607.585	349.25
607.793	365.25
608.001	357.25
608.21	363.25
608.418	383.25
608.626	349.25
608.834	370.25
609.043	361.25
609.251	367.25
609.459	351.25
609.667	356.25
609.875	364.25
610.083	380.25
610.291	390.25
610.499	369.25
610.707	342.25
610.916	372.25
611.124	355.25
611.332	363.25
611.54	372.25
611.748	379.25
611.955	370.25
612.163	365.25
612.371	364.25
612.579	372.25
612.787	371.25
612.995	371.25
613.203	365.25
613.411	353.25
613.618	333.25
613.826	373.25
614.034	372.25
614.242	381.25
614.449	359.25
614.657	373.25
614.865	356.25
615.072	374.25
615.28	351.25
615.488	371.25
615.695	374.25
615.903	381.25
616.111	355.25
616.318	359.25
616.526	375.25
616.733	375.25
616.941	366.25
617.148	375.25
617.356	356.25
617.563	348.25
617.771	345.25
617.978	328.25
618.185	345.25
618.393	331.25
618.6	358.25
618.807	361.25
619.015	327.25
619.222	337.25
619.429	327.25
619.637	307.25
619.844	311.25
620.051	324.25
620.258	324.25
620.466	321.25
620.673	315.25
620.88	316.25
621.087	311.25
621.294	310.25
621.501	303.25
621.708	285.25
621.915	327.25
622.122	338.25
622.329	324.25
622.536	346.25
622.743	327.25
622.95	300.25
623.157	319.25
623.364	306.25
623.571	341.25
623.778	322.25
623.985	327.25
624.192	333.25
624.399	337.25
624.606	316.25
624.812	313.25
625.019	301.25
625.226	295.25
625.433	278.25
625.639	273.25
625.846	248.25
626.053	245.25
626.259	257.25
626.466	258.25
626.673	259.25
626.879	236.25
627.086	259.25
627.293	271.25
627.499	271.25
627.706	300.25
627.912	304.25
628.119	303.25
628.325	296.25
628.532	323.25
628.738	291.25
628.945	266.25
629.151	277.25
629.357	285.25
629.564	286.25
629.77	281.25
629.976	248.25
630.183	279.25
630.389	265.25
630.595	297.25
630.802	290.25
631.008	296.25
631.214	275.25
631.42	275.25
631.627	255.25
631.833	262.25
632.039	267.25
632.245	256.25
632.451	258.25
632.657	278.25
632.863	275.25
633.069	263.25
633.275	277.25
633.481	261.25
633.688	260.25
633.893	248.25
634.099	264.25
634.305	256.25
634.511	257.25
634.717	259.25
634.923	218.25
635.129	229.25
635.335	232.25
635.541	236.25
635.747	241.25
635.952	247.25
636.158	262.25
636.364	255.25
636.57	262.25
636.775	269.25
636.981	276.25
637.187	275.25
637.392	260.25
637.598	242.25
637.804	263.25
638.009	259.25
638.215	268.25
638.421	251.25
638.626	275.25
638.832	245.25
639.037	241.25
639.243	233.25
639.448	239.25
639.654	259.25
639.859	247.25
640.065	254.25
640.27	290.25
640.475	273.25
640.681	248.25
640.886	244.25
641.091	264.25
641.297	274.25
641.502	265.25
641.707	250.25
641.913	259.25
642.118	253.25
642.323	245.25
642.528	262.25
642.733	261.25
642.939	249.25
643.144	243.25
643.349	238.25
643.554	229.25
643.759	254.25
643.964	236.25
644.169	244.25
644.374	239.25
644.579	247.25
644.784	263.25
644.989	240.25
645.194	252.25
645.399	260.25
645.604	249.25
645.809	233.25
646.014	246.25
646.219	239.25
646.423	239.25
646.628	240.25
646.833	235.25
647.038	235.25
647.243	242.25
647.447	228.25
647.652	244.25
647.857	264.25
648.062	232.25
648.266	240.25
648.471	250.25
648.676	249.25
648.88	244.25
649.085	241.25
649.289	246.25
649.494	243.25
649.698	251.25
649.903	212.25
650.107	236.25
650.312	240.25
650.516	226.25
650.721	230.25
650.925	234.25
651.13	212.25
651.334	218.25
651.539	228.25
651.743	223.25
651.947	212.25
652.152	217.25
652.356	213.25
652.56	202.25
652.764	217.25
652.969	209.25
653.173	214.25
653.377	200.25
653.581	211.25
653.785	211.25
653.99	216.25
654.194	207.25
654.398	195.25
654.602	203.25
654.806	223.25
655.01	208.25
655.214	205.25
655.418	197.25
655.622	199.25
655.826	200.25
656.03	204.25
656.234	230.25
656.438	224.25
656.642	237.25
656.846	212.25
657.049	193.25
657.253	203.25
657.457	191.25
657.661	175.25
657.865	179.25
658.068	161.25
658.272	148.25
658.476	148.25
658.68	163.25
658.883	162.25
659.087	139.25
659.291	131.25
659.494	134.25
659.698	137.25
659.901	132.25
660.105	125.25
660.309	127.25
660.512	117.25
660.716	106.25
660.919	107.25
661.123	120.25
661.326	109.25
661.53	110.25
661.733	113.25
661.936	116.25
662.14	109.25
662.343	109.25
662.546	99.25
662.75	92.25
662.953	109.25
663.156	77.25
663.36	85.25
663.563	92.25
663.766	68.25
663.969	83.25
664.173	89.25
664.376	93.25
664.579	85.25
664.782	96.25
664.985	80.25
665.188	83.25
665.391	88.25
665.594	76.25
665.797	75.25
666	78.25
666.203	84.25
666.406	76.25
666.609	75.25
666.812	89.25
667.015	78.25
667.218	76.25
667.421	93.25
667.624	78.25
667.827	77.25
668.03	79.25
668.232	74.25
668.435	75.25
668.638	92.25
668.841	79.25
669.043	86.25
669.246	80.25
669.449	76.25
669.651	69.25
669.854	91.25
670.057	80.25
670.259	67.25
670.462	76.25
670.665	82.25
670.867	84.25
671.07	73.25
671.272	82.25
671.475	81.25
671.677	100.25
671.88	82.25
672.082	75.25
672.284	99.25
672.487	87.25
672.689	81.25
672.892	86.25
