Data from WStandard_LampEnergy5.5LIBS07252019.E.O._I.C._HRD10591_16-09-30-920.txt Node
Date: Thu Jul 25 16:09:30 EDT 2019
User: cochatt
Spectrometer: HR+D1059
Trigger mode: 1
Integration Time (sec): 1.000000E-1
Scans to average: 1
Electric dark correction enabled: true
Nonlinearity correction enabled: false
Boxcar width: 0
XAxis mode: Wavelengths
Number of Pixels in Spectrum: 2048
>>>>>Begin Spectral Data<<<<<
223.165	-14.56
223.4	-14.56
223.635	-14.56
223.869	-28.56
224.104	-24.56
224.338	-14.56
224.573	1.44
224.808	-15.56
225.042	-15.56
225.277	-5.56
225.511	-5.56
225.746	2.44
225.98	10.44
226.215	5.44
226.449	12.44
226.683	14.44
226.918	31.44
227.152	46.44
227.387	32.44
227.621	41.44
227.856	37.44
228.09	44.44
228.324	36.44
228.559	63.44
228.793	149.44
229.027	348.44
229.262	383.44
229.496	367.44
229.73	392.44
229.964	413.44
230.199	455.44
230.433	459.44
230.667	479.44
230.901	517.44
231.136	471.44
231.37	461.44
231.604	437.44
231.838	454.44
232.072	466.44
232.306	435.44
232.541	450.44
232.775	534.44
233.009	629.44
233.243	595.44
233.477	517.44
233.711	524.44
233.945	543.44
234.179	532.44
234.413	580.44
234.647	632.44
234.881	573.44
235.115	531.44
235.349	533.44
235.583	530.44
235.817	546.44
236.051	525.44
236.285	532.44
236.519	589.44
236.753	628.44
236.987	645.44
237.221	649.44
237.455	736.44
237.689	708.44
237.922	642.44
238.156	629.44
238.39	646.44
238.624	700.44
238.858	709.44
239.091	751.44
239.325	803.44
239.559	883.44
239.793	931.44
240.027	1012.44
240.26	1018.44
240.494	746.44
240.728	711.44
240.961	711.44
241.195	726.44
241.429	804.44
241.662	788.44
241.896	737.44
242.13	752.44
242.363	845.44
242.597	891.44
242.83	863.44
243.064	872.44
243.298	937.44
243.531	924.44
243.765	907.44
243.998	902.44
244.232	789.44
244.465	779.44
244.699	789.44
244.932	915.44
245.166	994.44
245.399	959.44
245.633	892.44
245.866	874.44
246.099	938.44
246.333	913.44
246.566	963.44
246.8	1020.44
247.033	1131.44
247.266	1069.44
247.5	999.44
247.733	1060.44
247.966	1066.44
248.2	1219.44
248.433	1169.44
248.666	1190.44
248.899	1278.44
249.133	1516.44
249.366	1739.44
249.599	1380.44
249.832	1211.44
250.066	1217.44
250.299	1282.44
250.532	1153.44
250.765	1047.44
250.998	1120.44
251.231	1177.44
251.465	1204.44
251.698	1149.44
251.931	1151.44
252.164	1179.44
252.397	1240.44
252.63	1264.44
252.863	1079.44
253.096	1043.44
253.329	1107.44
253.562	1136.44
253.795	1249.44
254.028	1254.44
254.261	1126.44
254.494	1138.44
254.727	1107.44
254.96	1136.44
255.193	1215.44
255.426	1362.44
255.659	1587.44
255.892	1660.44
256.124	1371.44
256.357	1293.44
256.59	1422.44
256.823	1403.44
257.056	1380.44
257.289	1665.44
257.521	1871.44
257.754	1667.44
257.987	1544.44
258.22	1759.44
258.452	1705.44
258.685	1384.44
258.918	1317.44
259.151	1337.44
259.383	1310.44
259.616	1117.44
259.849	1218.44
260.081	1340.44
260.314	1504.44
260.547	1657.44
260.779	1701.44
261.012	1563.44
261.244	1371.44
261.477	1315.44
261.71	1411.44
261.942	1396.44
262.175	1327.44
262.407	1425.44
262.64	1378.44
262.872	1295.44
263.105	1233.44
263.337	1254.44
263.57	1266.44
263.802	1283.44
264.035	1238.44
264.267	1139.44
264.499	1106.44
264.732	1194.44
264.964	1244.44
265.197	1288.44
265.429	1358.44
265.661	1516.44
265.894	1661.44
266.126	1763.44
266.358	1539.44
266.591	1604.44
266.823	1818.44
267.055	1578.44
267.287	1541.44
267.52	1530.44
267.752	1514.44
267.984	1506.44
268.216	1599.44
268.448	1667.44
268.681	1613.44
268.913	1494.44
269.145	1393.44
269.377	1347.44
269.609	1492.44
269.841	1735.44
270.073	1988.44
270.306	2190.44
270.538	2370.44
270.77	1977.44
271.002	1675.44
271.234	1607.44
271.466	1572.44
271.698	1768.44
271.93	2125.44
272.162	2154.44
272.394	1954.44
272.626	1850.44
272.858	1652.44
273.09	1441.44
273.322	1413.44
273.553	1334.44
273.785	1362.44
274.017	1421.44
274.249	1539.44
274.481	1546.44
274.713	1427.44
274.945	1389.44
275.176	1383.44
275.408	1404.44
275.64	1364.44
275.872	1340.44
276.104	1411.44
276.335	1625.44
276.567	1799.44
276.799	1892.44
277.031	1700.44
277.262	1580.44
277.494	1666.44
277.726	1855.44
277.957	1810.44
278.189	1667.44
278.421	1511.44
278.652	1455.44
278.884	1468.44
279.115	1430.44
279.347	1498.44
279.579	1410.44
279.81	1410.44
280.042	1587.44
280.273	1757.44
280.505	1689.44
280.736	1731.44
280.968	1714.44
281.199	1473.44
281.431	1433.44
281.662	1459.44
281.894	1431.44
282.125	1443.44
282.356	1523.44
282.588	1524.44
282.819	1506.44
283.051	1642.44
283.282	1736.44
283.513	1756.44
283.745	1541.44
283.976	1417.44
284.207	1415.44
284.439	1471.44
284.67	1474.44
284.901	1514.44
285.132	1544.44
285.364	1510.44
285.595	1491.44
285.826	1502.44
286.057	1483.44
286.288	1524.44
286.52	1547.44
286.751	1663.44
286.982	1748.44
287.213	1615.44
287.444	1427.44
287.675	1475.44
287.906	1543.44
288.138	1642.44
288.369	1584.44
288.6	1491.44
288.831	1437.44
289.062	1464.44
289.293	1507.44
289.524	1490.44
289.755	1531.44
289.986	1562.44
290.217	1438.44
290.448	1427.44
290.679	1509.44
290.91	1542.44
291.141	1563.44
291.371	1653.44
291.602	1611.44
291.833	1543.44
292.064	1651.44
292.295	1611.44
292.526	1694.44
292.757	1688.44
292.987	1634.44
293.218	1516.44
293.449	1643.44
293.68	1850.44
293.91	2010.44
294.141	1843.44
294.372	1780.44
294.603	1852.44
294.833	1913.44
295.064	1776.44
295.295	1624.44
295.525	1547.44
295.756	1405.44
295.987	1398.44
296.217	1452.44
296.448	1459.44
296.679	1494.44
296.909	1486.44
297.14	1488.44
297.37	1487.44
297.601	1592.44
297.831	1687.44
298.062	1706.44
298.292	1564.44
298.523	1533.44
298.753	1525.44
298.984	1525.44
299.214	1540.44
299.445	1560.44
299.675	1645.44
299.905	1602.44
300.136	1570.44
300.366	1495.44
300.597	1474.44
300.827	1465.44
301.057	1539.44
301.288	1636.44
301.518	1617.44
301.748	1637.44
301.979	1749.44
302.209	1735.44
302.439	1819.44
302.669	1911.44
302.9	1808.44
303.13	1615.44
303.36	1623.44
303.59	1677.44
303.82	1604.44
304.051	1597.44
304.281	1632.44
304.511	1599.44
304.741	1719.44
304.971	1907.44
305.201	1989.44
305.431	1929.44
305.661	1595.44
305.891	1447.44
306.121	1417.44
306.352	1476.44
306.582	1565.44
306.812	1665.44
307.042	1795.44
307.272	1780.44
307.502	1827.44
307.731	1964.44
307.961	2111.44
308.191	1963.44
308.421	1699.44
308.651	1611.44
308.881	1547.44
309.111	1562.44
309.341	1571.44
309.571	1581.44
309.8	1587.44
310.03	1572.44
310.26	1544.44
310.49	1542.44
310.72	1574.44
310.949	1633.44
311.179	1672.44
311.409	1666.44
311.639	1584.44
311.868	1594.44
312.098	1555.44
312.328	1569.44
312.557	1545.44
312.787	1616.44
313.017	1673.44
313.246	1640.44
313.476	1609.44
313.706	1656.44
313.935	1619.44
314.165	1653.44
314.394	1701.44
314.624	1807.44
314.853	1861.44
315.083	1947.44
315.312	2035.44
315.542	1905.44
315.771	1660.44
316.001	1690.44
316.23	1775.44
316.46	1745.44
316.689	1745.44
316.919	1645.44
317.148	1609.44
317.377	1594.44
317.607	1714.44
317.836	1993.44
318.065	1997.44
318.295	1973.44
318.524	1871.44
318.753	1732.44
318.983	1785.44
319.212	1704.44
319.441	1683.44
319.67	1666.44
319.9	1725.44
320.129	1792.44
320.358	1876.44
320.587	1919.44
320.816	1920.44
321.046	1845.44
321.275	1796.44
321.504	1748.44
321.733	1968.44
321.962	1933.44
322.191	1732.44
322.42	1727.44
322.649	1690.44
322.878	1708.44
323.108	1684.44
323.337	1741.44
323.566	1768.44
323.795	1754.44
324.024	1783.44
324.253	1755.44
324.482	1785.44
324.71	1749.44
324.939	1617.44
325.168	1691.44
325.397	1700.44
325.626	1783.44
325.855	1796.44
326.084	1713.44
326.313	1688.44
326.542	1723.44
326.77	1768.44
326.999	1779.44
327.228	1701.44
327.457	1643.44
327.686	1625.44
327.914	1649.44
328.143	1728.44
328.372	1712.44
328.6	1711.44
328.829	1693.44
329.058	1655.44
329.287	1704.44
329.515	1751.44
329.744	1785.44
329.972	1809.44
330.201	1924.44
330.43	1855.44
330.658	1829.44
330.887	1819.44
331.115	1804.44
331.344	1832.44
331.572	1825.44
331.801	1777.44
332.03	1824.44
332.258	1798.44
332.486	1832.44
332.715	1839.44
332.943	1874.44
333.172	1801.44
333.4	1852.44
333.629	1896.44
333.857	1953.44
334.085	2172.44
334.314	2431.44
334.542	2655.44
334.771	2471.44
334.999	2187.44
335.227	2035.44
335.455	1969.44
335.684	1939.44
335.912	1951.44
336.14	2017.44
336.369	1988.44
336.597	1833.44
336.825	1857.44
337.053	1882.44
337.281	1964.44
337.51	2038.44
337.738	2169.44
337.966	2085.44
338.194	1889.44
338.422	1854.44
338.65	1839.44
338.878	1810.44
339.106	1762.44
339.334	1745.44
339.562	1706.44
339.79	1752.44
340.018	1853.44
340.246	1876.44
340.474	1960.44
340.702	1854.44
340.93	1879.44
341.158	1832.44
341.386	1842.44
341.614	1816.44
341.842	1767.44
342.07	1817.44
342.298	1824.44
342.526	1834.44
342.754	1790.44
342.981	1819.44
343.209	1765.44
343.437	1777.44
343.665	1781.44
343.893	1827.44
344.12	1937.44
344.348	1958.44
344.576	1883.44
344.804	1791.44
345.031	1736.44
345.259	1804.44
345.487	1797.44
345.714	1691.44
345.942	1652.44
346.17	1632.44
346.397	1700.44
346.625	1717.44
346.853	1613.44
347.08	1599.44
347.308	1601.44
347.535	1687.44
347.763	1692.44
347.99	1690.44
348.218	1613.44
348.445	1657.44
348.673	1634.44
348.9	1714.44
349.128	1741.44
349.355	1841.44
349.583	1776.44
349.81	1701.44
350.037	1578.44
350.265	1564.44
350.492	1625.44
350.72	1634.44
350.947	1672.44
351.174	1727.44
351.402	1643.44
351.629	1567.44
351.856	1536.44
352.083	1540.44
352.311	1581.44
352.538	1611.44
352.765	1661.44
352.992	1720.44
353.22	1695.44
353.447	1610.44
353.674	1627.44
353.901	1689.44
354.128	1597.44
354.355	1610.44
354.583	1703.44
354.81	1729.44
355.037	1703.44
355.264	1701.44
355.491	1642.44
355.718	1677.44
355.945	1655.44
356.172	1615.44
356.399	1603.44
356.626	1645.44
356.853	1652.44
357.08	1759.44
357.307	1936.44
357.534	1971.44
357.761	1732.44
357.988	1588.44
358.215	1542.44
358.441	1603.44
358.668	1594.44
358.895	1576.44
359.122	1663.44
359.349	1845.44
359.576	1848.44
359.802	1671.44
360.029	1594.44
360.256	1599.44
360.483	1602.44
360.709	1680.44
360.936	1717.44
361.163	1745.44
361.39	1919.44
361.616	2074.44
361.843	2043.44
362.07	1932.44
362.296	1695.44
362.523	1609.44
362.749	1646.44
362.976	1655.44
363.203	1658.44
363.429	1672.44
363.656	1624.44
363.882	1634.44
364.109	1781.44
364.335	1984.44
364.562	1799.44
364.788	1707.44
365.015	1660.44
365.241	1593.44
365.468	1657.44
365.694	1711.44
365.92	1807.44
366.147	1720.44
366.373	1606.44
366.599	1621.44
366.826	1619.44
367.052	1593.44
367.278	1638.44
367.505	1656.44
367.731	1662.44
367.957	1683.44
368.184	1708.44
368.41	1794.44
368.636	1867.44
368.862	1863.44
369.089	1842.44
369.315	1817.44
369.541	1758.44
369.767	1640.44
369.993	1641.44
370.219	1659.44
370.445	1676.44
370.672	1740.44
370.898	1831.44
371.124	1881.44
371.35	1755.44
371.576	1792.44
371.802	1821.44
372.028	1805.44
372.254	1724.44
372.48	1677.44
372.706	1650.44
372.932	1663.44
373.158	1683.44
373.384	1701.44
373.61	1760.44
373.835	1847.44
374.061	1735.44
374.287	1717.44
374.513	1734.44
374.739	1755.44
374.965	1741.44
375.191	1761.44
375.416	1789.44
375.642	1795.44
375.868	1878.44
376.094	1945.44
376.319	1897.44
376.545	1711.44
376.771	1731.44
376.997	1841.44
377.222	1859.44
377.448	1801.44
377.674	1853.44
377.899	1799.44
378.125	1869.44
378.35	1869.44
378.576	1754.44
378.802	1685.44
379.027	1683.44
379.253	1696.44
379.478	1707.44
379.704	1731.44
379.929	1724.44
380.155	1734.44
380.38	1753.44
380.606	1763.44
380.831	1732.44
381.057	1822.44
381.282	1845.44
381.507	1796.44
381.733	1908.44
381.958	1985.44
382.184	1834.44
382.409	1789.44
382.634	1821.44
382.86	1773.44
383.085	1822.44
383.31	1853.44
383.535	1959.44
383.761	2114.44
383.986	2047.44
384.211	1948.44
384.436	1952.44
384.662	2005.44
384.887	2121.44
385.112	1967.44
385.337	2011.44
385.562	1968.44
385.787	1947.44
386.013	2022.44
386.238	2060.44
386.463	1994.44
386.688	2111.44
386.913	2241.44
387.138	2228.44
387.363	2056.44
387.588	2082.44
387.813	2032.44
388.038	2058.44
388.263	2089.44
388.488	2051.44
388.713	1947.44
388.938	1873.44
389.163	1882.44
389.387	1964.44
389.612	1972.44
389.837	2003.44
390.062	1987.44
390.287	1991.44
390.512	1975.44
390.736	1979.44
390.961	1924.44
391.186	1852.44
391.411	1905.44
391.636	1955.44
391.86	2032.44
392.085	2020.44
392.31	1956.44
392.534	2016.44
392.759	2018.44
392.984	1969.44
393.208	1980.44
393.433	2026.44
393.658	2116.44
393.882	2136.44
394.107	1991.44
394.331	1984.44
394.556	1962.44
394.78	2009.44
395.005	2048.44
395.229	2095.44
395.454	2227.44
395.678	2234.44
395.903	2204.44
396.127	2071.44
396.352	2109.44
396.576	2223.44
396.801	2191.44
397.025	2151.44
397.249	2123.44
397.474	2100.44
397.698	2135.44
397.922	2159.44
398.147	2270.44
398.371	2361.44
398.595	2339.44
398.82	2276.44
399.044	2340.44
399.268	2462.44
399.492	2565.44
399.717	2706.44
399.941	2693.44
400.165	2642.44
400.389	2535.44
400.613	2522.44
400.837	2777.44
401.062	3195.44
401.286	2735.44
401.51	2444.44
401.734	2565.44
401.958	2579.44
402.182	2380.44
402.406	2227.44
402.63	2211.44
402.854	2258.44
403.078	2294.44
403.302	2353.44
403.526	2356.44
403.75	2357.44
403.974	2398.44
404.198	2372.44
404.422	2401.44
404.645	2548.44
404.869	2479.44
405.093	2326.44
405.317	2329.44
405.541	2343.44
405.765	2395.44
405.988	2347.44
406.212	2425.44
406.436	2465.44
406.66	2519.44
406.883	2558.44
407.107	2817.44
407.331	3078.44
407.555	3259.44
407.778	3074.44
408.002	2579.44
408.226	2493.44
408.449	2524.44
408.673	2468.44
408.896	2394.44
409.12	2474.44
409.344	2452.44
409.567	2364.44
409.791	2401.44
410.014	2409.44
410.238	2525.44
410.461	2689.44
410.685	2391.44
410.908	2301.44
411.132	2333.44
411.355	2323.44
411.578	2338.44
411.802	2318.44
412.025	2352.44
412.249	2287.44
412.472	2236.44
412.695	2225.44
412.919	2264.44
413.142	2263.44
413.365	2244.44
413.589	2329.44
413.812	2438.44
414.035	2446.44
414.258	2246.44
414.482	2252.44
414.705	2320.44
414.928	2269.44
415.151	2208.44
415.374	2260.44
415.597	2284.44
415.821	2287.44
416.044	2357.44
416.267	2408.44
416.49	2158.44
416.713	2122.44
416.936	2199.44
417.159	2328.44
417.382	2309.44
417.605	2187.44
417.828	2260.44
418.051	2329.44
418.274	2226.44
418.497	2151.44
418.72	2178.44
418.943	2139.44
419.166	2307.44
419.389	2428.44
419.611	2297.44
419.834	2233.44
420.057	2245.44
420.28	2198.44
420.503	2167.44
420.726	2240.44
420.948	2209.44
421.171	2148.44
421.394	2155.44
421.617	2229.44
421.839	2247.44
422.062	2174.44
422.285	2154.44
422.507	2143.44
422.73	2079.44
422.953	2072.44
423.175	2071.44
423.398	2168.44
423.621	2169.44
423.843	2204.44
424.066	2209.44
424.288	2291.44
424.511	2301.44
424.733	2244.44
424.956	2079.44
425.178	2060.44
425.401	2108.44
425.623	2121.44
425.846	2071.44
426.068	2195.44
426.291	2223.44
426.513	2218.44
426.735	2179.44
426.958	2324.44
427.18	2509.44
427.402	2266.44
427.625	2332.44
427.847	2301.44
428.069	2170.44
428.292	2122.44
428.514	2020.44
428.736	2043.44
428.958	2121.44
429.181	2099.44
429.403	2376.44
429.625	2956.44
429.847	2561.44
430.069	2160.44
430.292	2353.44
430.514	2453.44
430.736	2233.44
430.958	2381.44
431.18	2222.44
431.402	2104.44
431.624	2034.44
431.846	2115.44
432.068	2073.44
432.29	2032.44
432.512	2113.44
432.734	2190.44
432.956	2195.44
433.178	2275.44
433.4	2236.44
433.622	2240.44
433.844	2181.44
434.066	2122.44
434.287	2067.44
434.509	2163.44
434.731	2241.44
434.953	2404.44
435.175	2373.44
435.397	2247.44
435.618	2265.44
435.84	2242.44
436.062	2187.44
436.284	2166.44
436.505	2207.44
436.727	2285.44
436.949	2187.44
437.17	2128.44
437.392	2129.44
437.614	2179.44
437.835	2047.44
438.057	2150.44
438.278	2274.44
438.5	2112.44
438.721	2092.44
438.943	2132.44
439.165	2067.44
439.386	2029.44
439.608	2072.44
439.829	2075.44
440.05	2090.44
440.272	2034.44
440.493	2025.44
440.715	2021.44
440.936	2203.44
441.158	2457.44
441.379	2323.44
441.6	2297.44
441.822	2219.44
442.043	2251.44
442.264	2183.44
442.486	2096.44
442.707	2099.44
442.928	2047.44
443.149	2177.44
443.371	2258.44
443.592	2395.44
443.813	2278.44
444.034	2268.44
444.255	2311.44
444.476	2376.44
444.698	2372.44
444.919	2353.44
445.14	2396.44
445.361	2433.44
445.582	2476.44
445.803	2378.44
446.024	2275.44
446.245	2332.44
446.466	2269.44
446.687	2171.44
446.908	2181.44
447.129	2114.44
447.35	2201.44
447.571	2161.44
447.792	2028.44
448.013	2040.44
448.234	2106.44
448.455	2205.44
448.675	2186.44
448.896	2016.44
449.117	1979.44
449.338	2019.44
449.559	2140.44
449.779	2230.44
450	2476.44
450.221	2631.44
450.442	2604.44
450.662	2223.44
450.883	1989.44
451.104	1954.44
451.324	2010.44
451.545	2060.44
451.766	1980.44
451.986	1924.44
452.207	1979.44
452.428	1896.44
452.648	1837.44
452.869	1891.44
453.089	2040.44
453.31	2032.44
453.53	2108.44
453.751	2030.44
453.971	1892.44
454.192	1959.44
454.412	2062.44
454.633	2026.44
454.853	1957.44
455.073	1815.44
455.294	1785.44
455.514	1847.44
455.734	1849.44
455.955	1872.44
456.175	1899.44
456.395	1852.44
456.616	1878.44
456.836	1978.44
457.056	1888.44
457.276	1938.44
457.497	1864.44
457.717	1826.44
457.937	1804.44
458.157	1882.44
458.377	1880.44
458.598	1877.44
458.818	1880.44
459.038	1995.44
459.258	2152.44
459.478	2077.44
459.698	2048.44
459.918	2093.44
460.138	2184.44
460.358	2200.44
460.578	2208.44
460.798	2306.44
461.018	2454.44
461.238	2333.44
461.458	2229.44
461.678	2263.44
461.898	2246.44
462.118	2171.44
462.338	2248.44
462.558	2263.44
462.777	2273.44
462.997	2342.44
463.217	2501.44
463.437	2501.44
463.657	2335.44
463.876	2244.44
464.096	2254.44
464.316	2272.44
464.536	2357.44
464.755	2354.44
464.975	2359.44
465.195	2282.44
465.414	2367.44
465.634	2357.44
465.854	2207.44
466.073	2330.44
466.293	2330.44
466.512	2054.44
466.732	2076.44
466.951	2152.44
467.171	2108.44
467.391	1978.44
467.61	1991.44
467.829	2027.44
468.049	2172.44
468.268	2403.44
468.488	2260.44
468.707	2168.44
468.927	2066.44
469.146	2021.44
469.365	2029.44
469.585	2029.44
469.804	1997.44
470.023	2048.44
470.243	2104.44
470.462	2064.44
470.681	1988.44
470.901	2051.44
471.12	2049.44
471.339	2060.44
471.558	1964.44
471.777	1956.44
471.997	2019.44
472.216	1975.44
472.435	1940.44
472.654	1956.44
472.873	2070.44
473.092	2130.44
473.311	2084.44
473.53	1956.44
473.749	1964.44
473.968	2003.44
474.187	2145.44
474.406	2218.44
474.625	2111.44
474.844	2062.44
475.063	2105.44
475.282	2113.44
475.501	2059.44
475.72	2071.44
475.939	2171.44
476.158	2122.44
476.377	2079.44
476.596	2110.44
476.814	2129.44
477.033	2155.44
477.252	2223.44
477.471	2304.44
477.69	2176.44
477.908	2166.44
478.127	2249.44
478.346	2487.44
478.564	2455.44
478.783	2412.44
479.002	2533.44
479.22	2450.44
479.439	2536.44
479.658	2874.44
479.876	2867.44
480.095	2479.44
480.313	2423.44
480.532	2305.44
480.751	2306.44
480.969	2368.44
481.188	2309.44
481.406	2296.44
481.624	2223.44
481.843	2256.44
482.061	2355.44
482.28	2394.44
482.498	2399.44
482.717	2397.44
482.935	2282.44
483.153	2314.44
483.372	2286.44
483.59	2255.44
483.808	2289.44
484.027	2317.44
484.245	2481.44
484.463	2832.44
484.681	3283.44
484.9	2565.44
485.118	2390.44
485.336	2303.44
485.554	2443.44
485.772	2512.44
485.99	2483.44
486.209	2490.44
486.427	2505.44
486.645	2464.44
486.863	2414.44
487.081	2500.44
487.299	2552.44
487.517	2513.44
487.735	2410.44
487.953	2373.44
488.171	2354.44
488.389	2357.44
488.607	2366.44
488.825	2596.44
489.043	2606.44
489.261	2387.44
489.479	2493.44
489.696	2579.44
489.914	2566.44
490.132	2465.44
490.35	2412.44
490.568	2550.44
490.786	2439.44
491.003	2295.44
491.221	2383.44
491.439	2460.44
491.657	2463.44
491.874	2464.44
492.092	2485.44
492.31	2497.44
492.527	2464.44
492.745	2408.44
492.963	2481.44
493.18	2499.44
493.398	2712.44
493.615	2793.44
493.833	2584.44
494.05	2480.44
494.268	2483.44
494.485	2613.44
494.703	2512.44
494.92	2453.44
495.138	2511.44
495.355	2509.44
495.573	2571.44
495.79	2725.44
496.008	2793.44
496.225	2583.44
496.442	2615.44
496.66	2655.44
496.877	2583.44
497.094	2748.44
497.312	2754.44
497.529	2722.44
497.746	2799.44
497.963	3189.44
498.181	3632.44
498.398	3316.44
498.615	3212.44
498.832	3270.44
499.049	3205.44
499.267	3178.44
499.484	3433.44
499.701	3707.44
499.918	3725.44
500.135	4009.44
500.352	4255.44
500.569	4203.44
500.786	4438.44
501.003	4182.44
501.22	3818.44
501.437	3653.44
501.654	3648.44
501.871	3527.44
502.088	3143.44
502.305	3120.44
502.522	3054.44
502.739	2855.44
502.956	2760.44
503.172	2756.44
503.389	2679.44
503.606	2644.44
503.823	2654.44
504.04	2648.44
504.256	2649.44
504.473	2684.44
504.69	2737.44
504.907	2595.44
505.123	2439.44
505.34	2579.44
505.557	3284.44
505.773	2840.44
505.99	2421.44
506.207	2296.44
506.423	2266.44
506.64	2233.44
506.856	2264.44
507.073	2530.44
507.289	2720.44
507.506	2616.44
507.722	2289.44
507.939	2135.44
508.155	2153.44
508.372	2199.44
508.588	2135.44
508.805	2033.44
509.021	2097.44
509.238	2082.44
509.454	2021.44
509.67	2069.44
509.887	2026.44
510.103	2034.44
510.319	1988.44
510.536	2187.44
510.752	2220.44
510.968	2152.44
511.184	2385.44
511.401	2306.44
511.617	2036.44
511.833	2028.44
512.049	2005.44
512.265	1994.44
512.481	1943.44
512.698	2056.44
512.914	2208.44
513.13	2163.44
513.346	2011.44
513.562	1964.44
513.778	2009.44
513.994	2098.44
514.21	2113.44
514.426	2180.44
514.642	2433.44
514.858	2239.44
515.074	2092.44
515.29	2031.44
515.506	2065.44
515.721	2144.44
515.937	2114.44
516.153	2431.44
516.369	2297.44
516.585	2160.44
516.801	2079.44
517.016	2086.44
517.232	2154.44
517.448	2212.44
517.664	2171.44
517.879	2183.44
518.095	2298.44
518.311	2249.44
518.527	2119.44
518.742	2081.44
518.958	2033.44
519.173	2031.44
519.389	2099.44
519.605	2051.44
519.82	2081.44
520.036	2090.44
520.251	2003.44
520.467	2038.44
520.682	2147.44
520.898	2264.44
521.113	2026.44
521.329	1985.44
521.544	2134.44
521.76	2071.44
521.975	1956.44
522.19	1875.44
522.406	1923.44
522.621	2250.44
522.836	2301.44
523.052	1923.44
523.267	1911.44
523.482	1960.44
523.698	1825.44
523.913	1826.44
524.128	1882.44
524.343	1947.44
524.559	1995.44
524.774	1883.44
524.989	1877.44
525.204	1892.44
525.419	1803.44
525.634	1762.44
525.849	1817.44
526.064	1845.44
526.28	1827.44
526.495	1780.44
526.71	1805.44
526.925	1784.44
527.14	1765.44
527.355	1734.44
527.57	1707.44
527.785	1810.44
527.999	1746.44
528.214	1666.44
528.429	1656.44
528.644	1704.44
528.859	1750.44
529.074	1739.44
529.289	1732.44
529.503	1736.44
529.718	1774.44
529.933	1735.44
530.148	1695.44
530.363	1716.44
530.577	1732.44
530.792	1751.44
531.007	1755.44
531.221	1713.44
531.436	1757.44
531.651	1802.44
531.865	1881.44
532.08	1820.44
532.295	1709.44
532.509	1676.44
532.724	1668.44
532.938	1791.44
533.153	1851.44
533.367	1749.44
533.582	1726.44
533.796	1655.44
534.011	1767.44
534.225	1761.44
534.44	1734.44
534.654	1675.44
534.868	1675.44
535.083	1794.44
535.297	1809.44
535.511	1707.44
535.726	1748.44
535.94	1717.44
536.154	1685.44
536.369	1692.44
536.583	1621.44
536.797	1620.44
537.011	1677.44
537.225	1621.44
537.44	1625.44
537.654	1681.44
537.868	1670.44
538.082	1559.44
538.296	1573.44
538.51	1537.44
538.724	1567.44
538.938	1539.44
539.153	1602.44
539.367	1633.44
539.581	1623.44
539.795	1694.44
540.009	1657.44
540.222	1618.44
540.436	1640.44
540.65	1791.44
540.864	1809.44
541.078	1687.44
541.292	1599.44
541.506	1633.44
541.72	1600.44
541.934	1633.44
542.147	1675.44
542.361	1633.44
542.575	1583.44
542.789	1535.44
543.002	1522.44
543.216	1563.44
543.43	1661.44
543.644	1683.44
543.857	1769.44
544.071	1675.44
544.285	1672.44
544.498	1583.44
544.712	1628.44
544.925	1638.44
545.139	1634.44
545.352	1594.44
545.566	1514.44
545.779	1546.44
545.993	1520.44
546.206	1587.44
546.42	1532.44
546.633	1492.44
546.847	1491.44
547.06	1497.44
547.274	1528.44
547.487	1512.44
547.7	1484.44
547.914	1513.44
548.127	1581.44
548.34	1534.44
548.554	1601.44
548.767	1533.44
548.98	1529.44
549.193	1534.44
549.407	1583.44
549.62	1609.44
549.833	1505.44
550.046	1539.44
550.259	1547.44
550.473	1509.44
550.686	1536.44
550.899	1477.44
551.112	1480.44
551.325	1457.44
551.538	1543.44
551.751	1794.44
551.964	1474.44
552.177	1436.44
552.39	1444.44
552.603	1493.44
552.816	1510.44
553.029	1571.44
553.242	1579.44
553.455	1516.44
553.667	1504.44
553.88	1510.44
554.093	1480.44
554.306	1425.44
554.519	1399.44
554.732	1400.44
554.944	1420.44
555.157	1449.44
555.37	1407.44
555.583	1424.44
555.795	1425.44
556.008	1352.44
556.221	1339.44
556.433	1316.44
556.646	1343.44
556.859	1360.44
557.071	1312.44
557.284	1310.44
557.496	1303.44
557.709	1268.44
557.921	1284.44
558.134	1286.44
558.346	1300.44
558.559	1270.44
558.771	1270.44
558.984	1239.44
559.196	1212.44
559.409	1228.44
559.621	1226.44
559.833	1235.44
560.046	1297.44
560.258	1282.44
560.47	1259.44
560.683	1237.44
560.895	1246.44
561.107	1247.44
561.32	1265.44
561.532	1246.44
561.744	1245.44
561.956	1235.44
562.168	1192.44
562.381	1202.44
562.593	1216.44
562.805	1212.44
563.017	1194.44
563.229	1209.44
563.441	1290.44
563.653	1230.44
563.865	1226.44
564.077	1203.44
564.289	1219.44
564.501	1223.44
564.713	1266.44
564.925	1299.44
565.137	1398.44
565.349	1305.44
565.561	1283.44
565.773	1320.44
565.985	1326.44
566.197	1388.44
566.408	1463.44
566.62	1493.44
566.832	1467.44
567.044	1504.44
567.255	1480.44
567.467	1504.44
567.679	1580.44
567.891	1578.44
568.102	1548.44
568.314	1483.44
568.526	1421.44
568.737	1344.44
568.949	1332.44
569.161	1285.44
569.372	1203.44
569.584	1209.44
569.795	1197.44
570.007	1177.44
570.218	1146.44
570.43	1101.44
570.641	1118.44
570.853	1140.44
571.064	1112.44
571.276	1120.44
571.487	1094.44
571.698	1079.44
571.91	1040.44
572.121	1043.44
572.333	1016.44
572.544	1017.44
572.755	1001.44
572.966	1000.44
573.178	980.44
573.389	994.44
573.6	1023.44
573.811	1087.44
574.023	1029.44
574.234	965.44
574.445	927.44
574.656	913.44
574.867	902.44
575.078	961.44
575.289	940.44
575.501	927.44
575.712	913.44
575.923	934.44
576.134	915.44
576.345	903.44
576.556	902.44
576.767	883.44
576.978	899.44
577.188	844.44
577.399	846.44
577.61	861.44
577.821	855.44
578.032	835.44
578.243	866.44
578.454	869.44
578.665	845.44
578.875	855.44
579.086	859.44
579.297	867.44
579.508	897.44
579.718	833.44
579.929	854.44
580.14	831.44
580.35	808.44
580.561	819.44
580.772	919.44
580.982	837.44
581.193	797.44
581.403	793.44
581.614	812.44
581.825	820.44
582.035	810.44
582.246	823.44
582.456	829.44
582.667	829.44
582.877	809.44
583.087	811.44
583.298	780.44
583.508	783.44
583.719	793.44
583.929	805.44
584.139	797.44
584.35	771.44
584.56	761.44
584.77	770.44
584.981	768.44
585.191	789.44
585.401	798.44
585.611	785.44
585.821	788.44
586.032	741.44
586.242	770.44
586.452	740.44
586.662	744.44
586.872	747.44
587.082	757.44
587.292	775.44
587.502	775.44
587.713	773.44
587.923	767.44
588.133	761.44
588.343	743.44
588.553	728.44
588.762	760.44
588.972	731.44
589.182	758.44
589.392	767.44
589.602	771.44
589.812	771.44
590.022	748.44
590.232	728.44
590.441	739.44
590.651	762.44
590.861	734.44
591.071	720.44
591.281	711.44
591.49	728.44
591.7	729.44
591.91	727.44
592.119	735.44
592.329	751.44
592.539	772.44
592.748	761.44
592.958	760.44
593.167	762.44
593.377	778.44
593.587	795.44
593.796	771.44
594.006	769.44
594.215	775.44
594.424	797.44
594.634	785.44
594.843	753.44
595.053	801.44
595.262	768.44
595.472	732.44
595.681	735.44
595.89	718.44
596.1	700.44
596.309	736.44
596.518	694.44
596.727	699.44
596.937	688.44
597.146	646.44
597.355	679.44
597.564	683.44
597.774	620.44
597.983	652.44
598.192	651.44
598.401	650.44
598.61	642.44
598.819	648.44
599.028	624.44
599.237	620.44
599.446	618.44
599.655	633.44
599.864	607.44
600.073	621.44
600.282	618.44
600.491	593.44
600.7	580.44
600.909	603.44
601.118	611.44
601.327	614.44
601.536	628.44
601.745	625.44
601.953	606.44
602.162	626.44
602.371	608.44
602.58	595.44
602.789	600.44
602.997	585.44
603.206	581.44
603.415	595.44
603.623	624.44
603.832	581.44
604.041	580.44
604.249	568.44
604.458	601.44
604.666	580.44
604.875	567.44
605.084	572.44
605.292	596.44
605.501	570.44
605.709	572.44
605.918	570.44
606.126	574.44
606.334	552.44
606.543	521.44
606.751	544.44
606.96	553.44
607.168	568.44
607.376	563.44
607.585	549.44
607.793	546.44
608.001	554.44
608.21	565.44
608.418	569.44
608.626	531.44
608.834	533.44
609.043	547.44
609.251	547.44
609.459	557.44
609.667	547.44
609.875	556.44
610.083	559.44
610.291	581.44
610.499	557.44
610.707	536.44
610.916	539.44
611.124	533.44
611.332	550.44
611.54	557.44
611.748	556.44
611.955	509.44
612.163	539.44
612.371	529.44
612.579	512.44
612.787	527.44
612.995	526.44
613.203	538.44
613.411	528.44
613.618	520.44
613.826	523.44
614.034	532.44
614.242	523.44
614.449	520.44
614.657	510.44
614.865	514.44
615.072	509.44
615.28	501.44
615.488	497.44
615.695	547.44
615.903	509.44
616.111	532.44
616.318	533.44
616.526	499.44
616.733	508.44
616.941	500.44
617.148	479.44
617.356	519.44
617.563	519.44
617.771	496.44
617.978	498.44
618.185	474.44
618.393	497.44
618.6	474.44
618.807	501.44
619.015	513.44
619.222	494.44
619.429	472.44
619.637	474.44
619.844	482.44
620.051	483.44
620.258	481.44
620.466	465.44
620.673	468.44
620.88	470.44
621.087	453.44
621.294	459.44
621.501	469.44
621.708	460.44
621.915	463.44
622.122	475.44
622.329	504.44
622.536	483.44
622.743	484.44
622.95	475.44
623.157	436.44
623.364	448.44
623.571	452.44
623.778	459.44
623.985	461.44
624.192	449.44
624.399	471.44
624.606	439.44
624.812	458.44
625.019	452.44
625.226	443.44
625.433	436.44
625.639	431.44
625.846	444.44
626.053	413.44
626.259	433.44
626.466	433.44
626.673	409.44
626.879	389.44
627.086	404.44
627.293	424.44
627.499	418.44
627.706	420.44
627.912	413.44
628.119	416.44
628.325	412.44
628.532	411.44
628.738	416.44
628.945	405.44
629.151	391.44
629.357	396.44
629.564	396.44
629.77	400.44
629.976	411.44
630.183	391.44
630.389	395.44
630.595	388.44
630.802	403.44
631.008	380.44
631.214	396.44
631.42	371.44
631.627	375.44
631.833	368.44
632.039	379.44
632.245	380.44
632.451	357.44
632.657	383.44
632.863	387.44
633.069	376.44
633.275	371.44
633.481	364.44
633.688	371.44
633.893	357.44
634.099	364.44
634.305	352.44
634.511	367.44
634.717	351.44
634.923	347.44
635.129	349.44
635.335	348.44
635.541	364.44
635.747	348.44
635.952	343.44
636.158	351.44
636.364	353.44
636.57	364.44
636.775	364.44
636.981	353.44
637.187	360.44
637.392	349.44
637.598	349.44
637.804	350.44
638.009	353.44
638.215	348.44
638.421	340.44
638.626	351.44
638.832	336.44
639.037	346.44
639.243	349.44
639.448	340.44
639.654	332.44
639.859	332.44
640.065	315.44
640.27	331.44
640.475	324.44
640.681	336.44
640.886	330.44
641.091	337.44
641.297	345.44
641.502	328.44
641.707	324.44
641.913	337.44
642.118	324.44
642.323	326.44
642.528	309.44
642.733	326.44
642.939	308.44
643.144	320.44
643.349	321.44
643.554	296.44
643.759	323.44
643.964	314.44
644.169	323.44
644.374	321.44
644.579	305.44
644.784	314.44
644.989	312.44
645.194	319.44
645.399	315.44
645.604	305.44
645.809	311.44
646.014	312.44
646.219	327.44
646.423	315.44
646.628	327.44
646.833	325.44
647.038	300.44
647.243	303.44
647.447	304.44
647.652	311.44
647.857	314.44
648.062	333.44
648.266	296.44
648.471	320.44
648.676	317.44
648.88	316.44
649.085	320.44
649.289	306.44
649.494	308.44
649.698	303.44
649.903	307.44
650.107	291.44
650.312	290.44
650.516	296.44
650.721	284.44
650.925	283.44
651.13	296.44
651.334	292.44
651.539	277.44
651.743	273.44
651.947	263.44
652.152	262.44
652.356	276.44
652.56	251.44
652.764	260.44
652.969	258.44
653.173	269.44
653.377	259.44
653.581	247.44
653.785	260.44
653.99	231.44
654.194	242.44
654.398	252.44
654.602	251.44
654.806	241.44
655.01	244.44
655.214	245.44
655.418	254.44
655.622	251.44
655.826	261.44
656.03	271.44
656.234	279.44
656.438	257.44
656.642	260.44
656.846	278.44
657.049	235.44
657.253	229.44
657.457	217.44
657.661	199.44
657.865	192.44
658.068	178.44
658.272	168.44
658.476	155.44
658.68	162.44
658.883	146.44
659.087	157.44
659.291	135.44
659.494	141.44
659.698	129.44
659.901	129.44
660.105	128.44
660.309	118.44
660.512	115.44
660.716	112.44
660.919	94.44
661.123	103.44
661.326	116.44
661.53	117.44
661.733	108.44
661.936	99.44
662.14	87.44
662.343	93.44
662.546	87.44
662.75	84.44
662.953	96.44
663.156	88.44
663.36	103.44
663.563	97.44
663.766	90.44
663.969	87.44
664.173	77.44
664.376	71.44
664.579	73.44
664.782	76.44
664.985	82.44
665.188	76.44
665.391	95.44
665.594	74.44
665.797	74.44
666	89.44
666.203	75.44
666.406	76.44
666.609	86.44
666.812	91.44
667.015	79.44
667.218	82.44
667.421	84.44
667.624	85.44
667.827	85.44
668.03	72.44
668.232	73.44
668.435	77.44
668.638	75.44
668.841	88.44
669.043	93.44
669.246	83.44
669.449	102.44
669.651	75.44
669.854	88.44
670.057	92.44
670.259	90.44
670.462	83.44
670.665	91.44
670.867	95.44
671.07	72.44
671.272	82.44
671.475	100.44
671.677	74.44
671.88	88.44
672.082	82.44
672.284	92.44
672.487	73.44
672.689	76.44
672.892	76.44
