Data from WStandard_LampEnergy8_LIBS07252019.E.O._I.C._HRD10591_15-59-49-929.txt Node
Date: Thu Jul 25 15:59:49 EDT 2019
User: cochatt
Spectrometer: HR+D1059
Trigger mode: 1
Integration Time (sec): 1.000000E-1
Scans to average: 1
Electric dark correction enabled: true
Nonlinearity correction enabled: false
Boxcar width: 0
XAxis mode: Wavelengths
Number of Pixels in Spectrum: 2048
>>>>>Begin Spectral Data<<<<<
223.165	-28.56
223.4	-28.56
223.635	-28.56
223.869	-20.56
224.104	-20.56
224.338	-40.56
224.573	-7.56
224.808	-13.56
225.042	2.44
225.277	-2.56
225.511	10.44
225.746	1.44
225.98	5.44
226.215	7.44
226.449	19.44
226.683	27.44
226.918	38.44
227.152	21.44
227.387	35.44
227.621	37.44
227.856	44.44
228.09	43.44
228.324	52.44
228.559	70.44
228.793	96.44
229.027	196.44
229.262	199.44
229.496	227.44
229.73	231.44
229.964	232.44
230.199	255.44
230.433	255.44
230.667	277.44
230.901	300.44
231.136	272.44
231.37	250.44
231.604	253.44
231.838	265.44
232.072	271.44
232.306	256.44
232.541	266.44
232.775	299.44
233.009	316.44
233.243	312.44
233.477	290.44
233.711	300.44
233.945	301.44
234.179	278.44
234.413	304.44
234.647	335.44
234.881	328.44
235.115	291.44
235.349	294.44
235.583	316.44
235.817	310.44
236.051	275.44
236.285	309.44
236.519	315.44
236.753	338.44
236.987	358.44
237.221	334.44
237.455	377.44
237.689	362.44
237.922	367.44
238.156	356.44
238.39	345.44
238.624	365.44
238.858	387.44
239.091	375.44
239.325	429.44
239.559	460.44
239.793	488.44
240.027	490.44
240.26	482.44
240.494	393.44
240.728	371.44
240.961	374.44
241.195	377.44
241.429	411.44
241.662	408.44
241.896	382.44
242.13	389.44
242.363	445.44
242.597	466.44
242.83	422.44
243.064	453.44
243.298	455.44
243.531	451.44
243.765	453.44
243.998	447.44
244.232	398.44
244.465	402.44
244.699	418.44
244.932	449.44
245.166	531.44
245.399	483.44
245.633	458.44
245.866	443.44
246.099	476.44
246.333	488.44
246.566	477.44
246.8	522.44
247.033	554.44
247.266	549.44
247.5	516.44
247.733	537.44
247.966	559.44
248.2	590.44
248.433	603.44
248.666	613.44
248.899	671.44
249.133	779.44
249.366	805.44
249.599	667.44
249.832	611.44
250.066	606.44
250.299	631.44
250.532	567.44
250.765	549.44
250.998	570.44
251.231	601.44
251.465	595.44
251.698	550.44
251.931	560.44
252.164	570.44
252.397	588.44
252.63	583.44
252.863	542.44
253.096	551.44
253.329	573.44
253.562	585.44
253.795	629.44
254.028	595.44
254.261	560.44
254.494	559.44
254.727	527.44
254.96	573.44
255.193	665.44
255.426	700.44
255.659	763.44
255.892	795.44
256.124	664.44
256.357	653.44
256.59	697.44
256.823	674.44
257.056	696.44
257.289	801.44
257.521	864.44
257.754	824.44
257.987	770.44
258.22	832.44
258.452	783.44
258.685	672.44
258.918	657.44
259.151	673.44
259.383	637.44
259.616	572.44
259.849	599.44
260.081	665.44
260.314	769.44
260.547	793.44
260.779	800.44
261.012	752.44
261.244	681.44
261.477	672.44
261.71	708.44
261.942	689.44
262.175	649.44
262.407	714.44
262.64	656.44
262.872	620.44
263.105	594.44
263.337	630.44
263.57	639.44
263.802	625.44
264.035	581.44
264.267	555.44
264.499	560.44
264.732	631.44
264.964	633.44
265.197	648.44
265.429	693.44
265.661	763.44
265.894	844.44
266.126	865.44
266.358	793.44
266.591	829.44
266.823	867.44
267.055	779.44
267.287	788.44
267.52	775.44
267.752	756.44
267.984	753.44
268.216	819.44
268.448	804.44
268.681	771.44
268.913	728.44
269.145	688.44
269.377	703.44
269.609	723.44
269.841	855.44
270.073	961.44
270.306	1099.44
270.538	1103.44
270.77	919.44
271.002	817.44
271.234	800.44
271.466	832.44
271.698	899.44
271.93	1047.44
272.162	1024.44
272.394	963.44
272.626	867.44
272.858	821.44
273.09	705.44
273.322	715.44
273.553	678.44
273.785	708.44
274.017	693.44
274.249	748.44
274.481	744.44
274.713	692.44
274.945	695.44
275.176	678.44
275.408	695.44
275.64	673.44
275.872	656.44
276.104	713.44
276.335	807.44
276.567	896.44
276.799	897.44
277.031	819.44
277.262	794.44
277.494	815.44
277.726	890.44
277.957	874.44
278.189	808.44
278.421	732.44
278.652	729.44
278.884	726.44
279.115	716.44
279.347	733.44
279.579	715.44
279.81	736.44
280.042	798.44
280.273	842.44
280.505	876.44
280.736	885.44
280.968	844.44
281.199	726.44
281.431	685.44
281.662	720.44
281.894	713.44
282.125	724.44
282.356	761.44
282.588	756.44
282.819	772.44
283.051	836.44
283.282	866.44
283.513	841.44
283.745	748.44
283.976	705.44
284.207	736.44
284.439	727.44
284.67	771.44
284.901	771.44
285.132	761.44
285.364	785.44
285.595	746.44
285.826	731.44
286.057	740.44
286.288	762.44
286.52	791.44
286.751	859.44
286.982	848.44
287.213	785.44
287.444	735.44
287.675	716.44
287.906	784.44
288.138	819.44
288.369	768.44
288.6	761.44
288.831	709.44
289.062	756.44
289.293	746.44
289.524	768.44
289.755	807.44
289.986	772.44
290.217	746.44
290.448	741.44
290.679	764.44
290.91	763.44
291.141	822.44
291.371	828.44
291.602	811.44
291.833	806.44
292.064	835.44
292.295	831.44
292.526	840.44
292.757	865.44
292.987	806.44
293.218	812.44
293.449	875.44
293.68	957.44
293.91	996.44
294.141	931.44
294.372	911.44
294.603	927.44
294.833	949.44
295.064	911.44
295.295	845.44
295.525	804.44
295.756	773.44
295.987	758.44
296.217	748.44
296.448	767.44
296.679	790.44
296.909	776.44
297.14	770.44
297.37	802.44
297.601	842.44
297.831	895.44
298.062	891.44
298.292	794.44
298.523	777.44
298.753	771.44
298.984	785.44
299.214	805.44
299.445	846.44
299.675	852.44
299.905	832.44
300.136	801.44
300.366	804.44
300.597	753.44
300.827	772.44
301.057	807.44
301.288	823.44
301.518	827.44
301.748	870.44
301.979	907.44
302.209	917.44
302.439	985.44
302.669	991.44
302.9	929.44
303.13	851.44
303.36	861.44
303.59	863.44
303.82	865.44
304.051	849.44
304.281	880.44
304.511	890.44
304.741	935.44
304.971	1014.44
305.201	1060.44
305.431	952.44
305.661	820.44
305.891	747.44
306.121	753.44
306.352	817.44
306.582	837.44
306.812	923.44
307.042	934.44
307.272	945.44
307.502	993.44
307.731	1076.44
307.961	1069.44
308.191	994.44
308.421	881.44
308.651	825.44
308.881	831.44
309.111	806.44
309.341	810.44
309.571	811.44
309.8	802.44
310.03	823.44
310.26	801.44
310.49	799.44
310.72	863.44
310.949	868.44
311.179	879.44
311.409	847.44
311.639	838.44
311.868	843.44
312.098	825.44
312.328	851.44
312.557	839.44
312.787	884.44
313.017	883.44
313.246	895.44
313.476	856.44
313.706	891.44
313.935	898.44
314.165	895.44
314.394	909.44
314.624	1004.44
314.853	1017.44
315.083	1067.44
315.312	1027.44
315.542	956.44
315.771	891.44
316.001	897.44
316.23	925.44
316.46	940.44
316.689	913.44
316.919	866.44
317.148	829.44
317.377	916.44
317.607	961.44
317.836	1074.44
318.065	1073.44
318.295	1059.44
318.524	996.44
318.753	955.44
318.983	966.44
319.212	917.44
319.441	889.44
319.67	920.44
319.9	950.44
320.129	964.44
320.358	1003.44
320.587	1013.44
320.816	1047.44
321.046	989.44
321.275	929.44
321.504	983.44
321.733	1052.44
321.962	1009.44
322.191	953.44
322.42	908.44
322.649	926.44
322.878	928.44
323.108	912.44
323.337	966.44
323.566	963.44
323.795	947.44
324.024	958.44
324.253	915.44
324.482	951.44
324.71	918.44
324.939	897.44
325.168	886.44
325.397	925.44
325.626	948.44
325.855	947.44
326.084	903.44
326.313	909.44
326.542	910.44
326.77	985.44
326.999	978.44
327.228	942.44
327.457	889.44
327.686	880.44
327.914	891.44
328.143	929.44
328.372	941.44
328.6	932.44
328.829	933.44
329.058	893.44
329.287	892.44
329.515	969.44
329.744	968.44
329.972	1013.44
330.201	1044.44
330.43	1000.44
330.658	981.44
330.887	953.44
331.115	1003.44
331.344	981.44
331.572	979.44
331.801	991.44
332.03	960.44
332.258	967.44
332.486	975.44
332.715	1015.44
332.943	1016.44
333.172	961.44
333.4	990.44
333.629	1049.44
333.857	1091.44
334.085	1204.44
334.314	1353.44
334.542	1425.44
334.771	1252.44
334.999	1155.44
335.227	1084.44
335.455	1053.44
335.684	1044.44
335.912	1073.44
336.14	1082.44
336.369	1054.44
336.597	998.44
336.825	998.44
337.053	1045.44
337.281	1084.44
337.51	1137.44
337.738	1159.44
337.966	1103.44
338.194	1013.44
338.422	981.44
338.65	961.44
338.878	953.44
339.106	968.44
339.334	943.44
339.562	934.44
339.79	955.44
340.018	997.44
340.246	1036.44
340.474	1053.44
340.702	989.44
340.93	1017.44
341.158	1017.44
341.386	1002.44
341.614	962.44
341.842	960.44
342.07	968.44
342.298	977.44
342.526	972.44
342.754	969.44
342.981	966.44
343.209	972.44
343.437	941.44
343.665	991.44
343.893	1023.44
344.12	1056.44
344.348	1064.44
344.576	995.44
344.804	963.44
345.031	968.44
345.259	973.44
345.487	964.44
345.714	901.44
345.942	904.44
346.17	918.44
346.397	926.44
346.625	932.44
346.853	899.44
347.08	890.44
347.308	932.44
347.535	929.44
347.763	987.44
347.99	943.44
348.218	919.44
348.445	900.44
348.673	934.44
348.9	943.44
349.128	992.44
349.355	986.44
349.583	953.44
349.81	928.44
350.037	876.44
350.265	869.44
350.492	889.44
350.72	891.44
350.947	938.44
351.174	933.44
351.402	885.44
351.629	866.44
351.856	849.44
352.083	868.44
352.311	884.44
352.538	883.44
352.765	936.44
352.992	948.44
353.22	900.44
353.447	906.44
353.674	930.44
353.901	908.44
354.128	900.44
354.355	877.44
354.583	959.44
354.81	953.44
355.037	964.44
355.264	939.44
355.491	925.44
355.718	926.44
355.945	922.44
356.172	917.44
356.399	899.44
356.626	924.44
356.853	925.44
357.08	1011.44
357.307	1103.44
357.534	1043.44
357.761	945.44
357.988	881.44
358.215	864.44
358.441	857.44
358.668	884.44
358.895	897.44
359.122	980.44
359.349	1017.44
359.576	1004.44
359.802	923.44
360.029	887.44
360.256	896.44
360.483	924.44
360.709	939.44
360.936	965.44
361.163	982.44
361.39	1108.44
361.616	1161.44
361.843	1096.44
362.07	1039.44
362.296	921.44
362.523	880.44
362.749	896.44
362.976	957.44
363.203	976.44
363.429	931.44
363.656	911.44
363.882	968.44
364.109	1093.44
364.335	1096.44
364.562	1028.44
364.788	972.44
365.015	912.44
365.241	898.44
365.468	927.44
365.694	972.44
365.92	990.44
366.147	970.44
366.373	921.44
366.599	919.44
366.826	908.44
367.052	908.44
367.278	915.44
367.505	938.44
367.731	947.44
367.957	951.44
368.184	986.44
368.41	1049.44
368.636	1047.44
368.862	1089.44
369.089	1059.44
369.315	1013.44
369.541	954.44
369.767	929.44
369.993	899.44
370.219	941.44
370.445	972.44
370.672	1018.44
370.898	1048.44
371.124	1027.44
371.35	1008.44
371.576	1026.44
371.802	1050.44
372.028	1019.44
372.254	963.44
372.48	955.44
372.706	929.44
372.932	924.44
373.158	969.44
373.384	976.44
373.61	987.44
373.835	1019.44
374.061	970.44
374.287	996.44
374.513	985.44
374.739	993.44
374.965	1023.44
375.191	1000.44
375.416	1015.44
375.642	1035.44
375.868	1103.44
376.094	1095.44
376.319	1051.44
376.545	996.44
376.771	1009.44
376.997	1037.44
377.222	1068.44
377.448	1031.44
377.674	1019.44
377.899	1053.44
378.125	1097.44
378.35	1077.44
378.576	980.44
378.802	970.44
379.027	931.44
379.253	963.44
379.478	972.44
379.704	977.44
379.929	988.44
380.155	991.44
380.38	988.44
380.606	986.44
380.831	1018.44
381.057	1069.44
381.282	1049.44
381.507	1040.44
381.733	1136.44
381.958	1127.44
382.184	1045.44
382.409	994.44
382.634	1043.44
382.86	1031.44
383.085	1035.44
383.31	1045.44
383.535	1175.44
383.761	1203.44
383.986	1151.44
384.211	1136.44
384.436	1119.44
384.662	1173.44
384.887	1226.44
385.112	1143.44
385.337	1141.44
385.562	1116.44
385.787	1143.44
386.013	1159.44
386.238	1169.44
386.463	1149.44
386.688	1225.44
386.913	1328.44
387.138	1257.44
387.363	1181.44
387.588	1184.44
387.813	1201.44
388.038	1177.44
388.263	1201.44
388.488	1144.44
388.713	1059.44
388.938	1103.44
389.163	1104.44
389.387	1138.44
389.612	1131.44
389.837	1155.44
390.062	1146.44
390.287	1142.44
390.512	1107.44
390.736	1069.44
390.961	1106.44
391.186	1089.44
391.411	1101.44
391.636	1111.44
391.86	1139.44
392.085	1115.44
392.31	1115.44
392.534	1133.44
392.759	1164.44
392.984	1107.44
393.208	1136.44
393.433	1172.44
393.658	1211.44
393.882	1213.44
394.107	1144.44
394.331	1137.44
394.556	1130.44
394.78	1166.44
395.005	1184.44
395.229	1240.44
395.454	1292.44
395.678	1317.44
395.903	1204.44
396.127	1190.44
396.352	1218.44
396.576	1233.44
396.801	1223.44
397.025	1228.44
397.249	1206.44
397.474	1227.44
397.698	1219.44
397.922	1249.44
398.147	1320.44
398.371	1353.44
398.595	1351.44
398.82	1318.44
399.044	1333.44
399.268	1372.44
399.492	1472.44
399.717	1514.44
399.941	1508.44
400.165	1444.44
400.389	1427.44
400.613	1460.44
400.837	1663.44
401.062	1819.44
401.286	1537.44
401.51	1404.44
401.734	1461.44
401.958	1379.44
402.182	1327.44
402.406	1292.44
402.63	1279.44
402.854	1279.44
403.078	1305.44
403.302	1327.44
403.526	1333.44
403.75	1352.44
403.974	1357.44
404.198	1346.44
404.422	1414.44
404.645	1511.44
404.869	1468.44
405.093	1348.44
405.317	1294.44
405.541	1362.44
405.765	1370.44
405.988	1362.44
406.212	1361.44
406.436	1402.44
406.66	1480.44
406.883	1476.44
407.107	1640.44
407.331	1763.44
407.555	1865.44
407.778	1672.44
408.002	1436.44
408.226	1418.44
408.449	1406.44
408.673	1345.44
408.896	1386.44
409.12	1380.44
409.344	1339.44
409.567	1338.44
409.791	1334.44
410.014	1382.44
410.238	1479.44
410.461	1510.44
410.685	1344.44
410.908	1327.44
411.132	1342.44
411.355	1343.44
411.578	1343.44
411.802	1336.44
412.025	1357.44
412.249	1346.44
412.472	1335.44
412.695	1295.44
412.919	1277.44
413.142	1272.44
413.365	1321.44
413.589	1353.44
413.812	1416.44
414.035	1411.44
414.258	1337.44
414.482	1303.44
414.705	1337.44
414.928	1313.44
415.151	1315.44
415.374	1320.44
415.597	1330.44
415.821	1320.44
416.044	1360.44
416.267	1357.44
416.49	1279.44
416.713	1297.44
416.936	1324.44
417.159	1343.44
417.382	1339.44
417.605	1274.44
417.828	1298.44
418.051	1309.44
418.274	1292.44
418.497	1261.44
418.72	1280.44
418.943	1285.44
419.166	1346.44
419.389	1402.44
419.611	1317.44
419.834	1257.44
420.057	1314.44
420.28	1295.44
420.503	1319.44
420.726	1317.44
420.948	1302.44
421.171	1240.44
421.394	1302.44
421.617	1321.44
421.839	1334.44
422.062	1303.44
422.285	1241.44
422.507	1276.44
422.73	1235.44
422.953	1213.44
423.175	1230.44
423.398	1256.44
423.621	1269.44
423.843	1241.44
424.066	1319.44
424.288	1353.44
424.511	1385.44
424.733	1336.44
424.956	1257.44
425.178	1241.44
425.401	1280.44
425.623	1268.44
425.846	1251.44
426.068	1313.44
426.291	1311.44
426.513	1325.44
426.735	1315.44
426.958	1398.44
427.18	1461.44
427.402	1370.44
427.625	1418.44
427.847	1360.44
428.069	1285.44
428.292	1259.44
428.514	1237.44
428.736	1242.44
428.958	1223.44
429.181	1253.44
429.403	1455.44
429.625	1739.44
429.847	1472.44
430.069	1312.44
430.292	1425.44
430.514	1427.44
430.736	1366.44
430.958	1380.44
431.18	1279.44
431.402	1219.44
431.624	1207.44
431.846	1185.44
432.068	1161.44
432.29	1154.44
432.512	1203.44
432.734	1228.44
432.956	1284.44
433.178	1344.44
433.4	1286.44
433.622	1281.44
433.844	1237.44
434.066	1195.44
434.287	1180.44
434.509	1186.44
434.731	1250.44
434.953	1364.44
435.175	1328.44
435.397	1287.44
435.618	1261.44
435.84	1257.44
436.062	1209.44
436.284	1264.44
436.505	1268.44
436.727	1299.44
436.949	1272.44
437.17	1233.44
437.392	1205.44
437.614	1183.44
437.835	1161.44
438.057	1265.44
438.278	1266.44
438.5	1213.44
438.721	1220.44
438.943	1230.44
439.165	1229.44
439.386	1218.44
439.608	1248.44
439.829	1235.44
440.05	1263.44
440.272	1281.44
440.493	1253.44
440.715	1259.44
440.936	1362.44
441.158	1401.44
441.379	1393.44
441.6	1344.44
441.822	1349.44
442.043	1328.44
442.264	1289.44
442.486	1252.44
442.707	1251.44
442.928	1271.44
443.149	1281.44
443.371	1343.44
443.592	1362.44
443.813	1346.44
444.034	1356.44
444.255	1351.44
444.476	1391.44
444.698	1383.44
444.919	1416.44
445.14	1541.44
445.361	1452.44
445.582	1462.44
445.803	1374.44
446.024	1338.44
446.245	1385.44
446.466	1376.44
446.687	1301.44
446.908	1362.44
447.129	1290.44
447.35	1307.44
447.571	1274.44
447.792	1282.44
448.013	1235.44
448.234	1281.44
448.455	1333.44
448.675	1289.44
448.896	1207.44
449.117	1175.44
449.338	1211.44
449.559	1241.44
449.779	1315.44
450	1440.44
450.221	1486.44
450.442	1437.44
450.662	1308.44
450.883	1195.44
451.104	1177.44
451.324	1179.44
451.545	1211.44
451.766	1162.44
451.986	1132.44
452.207	1129.44
452.428	1101.44
452.648	1085.44
452.869	1108.44
453.089	1118.44
453.31	1128.44
453.53	1164.44
453.751	1102.44
453.971	1052.44
454.192	1092.44
454.412	1118.44
454.633	1138.44
454.853	1107.44
455.073	1057.44
455.294	1051.44
455.514	1076.44
455.734	1065.44
455.955	1082.44
456.175	1085.44
456.395	1056.44
456.616	1105.44
456.836	1100.44
457.056	1087.44
457.276	1085.44
457.497	1039.44
457.717	995.44
457.937	1038.44
458.157	1053.44
458.377	1060.44
458.598	1038.44
458.818	1037.44
459.038	1108.44
459.258	1130.44
459.478	1136.44
459.698	1123.44
459.918	1147.44
460.138	1235.44
460.358	1240.44
460.578	1234.44
460.798	1272.44
461.018	1310.44
461.238	1295.44
461.458	1272.44
461.678	1275.44
461.898	1213.44
462.118	1188.44
462.338	1259.44
462.558	1238.44
462.777	1260.44
462.997	1334.44
463.217	1355.44
463.437	1362.44
463.657	1262.44
463.876	1249.44
464.096	1277.44
464.316	1265.44
464.536	1266.44
464.755	1301.44
464.975	1313.44
465.195	1269.44
465.414	1304.44
465.634	1294.44
465.854	1281.44
466.073	1399.44
466.293	1366.44
466.512	1202.44
466.732	1200.44
466.951	1223.44
467.171	1240.44
467.391	1197.44
467.61	1176.44
467.829	1206.44
468.049	1331.44
468.268	1432.44
468.488	1309.44
468.707	1203.44
468.927	1227.44
469.146	1215.44
469.365	1207.44
469.585	1217.44
469.804	1216.44
470.023	1241.44
470.243	1218.44
470.462	1251.44
470.681	1203.44
470.901	1222.44
471.12	1240.44
471.339	1220.44
471.558	1200.44
471.777	1160.44
471.997	1220.44
472.216	1162.44
472.435	1133.44
472.654	1129.44
472.873	1148.44
473.092	1217.44
473.311	1184.44
473.53	1121.44
473.749	1117.44
473.968	1178.44
474.187	1221.44
474.406	1236.44
474.625	1212.44
474.844	1217.44
475.063	1186.44
475.282	1220.44
475.501	1197.44
475.72	1185.44
475.939	1272.44
476.158	1211.44
476.377	1202.44
476.596	1195.44
476.814	1207.44
477.033	1199.44
477.252	1266.44
477.471	1300.44
477.69	1260.44
477.908	1287.44
478.127	1347.44
478.346	1436.44
478.564	1437.44
478.783	1399.44
479.002	1446.44
479.22	1409.44
479.439	1457.44
479.658	1580.44
479.876	1506.44
480.095	1362.44
480.313	1329.44
480.532	1312.44
480.751	1321.44
480.969	1301.44
481.188	1268.44
481.406	1242.44
481.624	1227.44
481.843	1273.44
482.061	1301.44
482.28	1318.44
482.498	1341.44
482.717	1301.44
482.935	1303.44
483.153	1362.44
483.372	1349.44
483.59	1347.44
483.808	1348.44
484.027	1341.44
484.245	1395.44
484.463	1750.44
484.681	1855.44
484.9	1459.44
485.118	1363.44
485.336	1336.44
485.554	1359.44
485.772	1394.44
485.99	1336.44
486.209	1391.44
486.427	1405.44
486.645	1408.44
486.863	1423.44
487.081	1465.44
487.299	1457.44
487.517	1449.44
487.735	1489.44
487.953	1491.44
488.171	1476.44
488.389	1469.44
488.607	1435.44
488.825	1569.44
489.043	1560.44
489.261	1394.44
489.479	1450.44
489.696	1471.44
489.914	1472.44
490.132	1421.44
490.35	1442.44
490.568	1482.44
490.786	1466.44
491.003	1444.44
491.221	1547.44
491.439	1592.44
491.657	1593.44
491.874	1591.44
492.092	1666.44
492.31	1707.44
492.527	1695.44
492.745	1610.44
492.963	1617.44
493.18	1610.44
493.398	1714.44
493.615	1673.44
493.833	1573.44
494.05	1544.44
494.268	1529.44
494.485	1557.44
494.703	1579.44
494.92	1527.44
495.138	1519.44
495.355	1557.44
495.573	1613.44
495.79	1671.44
496.008	1623.44
496.225	1577.44
496.442	1602.44
496.66	1595.44
496.877	1587.44
497.094	1621.44
497.312	1647.44
497.529	1599.44
497.746	1634.44
497.963	1826.44
498.181	1941.44
498.398	1853.44
498.615	1834.44
498.832	1743.44
499.049	1765.44
499.267	1747.44
499.484	1915.44
499.701	2003.44
499.918	2021.44
500.135	2237.44
500.352	2337.44
500.569	2346.44
500.786	2484.44
501.003	2267.44
501.22	2101.44
501.437	2114.44
501.654	2079.44
501.871	1987.44
502.088	1776.44
502.305	1766.44
502.522	1688.44
502.739	1563.44
502.956	1565.44
503.172	1503.44
503.389	1523.44
503.606	1494.44
503.823	1474.44
504.04	1504.44
504.256	1478.44
504.473	1484.44
504.69	1489.44
504.907	1451.44
505.123	1378.44
505.34	1542.44
505.557	1959.44
505.773	1636.44
505.99	1386.44
506.207	1307.44
506.423	1273.44
506.64	1277.44
506.856	1330.44
507.073	1513.44
507.289	1595.44
507.506	1482.44
507.722	1304.44
507.939	1219.44
508.155	1268.44
508.372	1248.44
508.588	1202.44
508.805	1177.44
509.021	1144.44
509.238	1151.44
509.454	1111.44
509.67	1125.44
509.887	1117.44
510.103	1105.44
510.319	1139.44
510.536	1206.44
510.752	1213.44
510.968	1175.44
511.184	1278.44
511.401	1248.44
511.617	1106.44
511.833	1093.44
512.049	1111.44
512.265	1093.44
512.481	1085.44
512.698	1148.44
512.914	1174.44
513.13	1185.44
513.346	1105.44
513.562	1065.44
513.778	1118.44
513.994	1161.44
514.21	1194.44
514.426	1215.44
514.642	1297.44
514.858	1230.44
515.074	1105.44
515.29	1113.44
515.506	1125.44
515.721	1131.44
515.937	1206.44
516.153	1308.44
516.369	1251.44
516.585	1180.44
516.801	1153.44
517.016	1146.44
517.232	1183.44
517.448	1179.44
517.664	1220.44
517.879	1235.44
518.095	1283.44
518.311	1252.44
518.527	1187.44
518.742	1143.44
518.958	1137.44
519.173	1151.44
519.389	1165.44
519.605	1184.44
519.82	1172.44
520.036	1179.44
520.251	1119.44
520.467	1123.44
520.682	1239.44
520.898	1237.44
521.113	1127.44
521.329	1119.44
521.544	1195.44
521.76	1146.44
521.975	1101.44
522.19	1093.44
522.406	1099.44
522.621	1408.44
522.836	1276.44
523.052	1077.44
523.267	1098.44
523.482	1111.44
523.698	1061.44
523.913	1076.44
524.128	1101.44
524.343	1141.44
524.559	1167.44
524.774	1112.44
524.989	1090.44
525.204	1061.44
525.419	1084.44
525.634	1050.44
525.849	1048.44
526.064	1093.44
526.28	1051.44
526.495	995.44
526.71	986.44
526.925	986.44
527.14	1000.44
527.355	979.44
527.57	982.44
527.785	1020.44
527.999	987.44
528.214	980.44
528.429	1001.44
528.644	1019.44
528.859	1046.44
529.074	1052.44
529.289	1107.44
529.503	1139.44
529.718	1085.44
529.933	1025.44
530.148	982.44
530.363	962.44
530.577	954.44
530.792	983.44
531.007	1009.44
531.221	957.44
531.436	1005.44
531.651	997.44
531.865	1051.44
532.08	998.44
532.295	960.44
532.509	970.44
532.724	945.44
532.938	1001.44
533.153	1088.44
533.367	1025.44
533.582	1015.44
533.796	1023.44
534.011	1004.44
534.225	1007.44
534.44	972.44
534.654	953.44
534.868	986.44
535.083	999.44
535.297	1024.44
535.511	997.44
535.726	976.44
535.94	972.44
536.154	994.44
536.369	922.44
536.583	916.44
536.797	901.44
537.011	956.44
537.225	913.44
537.44	884.44
537.654	972.44
537.868	958.44
538.082	874.44
538.296	899.44
538.51	893.44
538.724	916.44
538.938	974.44
539.153	993.44
539.367	1000.44
539.581	971.44
539.795	976.44
540.009	953.44
540.222	950.44
540.436	960.44
540.65	1047.44
540.864	1076.44
541.078	1035.44
541.292	1043.44
541.506	1088.44
541.72	1112.44
541.934	1159.44
542.147	1183.44
542.361	1153.44
542.575	1083.44
542.789	1010.44
543.002	971.44
543.216	957.44
543.43	1023.44
543.644	1055.44
543.857	1123.44
544.071	1127.44
544.285	1117.44
544.498	1098.44
544.712	1075.44
544.925	1121.44
545.139	1136.44
545.352	1077.44
545.566	1062.44
545.779	1053.44
545.993	1060.44
546.206	1069.44
546.42	1072.44
546.633	1068.44
546.847	1068.44
547.06	1072.44
547.274	1056.44
547.487	1081.44
547.7	1086.44
547.914	1071.44
548.127	1121.44
548.34	1066.44
548.554	1027.44
548.767	1061.44
548.98	1042.44
549.193	1067.44
549.407	1089.44
549.62	1123.44
549.833	1037.44
550.046	1038.44
550.259	1066.44
550.473	1031.44
550.686	1043.44
550.899	981.44
551.112	981.44
551.325	978.44
551.538	1046.44
551.751	1124.44
551.964	924.44
552.177	936.44
552.39	961.44
552.603	946.44
552.816	994.44
553.029	1047.44
553.242	1081.44
553.455	1056.44
553.667	1016.44
553.88	1035.44
554.093	1020.44
554.306	1004.44
554.519	1001.44
554.732	975.44
554.944	968.44
555.157	969.44
555.37	939.44
555.583	972.44
555.795	903.44
556.008	890.44
556.221	876.44
556.433	874.44
556.646	873.44
556.859	883.44
557.071	876.44
557.284	856.44
557.496	850.44
557.709	857.44
557.921	857.44
558.134	827.44
558.346	857.44
558.559	841.44
558.771	842.44
558.984	804.44
559.196	817.44
559.409	811.44
559.621	813.44
559.833	801.44
560.046	819.44
560.258	830.44
560.47	843.44
560.683	805.44
560.895	806.44
561.107	816.44
561.32	813.44
561.532	806.44
561.744	819.44
561.956	794.44
562.168	800.44
562.381	771.44
562.593	797.44
562.805	802.44
563.017	775.44
563.229	805.44
563.441	815.44
563.653	812.44
563.865	787.44
564.077	777.44
564.289	781.44
564.501	831.44
564.713	830.44
564.925	799.44
565.137	866.44
565.349	809.44
565.561	836.44
565.773	801.44
565.985	797.44
566.197	865.44
566.408	875.44
566.62	907.44
566.832	919.44
567.044	906.44
567.255	887.44
567.467	885.44
567.679	920.44
567.891	924.44
568.102	890.44
568.314	865.44
568.526	785.44
568.737	775.44
568.949	758.44
569.161	706.44
569.372	692.44
569.584	657.44
569.795	690.44
570.007	675.44
570.218	672.44
570.43	652.44
570.641	646.44
570.853	661.44
571.064	655.44
571.276	655.44
571.487	645.44
571.698	670.44
571.91	661.44
572.121	640.44
572.333	624.44
572.544	603.44
572.755	585.44
572.966	568.44
573.178	557.44
573.389	588.44
573.6	615.44
573.811	639.44
574.023	606.44
574.234	583.44
574.445	575.44
574.656	537.44
574.867	563.44
575.078	559.44
575.289	574.44
575.501	556.44
575.712	538.44
575.923	553.44
576.134	554.44
576.345	532.44
576.556	554.44
576.767	539.44
576.978	545.44
577.188	543.44
577.399	562.44
577.61	529.44
577.821	524.44
578.032	495.44
578.243	516.44
578.454	545.44
578.665	521.44
578.875	505.44
579.086	494.44
579.297	517.44
579.508	517.44
579.718	492.44
579.929	497.44
580.14	490.44
580.35	489.44
580.561	490.44
580.772	565.44
580.982	540.44
581.193	511.44
581.403	490.44
581.614	492.44
581.825	472.44
582.035	466.44
582.246	509.44
582.456	489.44
582.667	471.44
582.877	476.44
583.087	462.44
583.298	435.44
583.508	428.44
583.719	472.44
583.929	459.44
584.139	493.44
584.35	453.44
584.56	454.44
584.77	474.44
584.981	470.44
585.191	468.44
585.401	495.44
585.611	473.44
585.821	444.44
586.032	458.44
586.242	434.44
586.452	454.44
586.662	457.44
586.872	463.44
587.082	453.44
587.292	456.44
587.502	439.44
587.713	473.44
587.923	464.44
588.133	452.44
588.343	443.44
588.553	446.44
588.762	430.44
588.972	444.44
589.182	466.44
589.392	435.44
589.602	459.44
589.812	432.44
590.022	426.44
590.232	424.44
590.441	443.44
590.651	458.44
590.861	447.44
591.071	445.44
591.281	428.44
591.49	438.44
591.7	443.44
591.91	433.44
592.119	440.44
592.329	459.44
592.539	452.44
592.748	452.44
592.958	435.44
593.167	455.44
593.377	465.44
593.587	465.44
593.796	461.44
594.006	468.44
594.215	443.44
594.424	459.44
594.634	461.44
594.843	465.44
595.053	469.44
595.262	450.44
595.472	422.44
595.681	472.44
595.89	444.44
596.1	458.44
596.309	447.44
596.518	416.44
596.727	433.44
596.937	436.44
597.146	427.44
597.355	413.44
597.564	433.44
597.774	414.44
597.983	391.44
598.192	383.44
598.401	381.44
598.61	396.44
598.819	378.44
599.028	375.44
599.237	408.44
599.446	385.44
599.655	364.44
599.864	365.44
600.073	378.44
600.282	375.44
600.491	381.44
600.7	400.44
600.909	383.44
601.118	397.44
601.327	406.44
601.536	415.44
601.745	423.44
601.953	393.44
602.162	424.44
602.371	434.44
602.58	417.44
602.789	430.44
602.997	417.44
603.206	416.44
603.415	411.44
603.623	410.44
603.832	394.44
604.041	394.44
604.249	387.44
604.458	378.44
604.666	378.44
604.875	392.44
605.084	389.44
605.292	412.44
605.501	392.44
605.709	399.44
605.918	403.44
606.126	400.44
606.334	391.44
606.543	402.44
606.751	389.44
606.96	406.44
607.168	400.44
607.376	405.44
607.585	394.44
607.793	387.44
608.001	429.44
608.21	407.44
608.418	401.44
608.626	398.44
608.834	396.44
609.043	395.44
609.251	401.44
609.459	383.44
609.667	404.44
609.875	405.44
610.083	416.44
610.291	407.44
610.499	407.44
610.707	402.44
610.916	398.44
611.124	386.44
611.332	406.44
611.54	393.44
611.748	380.44
611.955	377.44
612.163	384.44
612.371	384.44
612.579	386.44
612.787	373.44
612.995	378.44
613.203	401.44
613.411	388.44
613.618	378.44
613.826	414.44
614.034	381.44
614.242	381.44
614.449	376.44
614.657	375.44
614.865	397.44
615.072	383.44
615.28	388.44
615.488	401.44
615.695	389.44
615.903	393.44
616.111	394.44
616.318	386.44
616.526	393.44
616.733	383.44
616.941	396.44
617.148	399.44
617.356	390.44
617.563	389.44
617.771	373.44
617.978	366.44
618.185	364.44
618.393	357.44
618.6	361.44
618.807	362.44
619.015	383.44
619.222	356.44
619.429	367.44
619.637	363.44
619.844	360.44
620.051	362.44
620.258	353.44
620.466	353.44
620.673	354.44
620.88	343.44
621.087	339.44
621.294	332.44
621.501	334.44
621.708	353.44
621.915	349.44
622.122	356.44
622.329	357.44
622.536	355.44
622.743	375.44
622.95	358.44
623.157	349.44
623.364	347.44
623.571	349.44
623.778	371.44
623.985	355.44
624.192	353.44
624.399	351.44
624.606	328.44
624.812	321.44
625.019	320.44
625.226	333.44
625.433	339.44
625.639	311.44
625.846	314.44
626.053	313.44
626.259	281.44
626.466	287.44
626.673	282.44
626.879	277.44
627.086	295.44
627.293	288.44
627.499	324.44
627.706	320.44
627.912	338.44
628.119	326.44
628.325	316.44
628.532	314.44
628.738	311.44
628.945	315.44
629.151	324.44
629.357	308.44
629.564	317.44
629.77	321.44
629.976	298.44
630.183	287.44
630.389	309.44
630.595	292.44
630.802	316.44
631.008	294.44
631.214	283.44
631.42	298.44
631.627	307.44
631.833	293.44
632.039	291.44
632.245	301.44
632.451	284.44
632.657	292.44
632.863	287.44
633.069	299.44
633.275	283.44
633.481	294.44
633.688	289.44
633.893	268.44
634.099	259.44
634.305	278.44
634.511	266.44
634.717	281.44
634.923	247.44
635.129	252.44
635.335	258.44
635.541	251.44
635.747	272.44
635.952	281.44
636.158	281.44
636.364	272.44
636.57	263.44
636.775	291.44
636.981	281.44
637.187	269.44
637.392	268.44
637.598	260.44
637.804	274.44
638.009	274.44
638.215	268.44
638.421	267.44
638.626	263.44
638.832	282.44
639.037	280.44
639.243	256.44
639.448	273.44
639.654	259.44
639.859	250.44
640.065	267.44
640.27	273.44
640.475	281.44
640.681	272.44
640.886	277.44
641.091	277.44
641.297	265.44
641.502	268.44
641.707	268.44
641.913	261.44
642.118	259.44
642.323	267.44
642.528	275.44
642.733	260.44
642.939	250.44
643.144	241.44
643.349	249.44
643.554	244.44
643.759	265.44
643.964	245.44
644.169	258.44
644.374	259.44
644.579	258.44
644.784	279.44
644.989	234.44
645.194	273.44
645.399	258.44
645.604	259.44
645.809	254.44
646.014	253.44
646.219	270.44
646.423	263.44
646.628	270.44
646.833	268.44
647.038	251.44
647.243	249.44
647.447	261.44
647.652	270.44
647.857	255.44
648.062	255.44
648.266	257.44
648.471	264.44
648.676	263.44
648.88	261.44
649.085	265.44
649.289	248.44
649.494	269.44
649.698	274.44
649.903	259.44
650.107	252.44
650.312	253.44
650.516	253.44
650.721	228.44
650.925	253.44
651.13	236.44
651.334	232.44
651.539	237.44
651.743	231.44
651.947	214.44
652.152	244.44
652.356	229.44
652.56	233.44
652.764	231.44
652.969	227.44
653.173	212.44
653.377	202.44
653.581	203.44
653.785	214.44
653.99	211.44
654.194	219.44
654.398	197.44
654.602	201.44
654.806	223.44
655.01	241.44
655.214	212.44
655.418	208.44
655.622	211.44
655.826	220.44
656.03	232.44
656.234	232.44
656.438	237.44
656.642	259.44
656.846	259.44
657.049	257.44
657.253	226.44
657.457	225.44
657.661	202.44
657.865	186.44
658.068	171.44
658.272	169.44
658.476	153.44
658.68	171.44
658.883	153.44
659.087	143.44
659.291	156.44
659.494	149.44
659.698	140.44
659.901	133.44
660.105	141.44
660.309	138.44
660.512	121.44
660.716	119.44
660.919	116.44
661.123	113.44
661.326	111.44
661.53	100.44
661.733	111.44
661.936	91.44
662.14	98.44
662.343	93.44
662.546	92.44
662.75	94.44
662.953	83.44
663.156	105.44
663.36	90.44
663.563	81.44
663.766	84.44
663.969	83.44
664.173	82.44
664.376	78.44
664.579	84.44
664.782	86.44
664.985	86.44
665.188	88.44
665.391	68.44
665.594	81.44
665.797	86.44
666	86.44
666.203	82.44
666.406	96.44
666.609	76.44
666.812	76.44
667.015	80.44
667.218	87.44
667.421	85.44
667.624	68.44
667.827	75.44
668.03	83.44
668.232	89.44
668.435	81.44
668.638	84.44
668.841	83.44
669.043	84.44
669.246	86.44
669.449	77.44
669.651	95.44
669.854	93.44
670.057	68.44
670.259	83.44
670.462	94.44
670.665	87.44
670.867	83.44
671.07	77.44
671.272	81.44
671.475	84.44
671.677	84.44
671.88	99.44
672.082	82.44
672.284	80.44
672.487	84.44
672.689	78.44
672.892	72.44
