Data from WStandard_LampEnergy5.5LIBS07252019.E.O._I.C._HRD10591_16-06-58-920.txt Node
Date: Thu Jul 25 16:06:58 EDT 2019
User: cochatt
Spectrometer: HR+D1059
Trigger mode: 1
Integration Time (sec): 1.000000E-1
Scans to average: 1
Electric dark correction enabled: true
Nonlinearity correction enabled: false
Boxcar width: 0
XAxis mode: Wavelengths
Number of Pixels in Spectrum: 2048
>>>>>Begin Spectral Data<<<<<
223.165	-19.94
223.4	-19.94
223.635	-19.94
223.869	-16.94
224.104	-10.94
224.338	-15.94
224.573	-11.94
224.808	-20.94
225.042	10.06
225.277	-12.94
225.511	-12.94
225.746	0.06
225.98	17.06
226.215	15.06
226.449	16.06
226.683	10.06
226.918	23.06
227.152	31.06
227.387	30.06
227.621	45.06
227.856	42.06
228.09	44.06
228.324	50.06
228.559	68.06
228.793	150.06
229.027	393.06
229.262	379.06
229.496	385.06
229.73	403.06
229.964	467.06
230.199	475.06
230.433	495.06
230.667	523.06
230.901	536.06
231.136	479.06
231.37	481.06
231.604	488.06
231.838	492.06
232.072	511.06
232.306	454.06
232.541	487.06
232.775	556.06
233.009	627.06
233.243	622.06
233.477	565.06
233.711	536.06
233.945	585.06
234.179	571.06
234.413	618.06
234.647	656.06
234.881	629.06
235.115	569.06
235.349	567.06
235.583	596.06
235.817	591.06
236.051	567.06
236.285	557.06
236.519	623.06
236.753	695.06
236.987	711.06
237.221	684.06
237.455	779.06
237.689	761.06
237.922	713.06
238.156	683.06
238.39	701.06
238.624	710.06
238.858	782.06
239.091	803.06
239.325	812.06
239.559	947.06
239.793	991.06
240.027	1107.06
240.26	1077.06
240.494	815.06
240.728	755.06
240.961	749.06
241.195	739.06
241.429	839.06
241.662	845.06
241.896	775.06
242.13	781.06
242.363	869.06
242.597	975.06
242.83	899.06
243.064	900.06
243.298	979.06
243.531	965.06
243.765	964.06
243.998	956.06
244.232	844.06
244.465	791.06
244.699	818.06
244.932	901.06
245.166	1098.06
245.399	1007.06
245.633	935.06
245.866	907.06
246.099	985.06
246.333	973.06
246.566	1011.06
246.8	1090.06
247.033	1241.06
247.266	1139.06
247.5	1126.06
247.733	1093.06
247.966	1149.06
248.2	1311.06
248.433	1239.06
248.666	1277.06
248.899	1380.06
249.133	1609.06
249.366	1798.06
249.599	1497.06
249.832	1300.06
250.066	1355.06
250.299	1373.06
250.532	1267.06
250.765	1123.06
250.998	1226.06
251.231	1235.06
251.465	1313.06
251.698	1195.06
251.931	1194.06
252.164	1252.06
252.397	1314.06
252.63	1315.06
252.863	1129.06
253.096	1106.06
253.329	1176.06
253.562	1226.06
253.795	1335.06
254.028	1354.06
254.261	1255.06
254.494	1221.06
254.727	1133.06
254.96	1170.06
255.193	1297.06
255.426	1458.06
255.659	1671.06
255.892	1744.06
256.124	1403.06
256.357	1383.06
256.59	1474.06
256.823	1469.06
257.056	1477.06
257.289	1773.06
257.521	1995.06
257.754	1804.06
257.987	1636.06
258.22	1873.06
258.452	1817.06
258.685	1432.06
258.918	1419.06
259.151	1437.06
259.383	1390.06
259.616	1207.06
259.849	1296.06
260.081	1419.06
260.314	1601.06
260.547	1780.06
260.779	1823.06
261.012	1679.06
261.244	1478.06
261.477	1382.06
261.71	1475.06
261.942	1424.06
262.175	1413.06
262.407	1522.06
262.64	1425.06
262.872	1315.06
263.105	1278.06
263.337	1319.06
263.57	1331.06
263.802	1338.06
264.035	1236.06
264.267	1191.06
264.499	1171.06
264.732	1209.06
264.964	1321.06
265.197	1417.06
265.429	1473.06
265.661	1640.06
265.894	1798.06
266.126	1880.06
266.358	1647.06
266.591	1708.06
266.823	1894.06
267.055	1696.06
267.287	1638.06
267.52	1656.06
267.752	1587.06
267.984	1619.06
268.216	1698.06
268.448	1735.06
268.681	1715.06
268.913	1579.06
269.145	1477.06
269.377	1407.06
269.609	1561.06
269.841	1823.06
270.073	2136.06
270.306	2364.06
270.538	2554.06
270.77	2147.06
271.002	1783.06
271.234	1723.06
271.466	1695.06
271.698	1859.06
271.93	2291.06
272.162	2336.06
272.394	2063.06
272.626	2000.06
272.858	1756.06
273.09	1480.06
273.322	1480.06
273.553	1409.06
273.785	1429.06
274.017	1467.06
274.249	1601.06
274.481	1638.06
274.713	1492.06
274.945	1455.06
275.176	1430.06
275.408	1424.06
275.64	1380.06
275.872	1386.06
276.104	1488.06
276.335	1691.06
276.567	1905.06
276.799	1987.06
277.031	1761.06
277.262	1643.06
277.494	1714.06
277.726	1935.06
277.957	1902.06
278.189	1755.06
278.421	1577.06
278.652	1523.06
278.884	1493.06
279.115	1512.06
279.347	1521.06
279.579	1473.06
279.81	1461.06
280.042	1661.06
280.273	1826.06
280.505	1871.06
280.736	1907.06
280.968	1796.06
281.199	1521.06
281.431	1471.06
281.662	1460.06
281.894	1461.06
282.125	1508.06
282.356	1549.06
282.588	1576.06
282.819	1557.06
283.051	1663.06
283.282	1822.06
283.513	1770.06
283.745	1564.06
283.976	1433.06
284.207	1455.06
284.439	1484.06
284.67	1555.06
284.901	1493.06
285.132	1595.06
285.364	1586.06
285.595	1584.06
285.826	1558.06
286.057	1531.06
286.288	1523.06
286.52	1594.06
286.751	1720.06
286.982	1781.06
287.213	1643.06
287.444	1481.06
287.675	1425.06
287.906	1541.06
288.138	1687.06
288.369	1626.06
288.6	1551.06
288.831	1461.06
289.062	1459.06
289.293	1531.06
289.524	1512.06
289.755	1585.06
289.986	1620.06
290.217	1452.06
290.448	1504.06
290.679	1577.06
290.91	1545.06
291.141	1607.06
291.371	1668.06
291.602	1685.06
291.833	1668.06
292.064	1694.06
292.295	1643.06
292.526	1672.06
292.757	1763.06
292.987	1720.06
293.218	1532.06
293.449	1691.06
293.68	1959.06
293.91	2097.06
294.141	1908.06
294.372	1798.06
294.603	1845.06
294.833	1931.06
295.064	1881.06
295.295	1679.06
295.525	1636.06
295.756	1513.06
295.987	1401.06
296.217	1490.06
296.448	1504.06
296.679	1526.06
296.909	1539.06
297.14	1511.06
297.37	1495.06
297.601	1597.06
297.831	1742.06
298.062	1744.06
298.292	1602.06
298.523	1547.06
298.753	1554.06
298.984	1578.06
299.214	1541.06
299.445	1579.06
299.675	1634.06
299.905	1615.06
300.136	1612.06
300.366	1577.06
300.597	1496.06
300.827	1511.06
301.057	1545.06
301.288	1670.06
301.518	1601.06
301.748	1663.06
301.979	1699.06
302.209	1786.06
302.439	1922.06
302.669	2013.06
302.9	1836.06
303.13	1681.06
303.36	1634.06
303.59	1685.06
303.82	1669.06
304.051	1658.06
304.281	1713.06
304.511	1658.06
304.741	1714.06
304.971	1944.06
305.201	2075.06
305.431	1968.06
305.661	1611.06
305.891	1443.06
306.121	1460.06
306.352	1506.06
306.582	1585.06
306.812	1673.06
307.042	1878.06
307.272	1854.06
307.502	1873.06
307.731	2056.06
307.961	2247.06
308.191	2105.06
308.421	1763.06
308.651	1626.06
308.881	1581.06
309.111	1603.06
309.341	1548.06
309.571	1579.06
309.8	1606.06
310.03	1597.06
310.26	1603.06
310.49	1577.06
310.72	1608.06
310.949	1690.06
311.179	1722.06
311.409	1657.06
311.639	1661.06
311.868	1587.06
312.098	1636.06
312.328	1607.06
312.557	1601.06
312.787	1637.06
313.017	1652.06
313.246	1637.06
313.476	1679.06
313.706	1702.06
313.935	1648.06
314.165	1713.06
314.394	1782.06
314.624	1843.06
314.853	1983.06
315.083	2035.06
315.312	2150.06
315.542	1965.06
315.771	1740.06
316.001	1735.06
316.23	1835.06
316.46	1827.06
316.689	1797.06
316.919	1692.06
317.148	1639.06
317.377	1604.06
317.607	1737.06
317.836	2005.06
318.065	2108.06
318.295	1985.06
318.524	1885.06
318.753	1796.06
318.983	1794.06
319.212	1779.06
319.441	1711.06
319.67	1706.06
319.9	1739.06
320.129	1778.06
320.358	1943.06
320.587	1986.06
320.816	1959.06
321.046	1908.06
321.275	1759.06
321.504	1811.06
321.733	1966.06
321.962	1911.06
322.191	1762.06
322.42	1756.06
322.649	1752.06
322.878	1720.06
323.108	1731.06
323.337	1818.06
323.566	1811.06
323.795	1788.06
324.024	1795.06
324.253	1729.06
324.482	1777.06
324.71	1715.06
324.939	1607.06
325.168	1638.06
325.397	1712.06
325.626	1787.06
325.855	1832.06
326.084	1715.06
326.313	1752.06
326.542	1794.06
326.77	1848.06
326.999	1807.06
327.228	1732.06
327.457	1663.06
327.686	1591.06
327.914	1671.06
328.143	1717.06
328.372	1727.06
328.6	1747.06
328.829	1735.06
329.058	1687.06
329.287	1681.06
329.515	1712.06
329.744	1754.06
329.972	1852.06
330.201	1957.06
330.43	1931.06
330.658	1852.06
330.887	1878.06
331.115	1862.06
331.344	1852.06
331.572	1833.06
331.801	1817.06
332.03	1770.06
332.258	1793.06
332.486	1884.06
332.715	1864.06
332.943	1841.06
333.172	1817.06
333.4	1848.06
333.629	1854.06
333.857	2002.06
334.085	2233.06
334.314	2532.06
334.542	2814.06
334.771	2587.06
334.999	2229.06
335.227	2107.06
335.455	2008.06
335.684	1937.06
335.912	1948.06
336.14	2089.06
336.369	2014.06
336.597	1917.06
336.825	1809.06
337.053	1922.06
337.281	2018.06
337.51	2089.06
337.738	2237.06
337.966	2159.06
338.194	1940.06
338.422	1828.06
338.65	1801.06
338.878	1807.06
339.106	1746.06
339.334	1735.06
339.562	1702.06
339.79	1769.06
340.018	1869.06
340.246	1954.06
340.474	1927.06
340.702	1873.06
340.93	1865.06
341.158	1872.06
341.386	1851.06
341.614	1853.06
341.842	1813.06
342.07	1850.06
342.298	1860.06
342.526	1846.06
342.754	1779.06
342.981	1804.06
343.209	1754.06
343.437	1785.06
343.665	1781.06
343.893	1812.06
344.12	1970.06
344.348	1991.06
344.576	1862.06
344.804	1815.06
345.031	1803.06
345.259	1858.06
345.487	1769.06
345.714	1710.06
345.942	1651.06
346.17	1639.06
346.397	1699.06
346.625	1751.06
346.853	1621.06
347.08	1603.06
347.308	1627.06
347.535	1657.06
347.763	1749.06
347.99	1697.06
348.218	1612.06
348.445	1605.06
348.673	1699.06
348.9	1704.06
349.128	1776.06
349.355	1855.06
349.583	1817.06
349.81	1681.06
350.037	1573.06
350.265	1540.06
350.492	1581.06
350.72	1611.06
350.947	1680.06
351.174	1731.06
351.402	1663.06
351.629	1590.06
351.856	1527.06
352.083	1552.06
352.311	1583.06
352.538	1589.06
352.765	1649.06
352.992	1740.06
353.22	1679.06
353.447	1605.06
353.674	1631.06
353.901	1667.06
354.128	1607.06
354.355	1578.06
354.583	1643.06
354.81	1739.06
355.037	1683.06
355.264	1720.06
355.491	1698.06
355.718	1704.06
355.945	1689.06
356.172	1641.06
356.399	1622.06
356.626	1643.06
356.853	1654.06
357.08	1813.06
357.307	2017.06
357.534	2014.06
357.761	1715.06
357.988	1605.06
358.215	1552.06
358.441	1549.06
358.668	1571.06
358.895	1580.06
359.122	1682.06
359.349	1877.06
359.576	1868.06
359.802	1646.06
360.029	1602.06
360.256	1577.06
360.483	1617.06
360.709	1664.06
360.936	1739.06
361.163	1758.06
361.39	1922.06
361.616	2088.06
361.843	2009.06
362.07	1939.06
362.296	1666.06
362.523	1605.06
362.749	1646.06
362.976	1660.06
363.203	1698.06
363.429	1673.06
363.656	1559.06
363.882	1639.06
364.109	1812.06
364.335	1999.06
364.562	1883.06
364.788	1782.06
365.015	1664.06
365.241	1596.06
365.468	1663.06
365.694	1707.06
365.92	1781.06
366.147	1704.06
366.373	1596.06
366.599	1567.06
366.826	1588.06
367.052	1606.06
367.278	1599.06
367.505	1628.06
367.731	1684.06
367.957	1716.06
368.184	1721.06
368.41	1787.06
368.636	1868.06
368.862	1828.06
369.089	1889.06
369.315	1826.06
369.541	1759.06
369.767	1731.06
369.993	1599.06
370.219	1633.06
370.445	1662.06
370.672	1742.06
370.898	1829.06
371.124	1857.06
371.35	1740.06
371.576	1755.06
371.802	1880.06
372.028	1759.06
372.254	1713.06
372.48	1652.06
372.706	1643.06
372.932	1613.06
373.158	1638.06
373.384	1724.06
373.61	1766.06
373.835	1879.06
374.061	1746.06
374.287	1721.06
374.513	1706.06
374.739	1738.06
374.965	1739.06
375.191	1767.06
375.416	1729.06
375.642	1790.06
375.868	1824.06
376.094	1927.06
376.319	1830.06
376.545	1699.06
376.771	1732.06
376.997	1807.06
377.222	1814.06
377.448	1756.06
377.674	1817.06
377.899	1789.06
378.125	1871.06
378.35	1890.06
378.576	1745.06
378.802	1640.06
379.027	1671.06
379.253	1681.06
379.478	1714.06
379.704	1689.06
379.929	1708.06
380.155	1731.06
380.38	1751.06
380.606	1764.06
380.831	1722.06
381.057	1836.06
381.282	1844.06
381.507	1809.06
381.733	1878.06
381.958	1988.06
382.184	1802.06
382.409	1749.06
382.634	1821.06
382.86	1768.06
383.085	1770.06
383.31	1810.06
383.535	2032.06
383.761	2127.06
383.986	2058.06
384.211	1953.06
384.436	1937.06
384.662	1987.06
384.887	2058.06
385.112	1968.06
385.337	1976.06
385.562	1981.06
385.787	1973.06
386.013	1990.06
386.238	2001.06
386.463	1982.06
386.688	2091.06
386.913	2258.06
387.138	2198.06
387.363	2032.06
387.588	2075.06
387.813	1997.06
388.038	2036.06
388.263	2099.06
388.488	2029.06
388.713	1866.06
388.938	1866.06
389.163	1861.06
389.387	1904.06
389.612	1942.06
389.837	2004.06
390.062	1963.06
390.287	1996.06
390.512	1975.06
390.736	1920.06
390.961	1908.06
391.186	1839.06
391.411	1882.06
391.636	1924.06
391.86	1925.06
392.085	1953.06
392.31	1876.06
392.534	1931.06
392.759	1997.06
392.984	1965.06
393.208	1960.06
393.433	2010.06
393.658	2098.06
393.882	2140.06
394.107	1996.06
394.331	1950.06
394.556	1922.06
394.78	1970.06
395.005	2027.06
395.229	2074.06
395.454	2271.06
395.678	2290.06
395.903	2171.06
396.127	2070.06
396.352	2041.06
396.576	2167.06
396.801	2188.06
397.025	2156.06
397.249	2160.06
397.474	2105.06
397.698	2093.06
397.922	2137.06
398.147	2262.06
398.371	2369.06
398.595	2364.06
398.82	2279.06
399.044	2257.06
399.268	2365.06
399.492	2552.06
399.717	2591.06
399.941	2649.06
400.165	2609.06
400.389	2549.06
400.613	2468.06
400.837	2731.06
401.062	3155.06
401.286	2721.06
401.51	2456.06
401.734	2595.06
401.958	2544.06
402.182	2305.06
402.406	2253.06
402.63	2188.06
402.854	2258.06
403.078	2266.06
403.302	2324.06
403.526	2305.06
403.75	2328.06
403.974	2344.06
404.198	2341.06
404.422	2417.06
404.645	2524.06
404.869	2502.06
405.093	2274.06
405.317	2273.06
405.541	2325.06
405.765	2339.06
405.988	2293.06
406.212	2396.06
406.436	2423.06
406.66	2505.06
406.883	2476.06
407.107	2763.06
407.331	3039.06
407.555	3263.06
407.778	3079.06
408.002	2549.06
408.226	2451.06
408.449	2431.06
408.673	2364.06
408.896	2385.06
409.12	2423.06
409.344	2408.06
409.567	2265.06
409.791	2359.06
410.014	2367.06
410.238	2521.06
410.461	2663.06
410.685	2413.06
410.908	2288.06
411.132	2356.06
411.355	2324.06
411.578	2233.06
411.802	2243.06
412.025	2329.06
412.249	2258.06
412.472	2243.06
412.695	2148.06
412.919	2201.06
413.142	2197.06
413.365	2218.06
413.589	2270.06
413.812	2393.06
414.035	2501.06
414.258	2307.06
414.482	2199.06
414.705	2196.06
414.928	2237.06
415.151	2181.06
415.374	2285.06
415.597	2227.06
415.821	2250.06
416.044	2333.06
416.267	2348.06
416.49	2198.06
416.713	2122.06
416.936	2228.06
417.159	2266.06
417.382	2342.06
417.605	2171.06
417.828	2299.06
418.051	2280.06
418.274	2267.06
418.497	2147.06
418.72	2164.06
418.943	2152.06
419.166	2303.06
419.389	2373.06
419.611	2208.06
419.834	2193.06
420.057	2201.06
420.28	2156.06
420.503	2138.06
420.726	2182.06
420.948	2195.06
421.171	2091.06
421.394	2153.06
421.617	2243.06
421.839	2205.06
422.062	2169.06
422.285	2166.06
422.507	2163.06
422.73	2043.06
422.953	2035.06
423.175	2052.06
423.398	2121.06
423.621	2132.06
423.843	2155.06
424.066	2148.06
424.288	2257.06
424.511	2342.06
424.733	2245.06
424.956	2004.06
425.178	2034.06
425.401	2038.06
425.623	2092.06
425.846	2052.06
426.068	2173.06
426.291	2247.06
426.513	2201.06
426.735	2169.06
426.958	2355.06
427.18	2488.06
427.402	2261.06
427.625	2332.06
427.847	2385.06
428.069	2177.06
428.292	2106.06
428.514	2099.06
428.736	2061.06
428.958	2096.06
429.181	2110.06
429.403	2325.06
429.625	2920.06
429.847	2611.06
430.069	2152.06
430.292	2321.06
430.514	2470.06
430.736	2270.06
430.958	2374.06
431.18	2297.06
431.402	2079.06
431.624	2059.06
431.846	2075.06
432.068	2063.06
432.29	2084.06
432.512	2112.06
432.734	2154.06
432.956	2181.06
433.178	2257.06
433.4	2192.06
433.622	2255.06
433.844	2160.06
434.066	2085.06
434.287	2047.06
434.509	2133.06
434.731	2255.06
434.953	2440.06
435.175	2371.06
435.397	2161.06
435.618	2225.06
435.84	2196.06
436.062	2178.06
436.284	2205.06
436.505	2219.06
436.727	2225.06
436.949	2164.06
437.17	2096.06
437.392	2110.06
437.614	2125.06
437.835	2020.06
438.057	2213.06
438.278	2312.06
438.5	2151.06
438.721	2077.06
438.943	2077.06
439.165	2090.06
439.386	2055.06
439.608	2120.06
439.829	2069.06
440.05	2093.06
440.272	2057.06
440.493	2011.06
440.715	2095.06
440.936	2248.06
441.158	2475.06
441.379	2409.06
441.6	2337.06
441.822	2247.06
442.043	2233.06
442.264	2229.06
442.486	2057.06
442.707	2079.06
442.928	2048.06
443.149	2157.06
443.371	2293.06
443.592	2339.06
443.813	2295.06
444.034	2263.06
444.255	2292.06
444.476	2340.06
444.698	2420.06
444.919	2348.06
445.14	2388.06
445.361	2402.06
445.582	2476.06
445.803	2389.06
446.024	2281.06
446.245	2390.06
446.466	2287.06
446.687	2158.06
446.908	2209.06
447.129	2163.06
447.35	2179.06
447.571	2169.06
447.792	2088.06
448.013	2021.06
448.234	2100.06
448.455	2175.06
448.675	2169.06
448.896	2022.06
449.117	1982.06
449.338	2027.06
449.559	2071.06
449.779	2243.06
450	2477.06
450.221	2685.06
450.442	2594.06
450.662	2291.06
450.883	1952.06
451.104	1927.06
451.324	1999.06
451.545	2075.06
451.766	2010.06
451.986	1922.06
452.207	1947.06
452.428	1878.06
452.648	1822.06
452.869	1932.06
453.089	2070.06
453.31	2062.06
453.53	2138.06
453.751	2059.06
453.971	1922.06
454.192	1958.06
454.412	2103.06
454.633	2038.06
454.853	1990.06
455.073	1834.06
455.294	1796.06
455.514	1792.06
455.734	1844.06
455.955	1886.06
456.175	1905.06
456.395	1871.06
456.616	1930.06
456.836	1962.06
457.056	1893.06
457.276	1925.06
457.497	1866.06
457.717	1796.06
457.937	1841.06
458.157	1887.06
458.377	1828.06
458.598	1876.06
458.818	1906.06
459.038	2028.06
459.258	2128.06
459.478	2103.06
459.698	2041.06
459.918	2079.06
460.138	2182.06
460.358	2208.06
460.578	2243.06
460.798	2323.06
461.018	2467.06
461.238	2377.06
461.458	2229.06
461.678	2247.06
461.898	2200.06
462.118	2107.06
462.338	2236.06
462.558	2215.06
462.777	2197.06
462.997	2296.06
463.217	2440.06
463.437	2457.06
463.657	2267.06
463.876	2176.06
464.096	2207.06
464.316	2178.06
464.536	2301.06
464.755	2306.06
464.975	2375.06
465.195	2282.06
465.414	2385.06
465.634	2409.06
465.854	2247.06
466.073	2365.06
466.293	2343.06
466.512	2061.06
466.732	2087.06
466.951	2119.06
467.171	2094.06
467.391	2015.06
467.61	1961.06
467.829	2001.06
468.049	2196.06
468.268	2440.06
468.488	2318.06
468.707	2193.06
468.927	2107.06
469.146	2044.06
469.365	1967.06
469.585	2059.06
469.804	2053.06
470.023	1996.06
470.243	2087.06
470.462	1992.06
470.681	1974.06
470.901	2017.06
471.12	2068.06
471.339	2039.06
471.558	1956.06
471.777	1933.06
471.997	1959.06
472.216	2009.06
472.435	1911.06
472.654	1983.06
472.873	2074.06
473.092	2171.06
473.311	2088.06
473.53	1948.06
473.749	1983.06
473.968	2055.06
474.187	2126.06
474.406	2213.06
474.625	2075.06
474.844	2058.06
475.063	2081.06
475.282	2156.06
475.501	2060.06
475.72	2031.06
475.939	2230.06
476.158	2149.06
476.377	2067.06
476.596	2072.06
476.814	2145.06
477.033	2121.06
477.252	2253.06
477.471	2333.06
477.69	2208.06
477.908	2184.06
478.127	2272.06
478.346	2510.06
478.564	2454.06
478.783	2471.06
479.002	2499.06
479.22	2419.06
479.439	2564.06
479.658	2913.06
479.876	2855.06
480.095	2468.06
480.313	2367.06
480.532	2271.06
480.751	2260.06
480.969	2385.06
481.188	2311.06
481.406	2303.06
481.624	2232.06
481.843	2227.06
482.061	2265.06
482.28	2344.06
482.498	2400.06
482.717	2360.06
482.935	2237.06
483.153	2237.06
483.372	2241.06
483.59	2219.06
483.808	2263.06
484.027	2308.06
484.245	2433.06
484.463	2898.06
484.681	3299.06
484.9	2504.06
485.118	2342.06
485.336	2301.06
485.554	2377.06
485.772	2500.06
485.99	2453.06
486.209	2471.06
486.427	2474.06
486.645	2457.06
486.863	2402.06
487.081	2455.06
487.299	2545.06
487.517	2495.06
487.735	2348.06
487.953	2361.06
488.171	2355.06
488.389	2342.06
488.607	2341.06
488.825	2604.06
489.043	2687.06
489.261	2365.06
489.479	2506.06
489.696	2588.06
489.914	2535.06
490.132	2427.06
490.35	2359.06
490.568	2522.06
490.786	2379.06
491.003	2360.06
491.221	2388.06
491.439	2462.06
491.657	2478.06
491.874	2426.06
492.092	2499.06
492.31	2463.06
492.527	2476.06
492.745	2433.06
492.963	2431.06
493.18	2556.06
493.398	2723.06
493.615	2771.06
493.833	2578.06
494.05	2476.06
494.268	2499.06
494.485	2547.06
494.703	2528.06
494.92	2474.06
495.138	2443.06
495.355	2505.06
495.573	2545.06
495.79	2754.06
496.008	2774.06
496.225	2572.06
496.442	2595.06
496.66	2692.06
496.877	2635.06
497.094	2738.06
497.312	2729.06
497.529	2689.06
497.746	2772.06
497.963	3181.06
498.181	3626.06
498.398	3371.06
498.615	3276.06
498.832	3192.06
499.049	3161.06
499.267	3145.06
499.484	3317.06
499.701	3650.06
499.918	3680.06
500.135	3916.06
500.352	4181.06
500.569	4186.06
500.786	4468.06
501.003	4145.06
501.22	3700.06
501.437	3669.06
501.654	3622.06
501.871	3542.06
502.088	3096.06
502.305	3075.06
502.522	3003.06
502.739	2831.06
502.956	2736.06
503.172	2731.06
503.389	2630.06
503.606	2640.06
503.823	2598.06
504.04	2615.06
504.256	2625.06
504.473	2645.06
504.69	2743.06
504.907	2581.06
505.123	2479.06
505.34	2587.06
505.557	3320.06
505.773	2867.06
505.99	2433.06
506.207	2305.06
506.423	2253.06
506.64	2177.06
506.856	2236.06
507.073	2532.06
507.289	2758.06
507.506	2679.06
507.722	2265.06
507.939	2147.06
508.155	2154.06
508.372	2180.06
508.588	2127.06
508.805	2100.06
509.021	2056.06
509.238	2031.06
509.454	1994.06
509.67	2061.06
509.887	2020.06
510.103	1962.06
510.319	2061.06
510.536	2088.06
510.752	2242.06
510.968	2190.06
511.184	2409.06
511.401	2319.06
511.617	2031.06
511.833	1951.06
512.049	2003.06
512.265	1969.06
512.481	1918.06
512.698	2008.06
512.914	2189.06
513.13	2151.06
513.346	1981.06
513.562	1946.06
513.778	2001.06
513.994	2093.06
514.21	2148.06
514.426	2179.06
514.642	2427.06
514.858	2273.06
515.074	2117.06
515.29	2025.06
515.506	2102.06
515.721	2108.06
515.937	2148.06
516.153	2396.06
516.369	2307.06
516.585	2170.06
516.801	2050.06
517.016	2053.06
517.232	2112.06
517.448	2170.06
517.664	2198.06
517.879	2205.06
518.095	2338.06
518.311	2203.06
518.527	2110.06
518.742	2046.06
518.958	1980.06
519.173	1948.06
519.389	2028.06
519.605	2079.06
519.82	2055.06
520.036	2111.06
520.251	2035.06
520.467	2025.06
520.682	2199.06
520.898	2305.06
521.113	1997.06
521.329	2004.06
521.544	2149.06
521.76	2079.06
521.975	1925.06
522.19	1908.06
522.406	1920.06
522.621	2313.06
522.836	2378.06
523.052	1876.06
523.267	1891.06
523.482	1934.06
523.698	1807.06
523.913	1751.06
524.128	1809.06
524.343	1977.06
524.559	1971.06
524.774	1863.06
524.989	1851.06
525.204	1818.06
525.419	1748.06
525.634	1780.06
525.849	1802.06
526.064	1823.06
526.28	1830.06
526.495	1781.06
526.71	1752.06
526.925	1759.06
527.14	1779.06
527.355	1727.06
527.57	1722.06
527.785	1767.06
527.999	1688.06
528.214	1687.06
528.429	1647.06
528.644	1674.06
528.859	1693.06
529.074	1725.06
529.289	1738.06
529.503	1708.06
529.718	1744.06
529.933	1704.06
530.148	1672.06
530.363	1674.06
530.577	1725.06
530.792	1757.06
531.007	1754.06
531.221	1719.06
531.436	1773.06
531.651	1806.06
531.865	1855.06
532.08	1806.06
532.295	1701.06
532.509	1629.06
532.724	1683.06
532.938	1703.06
533.153	1874.06
533.367	1735.06
533.582	1749.06
533.796	1672.06
534.011	1689.06
534.225	1744.06
534.44	1702.06
534.654	1663.06
534.868	1698.06
535.083	1769.06
535.297	1765.06
535.511	1697.06
535.726	1698.06
535.94	1688.06
536.154	1686.06
536.369	1663.06
536.583	1648.06
536.797	1600.06
537.011	1712.06
537.225	1638.06
537.44	1626.06
537.654	1707.06
537.868	1635.06
538.082	1543.06
538.296	1520.06
538.51	1574.06
538.724	1555.06
538.938	1567.06
539.153	1578.06
539.367	1627.06
539.581	1586.06
539.795	1668.06
540.009	1626.06
540.222	1594.06
540.436	1666.06
540.65	1804.06
540.864	1812.06
541.078	1739.06
541.292	1564.06
541.506	1590.06
541.72	1592.06
541.934	1576.06
542.147	1655.06
542.361	1616.06
542.575	1593.06
542.789	1553.06
543.002	1504.06
543.216	1572.06
543.43	1623.06
543.644	1681.06
543.857	1755.06
544.071	1698.06
544.285	1610.06
544.498	1612.06
544.712	1596.06
544.925	1581.06
545.139	1653.06
545.352	1585.06
545.566	1533.06
545.779	1490.06
545.993	1514.06
546.206	1588.06
546.42	1495.06
546.633	1493.06
546.847	1495.06
547.06	1505.06
547.274	1500.06
547.487	1475.06
547.7	1509.06
547.914	1523.06
548.127	1547.06
548.34	1515.06
548.554	1531.06
548.767	1503.06
548.98	1535.06
549.193	1515.06
549.407	1610.06
549.62	1641.06
549.833	1566.06
550.046	1506.06
550.259	1497.06
550.473	1459.06
550.686	1503.06
550.899	1447.06
551.112	1429.06
551.325	1426.06
551.538	1517.06
551.751	1820.06
551.964	1465.06
552.177	1387.06
552.39	1450.06
552.603	1505.06
552.816	1483.06
553.029	1551.06
553.242	1623.06
553.455	1510.06
553.667	1515.06
553.88	1529.06
554.093	1481.06
554.306	1429.06
554.519	1411.06
554.732	1385.06
554.944	1405.06
555.157	1444.06
555.37	1399.06
555.583	1434.06
555.795	1371.06
556.008	1342.06
556.221	1314.06
556.433	1333.06
556.646	1291.06
556.859	1289.06
557.071	1265.06
557.284	1245.06
557.496	1271.06
557.709	1240.06
557.921	1281.06
558.134	1266.06
558.346	1284.06
558.559	1234.06
558.771	1260.06
558.984	1209.06
559.196	1193.06
559.409	1190.06
559.621	1176.06
559.833	1233.06
560.046	1286.06
560.258	1269.06
560.47	1223.06
560.683	1217.06
560.895	1220.06
561.107	1216.06
561.32	1227.06
561.532	1263.06
561.744	1231.06
561.956	1211.06
562.168	1199.06
562.381	1163.06
562.593	1151.06
562.805	1183.06
563.017	1171.06
563.229	1234.06
563.441	1248.06
563.653	1182.06
563.865	1218.06
564.077	1206.06
564.289	1174.06
564.501	1228.06
564.713	1267.06
564.925	1260.06
565.137	1367.06
565.349	1271.06
565.561	1241.06
565.773	1292.06
565.985	1276.06
566.197	1384.06
566.408	1463.06
566.62	1469.06
566.832	1440.06
567.044	1433.06
567.255	1433.06
567.467	1414.06
567.679	1512.06
567.891	1557.06
568.102	1519.06
568.314	1437.06
568.526	1407.06
568.737	1322.06
568.949	1277.06
569.161	1207.06
569.372	1211.06
569.584	1181.06
569.795	1177.06
570.007	1156.06
570.218	1113.06
570.43	1111.06
570.641	1122.06
570.853	1097.06
571.064	1095.06
571.276	1077.06
571.487	1080.06
571.698	1016.06
571.91	1027.06
572.121	1027.06
572.333	1001.06
572.544	987.06
572.755	948.06
572.966	964.06
573.178	948.06
573.389	987.06
573.6	1014.06
573.811	1109.06
574.023	1019.06
574.234	954.06
574.445	910.06
574.656	917.06
574.867	935.06
575.078	929.06
575.289	927.06
575.501	902.06
575.712	899.06
575.923	896.06
576.134	897.06
576.345	892.06
576.556	873.06
576.767	885.06
576.978	865.06
577.188	860.06
577.399	884.06
577.61	874.06
577.821	859.06
578.032	852.06
578.243	833.06
578.454	844.06
578.665	843.06
578.875	809.06
579.086	830.06
579.297	821.06
579.508	854.06
579.718	827.06
579.929	821.06
580.14	796.06
580.35	796.06
580.561	830.06
580.772	899.06
580.982	841.06
581.193	807.06
581.403	766.06
581.614	760.06
581.825	774.06
582.035	771.06
582.246	805.06
582.456	828.06
582.667	783.06
582.877	804.06
583.087	769.06
583.298	757.06
583.508	777.06
583.719	796.06
583.929	781.06
584.139	785.06
584.35	765.06
584.56	769.06
584.77	767.06
584.981	790.06
585.191	755.06
585.401	781.06
585.611	778.06
585.821	782.06
586.032	763.06
586.242	737.06
586.452	739.06
586.662	776.06
586.872	745.06
587.082	731.06
587.292	743.06
587.502	767.06
587.713	757.06
587.923	726.06
588.133	733.06
588.343	733.06
588.553	758.06
588.762	754.06
588.972	713.06
589.182	754.06
589.392	751.06
589.602	746.06
589.812	727.06
590.022	693.06
590.232	701.06
590.441	733.06
590.651	760.06
590.861	711.06
591.071	727.06
591.281	701.06
591.49	708.06
591.7	723.06
591.91	726.06
592.119	731.06
592.329	728.06
592.539	733.06
592.748	720.06
592.958	727.06
593.167	764.06
593.377	751.06
593.587	752.06
593.796	752.06
594.006	773.06
594.215	762.06
594.424	762.06
594.634	731.06
594.843	733.06
595.053	758.06
595.262	730.06
595.472	706.06
595.681	747.06
595.89	717.06
596.1	680.06
596.309	683.06
596.518	696.06
596.727	680.06
596.937	680.06
597.146	657.06
597.355	635.06
597.564	646.06
597.774	627.06
597.983	625.06
598.192	637.06
598.401	614.06
598.61	611.06
598.819	605.06
599.028	633.06
599.237	641.06
599.446	594.06
599.655	602.06
599.864	589.06
600.073	620.06
600.282	608.06
600.491	580.06
600.7	592.06
600.909	589.06
601.118	629.06
601.327	602.06
601.536	611.06
601.745	603.06
601.953	560.06
602.162	591.06
602.371	608.06
602.58	589.06
602.789	616.06
602.997	589.06
603.206	555.06
603.415	562.06
603.623	581.06
603.832	599.06
604.041	573.06
604.249	553.06
604.458	575.06
604.666	579.06
604.875	564.06
605.084	592.06
605.292	573.06
605.501	538.06
605.709	560.06
605.918	557.06
606.126	536.06
606.334	572.06
606.543	560.06
606.751	560.06
606.96	556.06
607.168	579.06
607.376	544.06
607.585	543.06
607.793	544.06
608.001	544.06
608.21	550.06
608.418	535.06
608.626	563.06
608.834	546.06
609.043	545.06
609.251	560.06
609.459	533.06
609.667	541.06
609.875	553.06
610.083	554.06
610.291	559.06
610.499	527.06
610.707	556.06
610.916	526.06
611.124	517.06
611.332	537.06
611.54	529.06
611.748	521.06
611.955	509.06
612.163	507.06
612.371	518.06
612.579	489.06
612.787	524.06
612.995	494.06
613.203	531.06
613.411	519.06
613.618	528.06
613.826	521.06
614.034	510.06
614.242	526.06
614.449	497.06
614.657	503.06
614.865	486.06
615.072	519.06
615.28	502.06
615.488	521.06
615.695	540.06
615.903	541.06
616.111	502.06
616.318	521.06
616.526	536.06
616.733	506.06
616.941	488.06
617.148	482.06
617.356	505.06
617.563	525.06
617.771	495.06
617.978	484.06
618.185	498.06
618.393	506.06
618.6	500.06
618.807	479.06
619.015	503.06
619.222	506.06
619.429	487.06
619.637	470.06
619.844	482.06
620.051	464.06
620.258	466.06
620.466	461.06
620.673	449.06
620.88	452.06
621.087	455.06
621.294	457.06
621.501	449.06
621.708	461.06
621.915	456.06
622.122	490.06
622.329	459.06
622.536	465.06
622.743	460.06
622.95	446.06
623.157	449.06
623.364	431.06
623.571	451.06
623.778	449.06
623.985	459.06
624.192	463.06
624.399	428.06
624.606	435.06
624.812	419.06
625.019	437.06
625.226	419.06
625.433	425.06
625.639	435.06
625.846	439.06
626.053	420.06
626.259	428.06
626.466	404.06
626.673	406.06
626.879	395.06
627.086	398.06
627.293	395.06
627.499	407.06
627.706	419.06
627.912	404.06
628.119	409.06
628.325	405.06
628.532	387.06
628.738	419.06
628.945	404.06
629.151	402.06
629.357	392.06
629.564	405.06
629.77	399.06
629.976	397.06
630.183	388.06
630.389	402.06
630.595	404.06
630.802	393.06
631.008	402.06
631.214	375.06
631.42	368.06
631.627	363.06
631.833	357.06
632.039	346.06
632.245	390.06
632.451	383.06
632.657	349.06
632.863	361.06
633.069	379.06
633.275	386.06
633.481	363.06
633.688	362.06
633.893	359.06
634.099	365.06
634.305	357.06
634.511	355.06
634.717	339.06
634.923	347.06
635.129	341.06
635.335	361.06
635.541	367.06
635.747	355.06
635.952	367.06
636.158	342.06
636.364	327.06
636.57	345.06
636.775	380.06
636.981	338.06
637.187	351.06
637.392	348.06
637.598	330.06
637.804	341.06
638.009	341.06
638.215	342.06
638.421	340.06
638.626	339.06
638.832	341.06
639.037	320.06
639.243	336.06
639.448	330.06
639.654	335.06
639.859	331.06
640.065	330.06
640.27	342.06
640.475	324.06
640.681	334.06
640.886	339.06
641.091	316.06
641.297	321.06
641.502	311.06
641.707	311.06
641.913	332.06
642.118	332.06
642.323	322.06
642.528	332.06
642.733	311.06
642.939	315.06
643.144	321.06
643.349	324.06
643.554	322.06
643.759	337.06
643.964	332.06
644.169	332.06
644.374	313.06
644.579	311.06
644.784	312.06
644.989	304.06
645.194	309.06
645.399	306.06
645.604	312.06
645.809	296.06
646.014	294.06
646.219	305.06
646.423	309.06
646.628	317.06
646.833	287.06
647.038	303.06
647.243	298.06
647.447	310.06
647.652	303.06
647.857	314.06
648.062	315.06
648.266	311.06
648.471	320.06
648.676	329.06
648.88	319.06
649.085	316.06
649.289	303.06
649.494	314.06
649.698	303.06
649.903	291.06
650.107	295.06
650.312	300.06
650.516	290.06
650.721	278.06
650.925	260.06
651.13	269.06
651.334	295.06
651.539	280.06
651.743	268.06
651.947	290.06
652.152	265.06
652.356	270.06
652.56	262.06
652.764	287.06
652.969	251.06
653.173	246.06
653.377	246.06
653.581	235.06
653.785	231.06
653.99	227.06
654.194	241.06
654.398	239.06
654.602	258.06
654.806	233.06
655.01	237.06
655.214	237.06
655.418	226.06
655.622	235.06
655.826	243.06
656.03	257.06
656.234	261.06
656.438	265.06
656.642	247.06
656.846	259.06
657.049	241.06
657.253	211.06
657.457	214.06
657.661	183.06
657.865	177.06
658.068	177.06
658.272	166.06
658.476	164.06
658.68	170.06
658.883	139.06
659.087	138.06
659.291	131.06
659.494	128.06
659.698	131.06
659.901	139.06
660.105	138.06
660.309	126.06
660.512	119.06
660.716	132.06
660.919	103.06
661.123	115.06
661.326	89.06
661.53	91.06
661.733	101.06
661.936	105.06
662.14	95.06
662.343	98.06
662.546	91.06
662.75	87.06
662.953	99.06
663.156	80.06
663.36	84.06
663.563	91.06
663.766	85.06
663.969	83.06
664.173	86.06
664.376	85.06
664.579	95.06
664.782	72.06
664.985	89.06
665.188	91.06
665.391	81.06
665.594	82.06
665.797	71.06
666	79.06
666.203	79.06
666.406	74.06
666.609	72.06
666.812	86.06
667.015	76.06
667.218	76.06
667.421	91.06
667.624	72.06
667.827	59.06
668.03	88.06
668.232	83.06
668.435	82.06
668.638	88.06
668.841	83.06
669.043	93.06
669.246	88.06
669.449	81.06
669.651	86.06
669.854	91.06
670.057	82.06
670.259	82.06
670.462	88.06
670.665	94.06
670.867	69.06
671.07	85.06
671.272	84.06
671.475	88.06
671.677	74.06
671.88	80.06
672.082	84.06
672.284	75.06
672.487	74.06
672.689	72.06
672.892	81.06
