Data from WStandard_LampEnergy8_LIBS07252019.E.O._I.C._HRD10591_16-00-24-929.txt Node
Date: Thu Jul 25 16:00:24 EDT 2019
User: cochatt
Spectrometer: HR+D1059
Trigger mode: 1
Integration Time (sec): 1.000000E-1
Scans to average: 1
Electric dark correction enabled: true
Nonlinearity correction enabled: false
Boxcar width: 0
XAxis mode: Wavelengths
Number of Pixels in Spectrum: 2048
>>>>>Begin Spectral Data<<<<<
223.165	-13.62
223.4	-13.62
223.635	-13.62
223.869	-7.62
224.104	-25.62
224.338	-18.62
224.573	-24.62
224.808	-14.62
225.042	-11.62
225.277	-0.62
225.511	6.38
225.746	10.38
225.98	-4.62
226.215	-1.62
226.449	26.38
226.683	16.38
226.918	25.38
227.152	38.38
227.387	39.38
227.621	43.38
227.856	53.38
228.09	42.38
228.324	42.38
228.559	48.38
228.793	95.38
229.027	187.38
229.262	190.38
229.496	210.38
229.73	213.38
229.964	246.38
230.199	253.38
230.433	247.38
230.667	262.38
230.901	284.38
231.136	251.38
231.37	261.38
231.604	252.38
231.838	265.38
232.072	267.38
232.306	245.38
232.541	263.38
232.775	298.38
233.009	309.38
233.243	309.38
233.477	283.38
233.711	302.38
233.945	309.38
234.179	311.38
234.413	302.38
234.647	305.38
234.881	330.38
235.115	309.38
235.349	293.38
235.583	290.38
235.817	303.38
236.051	305.38
236.285	296.38
236.519	323.38
236.753	354.38
236.987	342.38
237.221	353.38
237.455	364.38
237.689	373.38
237.922	341.38
238.156	340.38
238.39	337.38
238.624	362.38
238.858	386.38
239.091	386.38
239.325	410.38
239.559	466.38
239.793	491.38
240.027	521.38
240.26	500.38
240.494	382.38
240.728	357.38
240.961	366.38
241.195	377.38
241.429	391.38
241.662	408.38
241.896	377.38
242.13	405.38
242.363	418.38
242.597	433.38
242.83	453.38
243.064	454.38
243.298	468.38
243.531	468.38
243.765	436.38
243.998	450.38
244.232	418.38
244.465	409.38
244.699	423.38
244.932	449.38
245.166	510.38
245.399	497.38
245.633	454.38
245.866	433.38
246.099	453.38
246.333	487.38
246.566	466.38
246.8	533.38
247.033	573.38
247.266	516.38
247.5	502.38
247.733	532.38
247.966	555.38
248.2	594.38
248.433	612.38
248.666	600.38
248.899	645.38
249.133	729.38
249.366	785.38
249.599	654.38
249.832	586.38
250.066	627.38
250.299	606.38
250.532	571.38
250.765	514.38
250.998	585.38
251.231	585.38
251.465	602.38
251.698	561.38
251.931	581.38
252.164	578.38
252.397	607.38
252.63	605.38
252.863	541.38
253.096	539.38
253.329	578.38
253.562	592.38
253.795	595.38
254.028	597.38
254.261	558.38
254.494	572.38
254.727	544.38
254.96	576.38
255.193	650.38
255.426	695.38
255.659	743.38
255.892	778.38
256.124	669.38
256.357	633.38
256.59	645.38
256.823	669.38
257.056	684.38
257.289	804.38
257.521	861.38
257.754	767.38
257.987	754.38
258.22	821.38
258.452	799.38
258.685	650.38
258.918	661.38
259.151	667.38
259.383	623.38
259.616	582.38
259.849	604.38
260.081	674.38
260.314	750.38
260.547	799.38
260.779	782.38
261.012	745.38
261.244	682.38
261.477	678.38
261.71	687.38
261.942	682.38
262.175	659.38
262.407	677.38
262.64	651.38
262.872	596.38
263.105	625.38
263.337	611.38
263.57	622.38
263.802	630.38
264.035	581.38
264.267	557.38
264.499	535.38
264.732	588.38
264.964	647.38
265.197	661.38
265.429	705.38
265.661	741.38
265.894	841.38
266.126	830.38
266.358	749.38
266.591	801.38
266.823	830.38
267.055	784.38
267.287	747.38
267.52	714.38
267.752	722.38
267.984	769.38
268.216	767.38
268.448	782.38
268.681	762.38
268.913	710.38
269.145	671.38
269.377	684.38
269.609	756.38
269.841	846.38
270.073	969.38
270.306	1075.38
270.538	1090.38
270.77	941.38
271.002	822.38
271.234	779.38
271.466	777.38
271.698	901.38
271.93	1052.38
272.162	1035.38
272.394	960.38
272.626	870.38
272.858	787.38
273.09	690.38
273.322	693.38
273.553	661.38
273.785	681.38
274.017	669.38
274.249	732.38
274.481	749.38
274.713	708.38
274.945	703.38
275.176	672.38
275.408	669.38
275.64	651.38
275.872	679.38
276.104	723.38
276.335	810.38
276.567	881.38
276.799	900.38
277.031	817.38
277.262	790.38
277.494	795.38
277.726	897.38
277.957	863.38
278.189	803.38
278.421	710.38
278.652	717.38
278.884	709.38
279.115	733.38
279.347	729.38
279.579	705.38
279.81	718.38
280.042	789.38
280.273	843.38
280.505	838.38
280.736	819.38
280.968	814.38
281.199	715.38
281.431	682.38
281.662	696.38
281.894	724.38
282.125	725.38
282.356	726.38
282.588	749.38
282.819	767.38
283.051	823.38
283.282	826.38
283.513	833.38
283.745	735.38
283.976	701.38
284.207	711.38
284.439	718.38
284.67	716.38
284.901	742.38
285.132	741.38
285.364	748.38
285.595	764.38
285.826	741.38
286.057	709.38
286.288	751.38
286.52	780.38
286.751	827.38
286.982	849.38
287.213	769.38
287.444	718.38
287.675	717.38
287.906	789.38
288.138	814.38
288.369	787.38
288.6	759.38
288.831	722.38
289.062	735.38
289.293	733.38
289.524	737.38
289.755	773.38
289.986	770.38
290.217	716.38
290.448	721.38
290.679	758.38
290.91	790.38
291.141	779.38
291.371	825.38
291.602	794.38
291.833	804.38
292.064	829.38
292.295	801.38
292.526	854.38
292.757	839.38
292.987	822.38
293.218	783.38
293.449	866.38
293.68	937.38
293.91	984.38
294.141	897.38
294.372	879.38
294.603	913.38
294.833	961.38
295.064	901.38
295.295	832.38
295.525	754.38
295.756	745.38
295.987	727.38
296.217	719.38
296.448	740.38
296.679	749.38
296.909	762.38
297.14	742.38
297.37	761.38
297.601	823.38
297.831	873.38
298.062	871.38
298.292	793.38
298.523	787.38
298.753	763.38
298.984	783.38
299.214	778.38
299.445	804.38
299.675	807.38
299.905	835.38
300.136	812.38
300.366	785.38
300.597	740.38
300.827	753.38
301.057	810.38
301.288	836.38
301.518	848.38
301.748	842.38
301.979	919.38
302.209	951.38
302.439	967.38
302.669	950.38
302.9	919.38
303.13	842.38
303.36	841.38
303.59	862.38
303.82	844.38
304.051	848.38
304.281	859.38
304.511	853.38
304.741	928.38
304.971	999.38
305.201	1031.38
305.431	954.38
305.661	790.38
305.891	726.38
306.121	755.38
306.352	818.38
306.582	830.38
306.812	875.38
307.042	946.38
307.272	923.38
307.502	957.38
307.731	1018.38
307.961	1030.38
308.191	978.38
308.421	845.38
308.651	825.38
308.881	778.38
309.111	807.38
309.341	811.38
309.571	822.38
309.8	827.38
310.03	799.38
310.26	829.38
310.49	817.38
310.72	835.38
310.949	890.38
311.179	870.38
311.409	863.38
311.639	827.38
311.868	821.38
312.098	817.38
312.328	835.38
312.557	806.38
312.787	818.38
313.017	865.38
313.246	856.38
313.476	835.38
313.706	860.38
313.935	877.38
314.165	865.38
314.394	899.38
314.624	957.38
314.853	1015.38
315.083	1039.38
315.312	1030.38
315.542	969.38
315.771	890.38
316.001	902.38
316.23	935.38
316.46	925.38
316.689	934.38
316.919	873.38
317.148	848.38
317.377	880.38
317.607	949.38
317.836	1029.38
318.065	1060.38
318.295	1016.38
318.524	975.38
318.753	932.38
318.983	913.38
319.212	935.38
319.441	900.38
319.67	885.38
319.9	927.38
320.129	998.38
320.358	1010.38
320.587	983.38
320.816	1006.38
321.046	979.38
321.275	949.38
321.504	972.38
321.733	1010.38
321.962	993.38
322.191	902.38
322.42	907.38
322.649	892.38
322.878	909.38
323.108	922.38
323.337	948.38
323.566	947.38
323.795	921.38
324.024	951.38
324.253	910.38
324.482	916.38
324.71	891.38
324.939	858.38
325.168	883.38
325.397	919.38
325.626	938.38
325.855	916.38
326.084	907.38
326.313	919.38
326.542	929.38
326.77	968.38
326.999	940.38
327.228	917.38
327.457	868.38
327.686	851.38
327.914	886.38
328.143	921.38
328.372	898.38
328.6	854.38
328.829	906.38
329.058	897.38
329.287	895.38
329.515	920.38
329.744	941.38
329.972	1006.38
330.201	1026.38
330.43	1009.38
330.658	950.38
330.887	981.38
331.115	1000.38
331.344	951.38
331.572	956.38
331.801	941.38
332.03	969.38
332.258	984.38
332.486	961.38
332.715	963.38
332.943	972.38
333.172	945.38
333.4	988.38
333.629	1007.38
333.857	1065.38
334.085	1173.38
334.314	1340.38
334.542	1374.38
334.771	1256.38
334.999	1128.38
335.227	1064.38
335.455	1032.38
335.684	1049.38
335.912	1057.38
336.14	1120.38
336.369	1025.38
336.597	988.38
336.825	984.38
337.053	1011.38
337.281	1083.38
337.51	1116.38
337.738	1160.38
337.966	1075.38
338.194	969.38
338.422	953.38
338.65	948.38
338.878	926.38
339.106	938.38
339.334	916.38
339.562	935.38
339.79	919.38
340.018	997.38
340.246	1040.38
340.474	1025.38
340.702	1001.38
340.93	1002.38
341.158	972.38
341.386	977.38
341.614	974.38
341.842	985.38
342.07	983.38
342.298	968.38
342.526	949.38
342.754	984.38
342.981	966.38
343.209	926.38
343.437	968.38
343.665	941.38
343.893	990.38
344.12	1025.38
344.348	1011.38
344.576	977.38
344.804	956.38
345.031	967.38
345.259	963.38
345.487	933.38
345.714	883.38
345.942	881.38
346.17	905.38
346.397	929.38
346.625	893.38
346.853	889.38
347.08	845.38
347.308	885.38
347.535	889.38
347.763	907.38
347.99	896.38
348.218	869.38
348.445	884.38
348.673	897.38
348.9	910.38
349.128	938.38
349.355	966.38
349.583	954.38
349.81	908.38
350.037	849.38
350.265	870.38
350.492	868.38
350.72	890.38
350.947	936.38
351.174	939.38
351.402	877.38
351.629	850.38
351.856	857.38
352.083	871.38
352.311	874.38
352.538	887.38
352.765	915.38
352.992	915.38
353.22	917.38
353.447	874.38
353.674	914.38
353.901	888.38
354.128	874.38
354.355	893.38
354.583	926.38
354.81	925.38
355.037	957.38
355.264	949.38
355.491	929.38
355.718	921.38
355.945	912.38
356.172	859.38
356.399	865.38
356.626	879.38
356.853	923.38
357.08	996.38
357.307	1084.38
357.534	1057.38
357.761	942.38
357.988	891.38
358.215	856.38
358.441	856.38
358.668	877.38
358.895	869.38
359.122	939.38
359.349	1026.38
359.576	1021.38
359.802	910.38
360.029	899.38
360.256	864.38
360.483	904.38
360.709	897.38
360.936	929.38
361.163	983.38
361.39	1059.38
361.616	1146.38
361.843	1134.38
362.07	1049.38
362.296	940.38
362.523	881.38
362.749	915.38
362.976	933.38
363.203	911.38
363.429	893.38
363.656	897.38
363.882	936.38
364.109	1023.38
364.335	1077.38
364.562	1009.38
364.788	958.38
365.015	914.38
365.241	898.38
365.468	935.38
365.694	921.38
365.92	974.38
366.147	919.38
366.373	871.38
366.599	901.38
366.826	907.38
367.052	890.38
367.278	897.38
367.505	908.38
367.731	928.38
367.957	923.38
368.184	940.38
368.41	1010.38
368.636	1029.38
368.862	1047.38
369.089	1043.38
369.315	1000.38
369.541	968.38
369.767	949.38
369.993	890.38
370.219	913.38
370.445	935.38
370.672	1017.38
370.898	1050.38
371.124	1034.38
371.35	959.38
371.576	1015.38
371.802	1022.38
372.028	980.38
372.254	942.38
372.48	934.38
372.706	905.38
372.932	919.38
373.158	973.38
373.384	978.38
373.61	1017.38
373.835	1028.38
374.061	979.38
374.287	996.38
374.513	961.38
374.739	980.38
374.965	939.38
375.191	988.38
375.416	1002.38
375.642	996.38
375.868	1053.38
376.094	1076.38
376.319	1033.38
376.545	957.38
376.771	1029.38
376.997	1091.38
377.222	1039.38
377.448	1001.38
377.674	991.38
377.899	1029.38
378.125	1073.38
378.35	1029.38
378.576	963.38
378.802	937.38
379.027	918.38
379.253	945.38
379.478	969.38
379.704	942.38
379.929	982.38
380.155	972.38
380.38	982.38
380.606	994.38
380.831	1010.38
381.057	1086.38
381.282	1058.38
381.507	1034.38
381.733	1098.38
381.958	1102.38
382.184	1025.38
382.409	1017.38
382.634	1029.38
382.86	1029.38
383.085	1048.38
383.31	1057.38
383.535	1170.38
383.761	1214.38
383.986	1123.38
384.211	1103.38
384.436	1083.38
384.662	1116.38
384.887	1131.38
385.112	1133.38
385.337	1124.38
385.562	1120.38
385.787	1107.38
386.013	1147.38
386.238	1127.38
386.463	1129.38
386.688	1173.38
386.913	1275.38
387.138	1221.38
387.363	1156.38
387.588	1139.38
387.813	1127.38
388.038	1162.38
388.263	1173.38
388.488	1122.38
388.713	1041.38
388.938	1031.38
389.163	1069.38
389.387	1085.38
389.612	1089.38
389.837	1077.38
390.062	1114.38
390.287	1112.38
390.512	1114.38
390.736	1107.38
390.961	1074.38
391.186	1045.38
391.411	1073.38
391.636	1096.38
391.86	1118.38
392.085	1092.38
392.31	1109.38
392.534	1089.38
392.759	1073.38
392.984	1107.38
393.208	1105.38
393.433	1163.38
393.658	1175.38
393.882	1165.38
394.107	1142.38
394.331	1121.38
394.556	1113.38
394.78	1122.38
395.005	1175.38
395.229	1223.38
395.454	1238.38
395.678	1269.38
395.903	1216.38
396.127	1162.38
396.352	1201.38
396.576	1226.38
396.801	1250.38
397.025	1184.38
397.249	1206.38
397.474	1203.38
397.698	1183.38
397.922	1221.38
398.147	1301.38
398.371	1315.38
398.595	1319.38
398.82	1222.38
399.044	1301.38
399.268	1369.38
399.492	1415.38
399.717	1445.38
399.941	1431.38
400.165	1446.38
400.389	1404.38
400.613	1429.38
400.837	1596.38
401.062	1781.38
401.286	1474.38
401.51	1363.38
401.734	1432.38
401.958	1390.38
402.182	1316.38
402.406	1269.38
402.63	1254.38
402.854	1259.38
403.078	1283.38
403.302	1285.38
403.526	1325.38
403.75	1305.38
403.974	1309.38
404.198	1311.38
404.422	1388.38
404.645	1449.38
404.869	1402.38
405.093	1314.38
405.317	1289.38
405.541	1326.38
405.765	1287.38
405.988	1318.38
406.212	1349.38
406.436	1408.38
406.66	1436.38
406.883	1453.38
407.107	1646.38
407.331	1745.38
407.555	1853.38
407.778	1641.38
408.002	1425.38
408.226	1382.38
408.449	1421.38
408.673	1360.38
408.896	1363.38
409.12	1344.38
409.344	1340.38
409.567	1295.38
409.791	1324.38
410.014	1360.38
410.238	1458.38
410.461	1514.38
410.685	1316.38
410.908	1305.38
411.132	1316.38
411.355	1332.38
411.578	1295.38
411.802	1307.38
412.025	1307.38
412.249	1279.38
412.472	1308.38
412.695	1278.38
412.919	1256.38
413.142	1257.38
413.365	1287.38
413.589	1313.38
413.812	1389.38
414.035	1413.38
414.258	1289.38
414.482	1317.38
414.705	1284.38
414.928	1254.38
415.151	1274.38
415.374	1289.38
415.597	1322.38
415.821	1342.38
416.044	1326.38
416.267	1306.38
416.49	1231.38
416.713	1265.38
416.936	1339.38
417.159	1362.38
417.382	1329.38
417.605	1277.38
417.828	1293.38
418.051	1291.38
418.274	1272.38
418.497	1265.38
418.72	1259.38
418.943	1248.38
419.166	1311.38
419.389	1319.38
419.611	1294.38
419.834	1265.38
420.057	1291.38
420.28	1231.38
420.503	1235.38
420.726	1294.38
420.948	1210.38
421.171	1243.38
421.394	1262.38
421.617	1319.38
421.839	1345.38
422.062	1301.38
422.285	1255.38
422.507	1245.38
422.73	1206.38
422.953	1167.38
423.175	1196.38
423.398	1215.38
423.621	1230.38
423.843	1236.38
424.066	1340.38
424.288	1342.38
424.511	1369.38
424.733	1332.38
424.956	1217.38
425.178	1219.38
425.401	1243.38
425.623	1244.38
425.846	1201.38
426.068	1294.38
426.291	1323.38
426.513	1326.38
426.735	1301.38
426.958	1400.38
427.18	1471.38
427.402	1347.38
427.625	1367.38
427.847	1335.38
428.069	1244.38
428.292	1218.38
428.514	1213.38
428.736	1198.38
428.958	1189.38
429.181	1254.38
429.403	1439.38
429.625	1694.38
429.847	1437.38
430.069	1282.38
430.292	1403.38
430.514	1410.38
430.736	1345.38
430.958	1362.38
431.18	1304.38
431.402	1190.38
431.624	1157.38
431.846	1163.38
432.068	1112.38
432.29	1109.38
432.512	1160.38
432.734	1218.38
432.956	1245.38
433.178	1292.38
433.4	1305.38
433.622	1243.38
433.844	1213.38
434.066	1169.38
434.287	1149.38
434.509	1181.38
434.731	1228.38
434.953	1326.38
435.175	1302.38
435.397	1276.38
435.618	1250.38
435.84	1214.38
436.062	1204.38
436.284	1220.38
436.505	1242.38
436.727	1272.38
436.949	1282.38
437.17	1223.38
437.392	1199.38
437.614	1214.38
437.835	1153.38
438.057	1217.38
438.278	1226.38
438.5	1192.38
438.721	1194.38
438.943	1194.38
439.165	1203.38
439.386	1177.38
439.608	1217.38
439.829	1234.38
440.05	1225.38
440.272	1217.38
440.493	1227.38
440.715	1215.38
440.936	1322.38
441.158	1403.38
441.379	1401.38
441.6	1376.38
441.822	1322.38
442.043	1293.38
442.264	1308.38
442.486	1241.38
442.707	1227.38
442.928	1256.38
443.149	1302.38
443.371	1317.38
443.592	1341.38
443.813	1340.38
444.034	1334.38
444.255	1333.38
444.476	1381.38
444.698	1366.38
444.919	1369.38
445.14	1422.38
445.361	1429.38
445.582	1440.38
445.803	1390.38
446.024	1323.38
446.245	1381.38
446.466	1342.38
446.687	1291.38
446.908	1305.38
447.129	1285.38
447.35	1286.38
447.571	1253.38
447.792	1228.38
448.013	1251.38
448.234	1238.38
448.455	1290.38
448.675	1263.38
448.896	1228.38
449.117	1167.38
449.338	1198.38
449.559	1242.38
449.779	1294.38
450	1389.38
450.221	1435.38
450.442	1398.38
450.662	1271.38
450.883	1192.38
451.104	1153.38
451.324	1153.38
451.545	1181.38
451.766	1158.38
451.986	1109.38
452.207	1084.38
452.428	1064.38
452.648	1083.38
452.869	1068.38
453.089	1122.38
453.31	1147.38
453.53	1122.38
453.751	1072.38
453.971	1052.38
454.192	1105.38
454.412	1120.38
454.633	1120.38
454.853	1107.38
455.073	1029.38
455.294	1051.38
455.514	1046.38
455.734	1054.38
455.955	1063.38
456.175	1065.38
456.395	1046.38
456.616	1075.38
456.836	1067.38
457.056	1030.38
457.276	1066.38
457.497	1012.38
457.717	947.38
457.937	1041.38
458.157	1038.38
458.377	1007.38
458.598	1006.38
458.818	1045.38
459.038	1081.38
459.258	1102.38
459.478	1112.38
459.698	1081.38
459.918	1162.38
460.138	1204.38
460.358	1198.38
460.578	1197.38
460.798	1237.38
461.018	1342.38
461.238	1246.38
461.458	1233.38
461.678	1239.38
461.898	1197.38
462.118	1171.38
462.338	1219.38
462.558	1241.38
462.777	1242.38
462.997	1285.38
463.217	1368.38
463.437	1306.38
463.657	1238.38
463.876	1239.38
464.096	1209.38
464.316	1232.38
464.536	1292.38
464.755	1262.38
464.975	1269.38
465.195	1251.38
465.414	1263.38
465.634	1250.38
465.854	1303.38
466.073	1353.38
466.293	1283.38
466.512	1199.38
466.732	1164.38
466.951	1252.38
467.171	1217.38
467.391	1194.38
467.61	1153.38
467.829	1180.38
468.049	1291.38
468.268	1437.38
468.488	1318.38
468.707	1233.38
468.927	1225.38
469.146	1201.38
469.365	1186.38
469.585	1207.38
469.804	1217.38
470.023	1225.38
470.243	1245.38
470.462	1213.38
470.681	1191.38
470.901	1183.38
471.12	1226.38
471.339	1221.38
471.558	1148.38
471.777	1150.38
471.997	1196.38
472.216	1189.38
472.435	1101.38
472.654	1074.38
472.873	1148.38
473.092	1205.38
473.311	1139.38
473.53	1120.38
473.749	1147.38
473.968	1144.38
474.187	1213.38
474.406	1230.38
474.625	1195.38
474.844	1177.38
475.063	1203.38
475.282	1161.38
475.501	1186.38
475.72	1151.38
475.939	1258.38
476.158	1219.38
476.377	1195.38
476.596	1198.38
476.814	1173.38
477.033	1187.38
477.252	1243.38
477.471	1269.38
477.69	1241.38
477.908	1239.38
478.127	1326.38
478.346	1394.38
478.564	1382.38
478.783	1359.38
479.002	1443.38
479.22	1380.38
479.439	1437.38
479.658	1568.38
479.876	1487.38
480.095	1335.38
480.313	1308.38
480.532	1293.38
480.751	1261.38
480.969	1269.38
481.188	1231.38
481.406	1234.38
481.624	1213.38
481.843	1220.38
482.061	1273.38
482.28	1307.38
482.498	1314.38
482.717	1287.38
482.935	1259.38
483.153	1301.38
483.372	1330.38
483.59	1333.38
483.808	1325.38
484.027	1330.38
484.245	1387.38
484.463	1686.38
484.681	1830.38
484.9	1457.38
485.118	1371.38
485.336	1290.38
485.554	1351.38
485.772	1405.38
485.99	1325.38
486.209	1378.38
486.427	1335.38
486.645	1364.38
486.863	1400.38
487.081	1413.38
487.299	1420.38
487.517	1442.38
487.735	1448.38
487.953	1464.38
488.171	1461.38
488.389	1439.38
488.607	1418.38
488.825	1576.38
489.043	1461.38
489.261	1365.38
489.479	1437.38
489.696	1425.38
489.914	1457.38
490.132	1403.38
490.35	1431.38
490.568	1501.38
490.786	1481.38
491.003	1449.38
491.221	1484.38
491.439	1537.38
491.657	1556.38
491.874	1569.38
492.092	1625.38
492.31	1647.38
492.527	1636.38
492.745	1574.38
492.963	1572.38
493.18	1587.38
493.398	1665.38
493.615	1635.38
493.833	1582.38
494.05	1524.38
494.268	1506.38
494.485	1527.38
494.703	1527.38
494.92	1510.38
495.138	1506.38
495.355	1535.38
495.573	1559.38
495.79	1642.38
496.008	1661.38
496.225	1555.38
496.442	1573.38
496.66	1557.38
496.877	1565.38
497.094	1604.38
497.312	1581.38
497.529	1605.38
497.746	1628.38
497.963	1781.38
498.181	1912.38
498.398	1834.38
498.615	1796.38
498.832	1713.38
499.049	1698.38
499.267	1711.38
499.484	1776.38
499.701	1969.38
499.918	1978.38
500.135	2134.38
500.352	2278.38
500.569	2290.38
500.786	2473.38
501.003	2257.38
501.22	2099.38
501.437	1994.38
501.654	2043.38
501.871	1950.38
502.088	1709.38
502.305	1706.38
502.522	1657.38
502.739	1526.38
502.956	1525.38
503.172	1515.38
503.389	1460.38
503.606	1441.38
503.823	1444.38
504.04	1451.38
504.256	1439.38
504.473	1459.38
504.69	1475.38
504.907	1418.38
505.123	1407.38
505.34	1523.38
505.557	1907.38
505.773	1623.38
505.99	1341.38
506.207	1324.38
506.423	1235.38
506.64	1231.38
506.856	1294.38
507.073	1453.38
507.289	1539.38
507.506	1450.38
507.722	1283.38
507.939	1222.38
508.155	1210.38
508.372	1212.38
508.588	1183.38
508.805	1131.38
509.021	1151.38
509.238	1116.38
509.454	1125.38
509.67	1124.38
509.887	1117.38
510.103	1088.38
510.319	1149.38
510.536	1181.38
510.752	1204.38
510.968	1175.38
511.184	1245.38
511.401	1245.38
511.617	1101.38
511.833	1088.38
512.049	1069.38
512.265	1083.38
512.481	1079.38
512.698	1124.38
512.914	1162.38
513.13	1122.38
513.346	1079.38
513.562	1066.38
513.778	1097.38
513.994	1151.38
514.21	1167.38
514.426	1185.38
514.642	1251.38
514.858	1198.38
515.074	1133.38
515.29	1081.38
515.506	1144.38
515.721	1140.38
515.937	1164.38
516.153	1239.38
516.369	1245.38
516.585	1186.38
516.801	1130.38
517.016	1155.38
517.232	1182.38
517.448	1174.38
517.664	1185.38
517.879	1173.38
518.095	1283.38
518.311	1212.38
518.527	1149.38
518.742	1135.38
518.958	1132.38
519.173	1132.38
519.389	1128.38
519.605	1160.38
519.82	1181.38
520.036	1177.38
520.251	1129.38
520.467	1117.38
520.682	1220.38
520.898	1187.38
521.113	1130.38
521.329	1069.38
521.544	1133.38
521.76	1103.38
521.975	1086.38
522.19	1098.38
522.406	1112.38
522.621	1353.38
522.836	1252.38
523.052	1093.38
523.267	1070.38
523.482	1074.38
523.698	1045.38
523.913	1040.38
524.128	1082.38
524.343	1121.38
524.559	1134.38
524.774	1084.38
524.989	1047.38
525.204	1044.38
525.419	1026.38
525.634	1027.38
525.849	1030.38
526.064	1063.38
526.28	1042.38
526.495	958.38
526.71	965.38
526.925	966.38
527.14	958.38
527.355	951.38
527.57	964.38
527.785	993.38
527.999	974.38
528.214	938.38
528.429	1001.38
528.644	1011.38
528.859	1055.38
529.074	1080.38
529.289	1099.38
529.503	1098.38
529.718	1029.38
529.933	1002.38
530.148	940.38
530.363	919.38
530.577	951.38
530.792	950.38
531.007	969.38
531.221	959.38
531.436	984.38
531.651	977.38
531.865	1023.38
532.08	974.38
532.295	954.38
532.509	888.38
532.724	919.38
532.938	969.38
533.153	1019.38
533.367	1017.38
533.582	998.38
533.796	1004.38
534.011	1011.38
534.225	978.38
534.44	972.38
534.654	946.38
534.868	950.38
535.083	1010.38
535.297	983.38
535.511	981.38
535.726	967.38
535.94	973.38
536.154	941.38
536.369	930.38
536.583	904.38
536.797	911.38
537.011	924.38
537.225	925.38
537.44	893.38
537.654	971.38
537.868	942.38
538.082	912.38
538.296	904.38
538.51	919.38
538.724	878.38
538.938	973.38
539.153	950.38
539.367	933.38
539.581	945.38
539.795	972.38
540.009	969.38
540.222	913.38
540.436	932.38
540.65	1029.38
540.864	1026.38
541.078	1021.38
541.292	1015.38
541.506	1037.38
541.72	1069.38
541.934	1146.38
542.147	1175.38
542.361	1107.38
542.575	1063.38
542.789	1003.38
543.002	949.38
543.216	953.38
543.43	991.38
543.644	1045.38
543.857	1089.38
544.071	1050.38
544.285	1093.38
544.498	1059.38
544.712	1061.38
544.925	1065.38
545.139	1091.38
545.352	1053.38
545.566	1066.38
545.779	1043.38
545.993	1060.38
546.206	1075.38
546.42	1037.38
546.633	1050.38
546.847	1026.38
547.06	1051.38
547.274	1049.38
547.487	1046.38
547.7	1063.38
547.914	1048.38
548.127	1069.38
548.34	1047.38
548.554	1036.38
548.767	1037.38
548.98	1055.38
549.193	1047.38
549.407	1093.38
549.62	1079.38
549.833	1010.38
550.046	1033.38
550.259	1024.38
550.473	1021.38
550.686	993.38
550.899	962.38
551.112	960.38
551.325	948.38
551.538	1026.38
551.751	1118.38
551.964	901.38
552.177	925.38
552.39	918.38
552.603	966.38
552.816	997.38
553.029	1015.38
553.242	1061.38
553.455	1017.38
553.667	1005.38
553.88	1021.38
554.093	1006.38
554.306	984.38
554.519	961.38
554.732	952.38
554.944	957.38
555.157	938.38
555.37	930.38
555.583	938.38
555.795	871.38
556.008	889.38
556.221	873.38
556.433	862.38
556.646	858.38
556.859	879.38
557.071	835.38
557.284	882.38
557.496	838.38
557.709	881.38
557.921	851.38
558.134	857.38
558.346	866.38
558.559	837.38
558.771	841.38
558.984	795.38
559.196	759.38
559.409	794.38
559.621	779.38
559.833	805.38
560.046	822.38
560.258	825.38
560.47	795.38
560.683	815.38
560.895	811.38
561.107	797.38
561.32	804.38
561.532	805.38
561.744	798.38
561.956	826.38
562.168	779.38
562.381	756.38
562.593	791.38
562.805	769.38
563.017	770.38
563.229	763.38
563.441	798.38
563.653	768.38
563.865	773.38
564.077	755.38
564.289	765.38
564.501	758.38
564.713	802.38
564.925	806.38
565.137	885.38
565.349	771.38
565.561	787.38
565.773	783.38
565.985	806.38
566.197	872.38
566.408	860.38
566.62	925.38
566.832	882.38
567.044	899.38
567.255	829.38
567.467	872.38
567.679	906.38
567.891	932.38
568.102	886.38
568.314	847.38
568.526	773.38
568.737	766.38
568.949	697.38
569.161	703.38
569.372	673.38
569.584	657.38
569.795	675.38
570.007	661.38
570.218	629.38
570.43	661.38
570.641	652.38
570.853	649.38
571.064	681.38
571.276	652.38
571.487	653.38
571.698	657.38
571.91	619.38
572.121	591.38
572.333	606.38
572.544	587.38
572.755	576.38
572.966	589.38
573.178	573.38
573.389	562.38
573.6	614.38
573.811	637.38
574.023	565.38
574.234	590.38
574.445	542.38
574.656	536.38
574.867	571.38
575.078	573.38
575.289	556.38
575.501	527.38
575.712	556.38
575.923	553.38
576.134	546.38
576.345	529.38
576.556	550.38
576.767	527.38
576.978	528.38
577.188	516.38
577.399	519.38
577.61	518.38
577.821	478.38
578.032	483.38
578.243	519.38
578.454	501.38
578.665	496.38
578.875	500.38
579.086	481.38
579.297	469.38
579.508	503.38
579.718	473.38
579.929	482.38
580.14	465.38
580.35	477.38
580.561	498.38
580.772	556.38
580.982	517.38
581.193	499.38
581.403	459.38
581.614	481.38
581.825	469.38
582.035	471.38
582.246	480.38
582.456	472.38
582.667	473.38
582.877	475.38
583.087	463.38
583.298	469.38
583.508	462.38
583.719	457.38
583.929	472.38
584.139	451.38
584.35	433.38
584.56	467.38
584.77	460.38
584.981	462.38
585.191	470.38
585.401	503.38
585.611	463.38
585.821	434.38
586.032	472.38
586.242	439.38
586.452	454.38
586.662	464.38
586.872	436.38
587.082	461.38
587.292	453.38
587.502	446.38
587.713	443.38
587.923	466.38
588.133	447.38
588.343	424.38
588.553	463.38
588.762	441.38
588.972	427.38
589.182	447.38
589.392	427.38
589.602	464.38
589.812	433.38
590.022	432.38
590.232	447.38
590.441	468.38
590.651	455.38
590.861	455.38
591.071	422.38
591.281	438.38
591.49	445.38
591.7	435.38
591.91	427.38
592.119	425.38
592.329	432.38
592.539	459.38
592.748	454.38
592.958	446.38
593.167	460.38
593.377	452.38
593.587	456.38
593.796	443.38
594.006	468.38
594.215	453.38
594.424	450.38
594.634	473.38
594.843	471.38
595.053	471.38
595.262	429.38
595.472	435.38
595.681	433.38
595.89	421.38
596.1	425.38
596.309	437.38
596.518	445.38
596.727	437.38
596.937	430.38
597.146	409.38
597.355	407.38
597.564	425.38
597.774	403.38
597.983	414.38
598.192	393.38
598.401	385.38
598.61	414.38
598.819	377.38
599.028	396.38
599.237	403.38
599.446	401.38
599.655	409.38
599.864	392.38
600.073	380.38
600.282	370.38
600.491	382.38
600.7	382.38
600.909	360.38
601.118	381.38
601.327	390.38
601.536	401.38
601.745	414.38
601.953	425.38
602.162	421.38
602.371	421.38
602.58	409.38
602.789	405.38
602.997	411.38
603.206	397.38
603.415	403.38
603.623	412.38
603.832	407.38
604.041	391.38
604.249	369.38
604.458	387.38
604.666	372.38
604.875	375.38
605.084	385.38
605.292	407.38
605.501	400.38
605.709	404.38
605.918	418.38
606.126	387.38
606.334	403.38
606.543	408.38
606.751	397.38
606.96	395.38
607.168	381.38
607.376	398.38
607.585	415.38
607.793	392.38
608.001	383.38
608.21	390.38
608.418	383.38
608.626	390.38
608.834	376.38
609.043	408.38
609.251	386.38
609.459	365.38
609.667	400.38
609.875	395.38
610.083	435.38
610.291	400.38
610.499	401.38
610.707	394.38
610.916	393.38
611.124	400.38
611.332	398.38
611.54	386.38
611.748	382.38
611.955	373.38
612.163	376.38
612.371	391.38
612.579	378.38
612.787	378.38
612.995	399.38
613.203	396.38
613.411	388.38
613.618	383.38
613.826	373.38
614.034	392.38
614.242	373.38
614.449	386.38
614.657	377.38
614.865	374.38
615.072	373.38
615.28	376.38
615.488	385.38
615.695	397.38
615.903	402.38
616.111	381.38
616.318	412.38
616.526	393.38
616.733	410.38
616.941	360.38
617.148	382.38
617.356	375.38
617.563	351.38
617.771	355.38
617.978	357.38
618.185	360.38
618.393	375.38
618.6	364.38
618.807	361.38
619.015	377.38
619.222	365.38
619.429	350.38
619.637	364.38
619.844	362.38
620.051	345.38
620.258	369.38
620.466	365.38
620.673	366.38
620.88	332.38
621.087	329.38
621.294	342.38
621.501	319.38
621.708	331.38
621.915	352.38
622.122	354.38
622.329	341.38
622.536	356.38
622.743	344.38
622.95	320.38
623.157	325.38
623.364	339.38
623.571	341.38
623.778	321.38
623.985	364.38
624.192	332.38
624.399	332.38
624.606	329.38
624.812	339.38
625.019	325.38
625.226	333.38
625.433	334.38
625.639	323.38
625.846	307.38
626.053	299.38
626.259	292.38
626.466	275.38
626.673	300.38
626.879	279.38
627.086	279.38
627.293	297.38
627.499	298.38
627.706	327.38
627.912	314.38
628.119	325.38
628.325	317.38
628.532	320.38
628.738	308.38
628.945	322.38
629.151	307.38
629.357	324.38
629.564	313.38
629.77	297.38
629.976	318.38
630.183	297.38
630.389	285.38
630.595	307.38
630.802	300.38
631.008	304.38
631.214	297.38
631.42	286.38
631.627	295.38
631.833	283.38
632.039	274.38
632.245	288.38
632.451	293.38
632.657	281.38
632.863	279.38
633.069	287.38
633.275	275.38
633.481	265.38
633.688	276.38
633.893	277.38
634.099	273.38
634.305	277.38
634.511	284.38
634.717	282.38
634.923	268.38
635.129	263.38
635.335	242.38
635.541	256.38
635.747	263.38
635.952	263.38
636.158	265.38
636.364	292.38
636.57	281.38
636.775	273.38
636.981	271.38
637.187	282.38
637.392	277.38
637.598	270.38
637.804	289.38
638.009	273.38
638.215	279.38
638.421	269.38
638.626	277.38
638.832	264.38
639.037	273.38
639.243	277.38
639.448	257.38
639.654	254.38
639.859	274.38
640.065	280.38
640.27	279.38
640.475	267.38
640.681	266.38
640.886	250.38
641.091	254.38
641.297	265.38
641.502	272.38
641.707	277.38
641.913	277.38
642.118	275.38
642.323	271.38
642.528	255.38
642.733	282.38
642.939	260.38
643.144	227.38
643.349	241.38
643.554	264.38
643.759	257.38
643.964	234.38
644.169	247.38
644.374	244.38
644.579	238.38
644.784	271.38
644.989	249.38
645.194	243.38
645.399	255.38
645.604	246.38
645.809	243.38
646.014	262.38
646.219	265.38
646.423	252.38
646.628	262.38
646.833	257.38
647.038	256.38
647.243	280.38
647.447	265.38
647.652	250.38
647.857	262.38
648.062	259.38
648.266	235.38
648.471	244.38
648.676	255.38
648.88	272.38
649.085	261.38
649.289	253.38
649.494	245.38
649.698	234.38
649.903	249.38
650.107	246.38
650.312	232.38
650.516	243.38
650.721	219.38
650.925	234.38
651.13	235.38
651.334	230.38
651.539	232.38
651.743	238.38
651.947	213.38
652.152	232.38
652.356	232.38
652.56	225.38
652.764	220.38
652.969	235.38
653.173	207.38
653.377	221.38
653.581	234.38
653.785	233.38
653.99	228.38
654.194	214.38
654.398	227.38
654.602	210.38
654.806	225.38
655.01	226.38
655.214	216.38
655.418	225.38
655.622	223.38
655.826	243.38
656.03	242.38
656.234	252.38
656.438	250.38
656.642	249.38
656.846	242.38
657.049	232.38
657.253	219.38
657.457	208.38
657.661	197.38
657.865	192.38
658.068	164.38
658.272	199.38
658.476	169.38
658.68	166.38
658.883	148.38
659.087	158.38
659.291	139.38
659.494	142.38
659.698	141.38
659.901	135.38
660.105	132.38
660.309	123.38
660.512	144.38
660.716	124.38
660.919	125.38
661.123	120.38
661.326	114.38
661.53	97.38
661.733	110.38
661.936	109.38
662.14	113.38
662.343	106.38
662.546	101.38
662.75	93.38
662.953	90.38
663.156	83.38
663.36	80.38
663.563	87.38
663.766	98.38
663.969	81.38
664.173	90.38
664.376	86.38
664.579	74.38
664.782	82.38
664.985	77.38
665.188	93.38
665.391	85.38
665.594	93.38
665.797	79.38
666	86.38
666.203	72.38
666.406	86.38
666.609	86.38
666.812	94.38
667.015	98.38
667.218	73.38
667.421	81.38
667.624	76.38
667.827	77.38
668.03	74.38
668.232	90.38
668.435	85.38
668.638	79.38
668.841	92.38
669.043	86.38
669.246	85.38
669.449	80.38
669.651	86.38
669.854	81.38
670.057	85.38
670.259	95.38
670.462	91.38
670.665	77.38
670.867	70.38
671.07	81.38
671.272	94.38
671.475	86.38
671.677	85.38
671.88	92.38
672.082	95.38
672.284	83.38
672.487	73.38
672.689	83.38
672.892	84.38
