Data from WStandard_LampEnergy10_LIBS07252019.E.O._I.C._HRD10591_15-55-02-928.txt Node
Date: Thu Jul 25 15:55:02 EDT 2019
User: cochatt
Spectrometer: HR+D1059
Trigger mode: 1
Integration Time (sec): 1.000000E-1
Scans to average: 1
Electric dark correction enabled: true
Nonlinearity correction enabled: false
Boxcar width: 0
XAxis mode: Wavelengths
Number of Pixels in Spectrum: 2048
>>>>>Begin Spectral Data<<<<<
223.165	-15.94
223.4	-15.94
223.635	-15.94
223.869	-11.94
224.104	-22.94
224.338	-7.94
224.573	-11.94
224.808	2.06
225.042	5.06
225.277	-13.94
225.511	-7.94
225.746	12.06
225.98	7.06
226.215	9.06
226.449	11.06
226.683	18.06
226.918	7.06
227.152	21.06
227.387	25.06
227.621	35.06
227.856	49.06
228.09	45.06
228.324	44.06
228.559	54.06
228.793	79.06
229.027	147.06
229.262	130.06
229.496	146.06
229.73	154.06
229.964	158.06
230.199	168.06
230.433	186.06
230.667	197.06
230.901	181.06
231.136	163.06
231.37	188.06
231.604	179.06
231.838	187.06
232.072	169.06
232.306	166.06
232.541	189.06
232.775	209.06
233.009	211.06
233.243	206.06
233.477	196.06
233.711	192.06
233.945	186.06
234.179	197.06
234.413	208.06
234.647	210.06
234.881	192.06
235.115	199.06
235.349	187.06
235.583	184.06
235.817	200.06
236.051	193.06
236.285	202.06
236.519	200.06
236.753	213.06
236.987	185.06
237.221	210.06
237.455	237.06
237.689	219.06
237.922	217.06
238.156	207.06
238.39	216.06
238.624	237.06
238.858	223.06
239.091	243.06
239.325	265.06
239.559	298.06
239.793	307.06
240.027	307.06
240.26	293.06
240.494	243.06
240.728	242.06
240.961	245.06
241.195	248.06
241.429	260.06
241.662	243.06
241.896	244.06
242.13	241.06
242.363	279.06
242.597	276.06
242.83	280.06
243.064	278.06
243.298	272.06
243.531	269.06
243.765	288.06
243.998	305.06
244.232	236.06
244.465	247.06
244.699	269.06
244.932	283.06
245.166	299.06
245.399	280.06
245.633	278.06
245.866	281.06
246.099	267.06
246.333	296.06
246.566	319.06
246.8	320.06
247.033	329.06
247.266	344.06
247.5	312.06
247.733	320.06
247.966	348.06
248.2	375.06
248.433	363.06
248.666	363.06
248.899	406.06
249.133	457.06
249.366	471.06
249.599	400.06
249.832	338.06
250.066	373.06
250.299	378.06
250.532	364.06
250.765	323.06
250.998	328.06
251.231	346.06
251.465	352.06
251.698	345.06
251.931	357.06
252.164	354.06
252.397	369.06
252.63	335.06
252.863	331.06
253.096	331.06
253.329	356.06
253.562	340.06
253.795	368.06
254.028	367.06
254.261	345.06
254.494	356.06
254.727	332.06
254.96	339.06
255.193	392.06
255.426	403.06
255.659	452.06
255.892	467.06
256.124	388.06
256.357	379.06
256.59	405.06
256.823	406.06
257.056	400.06
257.289	465.06
257.521	520.06
257.754	488.06
257.987	450.06
258.22	468.06
258.452	472.06
258.685	384.06
258.918	388.06
259.151	393.06
259.383	371.06
259.616	352.06
259.849	377.06
260.081	419.06
260.314	444.06
260.547	499.06
260.779	474.06
261.012	429.06
261.244	407.06
261.477	396.06
261.71	400.06
261.942	408.06
262.175	405.06
262.407	422.06
262.64	389.06
262.872	375.06
263.105	357.06
263.337	379.06
263.57	388.06
263.802	379.06
264.035	343.06
264.267	325.06
264.499	338.06
264.732	352.06
264.964	395.06
265.197	417.06
265.429	413.06
265.661	468.06
265.894	490.06
266.126	485.06
266.358	455.06
266.591	470.06
266.823	481.06
267.055	451.06
267.287	445.06
267.52	439.06
267.752	439.06
267.984	455.06
268.216	461.06
268.448	465.06
268.681	458.06
268.913	429.06
269.145	410.06
269.377	410.06
269.609	448.06
269.841	540.06
270.073	609.06
270.306	625.06
270.538	626.06
270.77	541.06
271.002	509.06
271.234	468.06
271.466	487.06
271.698	541.06
271.93	615.06
272.162	596.06
272.394	531.06
272.626	513.06
272.858	464.06
273.09	423.06
273.322	415.06
273.553	398.06
273.785	418.06
274.017	454.06
274.249	435.06
274.481	449.06
274.713	427.06
274.945	412.06
275.176	435.06
275.408	411.06
275.64	402.06
275.872	413.06
276.104	459.06
276.335	486.06
276.567	541.06
276.799	539.06
277.031	495.06
277.262	480.06
277.494	507.06
277.726	522.06
277.957	485.06
278.189	475.06
278.421	441.06
278.652	419.06
278.884	442.06
279.115	427.06
279.347	455.06
279.579	406.06
279.81	436.06
280.042	494.06
280.273	495.06
280.505	524.06
280.736	489.06
280.968	471.06
281.199	428.06
281.431	420.06
281.662	442.06
281.894	446.06
282.125	443.06
282.356	438.06
282.588	477.06
282.819	459.06
283.051	476.06
283.282	522.06
283.513	484.06
283.745	430.06
283.976	434.06
284.207	415.06
284.439	447.06
284.67	473.06
284.901	450.06
285.132	455.06
285.364	445.06
285.595	482.06
285.826	455.06
286.057	454.06
286.288	466.06
286.52	476.06
286.751	487.06
286.982	500.06
287.213	464.06
287.444	442.06
287.675	457.06
287.906	463.06
288.138	492.06
288.369	478.06
288.6	446.06
288.831	438.06
289.062	440.06
289.293	461.06
289.524	456.06
289.755	453.06
289.986	452.06
290.217	451.06
290.448	438.06
290.679	479.06
290.91	445.06
291.141	468.06
291.371	483.06
291.602	491.06
291.833	489.06
292.064	496.06
292.295	519.06
292.526	482.06
292.757	494.06
292.987	491.06
293.218	475.06
293.449	518.06
293.68	575.06
293.91	591.06
294.141	554.06
294.372	523.06
294.603	573.06
294.833	576.06
295.064	548.06
295.295	488.06
295.525	468.06
295.756	446.06
295.987	439.06
296.217	429.06
296.448	465.06
296.679	468.06
296.909	466.06
297.14	461.06
297.37	490.06
297.601	502.06
297.831	541.06
298.062	539.06
298.292	474.06
298.523	468.06
298.753	485.06
298.984	475.06
299.214	492.06
299.445	485.06
299.675	486.06
299.905	515.06
300.136	481.06
300.366	461.06
300.597	450.06
300.827	465.06
301.057	469.06
301.288	491.06
301.518	522.06
301.748	525.06
301.979	563.06
302.209	569.06
302.439	581.06
302.669	613.06
302.9	560.06
303.13	533.06
303.36	535.06
303.59	537.06
303.82	512.06
304.051	512.06
304.281	519.06
304.511	546.06
304.741	562.06
304.971	636.06
305.201	609.06
305.431	571.06
305.661	472.06
305.891	441.06
306.121	479.06
306.352	501.06
306.582	513.06
306.812	543.06
307.042	568.06
307.272	579.06
307.502	613.06
307.731	624.06
307.961	628.06
308.191	595.06
308.421	540.06
308.651	514.06
308.881	522.06
309.111	500.06
309.341	497.06
309.571	511.06
309.8	486.06
310.03	491.06
310.26	507.06
310.49	490.06
310.72	524.06
310.949	490.06
311.179	509.06
311.409	523.06
311.639	522.06
311.868	507.06
312.098	495.06
312.328	521.06
312.557	499.06
312.787	522.06
313.017	538.06
313.246	523.06
313.476	528.06
313.706	533.06
313.935	517.06
314.165	536.06
314.394	575.06
314.624	607.06
314.853	644.06
315.083	625.06
315.312	637.06
315.542	568.06
315.771	552.06
316.001	551.06
316.23	578.06
316.46	554.06
316.689	550.06
316.919	539.06
317.148	516.06
317.377	568.06
317.607	594.06
317.836	633.06
318.065	639.06
318.295	619.06
318.524	584.06
318.753	575.06
318.983	580.06
319.212	563.06
319.441	568.06
319.67	559.06
319.9	570.06
320.129	590.06
320.358	625.06
320.587	638.06
320.816	625.06
321.046	586.06
321.275	599.06
321.504	602.06
321.733	642.06
321.962	608.06
322.191	565.06
322.42	556.06
322.649	526.06
322.878	569.06
323.108	569.06
323.337	583.06
323.566	568.06
323.795	565.06
324.024	588.06
324.253	557.06
324.482	560.06
324.71	548.06
324.939	500.06
325.168	539.06
325.397	575.06
325.626	583.06
325.855	573.06
326.084	579.06
326.313	559.06
326.542	553.06
326.77	573.06
326.999	576.06
327.228	568.06
327.457	522.06
327.686	532.06
327.914	562.06
328.143	595.06
328.372	565.06
328.6	548.06
328.829	538.06
329.058	551.06
329.287	544.06
329.515	552.06
329.744	588.06
329.972	619.06
330.201	633.06
330.43	589.06
330.658	566.06
330.887	589.06
331.115	604.06
331.344	600.06
331.572	592.06
331.801	601.06
332.03	587.06
332.258	619.06
332.486	633.06
332.715	627.06
332.943	616.06
333.172	609.06
333.4	598.06
333.629	641.06
333.857	672.06
334.085	737.06
334.314	824.06
334.542	839.06
334.771	738.06
334.999	672.06
335.227	647.06
335.455	657.06
335.684	631.06
335.912	651.06
336.14	663.06
336.369	634.06
336.597	618.06
336.825	610.06
337.053	624.06
337.281	675.06
337.51	687.06
337.738	696.06
337.966	654.06
338.194	603.06
338.422	584.06
338.65	589.06
338.878	583.06
339.106	556.06
339.334	577.06
339.562	575.06
339.79	594.06
340.018	626.06
340.246	634.06
340.474	636.06
340.702	642.06
340.93	628.06
341.158	595.06
341.386	607.06
341.614	611.06
341.842	610.06
342.07	593.06
342.298	610.06
342.526	594.06
342.754	626.06
342.981	594.06
343.209	588.06
343.437	583.06
343.665	589.06
343.893	629.06
344.12	643.06
344.348	647.06
344.576	607.06
344.804	614.06
345.031	599.06
345.259	601.06
345.487	580.06
345.714	569.06
345.942	568.06
346.17	560.06
346.397	579.06
346.625	568.06
346.853	540.06
347.08	543.06
347.308	547.06
347.535	562.06
347.763	588.06
347.99	575.06
348.218	552.06
348.445	582.06
348.673	576.06
348.9	592.06
349.128	615.06
349.355	623.06
349.583	581.06
349.81	561.06
350.037	537.06
350.265	528.06
350.492	529.06
350.72	558.06
350.947	559.06
351.174	567.06
351.402	563.06
351.629	513.06
351.856	518.06
352.083	522.06
352.311	556.06
352.538	537.06
352.765	581.06
352.992	593.06
353.22	563.06
353.447	549.06
353.674	555.06
353.901	546.06
354.128	566.06
354.355	554.06
354.583	575.06
354.81	594.06
355.037	608.06
355.264	591.06
355.491	566.06
355.718	591.06
355.945	549.06
356.172	543.06
356.399	553.06
356.626	542.06
356.853	594.06
357.08	648.06
357.307	664.06
357.534	658.06
357.761	589.06
357.988	561.06
358.215	563.06
358.441	556.06
358.668	539.06
358.895	553.06
359.122	602.06
359.349	611.06
359.576	605.06
359.802	554.06
360.029	532.06
360.256	560.06
360.483	546.06
360.709	563.06
360.936	637.06
361.163	628.06
361.39	687.06
361.616	700.06
361.843	694.06
362.07	645.06
362.296	581.06
362.523	570.06
362.749	573.06
362.976	594.06
363.203	587.06
363.429	584.06
363.656	552.06
363.882	607.06
364.109	649.06
364.335	666.06
364.562	617.06
364.788	602.06
365.015	559.06
365.241	552.06
365.468	575.06
365.694	629.06
365.92	622.06
366.147	582.06
366.373	570.06
366.599	564.06
366.826	569.06
367.052	593.06
367.278	589.06
367.505	597.06
367.731	603.06
367.957	597.06
368.184	642.06
368.41	674.06
368.636	654.06
368.862	688.06
369.089	669.06
369.315	627.06
369.541	630.06
369.767	597.06
369.993	600.06
370.219	593.06
370.445	619.06
370.672	671.06
370.898	675.06
371.124	655.06
371.35	627.06
371.576	667.06
371.802	659.06
372.028	625.06
372.254	608.06
372.48	606.06
372.706	601.06
372.932	596.06
373.158	612.06
373.384	644.06
373.61	679.06
373.835	663.06
374.061	627.06
374.287	612.06
374.513	617.06
374.739	656.06
374.965	627.06
375.191	652.06
375.416	648.06
375.642	681.06
375.868	705.06
376.094	714.06
376.319	674.06
376.545	633.06
376.771	676.06
376.997	704.06
377.222	696.06
377.448	666.06
377.674	686.06
377.899	685.06
378.125	698.06
378.35	677.06
378.576	653.06
378.802	627.06
379.027	610.06
379.253	636.06
379.478	660.06
379.704	654.06
379.929	647.06
380.155	663.06
380.38	671.06
380.606	659.06
380.831	681.06
381.057	701.06
381.282	696.06
381.507	691.06
381.733	741.06
381.958	730.06
382.184	723.06
382.409	667.06
382.634	698.06
382.86	665.06
383.085	705.06
383.31	732.06
383.535	793.06
383.761	794.06
383.986	740.06
384.211	727.06
384.436	723.06
384.662	784.06
384.887	777.06
385.112	740.06
385.337	735.06
385.562	738.06
385.787	757.06
386.013	778.06
386.238	756.06
386.463	776.06
386.688	836.06
386.913	879.06
387.138	855.06
387.363	783.06
387.588	755.06
387.813	741.06
388.038	772.06
388.263	787.06
388.488	734.06
388.713	727.06
388.938	727.06
389.163	748.06
389.387	742.06
389.612	753.06
389.837	740.06
390.062	757.06
390.287	801.06
390.512	758.06
390.736	730.06
390.961	747.06
391.186	720.06
391.411	732.06
391.636	751.06
391.86	755.06
392.085	767.06
392.31	761.06
392.534	735.06
392.759	773.06
392.984	735.06
393.208	769.06
393.433	801.06
393.658	849.06
393.882	820.06
394.107	785.06
394.331	743.06
394.556	769.06
394.78	797.06
395.005	825.06
395.229	810.06
395.454	877.06
395.678	845.06
395.903	832.06
396.127	821.06
396.352	837.06
396.576	844.06
396.801	864.06
397.025	827.06
397.249	825.06
397.474	831.06
397.698	818.06
397.922	873.06
398.147	891.06
398.371	933.06
398.595	897.06
398.82	879.06
399.044	891.06
399.268	901.06
399.492	960.06
399.717	1003.06
399.941	997.06
400.165	960.06
400.389	964.06
400.613	997.06
400.837	1121.06
401.062	1183.06
401.286	1008.06
401.51	974.06
401.734	1000.06
401.958	950.06
402.182	901.06
402.406	853.06
402.63	875.06
402.854	885.06
403.078	891.06
403.302	909.06
403.526	927.06
403.75	917.06
403.974	928.06
404.198	964.06
404.422	999.06
404.645	1013.06
404.869	955.06
405.093	884.06
405.317	897.06
405.541	915.06
405.765	929.06
405.988	925.06
406.212	954.06
406.436	973.06
406.66	1004.06
406.883	1012.06
407.107	1143.06
407.331	1205.06
407.555	1271.06
407.778	1132.06
408.002	981.06
408.226	1020.06
408.449	979.06
408.673	934.06
408.896	961.06
409.12	971.06
409.344	960.06
409.567	945.06
409.791	960.06
410.014	970.06
410.238	1022.06
410.461	1027.06
410.685	979.06
410.908	950.06
411.132	955.06
411.355	946.06
411.578	948.06
411.802	954.06
412.025	953.06
412.249	900.06
412.472	913.06
412.695	914.06
412.919	913.06
413.142	918.06
413.365	921.06
413.589	967.06
413.812	992.06
414.035	1018.06
414.258	924.06
414.482	917.06
414.705	908.06
414.928	936.06
415.151	915.06
415.374	950.06
415.597	937.06
415.821	927.06
416.044	924.06
416.267	928.06
416.49	903.06
416.713	921.06
416.936	945.06
417.159	993.06
417.382	961.06
417.605	936.06
417.828	940.06
418.051	960.06
418.274	917.06
418.497	929.06
418.72	927.06
418.943	912.06
419.166	953.06
419.389	963.06
419.611	934.06
419.834	933.06
420.057	945.06
420.28	935.06
420.503	943.06
420.726	973.06
420.948	953.06
421.171	905.06
421.394	962.06
421.617	986.06
421.839	992.06
422.062	965.06
422.285	937.06
422.507	940.06
422.73	908.06
422.953	865.06
423.175	887.06
423.398	906.06
423.621	923.06
423.843	927.06
424.066	972.06
424.288	1009.06
424.511	1035.06
424.733	986.06
424.956	918.06
425.178	927.06
425.401	914.06
425.623	941.06
425.846	927.06
426.068	952.06
426.291	994.06
426.513	945.06
426.735	959.06
426.958	1061.06
427.18	1063.06
427.402	975.06
427.625	1014.06
427.847	988.06
428.069	935.06
428.292	929.06
428.514	920.06
428.736	890.06
428.958	913.06
429.181	910.06
429.403	1061.06
429.625	1229.06
429.847	1043.06
430.069	943.06
430.292	1075.06
430.514	1039.06
430.736	965.06
430.958	972.06
431.18	960.06
431.402	857.06
431.624	860.06
431.846	790.06
432.068	723.06
432.29	730.06
432.512	802.06
432.734	885.06
432.956	921.06
433.178	975.06
433.4	971.06
433.622	959.06
433.844	929.06
434.066	857.06
434.287	794.06
434.509	784.06
434.731	829.06
434.953	934.06
435.175	929.06
435.397	906.06
435.618	914.06
435.84	856.06
436.062	839.06
436.284	885.06
436.505	961.06
436.727	976.06
436.949	912.06
437.17	921.06
437.392	892.06
437.614	835.06
437.835	810.06
438.057	831.06
438.278	869.06
438.5	884.06
438.721	872.06
438.943	905.06
439.165	940.06
439.386	903.06
439.608	960.06
439.829	967.06
440.05	932.06
440.272	958.06
440.493	943.06
440.715	988.06
440.936	1029.06
441.158	1082.06
441.379	1037.06
441.6	1035.06
441.822	1025.06
442.043	1008.06
442.264	969.06
442.486	959.06
442.707	947.06
442.928	938.06
443.149	992.06
443.371	1009.06
443.592	990.06
443.813	997.06
444.034	1015.06
444.255	997.06
444.476	1036.06
444.698	1048.06
444.919	1042.06
445.14	1154.06
445.361	1089.06
445.582	1085.06
445.803	1057.06
446.024	1060.06
446.245	1074.06
446.466	1064.06
446.687	1054.06
446.908	1037.06
447.129	1027.06
447.35	1031.06
447.571	986.06
447.792	961.06
448.013	961.06
448.234	946.06
448.455	1008.06
448.675	975.06
448.896	920.06
449.117	903.06
449.338	915.06
449.559	959.06
449.779	994.06
450	1037.06
450.221	1009.06
450.442	996.06
450.662	935.06
450.883	876.06
451.104	872.06
451.324	900.06
451.545	893.06
451.766	864.06
451.986	823.06
452.207	819.06
452.428	802.06
452.648	778.06
452.869	793.06
453.089	780.06
453.31	756.06
453.53	792.06
453.751	769.06
453.971	713.06
454.192	725.06
454.412	778.06
454.633	772.06
454.853	796.06
455.073	773.06
455.294	792.06
455.514	755.06
455.734	773.06
455.955	742.06
456.175	742.06
456.395	734.06
456.616	727.06
456.836	735.06
457.056	735.06
457.276	712.06
457.497	685.06
457.717	705.06
457.937	723.06
458.157	699.06
458.377	691.06
458.598	659.06
458.818	679.06
459.038	695.06
459.258	723.06
459.478	705.06
459.698	735.06
459.918	771.06
460.138	781.06
460.358	880.06
460.578	832.06
460.798	862.06
461.018	887.06
461.238	891.06
461.458	866.06
461.678	863.06
461.898	829.06
462.118	817.06
462.338	831.06
462.558	867.06
462.777	866.06
462.997	868.06
463.217	889.06
463.437	881.06
463.657	860.06
463.876	827.06
464.096	834.06
464.316	854.06
464.536	898.06
464.755	879.06
464.975	871.06
465.195	861.06
465.414	886.06
465.634	889.06
465.854	896.06
466.073	964.06
466.293	924.06
466.512	840.06
466.732	879.06
466.951	915.06
467.171	903.06
467.391	897.06
467.61	872.06
467.829	935.06
468.049	957.06
468.268	1036.06
468.488	971.06
468.707	912.06
468.927	904.06
469.146	932.06
469.365	913.06
469.585	943.06
469.804	920.06
470.023	918.06
470.243	937.06
470.462	949.06
470.681	919.06
470.901	943.06
471.12	943.06
471.339	945.06
471.558	929.06
471.777	888.06
471.997	887.06
472.216	859.06
472.435	785.06
472.654	765.06
472.873	785.06
473.092	829.06
473.311	830.06
473.53	829.06
473.749	845.06
473.968	843.06
474.187	837.06
474.406	847.06
474.625	852.06
474.844	875.06
475.063	874.06
475.282	866.06
475.501	824.06
475.72	835.06
475.939	901.06
476.158	867.06
476.377	875.06
476.596	864.06
476.814	861.06
477.033	808.06
477.252	838.06
477.471	882.06
477.69	891.06
477.908	928.06
478.127	1001.06
478.346	1013.06
478.564	1011.06
478.783	1001.06
479.002	1040.06
479.22	1023.06
479.439	1031.06
479.658	1024.06
479.876	970.06
480.095	912.06
480.313	897.06
480.532	895.06
480.751	865.06
480.969	815.06
481.188	768.06
481.406	770.06
481.624	801.06
481.843	797.06
482.061	841.06
482.28	858.06
482.498	892.06
482.717	854.06
482.935	900.06
483.153	993.06
483.372	1039.06
483.59	1044.06
483.808	963.06
484.027	940.06
484.245	1008.06
484.463	1220.06
484.681	1277.06
484.9	1034.06
485.118	955.06
485.336	946.06
485.554	906.06
485.772	888.06
485.99	888.06
486.209	907.06
486.427	879.06
486.645	934.06
486.863	985.06
487.081	1057.06
487.299	994.06
487.517	1026.06
487.735	1105.06
487.953	1181.06
488.171	1173.06
488.389	1139.06
488.607	1093.06
488.825	1144.06
489.043	1087.06
489.261	1002.06
489.479	1036.06
489.696	1056.06
489.914	1038.06
490.132	1029.06
490.35	1077.06
490.568	1171.06
490.786	1174.06
491.003	1216.06
491.221	1253.06
491.439	1257.06
491.657	1299.06
491.874	1331.06
492.092	1419.06
492.31	1489.06
492.527	1459.06
492.745	1370.06
492.963	1315.06
493.18	1346.06
493.398	1349.06
493.615	1343.06
493.833	1263.06
494.05	1237.06
494.268	1269.06
494.485	1210.06
494.703	1218.06
494.92	1233.06
495.138	1205.06
495.355	1236.06
495.573	1243.06
495.79	1299.06
496.008	1313.06
496.225	1259.06
496.442	1264.06
496.66	1227.06
496.877	1202.06
497.094	1233.06
497.312	1232.06
497.529	1218.06
497.746	1193.06
497.963	1269.06
498.181	1293.06
498.398	1257.06
498.615	1219.06
498.832	1135.06
499.049	1166.06
499.267	1181.06
499.484	1260.06
499.701	1350.06
499.918	1370.06
500.135	1456.06
500.352	1576.06
500.569	1592.06
500.786	1691.06
501.003	1565.06
501.22	1433.06
501.437	1400.06
501.654	1426.06
501.871	1346.06
502.088	1216.06
502.305	1211.06
502.522	1173.06
502.739	1117.06
502.956	1066.06
503.172	1060.06
503.389	1031.06
503.606	989.06
503.823	998.06
504.04	1007.06
504.256	1015.06
504.473	997.06
504.69	1013.06
504.907	1005.06
505.123	976.06
505.34	1062.06
505.557	1365.06
505.773	1104.06
505.99	922.06
506.207	899.06
506.423	908.06
506.64	901.06
506.856	898.06
507.073	1030.06
507.289	1085.06
507.506	1021.06
507.722	884.06
507.939	863.06
508.155	869.06
508.372	849.06
508.588	823.06
508.805	821.06
509.021	782.06
509.238	771.06
509.454	784.06
509.67	737.06
509.887	735.06
510.103	733.06
510.319	761.06
510.536	767.06
510.752	788.06
510.968	786.06
511.184	787.06
511.401	756.06
511.617	719.06
511.833	692.06
512.049	708.06
512.265	716.06
512.481	736.06
512.698	739.06
512.914	764.06
513.13	767.06
513.346	731.06
513.562	705.06
513.778	715.06
513.994	758.06
514.21	747.06
514.426	793.06
514.642	811.06
514.858	777.06
515.074	735.06
515.29	722.06
515.506	735.06
515.721	743.06
515.937	778.06
516.153	820.06
516.369	767.06
516.585	755.06
516.801	731.06
517.016	732.06
517.232	775.06
517.448	776.06
517.664	801.06
517.879	772.06
518.095	834.06
518.311	807.06
518.527	769.06
518.742	723.06
518.958	759.06
519.173	751.06
519.389	810.06
519.605	799.06
519.82	809.06
520.036	788.06
520.251	789.06
520.467	771.06
520.682	817.06
520.898	798.06
521.113	721.06
521.329	753.06
521.544	756.06
521.76	735.06
521.975	722.06
522.19	720.06
522.406	753.06
522.621	928.06
522.836	887.06
523.052	743.06
523.267	733.06
523.482	752.06
523.698	769.06
523.913	748.06
524.128	732.06
524.343	819.06
524.559	835.06
524.774	791.06
524.989	768.06
525.204	737.06
525.419	735.06
525.634	717.06
525.849	722.06
526.064	709.06
526.28	696.06
526.495	631.06
526.71	650.06
526.925	642.06
527.14	641.06
527.355	605.06
527.57	635.06
527.785	669.06
527.999	663.06
528.214	643.06
528.429	680.06
528.644	759.06
528.859	794.06
529.074	833.06
529.289	893.06
529.503	875.06
529.718	778.06
529.933	723.06
530.148	651.06
530.363	634.06
530.577	625.06
530.792	648.06
531.007	641.06
531.221	623.06
531.436	610.06
531.651	632.06
531.865	659.06
532.08	672.06
532.295	645.06
532.509	637.06
532.724	620.06
532.938	651.06
533.153	692.06
533.367	709.06
533.582	727.06
533.796	735.06
534.011	729.06
534.225	672.06
534.44	618.06
534.654	635.06
534.868	646.06
535.083	662.06
535.297	697.06
535.511	675.06
535.726	716.06
535.94	670.06
536.154	650.06
536.369	612.06
536.583	609.06
536.797	635.06
537.011	613.06
537.225	593.06
537.44	615.06
537.654	639.06
537.868	608.06
538.082	597.06
538.296	605.06
538.51	614.06
538.724	676.06
538.938	697.06
539.153	765.06
539.367	728.06
539.581	718.06
539.795	689.06
540.009	632.06
540.222	640.06
540.436	677.06
540.65	753.06
540.864	824.06
541.078	829.06
541.292	837.06
541.506	875.06
541.72	952.06
541.934	1017.06
542.147	1083.06
542.361	989.06
542.575	900.06
542.789	845.06
543.002	748.06
543.216	748.06
543.43	760.06
543.644	805.06
543.857	877.06
544.071	932.06
544.285	931.06
544.498	926.06
544.712	937.06
544.925	944.06
545.139	969.06
545.352	900.06
545.566	945.06
545.779	930.06
545.993	967.06
546.206	976.06
546.42	945.06
546.633	915.06
546.847	950.06
547.06	933.06
547.274	952.06
547.487	985.06
547.7	970.06
547.914	969.06
548.127	952.06
548.34	970.06
548.554	907.06
548.767	931.06
548.98	941.06
549.193	928.06
549.407	973.06
549.62	951.06
549.833	915.06
550.046	895.06
550.259	913.06
550.473	885.06
550.686	887.06
550.899	861.06
551.112	837.06
551.325	845.06
551.538	843.06
551.751	847.06
551.964	709.06
552.177	723.06
552.39	775.06
552.603	812.06
552.816	843.06
553.029	880.06
553.242	925.06
553.455	891.06
553.667	913.06
553.88	896.06
554.093	867.06
554.306	843.06
554.519	836.06
554.732	815.06
554.944	800.06
555.157	824.06
555.37	834.06
555.583	787.06
555.795	788.06
556.008	735.06
556.221	729.06
556.433	718.06
556.646	728.06
556.859	701.06
557.071	723.06
557.284	731.06
557.496	738.06
557.709	749.06
557.921	743.06
558.134	747.06
558.346	705.06
558.559	735.06
558.771	705.06
558.984	699.06
559.196	676.06
559.409	691.06
559.621	682.06
559.833	635.06
560.046	671.06
560.258	664.06
560.47	681.06
560.683	687.06
560.895	677.06
561.107	679.06
561.32	667.06
561.532	697.06
561.744	679.06
561.956	685.06
562.168	663.06
562.381	663.06
562.593	614.06
562.805	636.06
563.017	629.06
563.229	648.06
563.441	628.06
563.653	615.06
563.865	607.06
564.077	625.06
564.289	617.06
564.501	629.06
564.713	599.06
564.925	635.06
565.137	652.06
565.349	619.06
565.561	637.06
565.773	581.06
565.985	613.06
566.197	642.06
566.408	693.06
566.62	682.06
566.832	671.06
567.044	653.06
567.255	671.06
567.467	657.06
567.679	656.06
567.891	682.06
568.102	620.06
568.314	582.06
568.526	529.06
568.737	513.06
568.949	478.06
569.161	453.06
569.372	451.06
569.584	471.06
569.795	450.06
570.007	471.06
570.218	440.06
570.43	434.06
570.641	453.06
570.853	480.06
571.064	494.06
571.276	478.06
571.487	489.06
571.698	490.06
571.91	482.06
572.121	454.06
572.333	433.06
572.544	432.06
572.755	415.06
572.966	427.06
573.178	415.06
573.389	413.06
573.6	405.06
573.811	431.06
574.023	385.06
574.234	385.06
574.445	382.06
574.656	413.06
574.867	393.06
575.078	403.06
575.289	397.06
575.501	391.06
575.712	410.06
575.923	397.06
576.134	411.06
576.345	389.06
576.556	391.06
576.767	379.06
576.978	381.06
577.188	378.06
577.399	378.06
577.61	374.06
577.821	372.06
578.032	373.06
578.243	342.06
578.454	363.06
578.665	371.06
578.875	337.06
579.086	335.06
579.297	348.06
579.508	355.06
579.718	333.06
579.929	336.06
580.14	339.06
580.35	335.06
580.561	360.06
580.772	425.06
580.982	360.06
581.193	349.06
581.403	339.06
581.614	344.06
581.825	335.06
582.035	353.06
582.246	363.06
582.456	364.06
582.667	344.06
582.877	332.06
583.087	343.06
583.298	330.06
583.508	322.06
583.719	341.06
583.929	322.06
584.139	324.06
584.35	321.06
584.56	311.06
584.77	321.06
584.981	313.06
585.191	339.06
585.401	347.06
585.611	324.06
585.821	321.06
586.032	330.06
586.242	318.06
586.452	309.06
586.662	303.06
586.872	317.06
587.082	307.06
587.292	311.06
587.502	326.06
587.713	299.06
587.923	325.06
588.133	329.06
588.343	313.06
588.553	318.06
588.762	305.06
588.972	322.06
589.182	313.06
589.392	331.06
589.602	296.06
589.812	313.06
590.022	303.06
590.232	335.06
590.441	317.06
590.651	323.06
590.861	324.06
591.071	299.06
591.281	307.06
591.49	310.06
591.7	302.06
591.91	320.06
592.119	315.06
592.329	312.06
592.539	326.06
592.748	323.06
592.958	323.06
593.167	329.06
593.377	338.06
593.587	320.06
593.796	322.06
594.006	337.06
594.215	333.06
594.424	331.06
594.634	329.06
594.843	339.06
595.053	327.06
595.262	353.06
595.472	319.06
595.681	312.06
595.89	328.06
596.1	314.06
596.309	321.06
596.518	327.06
596.727	334.06
596.937	331.06
597.146	300.06
597.355	299.06
597.564	335.06
597.774	319.06
597.983	287.06
598.192	290.06
598.401	265.06
598.61	281.06
598.819	289.06
599.028	302.06
599.237	310.06
599.446	297.06
599.655	282.06
599.864	305.06
600.073	278.06
600.282	282.06
600.491	296.06
600.7	276.06
600.909	307.06
601.118	311.06
601.327	319.06
601.536	331.06
601.745	349.06
601.953	332.06
602.162	349.06
602.371	348.06
602.58	337.06
602.789	363.06
602.997	364.06
603.206	367.06
603.415	337.06
603.623	344.06
603.832	352.06
604.041	322.06
604.249	316.06
604.458	293.06
604.666	297.06
604.875	294.06
605.084	319.06
605.292	346.06
605.501	348.06
605.709	352.06
605.918	370.06
606.126	352.06
606.334	355.06
606.543	364.06
606.751	372.06
606.96	378.06
607.168	358.06
607.376	316.06
607.585	333.06
607.793	333.06
608.001	364.06
608.21	356.06
608.418	359.06
608.626	360.06
608.834	354.06
609.043	350.06
609.251	352.06
609.459	363.06
609.667	372.06
609.875	362.06
610.083	375.06
610.291	368.06
610.499	341.06
610.707	373.06
610.916	372.06
611.124	380.06
611.332	371.06
611.54	340.06
611.748	369.06
611.955	360.06
612.163	374.06
612.371	370.06
612.579	384.06
612.787	353.06
612.995	365.06
613.203	363.06
613.411	359.06
613.618	356.06
613.826	356.06
614.034	349.06
614.242	344.06
614.449	360.06
614.657	355.06
614.865	346.06
615.072	351.06
615.28	339.06
615.488	351.06
615.695	381.06
615.903	360.06
616.111	361.06
616.318	372.06
616.526	377.06
616.733	366.06
616.941	360.06
617.148	342.06
617.356	341.06
617.563	330.06
617.771	349.06
617.978	319.06
618.185	336.06
618.393	342.06
618.6	351.06
618.807	346.06
619.015	365.06
619.222	332.06
619.429	331.06
619.637	317.06
619.844	310.06
620.051	323.06
620.258	321.06
620.466	331.06
620.673	300.06
620.88	287.06
621.087	303.06
621.294	307.06
621.501	298.06
621.708	291.06
621.915	306.06
622.122	316.06
622.329	332.06
622.536	311.06
622.743	328.06
622.95	301.06
623.157	322.06
623.364	319.06
623.571	328.06
623.778	313.06
623.985	322.06
624.192	304.06
624.399	299.06
624.606	324.06
624.812	314.06
625.019	308.06
625.226	307.06
625.433	299.06
625.639	299.06
625.846	265.06
626.053	258.06
626.259	240.06
626.466	220.06
626.673	247.06
626.879	233.06
627.086	259.06
627.293	281.06
627.499	273.06
627.706	299.06
627.912	304.06
628.119	312.06
628.325	276.06
628.532	281.06
628.738	283.06
628.945	305.06
629.151	287.06
629.357	299.06
629.564	269.06
629.77	276.06
629.976	274.06
630.183	270.06
630.389	274.06
630.595	291.06
630.802	278.06
631.008	287.06
631.214	269.06
631.42	275.06
631.627	258.06
631.833	257.06
632.039	263.06
632.245	265.06
632.451	274.06
632.657	277.06
632.863	263.06
633.069	259.06
633.275	245.06
633.481	237.06
633.688	250.06
633.893	255.06
634.099	264.06
634.305	253.06
634.511	263.06
634.717	243.06
634.923	239.06
635.129	226.06
635.335	235.06
635.541	239.06
635.747	257.06
635.952	240.06
636.158	246.06
636.364	269.06
636.57	262.06
636.775	257.06
636.981	270.06
637.187	257.06
637.392	263.06
637.598	270.06
637.804	274.06
638.009	261.06
638.215	267.06
638.421	248.06
638.626	257.06
638.832	243.06
639.037	244.06
639.243	237.06
639.448	253.06
639.654	253.06
639.859	239.06
640.065	256.06
640.27	240.06
640.475	240.06
640.681	244.06
640.886	244.06
641.091	252.06
641.297	252.06
641.502	242.06
641.707	256.06
641.913	242.06
642.118	263.06
642.323	251.06
642.528	228.06
642.733	244.06
642.939	261.06
643.144	243.06
643.349	232.06
643.554	247.06
643.759	237.06
643.964	245.06
644.169	232.06
644.374	219.06
644.579	239.06
644.784	248.06
644.989	249.06
645.194	237.06
645.399	246.06
645.604	236.06
645.809	249.06
646.014	232.06
646.219	245.06
646.423	228.06
646.628	247.06
646.833	242.06
647.038	248.06
647.243	245.06
647.447	238.06
647.652	232.06
647.857	243.06
648.062	236.06
648.266	256.06
648.471	229.06
648.676	245.06
648.88	236.06
649.085	255.06
649.289	238.06
649.494	241.06
649.698	233.06
649.903	227.06
650.107	233.06
650.312	243.06
650.516	233.06
650.721	232.06
650.925	238.06
651.13	235.06
651.334	223.06
651.539	224.06
651.743	205.06
651.947	220.06
652.152	224.06
652.356	225.06
652.56	214.06
652.764	222.06
652.969	205.06
653.173	209.06
653.377	224.06
653.581	203.06
653.785	205.06
653.99	205.06
654.194	212.06
654.398	216.06
654.602	202.06
654.806	195.06
655.01	214.06
655.214	201.06
655.418	222.06
655.622	204.06
655.826	221.06
656.03	228.06
656.234	212.06
656.438	223.06
656.642	223.06
656.846	214.06
657.049	209.06
657.253	206.06
657.457	194.06
657.661	177.06
657.865	168.06
658.068	169.06
658.272	157.06
658.476	148.06
658.68	163.06
658.883	151.06
659.087	148.06
659.291	147.06
659.494	129.06
659.698	131.06
659.901	122.06
660.105	128.06
660.309	124.06
660.512	115.06
660.716	128.06
660.919	107.06
661.123	125.06
661.326	101.06
661.53	115.06
661.733	105.06
661.936	109.06
662.14	114.06
662.343	109.06
662.546	83.06
662.75	94.06
662.953	92.06
663.156	89.06
663.36	94.06
663.563	88.06
663.766	103.06
663.969	104.06
664.173	88.06
664.376	89.06
664.579	91.06
664.782	88.06
664.985	83.06
665.188	95.06
665.391	83.06
665.594	89.06
665.797	93.06
666	78.06
666.203	99.06
666.406	74.06
666.609	64.06
666.812	72.06
667.015	89.06
667.218	88.06
667.421	85.06
667.624	81.06
667.827	88.06
668.03	87.06
668.232	69.06
668.435	86.06
668.638	84.06
668.841	84.06
669.043	81.06
669.246	84.06
669.449	98.06
669.651	91.06
669.854	91.06
670.057	75.06
670.259	90.06
670.462	89.06
670.665	95.06
670.867	92.06
671.07	88.06
671.272	82.06
671.475	88.06
671.677	86.06
671.88	85.06
672.082	69.06
672.284	86.06
672.487	83.06
672.689	65.06
672.892	84.06
