Data from WStandard_LampEnergy10_LIBS07252019.E.O._I.C._HRD10591_15-55-29-928.txt Node
Date: Thu Jul 25 15:55:29 EDT 2019
User: cochatt
Spectrometer: HR+D1059
Trigger mode: 1
Integration Time (sec): 1.000000E-1
Scans to average: 1
Electric dark correction enabled: true
Nonlinearity correction enabled: false
Boxcar width: 0
XAxis mode: Wavelengths
Number of Pixels in Spectrum: 2048
>>>>>Begin Spectral Data<<<<<
223.165	-11.25
223.4	-11.25
223.635	-11.25
223.869	-22.25
224.104	-31.25
224.338	-12.25
224.573	-13.25
224.808	-27.25
225.042	-2.25
225.277	2.75
225.511	-2.25
225.746	-6.25
225.98	12.75
226.215	14.75
226.449	14.75
226.683	26.75
226.918	22.75
227.152	33.75
227.387	50.75
227.621	50.75
227.856	50.75
228.09	46.75
228.324	55.75
228.559	70.75
228.793	84.75
229.027	147.75
229.262	145.75
229.496	140.75
229.73	148.75
229.964	153.75
230.199	160.75
230.433	172.75
230.667	177.75
230.901	195.75
231.136	187.75
231.37	176.75
231.604	169.75
231.838	182.75
232.072	170.75
232.306	172.75
232.541	179.75
232.775	198.75
233.009	208.75
233.243	199.75
233.477	203.75
233.711	211.75
233.945	203.75
234.179	214.75
234.413	203.75
234.647	203.75
234.881	208.75
235.115	200.75
235.349	190.75
235.583	198.75
235.817	206.75
236.051	196.75
236.285	196.75
236.519	207.75
236.753	219.75
236.987	217.75
237.221	216.75
237.455	240.75
237.689	224.75
237.922	225.75
238.156	229.75
238.39	246.75
238.624	222.75
238.858	229.75
239.091	233.75
239.325	244.75
239.559	297.75
239.793	292.75
240.027	298.75
240.26	296.75
240.494	246.75
240.728	247.75
240.961	249.75
241.195	242.75
241.429	252.75
241.662	254.75
241.896	253.75
242.13	268.75
242.363	254.75
242.597	290.75
242.83	282.75
243.064	294.75
243.298	287.75
243.531	271.75
243.765	286.75
243.998	290.75
244.232	253.75
244.465	260.75
244.699	249.75
244.932	276.75
245.166	294.75
245.399	321.75
245.633	284.75
245.866	290.75
246.099	294.75
246.333	299.75
246.566	293.75
246.8	316.75
247.033	336.75
247.266	329.75
247.5	321.75
247.733	314.75
247.966	338.75
248.2	348.75
248.433	339.75
248.666	365.75
248.899	380.75
249.133	416.75
249.366	474.75
249.599	394.75
249.832	356.75
250.066	346.75
250.299	378.75
250.532	338.75
250.765	322.75
250.998	340.75
251.231	339.75
251.465	342.75
251.698	343.75
251.931	346.75
252.164	351.75
252.397	356.75
252.63	347.75
252.863	331.75
253.096	325.75
253.329	318.75
253.562	324.75
253.795	373.75
254.028	352.75
254.261	354.75
254.494	332.75
254.727	346.75
254.96	355.75
255.193	360.75
255.426	388.75
255.659	456.75
255.892	461.75
256.124	375.75
256.357	372.75
256.59	411.75
256.823	408.75
257.056	425.75
257.289	477.75
257.521	489.75
257.754	471.75
257.987	453.75
258.22	479.75
258.452	460.75
258.685	370.75
258.918	372.75
259.151	397.75
259.383	359.75
259.616	361.75
259.849	361.75
260.081	390.75
260.314	427.75
260.547	448.75
260.779	468.75
261.012	437.75
261.244	410.75
261.477	402.75
261.71	392.75
261.942	402.75
262.175	390.75
262.407	408.75
262.64	367.75
262.872	378.75
263.105	361.75
263.337	388.75
263.57	381.75
263.802	355.75
264.035	342.75
264.267	344.75
264.499	364.75
264.732	372.75
264.964	380.75
265.197	397.75
265.429	414.75
265.661	452.75
265.894	483.75
266.126	489.75
266.358	441.75
266.591	480.75
266.823	502.75
267.055	436.75
267.287	434.75
267.52	452.75
267.752	438.75
267.984	448.75
268.216	448.75
268.448	450.75
268.681	477.75
268.913	436.75
269.145	410.75
269.377	424.75
269.609	462.75
269.841	514.75
270.073	588.75
270.306	623.75
270.538	600.75
270.77	527.75
271.002	477.75
271.234	476.75
271.466	476.75
271.698	528.75
271.93	585.75
272.162	596.75
272.394	530.75
272.626	515.75
272.858	452.75
273.09	411.75
273.322	421.75
273.553	389.75
273.785	393.75
274.017	399.75
274.249	437.75
274.481	406.75
274.713	438.75
274.945	422.75
275.176	397.75
275.408	410.75
275.64	394.75
275.872	399.75
276.104	429.75
276.335	463.75
276.567	534.75
276.799	537.75
277.031	482.75
277.262	449.75
277.494	492.75
277.726	526.75
277.957	520.75
278.189	455.75
278.421	436.75
278.652	412.75
278.884	421.75
279.115	424.75
279.347	444.75
279.579	425.75
279.81	439.75
280.042	476.75
280.273	478.75
280.505	513.75
280.736	513.75
280.968	488.75
281.199	447.75
281.431	433.75
281.662	424.75
281.894	429.75
282.125	442.75
282.356	446.75
282.588	466.75
282.819	448.75
283.051	518.75
283.282	523.75
283.513	467.75
283.745	457.75
283.976	432.75
284.207	412.75
284.439	452.75
284.67	443.75
284.901	459.75
285.132	437.75
285.364	428.75
285.595	437.75
285.826	462.75
286.057	454.75
286.288	445.75
286.52	464.75
286.751	479.75
286.982	486.75
287.213	472.75
287.444	424.75
287.675	460.75
287.906	457.75
288.138	474.75
288.369	458.75
288.6	444.75
288.831	441.75
289.062	424.75
289.293	458.75
289.524	459.75
289.755	449.75
289.986	453.75
290.217	447.75
290.448	437.75
290.679	475.75
290.91	464.75
291.141	454.75
291.371	475.75
291.602	497.75
291.833	472.75
292.064	475.75
292.295	508.75
292.526	479.75
292.757	512.75
292.987	493.75
293.218	472.75
293.449	516.75
293.68	562.75
293.91	584.75
294.141	552.75
294.372	547.75
294.603	585.75
294.833	554.75
295.064	532.75
295.295	482.75
295.525	474.75
295.756	430.75
295.987	454.75
296.217	441.75
296.448	460.75
296.679	464.75
296.909	450.75
297.14	461.75
297.37	479.75
297.601	494.75
297.831	520.75
298.062	512.75
298.292	481.75
298.523	472.75
298.753	471.75
298.984	495.75
299.214	478.75
299.445	485.75
299.675	491.75
299.905	490.75
300.136	452.75
300.366	473.75
300.597	449.75
300.827	468.75
301.057	483.75
301.288	500.75
301.518	502.75
301.748	515.75
301.979	547.75
302.209	538.75
302.439	585.75
302.669	579.75
302.9	558.75
303.13	506.75
303.36	497.75
303.59	501.75
303.82	501.75
304.051	517.75
304.281	515.75
304.511	539.75
304.741	578.75
304.971	592.75
305.201	606.75
305.431	546.75
305.661	477.75
305.891	434.75
306.121	456.75
306.352	483.75
306.582	518.75
306.812	545.75
307.042	567.75
307.272	542.75
307.502	610.75
307.731	636.75
307.961	630.75
308.191	571.75
308.421	503.75
308.651	514.75
308.881	510.75
309.111	486.75
309.341	462.75
309.571	490.75
309.8	488.75
310.03	492.75
310.26	474.75
310.49	472.75
310.72	531.75
310.949	532.75
311.179	519.75
311.409	502.75
311.639	520.75
311.868	492.75
312.098	516.75
312.328	526.75
312.557	526.75
312.787	490.75
313.017	509.75
313.246	506.75
313.476	518.75
313.706	524.75
313.935	512.75
314.165	532.75
314.394	554.75
314.624	595.75
314.853	595.75
315.083	614.75
315.312	588.75
315.542	571.75
315.771	540.75
316.001	546.75
316.23	585.75
316.46	570.75
316.689	533.75
316.919	498.75
317.148	531.75
317.377	531.75
317.607	572.75
317.836	647.75
318.065	632.75
318.295	593.75
318.524	585.75
318.753	545.75
318.983	545.75
319.212	574.75
319.441	541.75
319.67	548.75
319.9	581.75
320.129	590.75
320.358	612.75
320.587	612.75
320.816	624.75
321.046	580.75
321.275	586.75
321.504	586.75
321.733	618.75
321.962	597.75
322.191	575.75
322.42	551.75
322.649	543.75
322.878	551.75
323.108	563.75
323.337	588.75
323.566	563.75
323.795	581.75
324.024	589.75
324.253	563.75
324.482	573.75
324.71	538.75
324.939	518.75
325.168	546.75
325.397	574.75
325.626	590.75
325.855	563.75
326.084	557.75
326.313	573.75
326.542	550.75
326.77	588.75
326.999	582.75
327.228	552.75
327.457	526.75
327.686	533.75
327.914	527.75
328.143	563.75
328.372	553.75
328.6	555.75
328.829	550.75
329.058	547.75
329.287	532.75
329.515	552.75
329.744	585.75
329.972	623.75
330.201	619.75
330.43	605.75
330.658	594.75
330.887	565.75
331.115	610.75
331.344	585.75
331.572	575.75
331.801	566.75
332.03	595.75
332.258	621.75
332.486	631.75
332.715	605.75
332.943	574.75
333.172	596.75
333.4	596.75
333.629	648.75
333.857	669.75
334.085	754.75
334.314	833.75
334.542	820.75
334.771	756.75
334.999	669.75
335.227	648.75
335.455	634.75
335.684	635.75
335.912	654.75
336.14	650.75
336.369	630.75
336.597	598.75
336.825	602.75
337.053	617.75
337.281	664.75
337.51	702.75
337.738	673.75
337.966	665.75
338.194	617.75
338.422	605.75
338.65	602.75
338.878	589.75
339.106	591.75
339.334	578.75
339.562	548.75
339.79	595.75
340.018	600.75
340.246	604.75
340.474	613.75
340.702	618.75
340.93	610.75
341.158	606.75
341.386	593.75
341.614	590.75
341.842	594.75
342.07	604.75
342.298	618.75
342.526	608.75
342.754	600.75
342.981	579.75
343.209	574.75
343.437	585.75
343.665	599.75
343.893	606.75
344.12	641.75
344.348	624.75
344.576	603.75
344.804	620.75
345.031	631.75
345.259	581.75
345.487	544.75
345.714	547.75
345.942	566.75
346.17	566.75
346.397	576.75
346.625	593.75
346.853	548.75
347.08	553.75
347.308	544.75
347.535	556.75
347.763	588.75
347.99	540.75
348.218	532.75
348.445	550.75
348.673	585.75
348.9	572.75
349.128	591.75
349.355	619.75
349.583	570.75
349.81	576.75
350.037	524.75
350.265	524.75
350.492	549.75
350.72	547.75
350.947	574.75
351.174	574.75
351.402	561.75
351.629	530.75
351.856	538.75
352.083	538.75
352.311	532.75
352.538	553.75
352.765	568.75
352.992	575.75
353.22	574.75
353.447	544.75
353.674	558.75
353.901	540.75
354.128	544.75
354.355	544.75
354.583	562.75
354.81	578.75
355.037	589.75
355.264	576.75
355.491	597.75
355.718	585.75
355.945	558.75
356.172	548.75
356.399	544.75
356.626	536.75
356.853	579.75
357.08	646.75
357.307	658.75
357.534	651.75
357.761	560.75
357.988	551.75
358.215	544.75
358.441	577.75
358.668	528.75
358.895	550.75
359.122	610.75
359.349	660.75
359.576	601.75
359.802	553.75
360.029	563.75
360.256	541.75
360.483	556.75
360.709	581.75
360.936	620.75
361.163	669.75
361.39	706.75
361.616	707.75
361.843	696.75
362.07	621.75
362.296	590.75
362.523	554.75
362.749	565.75
362.976	564.75
363.203	582.75
363.429	579.75
363.656	566.75
363.882	595.75
364.109	654.75
364.335	662.75
364.562	619.75
364.788	587.75
365.015	580.75
365.241	589.75
365.468	558.75
365.694	610.75
365.92	594.75
366.147	577.75
366.373	550.75
366.599	564.75
366.826	556.75
367.052	564.75
367.278	557.75
367.505	598.75
367.731	594.75
367.957	572.75
368.184	619.75
368.41	667.75
368.636	660.75
368.862	651.75
369.089	651.75
369.315	633.75
369.541	610.75
369.767	593.75
369.993	568.75
370.219	603.75
370.445	589.75
370.672	661.75
370.898	646.75
371.124	653.75
371.35	635.75
371.576	650.75
371.802	657.75
372.028	624.75
372.254	611.75
372.48	594.75
372.706	604.75
372.932	588.75
373.158	627.75
373.384	623.75
373.61	665.75
373.835	658.75
374.061	606.75
374.287	626.75
374.513	627.75
374.739	631.75
374.965	615.75
375.191	643.75
375.416	648.75
375.642	660.75
375.868	711.75
376.094	696.75
376.319	649.75
376.545	631.75
376.771	685.75
376.997	691.75
377.222	673.75
377.448	666.75
377.674	655.75
377.899	677.75
378.125	691.75
378.35	688.75
378.576	626.75
378.802	626.75
379.027	608.75
379.253	643.75
379.478	625.75
379.704	644.75
379.929	620.75
380.155	644.75
380.38	648.75
380.606	667.75
380.831	649.75
381.057	696.75
381.282	680.75
381.507	686.75
381.733	717.75
381.958	732.75
382.184	668.75
382.409	684.75
382.634	661.75
382.86	665.75
383.085	678.75
383.31	713.75
383.535	781.75
383.761	777.75
383.986	745.75
384.211	702.75
384.436	715.75
384.662	754.75
384.887	766.75
385.112	720.75
385.337	743.75
385.562	694.75
385.787	734.75
386.013	770.75
386.238	760.75
386.463	757.75
386.688	819.75
386.913	854.75
387.138	820.75
387.363	770.75
387.588	779.75
387.813	755.75
388.038	788.75
388.263	818.75
388.488	747.75
388.713	705.75
388.938	743.75
389.163	741.75
389.387	764.75
389.612	740.75
389.837	772.75
390.062	734.75
390.287	747.75
390.512	745.75
390.736	734.75
390.961	709.75
391.186	726.75
391.411	733.75
391.636	744.75
391.86	749.75
392.085	751.75
392.31	748.75
392.534	729.75
392.759	780.75
392.984	756.75
393.208	740.75
393.433	792.75
393.658	825.75
393.882	785.75
394.107	758.75
394.331	770.75
394.556	768.75
394.78	789.75
395.005	806.75
395.229	831.75
395.454	857.75
395.678	862.75
395.903	820.75
396.127	822.75
396.352	819.75
396.576	820.75
396.801	858.75
397.025	818.75
397.249	828.75
397.474	810.75
397.698	812.75
397.922	876.75
398.147	866.75
398.371	910.75
398.595	873.75
398.82	850.75
399.044	884.75
399.268	924.75
399.492	945.75
399.717	982.75
399.941	974.75
400.165	983.75
400.389	948.75
400.613	964.75
400.837	1110.75
401.062	1187.75
401.286	1024.75
401.51	961.75
401.734	966.75
401.958	978.75
402.182	910.75
402.406	891.75
402.63	868.75
402.854	890.75
403.078	896.75
403.302	897.75
403.526	894.75
403.75	906.75
403.974	927.75
404.198	920.75
404.422	960.75
404.645	1011.75
404.869	944.75
405.093	907.75
405.317	888.75
405.541	901.75
405.765	922.75
405.988	911.75
406.212	926.75
406.436	919.75
406.66	990.75
406.883	1002.75
407.107	1134.75
407.331	1210.75
407.555	1254.75
407.778	1118.75
408.002	984.75
408.226	971.75
408.449	947.75
408.673	937.75
408.896	952.75
409.12	944.75
409.344	944.75
409.567	896.75
409.791	965.75
410.014	955.75
410.238	1028.75
410.461	1043.75
410.685	966.75
410.908	913.75
411.132	949.75
411.355	955.75
411.578	911.75
411.802	937.75
412.025	958.75
412.249	921.75
412.472	892.75
412.695	914.75
412.919	897.75
413.142	896.75
413.365	924.75
413.589	944.75
413.812	977.75
414.035	989.75
414.258	940.75
414.482	914.75
414.705	905.75
414.928	904.75
415.151	901.75
415.374	921.75
415.597	912.75
415.821	938.75
416.044	937.75
416.267	925.75
416.49	902.75
416.713	870.75
416.936	949.75
417.159	975.75
417.382	944.75
417.605	883.75
417.828	952.75
418.051	938.75
418.274	932.75
418.497	930.75
418.72	910.75
418.943	895.75
419.166	949.75
419.389	984.75
419.611	964.75
419.834	944.75
420.057	936.75
420.28	924.75
420.503	939.75
420.726	947.75
420.948	949.75
421.171	916.75
421.394	940.75
421.617	997.75
421.839	981.75
422.062	957.75
422.285	935.75
422.507	928.75
422.73	898.75
422.953	875.75
423.175	871.75
423.398	882.75
423.621	917.75
423.843	932.75
424.066	954.75
424.288	1005.75
424.511	1041.75
424.733	987.75
424.956	930.75
425.178	929.75
425.401	946.75
425.623	961.75
425.846	951.75
426.068	964.75
426.291	963.75
426.513	972.75
426.735	950.75
426.958	1057.75
427.18	1064.75
427.402	986.75
427.625	1020.75
427.847	991.75
428.069	922.75
428.292	915.75
428.514	897.75
428.736	884.75
428.958	910.75
429.181	949.75
429.403	1066.75
429.625	1230.75
429.847	1062.75
430.069	946.75
430.292	1034.75
430.514	1023.75
430.736	960.75
430.958	977.75
431.18	929.75
431.402	891.75
431.624	869.75
431.846	802.75
432.068	718.75
432.29	730.75
432.512	812.75
432.734	886.75
432.956	940.75
433.178	981.75
433.4	952.75
433.622	946.75
433.844	897.75
434.066	859.75
434.287	792.75
434.509	791.75
434.731	833.75
434.953	910.75
435.175	906.75
435.397	923.75
435.618	877.75
435.84	869.75
436.062	857.75
436.284	898.75
436.505	922.75
436.727	944.75
436.949	902.75
437.17	895.75
437.392	881.75
437.614	877.75
437.835	772.75
438.057	806.75
438.278	843.75
438.5	870.75
438.721	880.75
438.943	927.75
439.165	917.75
439.386	914.75
439.608	931.75
439.829	938.75
440.05	924.75
440.272	957.75
440.493	964.75
440.715	948.75
440.936	1002.75
441.158	1049.75
441.379	1040.75
441.6	1089.75
441.822	1022.75
442.043	981.75
442.264	959.75
442.486	940.75
442.707	957.75
442.928	926.75
443.149	966.75
443.371	984.75
443.592	993.75
443.813	1005.75
444.034	983.75
444.255	1020.75
444.476	1034.75
444.698	1021.75
444.919	1062.75
445.14	1088.75
445.361	1077.75
445.582	1083.75
445.803	1038.75
446.024	1022.75
446.245	1084.75
446.466	1041.75
446.687	1036.75
446.908	1005.75
447.129	994.75
447.35	1011.75
447.571	986.75
447.792	952.75
448.013	957.75
448.234	975.75
448.455	946.75
448.675	970.75
448.896	903.75
449.117	895.75
449.338	905.75
449.559	948.75
449.779	978.75
450	1035.75
450.221	1072.75
450.442	1008.75
450.662	916.75
450.883	857.75
451.104	866.75
451.324	875.75
451.545	874.75
451.766	844.75
451.986	805.75
452.207	835.75
452.428	800.75
452.648	783.75
452.869	776.75
453.089	768.75
453.31	786.75
453.53	764.75
453.751	724.75
453.971	709.75
454.192	721.75
454.412	767.75
454.633	802.75
454.853	776.75
455.073	761.75
455.294	753.75
455.514	771.75
455.734	770.75
455.955	759.75
456.175	739.75
456.395	717.75
456.616	719.75
456.836	724.75
457.056	735.75
457.276	714.75
457.497	722.75
457.717	699.75
457.937	693.75
458.157	710.75
458.377	707.75
458.598	697.75
458.818	678.75
459.038	696.75
459.258	732.75
459.478	706.75
459.698	718.75
459.918	717.75
460.138	789.75
460.358	832.75
460.578	836.75
460.798	855.75
461.018	873.75
461.238	857.75
461.458	873.75
461.678	811.75
461.898	799.75
462.118	809.75
462.338	824.75
462.558	844.75
462.777	811.75
462.997	866.75
463.217	900.75
463.437	858.75
463.657	838.75
463.876	837.75
464.096	847.75
464.316	828.75
464.536	854.75
464.755	859.75
464.975	882.75
465.195	861.75
465.414	880.75
465.634	873.75
465.854	866.75
466.073	936.75
466.293	910.75
466.512	852.75
466.732	872.75
466.951	908.75
467.171	894.75
467.391	857.75
467.61	888.75
467.829	884.75
468.049	971.75
468.268	1027.75
468.488	965.75
468.707	917.75
468.927	933.75
469.146	920.75
469.365	933.75
469.585	948.75
469.804	909.75
470.023	917.75
470.243	932.75
470.462	929.75
470.681	906.75
470.901	910.75
471.12	948.75
471.339	944.75
471.558	930.75
471.777	885.75
471.997	904.75
472.216	857.75
472.435	774.75
472.654	759.75
472.873	780.75
473.092	818.75
473.311	844.75
473.53	798.75
473.749	814.75
473.968	816.75
474.187	804.75
474.406	835.75
474.625	830.75
474.844	871.75
475.063	884.75
475.282	844.75
475.501	803.75
475.72	814.75
475.939	882.75
476.158	869.75
476.377	880.75
476.596	862.75
476.814	831.75
477.033	790.75
477.252	860.75
477.471	895.75
477.69	894.75
477.908	957.75
478.127	969.75
478.346	982.75
478.564	974.75
478.783	987.75
479.002	1004.75
479.22	985.75
479.439	1024.75
479.658	1050.75
479.876	967.75
480.095	910.75
480.313	872.75
480.532	866.75
480.751	859.75
480.969	846.75
481.188	772.75
481.406	772.75
481.624	781.75
481.843	810.75
482.061	800.75
482.28	866.75
482.498	889.75
482.717	835.75
482.935	900.75
483.153	978.75
483.372	999.75
483.59	979.75
483.808	986.75
484.027	929.75
484.245	996.75
484.463	1203.75
484.681	1304.75
484.9	992.75
485.118	952.75
485.336	937.75
485.554	898.75
485.772	901.75
485.99	870.75
486.209	917.75
486.427	880.75
486.645	948.75
486.863	986.75
487.081	1042.75
487.299	1011.75
487.517	999.75
487.735	1105.75
487.953	1223.75
488.171	1184.75
488.389	1123.75
488.607	1062.75
488.825	1157.75
489.043	1065.75
489.261	969.75
489.479	1021.75
489.696	1054.75
489.914	1025.75
490.132	1058.75
490.35	1097.75
490.568	1158.75
490.786	1178.75
491.003	1139.75
491.221	1249.75
491.439	1269.75
491.657	1289.75
491.874	1348.75
492.092	1413.75
492.31	1508.75
492.527	1434.75
492.745	1358.75
492.963	1294.75
493.18	1285.75
493.398	1353.75
493.615	1300.75
493.833	1237.75
494.05	1202.75
494.268	1235.75
494.485	1232.75
494.703	1230.75
494.92	1225.75
495.138	1229.75
495.355	1228.75
495.573	1248.75
495.79	1296.75
496.008	1310.75
496.225	1249.75
496.442	1225.75
496.66	1229.75
496.877	1192.75
497.094	1222.75
497.312	1242.75
497.529	1217.75
497.746	1198.75
497.963	1260.75
498.181	1281.75
498.398	1250.75
498.615	1224.75
498.832	1161.75
499.049	1101.75
499.267	1169.75
499.484	1244.75
499.701	1355.75
499.918	1330.75
500.135	1459.75
500.352	1505.75
500.569	1541.75
500.786	1686.75
501.003	1557.75
501.22	1437.75
501.437	1389.75
501.654	1415.75
501.871	1322.75
502.088	1193.75
502.305	1177.75
502.522	1140.75
502.739	1099.75
502.956	1060.75
503.172	1030.75
503.389	1020.75
503.606	953.75
503.823	1006.75
504.04	988.75
504.256	978.75
504.473	995.75
504.69	1010.75
504.907	960.75
505.123	951.75
505.34	1084.75
505.557	1362.75
505.773	1111.75
505.99	962.75
506.207	886.75
506.423	872.75
506.64	890.75
506.856	908.75
507.073	1034.75
507.289	1095.75
507.506	1006.75
507.722	908.75
507.939	852.75
508.155	830.75
508.372	857.75
508.588	830.75
508.805	772.75
509.021	757.75
509.238	743.75
509.454	768.75
509.67	733.75
509.887	730.75
510.103	729.75
510.319	757.75
510.536	766.75
510.752	773.75
510.968	769.75
511.184	794.75
511.401	754.75
511.617	696.75
511.833	684.75
512.049	713.75
512.265	717.75
512.481	719.75
512.698	736.75
512.914	770.75
513.13	753.75
513.346	707.75
513.562	699.75
513.778	722.75
513.994	771.75
514.21	734.75
514.426	761.75
514.642	850.75
514.858	767.75
515.074	718.75
515.29	706.75
515.506	718.75
515.721	733.75
515.937	741.75
516.153	787.75
516.369	771.75
516.585	761.75
516.801	741.75
517.016	733.75
517.232	735.75
517.448	768.75
517.664	782.75
517.879	764.75
518.095	796.75
518.311	741.75
518.527	779.75
518.742	730.75
518.958	710.75
519.173	762.75
519.389	782.75
519.605	736.75
519.82	792.75
520.036	781.75
520.251	753.75
520.467	767.75
520.682	800.75
520.898	794.75
521.113	719.75
521.329	712.75
521.544	757.75
521.76	720.75
521.975	690.75
522.19	700.75
522.406	731.75
522.621	950.75
522.836	857.75
523.052	724.75
523.267	738.75
523.482	758.75
523.698	726.75
523.913	736.75
524.128	761.75
524.343	806.75
524.559	816.75
524.774	782.75
524.989	768.75
525.204	762.75
525.419	768.75
525.634	741.75
525.849	741.75
526.064	728.75
526.28	729.75
526.495	673.75
526.71	646.75
526.925	637.75
527.14	631.75
527.355	616.75
527.57	639.75
527.785	682.75
527.999	664.75
528.214	673.75
528.429	708.75
528.644	736.75
528.859	777.75
529.074	834.75
529.289	853.75
529.503	856.75
529.718	812.75
529.933	723.75
530.148	650.75
530.363	630.75
530.577	617.75
530.792	632.75
531.007	608.75
531.221	636.75
531.436	620.75
531.651	652.75
531.865	670.75
532.08	657.75
532.295	643.75
532.509	599.75
532.724	616.75
532.938	662.75
533.153	723.75
533.367	711.75
533.582	759.75
533.796	740.75
534.011	688.75
534.225	650.75
534.44	627.75
534.654	638.75
534.868	683.75
535.083	678.75
535.297	664.75
535.511	682.75
535.726	691.75
535.94	674.75
536.154	650.75
536.369	624.75
536.583	630.75
536.797	594.75
537.011	613.75
537.225	596.75
537.44	621.75
537.654	631.75
537.868	626.75
538.082	615.75
538.296	602.75
538.51	617.75
538.724	675.75
538.938	724.75
539.153	750.75
539.367	719.75
539.581	672.75
539.795	687.75
540.009	638.75
540.222	648.75
540.436	680.75
540.65	738.75
540.864	788.75
541.078	805.75
541.292	850.75
541.506	880.75
541.72	924.75
541.934	1012.75
542.147	1056.75
542.361	982.75
542.575	894.75
542.789	841.75
543.002	753.75
543.216	746.75
543.43	745.75
543.644	810.75
543.857	874.75
544.071	907.75
544.285	925.75
544.498	919.75
544.712	939.75
544.925	927.75
545.139	965.75
545.352	939.75
545.566	900.75
545.779	910.75
545.993	949.75
546.206	969.75
546.42	957.75
546.633	937.75
546.847	936.75
547.06	949.75
547.274	950.75
547.487	954.75
547.7	979.75
547.914	978.75
548.127	946.75
548.34	932.75
548.554	902.75
548.767	918.75
548.98	930.75
549.193	940.75
549.407	970.75
549.62	938.75
549.833	915.75
550.046	884.75
550.259	897.75
550.473	889.75
550.686	854.75
550.899	842.75
551.112	826.75
551.325	833.75
551.538	828.75
551.751	850.75
551.964	729.75
552.177	710.75
552.39	809.75
552.603	822.75
552.816	841.75
553.029	896.75
553.242	937.75
553.455	894.75
553.667	894.75
553.88	878.75
554.093	884.75
554.306	849.75
554.519	845.75
554.732	824.75
554.944	819.75
555.157	836.75
555.37	794.75
555.583	790.75
555.795	772.75
556.008	740.75
556.221	716.75
556.433	710.75
556.646	733.75
556.859	716.75
557.071	775.75
557.284	766.75
557.496	745.75
557.709	716.75
557.921	737.75
558.134	745.75
558.346	743.75
558.559	716.75
558.771	700.75
558.984	696.75
559.196	706.75
559.409	671.75
559.621	644.75
559.833	669.75
560.046	664.75
560.258	664.75
560.47	683.75
560.683	698.75
560.895	665.75
561.107	685.75
561.32	688.75
561.532	688.75
561.744	691.75
561.956	677.75
562.168	660.75
562.381	633.75
562.593	660.75
562.805	636.75
563.017	628.75
563.229	627.75
563.441	644.75
563.653	633.75
563.865	613.75
564.077	608.75
564.289	628.75
564.501	613.75
564.713	617.75
564.925	641.75
565.137	682.75
565.349	616.75
565.561	620.75
565.773	638.75
565.985	608.75
566.197	630.75
566.408	673.75
566.62	676.75
566.832	685.75
567.044	691.75
567.255	647.75
567.467	641.75
567.679	653.75
567.891	651.75
568.102	613.75
568.314	589.75
568.526	540.75
568.737	508.75
568.949	477.75
569.161	467.75
569.372	471.75
569.584	449.75
569.795	477.75
570.007	476.75
570.218	458.75
570.43	439.75
570.641	445.75
570.853	446.75
571.064	488.75
571.276	468.75
571.487	474.75
571.698	474.75
571.91	474.75
572.121	468.75
572.333	443.75
572.544	440.75
572.755	406.75
572.966	413.75
573.178	401.75
573.389	402.75
573.6	396.75
573.811	421.75
574.023	386.75
574.234	389.75
574.445	404.75
574.656	389.75
574.867	390.75
575.078	390.75
575.289	408.75
575.501	381.75
575.712	388.75
575.923	387.75
576.134	382.75
576.345	400.75
576.556	408.75
576.767	395.75
576.978	386.75
577.188	390.75
577.399	382.75
577.61	356.75
577.821	376.75
578.032	356.75
578.243	354.75
578.454	382.75
578.665	358.75
578.875	338.75
579.086	361.75
579.297	355.75
579.508	360.75
579.718	336.75
579.929	339.75
580.14	330.75
580.35	343.75
580.561	359.75
580.772	379.75
580.982	358.75
581.193	362.75
581.403	347.75
581.614	344.75
581.825	353.75
582.035	348.75
582.246	340.75
582.456	360.75
582.667	357.75
582.877	360.75
583.087	336.75
583.298	333.75
583.508	327.75
583.719	334.75
583.929	324.75
584.139	330.75
584.35	301.75
584.56	329.75
584.77	319.75
584.981	328.75
585.191	330.75
585.401	349.75
585.611	329.75
585.821	328.75
586.032	322.75
586.242	316.75
586.452	325.75
586.662	313.75
586.872	316.75
587.082	311.75
587.292	316.75
587.502	333.75
587.713	325.75
587.923	300.75
588.133	317.75
588.343	320.75
588.553	317.75
588.762	317.75
588.972	319.75
589.182	328.75
589.392	306.75
589.602	320.75
589.812	308.75
590.022	298.75
590.232	307.75
590.441	307.75
590.651	316.75
590.861	320.75
591.071	315.75
591.281	301.75
591.49	318.75
591.7	310.75
591.91	309.75
592.119	322.75
592.329	313.75
592.539	316.75
592.748	333.75
592.958	298.75
593.167	321.75
593.377	334.75
593.587	331.75
593.796	328.75
594.006	300.75
594.215	340.75
594.424	345.75
594.634	339.75
594.843	353.75
595.053	341.75
595.262	334.75
595.472	329.75
595.681	318.75
595.89	320.75
596.1	306.75
596.309	305.75
596.518	317.75
596.727	334.75
596.937	336.75
597.146	312.75
597.355	318.75
597.564	297.75
597.774	296.75
597.983	283.75
598.192	295.75
598.401	273.75
598.61	293.75
598.819	294.75
599.028	304.75
599.237	318.75
599.446	290.75
599.655	269.75
599.864	275.75
600.073	285.75
600.282	283.75
600.491	301.75
600.7	297.75
600.909	294.75
601.118	315.75
601.327	321.75
601.536	318.75
601.745	340.75
601.953	342.75
602.162	343.75
602.371	373.75
602.58	358.75
602.789	377.75
602.997	350.75
603.206	355.75
603.415	351.75
603.623	371.75
603.832	320.75
604.041	334.75
604.249	320.75
604.458	301.75
604.666	288.75
604.875	302.75
605.084	300.75
605.292	339.75
605.501	362.75
605.709	365.75
605.918	348.75
606.126	364.75
606.334	356.75
606.543	377.75
606.751	352.75
606.96	361.75
607.168	366.75
607.376	357.75
607.585	375.75
607.793	358.75
608.001	339.75
608.21	358.75
608.418	370.75
608.626	364.75
608.834	360.75
609.043	363.75
609.251	374.75
609.459	361.75
609.667	348.75
609.875	369.75
610.083	372.75
610.291	354.75
610.499	378.75
610.707	345.75
610.916	352.75
611.124	356.75
611.332	342.75
611.54	377.75
611.748	354.75
611.955	360.75
612.163	359.75
612.371	381.75
612.579	370.75
612.787	363.75
612.995	376.75
613.203	349.75
613.411	349.75
613.618	347.75
613.826	356.75
614.034	353.75
614.242	345.75
614.449	353.75
614.657	345.75
614.865	368.75
615.072	356.75
615.28	362.75
615.488	370.75
615.695	372.75
615.903	353.75
616.111	349.75
616.318	373.75
616.526	372.75
616.733	363.75
616.941	366.75
617.148	344.75
617.356	364.75
617.563	333.75
617.771	315.75
617.978	309.75
618.185	341.75
618.393	333.75
618.6	330.75
618.807	361.75
619.015	362.75
619.222	337.75
619.429	339.75
619.637	326.75
619.844	292.75
620.051	299.75
620.258	322.75
620.466	321.75
620.673	293.75
620.88	296.75
621.087	301.75
621.294	324.75
621.501	291.75
621.708	299.75
621.915	301.75
622.122	324.75
622.329	340.75
622.536	317.75
622.743	325.75
622.95	318.75
623.157	326.75
623.364	329.75
623.571	313.75
623.778	328.75
623.985	338.75
624.192	319.75
624.399	311.75
624.606	310.75
624.812	299.75
625.019	313.75
625.226	297.75
625.433	278.75
625.639	280.75
625.846	264.75
626.053	246.75
626.259	248.75
626.466	235.75
626.673	224.75
626.879	220.75
627.086	248.75
627.293	259.75
627.499	288.75
627.706	296.75
627.912	307.75
628.119	296.75
628.325	300.75
628.532	288.75
628.738	298.75
628.945	290.75
629.151	266.75
629.357	283.75
629.564	280.75
629.77	288.75
629.976	281.75
630.183	247.75
630.389	252.75
630.595	289.75
630.802	275.75
631.008	273.75
631.214	274.75
631.42	259.75
631.627	274.75
631.833	240.75
632.039	262.75
632.245	258.75
632.451	260.75
632.657	276.75
632.863	277.75
633.069	270.75
633.275	267.75
633.481	249.75
633.688	244.75
633.893	271.75
634.099	265.75
634.305	248.75
634.511	251.75
634.717	234.75
634.923	237.75
635.129	205.75
635.335	240.75
635.541	234.75
635.747	242.75
635.952	242.75
636.158	253.75
636.364	248.75
636.57	257.75
636.775	264.75
636.981	250.75
637.187	258.75
637.392	274.75
637.598	266.75
637.804	264.75
638.009	267.75
638.215	272.75
638.421	242.75
638.626	254.75
638.832	268.75
639.037	243.75
639.243	257.75
639.448	251.75
639.654	256.75
639.859	249.75
640.065	243.75
640.27	256.75
640.475	256.75
640.681	265.75
640.886	250.75
641.091	264.75
641.297	273.75
641.502	263.75
641.707	250.75
641.913	260.75
642.118	258.75
642.323	258.75
642.528	249.75
642.733	249.75
642.939	257.75
643.144	251.75
643.349	253.75
643.554	237.75
643.759	252.75
643.964	235.75
644.169	240.75
644.374	241.75
644.579	232.75
644.784	245.75
644.989	258.75
645.194	245.75
645.399	233.75
645.604	237.75
645.809	247.75
646.014	241.75
646.219	246.75
646.423	237.75
646.628	220.75
646.833	236.75
647.038	241.75
647.243	246.75
647.447	218.75
647.652	249.75
647.857	240.75
648.062	240.75
648.266	227.75
648.471	236.75
648.676	245.75
648.88	235.75
649.085	236.75
649.289	238.75
649.494	235.75
649.698	217.75
649.903	240.75
650.107	223.75
650.312	241.75
650.516	249.75
650.721	247.75
650.925	222.75
651.13	226.75
651.334	223.75
651.539	206.75
651.743	215.75
651.947	229.75
652.152	220.75
652.356	224.75
652.56	200.75
652.764	202.75
652.969	228.75
653.173	196.75
653.377	212.75
653.581	198.75
653.785	193.75
653.99	199.75
654.194	200.75
654.398	194.75
654.602	191.75
654.806	208.75
655.01	210.75
655.214	184.75
655.418	193.75
655.622	197.75
655.826	227.75
656.03	195.75
656.234	227.75
656.438	229.75
656.642	236.75
656.846	219.75
657.049	190.75
657.253	201.75
657.457	176.75
657.661	194.75
657.865	182.75
658.068	172.75
658.272	160.75
658.476	172.75
658.68	157.75
658.883	164.75
659.087	157.75
659.291	144.75
659.494	130.75
659.698	133.75
659.901	132.75
660.105	126.75
660.309	128.75
660.512	123.75
660.716	117.75
660.919	114.75
661.123	124.75
661.326	123.75
661.53	113.75
661.733	118.75
661.936	97.75
662.14	91.75
662.343	96.75
662.546	98.75
662.75	103.75
662.953	96.75
663.156	92.75
663.36	81.75
663.563	87.75
663.766	77.75
663.969	78.75
664.173	91.75
664.376	83.75
664.579	67.75
664.782	86.75
664.985	88.75
665.188	84.75
665.391	91.75
665.594	89.75
665.797	70.75
666	72.75
666.203	67.75
666.406	74.75
666.609	100.75
666.812	75.75
667.015	74.75
667.218	92.75
667.421	85.75
667.624	85.75
667.827	84.75
668.03	68.75
668.232	78.75
668.435	90.75
668.638	85.75
668.841	84.75
669.043	60.75
669.246	84.75
669.449	77.75
669.651	82.75
669.854	79.75
670.057	72.75
670.259	83.75
670.462	87.75
670.665	95.75
670.867	65.75
671.07	88.75
671.272	95.75
671.475	88.75
671.677	93.75
671.88	95.75
672.082	85.75
672.284	90.75
672.487	83.75
672.689	79.75
672.892	84.75
