Data from WStandard_LampEnergy10_LIBS07252019.E.O._I.C._HRD10591_15-52-43-929.txt Node
Date: Thu Jul 25 15:52:43 EDT 2019
User: cochatt
Spectrometer: HR+D1059
Trigger mode: 1
Integration Time (sec): 1.000000E-1
Scans to average: 1
Electric dark correction enabled: true
Nonlinearity correction enabled: false
Boxcar width: 0
XAxis mode: Wavelengths
Number of Pixels in Spectrum: 2048
>>>>>Begin Spectral Data<<<<<
223.165	-19.5
223.4	-19.5
223.635	-19.5
223.869	-22.5
224.104	-9.5
224.338	-18.5
224.573	-15.5
224.808	-11.5
225.042	0.5
225.277	4.5
225.511	0.5
225.746	-1.5
225.98	-2.5
226.215	-2.5
226.449	18.5
226.683	18.5
226.918	23.5
227.152	37.5
227.387	41.5
227.621	34.5
227.856	42.5
228.09	40.5
228.324	55.5
228.559	50.5
228.793	240.5
229.027	708.5
229.262	712.5
229.496	749.5
229.73	772.5
229.964	847.5
230.199	878.5
230.433	909.5
230.667	960.5
230.901	1031.5
231.136	916.5
231.37	914.5
231.604	883.5
231.838	928.5
232.072	927.5
232.306	854.5
232.541	909.5
232.775	1113.5
233.009	1158.5
233.243	1140.5
233.477	1016.5
233.711	1075.5
233.945	1146.5
234.179	1048.5
234.413	1172.5
234.647	1269.5
234.881	1184.5
235.115	1077.5
235.349	1125.5
235.583	1126.5
235.817	1106.5
236.051	1084.5
236.285	1084.5
236.519	1200.5
236.753	1313.5
236.987	1340.5
237.221	1311.5
237.455	1492.5
237.689	1460.5
237.922	1388.5
238.156	1352.5
238.39	1354.5
238.624	1424.5
238.858	1516.5
239.091	1566.5
239.325	1662.5
239.559	1935.5
239.793	1976.5
240.027	2122.5
240.26	2075.5
240.494	1542.5
240.728	1422.5
240.961	1472.5
241.195	1492.5
241.429	1655.5
241.662	1702.5
241.896	1550.5
242.13	1565.5
242.363	1741.5
242.597	1876.5
242.83	1768.5
243.064	1871.5
243.298	2004.5
243.531	1907.5
243.765	1911.5
243.998	1909.5
244.232	1708.5
244.465	1637.5
244.699	1618.5
244.932	1908.5
245.166	2184.5
245.399	2052.5
245.633	1853.5
245.866	1845.5
246.099	1930.5
246.333	1982.5
246.566	1997.5
246.8	2175.5
247.033	2420.5
247.266	2249.5
247.5	2185.5
247.733	2169.5
247.966	2371.5
248.2	2534.5
248.433	2455.5
248.666	2550.5
248.899	2816.5
249.133	3199.5
249.366	3608.5
249.599	2946.5
249.832	2614.5
250.066	2655.5
250.299	2703.5
250.532	2541.5
250.765	2301.5
250.998	2431.5
251.231	2521.5
251.465	2571.5
251.698	2482.5
251.931	2485.5
252.164	2543.5
252.397	2639.5
252.63	2668.5
252.863	2326.5
253.096	2331.5
253.329	2458.5
253.562	2496.5
253.795	2720.5
254.028	2680.5
254.261	2473.5
254.494	2444.5
254.727	2322.5
254.96	2473.5
255.193	2653.5
255.426	2985.5
255.659	3422.5
255.892	3547.5
256.124	2886.5
256.357	2785.5
256.59	3073.5
256.823	3053.5
257.056	3029.5
257.289	3656.5
257.521	4044.5
257.754	3637.5
257.987	3411.5
258.22	3791.5
258.452	3694.5
258.685	3007.5
258.918	2911.5
259.151	2926.5
259.383	2770.5
259.616	2543.5
259.849	2654.5
260.081	2979.5
260.314	3345.5
260.547	3634.5
260.779	3690.5
261.012	3425.5
261.244	3047.5
261.477	2894.5
261.71	3081.5
261.942	3030.5
262.175	2926.5
262.407	3157.5
262.64	2932.5
262.872	2785.5
263.105	2662.5
263.337	2736.5
263.57	2828.5
263.802	2771.5
264.035	2591.5
264.267	2478.5
264.499	2428.5
264.732	2643.5
264.964	2759.5
265.197	2894.5
265.429	3025.5
265.661	3386.5
265.894	3728.5
266.126	3842.5
266.358	3462.5
266.591	3556.5
266.823	3911.5
267.055	3511.5
267.287	3455.5
267.52	3382.5
267.752	3359.5
267.984	3415.5
268.216	3551.5
268.448	3611.5
268.681	3536.5
268.913	3262.5
269.145	3118.5
269.377	3053.5
269.609	3278.5
269.841	3836.5
270.073	4446.5
270.306	4962.5
270.538	5171.5
270.77	4416.5
271.002	3758.5
271.234	3585.5
271.466	3576.5
271.698	3994.5
271.93	4780.5
272.162	4785.5
272.394	4303.5
272.626	4069.5
272.858	3580.5
273.09	3119.5
273.322	3131.5
273.553	2936.5
273.785	3040.5
274.017	3156.5
274.249	3500.5
274.481	3485.5
274.713	3118.5
274.945	3060.5
275.176	3098.5
275.408	3031.5
275.64	2988.5
275.872	2903.5
276.104	3174.5
276.335	3649.5
276.567	4140.5
276.799	4214.5
277.031	3699.5
277.262	3517.5
277.494	3706.5
277.726	4040.5
277.957	4028.5
278.189	3662.5
278.421	3430.5
278.652	3309.5
278.884	3182.5
279.115	3241.5
279.347	3353.5
279.579	3237.5
279.81	3176.5
280.042	3547.5
280.273	3915.5
280.505	3952.5
280.736	4032.5
280.968	3785.5
281.199	3282.5
281.431	3152.5
281.662	3132.5
281.894	3193.5
282.125	3233.5
282.356	3378.5
282.588	3427.5
282.819	3386.5
283.051	3656.5
283.282	3958.5
283.513	3869.5
283.745	3346.5
283.976	3128.5
284.207	3112.5
284.439	3258.5
284.67	3237.5
284.901	3411.5
285.132	3436.5
285.364	3364.5
285.595	3408.5
285.826	3375.5
286.057	3305.5
286.288	3284.5
286.52	3472.5
286.751	3653.5
286.982	3834.5
287.213	3463.5
287.444	3183.5
287.675	3191.5
287.906	3412.5
288.138	3629.5
288.369	3538.5
288.6	3364.5
288.831	3268.5
289.062	3237.5
289.293	3343.5
289.524	3348.5
289.755	3522.5
289.986	3494.5
290.217	3185.5
290.448	3239.5
290.679	3383.5
290.91	3414.5
291.141	3498.5
291.371	3618.5
291.602	3591.5
291.833	3511.5
292.064	3660.5
292.295	3576.5
292.526	3679.5
292.757	3785.5
292.987	3580.5
293.218	3439.5
293.449	3776.5
293.68	4141.5
293.91	4468.5
294.141	4191.5
294.372	3922.5
294.603	4120.5
294.833	4186.5
295.064	3952.5
295.295	3668.5
295.525	3561.5
295.756	3285.5
295.987	3142.5
296.217	3237.5
296.448	3338.5
296.679	3348.5
296.909	3363.5
297.14	3321.5
297.37	3372.5
297.601	3618.5
297.831	3814.5
298.062	3822.5
298.292	3546.5
298.523	3368.5
298.753	3372.5
298.984	3446.5
299.214	3408.5
299.445	3480.5
299.675	3652.5
299.905	3614.5
300.136	3535.5
300.366	3399.5
300.597	3342.5
300.827	3328.5
301.057	3452.5
301.288	3623.5
301.518	3645.5
301.748	3726.5
301.979	3909.5
302.209	3927.5
302.439	4212.5
302.669	4398.5
302.9	4142.5
303.13	3686.5
303.36	3639.5
303.59	3772.5
303.82	3678.5
304.051	3689.5
304.281	3689.5
304.511	3737.5
304.741	3921.5
304.971	4338.5
305.201	4612.5
305.431	4307.5
305.661	3562.5
305.891	3211.5
306.121	3228.5
306.352	3395.5
306.582	3516.5
306.812	3800.5
307.042	4099.5
307.272	4088.5
307.502	4183.5
307.731	4494.5
307.961	4797.5
308.191	4430.5
308.421	3799.5
308.651	3641.5
308.881	3560.5
309.111	3527.5
309.341	3471.5
309.571	3558.5
309.8	3555.5
310.03	3501.5
310.26	3482.5
310.49	3483.5
310.72	3537.5
310.949	3737.5
311.179	3844.5
311.409	3727.5
311.639	3589.5
311.868	3540.5
312.098	3647.5
312.328	3619.5
312.557	3562.5
312.787	3710.5
313.017	3742.5
313.246	3691.5
313.476	3735.5
313.706	3814.5
313.935	3772.5
314.165	3728.5
314.394	3902.5
314.624	4082.5
314.853	4325.5
315.083	4498.5
315.312	4594.5
315.542	4276.5
315.771	3860.5
316.001	3779.5
316.23	4063.5
316.46	4044.5
316.689	3961.5
316.919	3733.5
317.148	3684.5
317.377	3681.5
317.607	3930.5
317.836	4446.5
318.065	4561.5
318.295	4428.5
318.524	4210.5
318.753	3965.5
318.983	3983.5
319.212	3923.5
319.441	3900.5
319.67	3877.5
319.9	3932.5
320.129	4145.5
320.358	4316.5
320.587	4380.5
320.816	4317.5
321.046	4216.5
321.275	4012.5
321.504	4021.5
321.733	4426.5
321.962	4270.5
322.191	3920.5
322.42	3927.5
322.649	3880.5
322.878	3898.5
323.108	3917.5
323.337	4036.5
323.566	4014.5
323.795	4026.5
324.024	4013.5
324.253	3941.5
324.482	4021.5
324.71	3884.5
324.939	3671.5
325.168	3713.5
325.397	3909.5
325.626	4031.5
325.855	3999.5
326.084	3914.5
326.313	3928.5
326.542	3941.5
326.77	4070.5
326.999	4131.5
327.228	3916.5
327.457	3689.5
327.686	3717.5
327.914	3840.5
328.143	3900.5
328.372	3928.5
328.6	3889.5
328.829	3820.5
329.058	3822.5
329.287	3892.5
329.515	3948.5
329.744	3912.5
329.972	4197.5
330.201	4326.5
330.43	4160.5
330.658	4106.5
330.887	4205.5
331.115	4112.5
331.344	4185.5
331.572	4009.5
331.801	4082.5
332.03	4136.5
332.258	4150.5
332.486	4191.5
332.715	4201.5
332.943	4262.5
333.172	4115.5
333.4	4199.5
333.629	4309.5
333.857	4534.5
334.085	5016.5
334.314	5644.5
334.542	6131.5
334.771	5596.5
334.999	4897.5
335.227	4710.5
335.455	4538.5
335.684	4362.5
335.912	4483.5
336.14	4690.5
336.369	4482.5
336.597	4252.5
336.825	4185.5
337.053	4331.5
337.281	4556.5
337.51	4673.5
337.738	4984.5
337.966	4656.5
338.194	4282.5
338.422	4137.5
338.65	4110.5
338.878	4050.5
339.106	3973.5
339.334	3904.5
339.562	3830.5
339.79	3991.5
340.018	4231.5
340.246	4317.5
340.474	4330.5
340.702	4225.5
340.93	4252.5
341.158	4183.5
341.386	4108.5
341.614	4087.5
341.842	4096.5
342.07	4035.5
342.298	4112.5
342.526	4127.5
342.754	4015.5
342.981	4034.5
343.209	3988.5
343.437	4061.5
343.665	4048.5
343.893	4160.5
344.12	4358.5
344.348	4438.5
344.576	4207.5
344.804	4015.5
345.031	4066.5
345.259	4114.5
345.487	3996.5
345.714	3840.5
345.942	3696.5
346.17	3773.5
346.397	3804.5
346.625	3847.5
346.853	3693.5
347.08	3588.5
347.308	3667.5
347.535	3749.5
347.763	3894.5
347.99	3725.5
348.218	3709.5
348.445	3720.5
348.673	3787.5
348.9	3851.5
349.128	3993.5
349.355	4102.5
349.583	3970.5
349.81	3814.5
350.037	3534.5
350.265	3487.5
350.492	3530.5
350.72	3594.5
350.947	3800.5
351.174	3814.5
351.402	3617.5
351.629	3488.5
351.856	3496.5
352.083	3451.5
352.311	3526.5
352.538	3591.5
352.765	3745.5
352.992	3864.5
353.22	3725.5
353.447	3565.5
353.674	3656.5
353.901	3743.5
354.128	3646.5
354.355	3585.5
354.583	3722.5
354.81	3847.5
355.037	3815.5
355.264	3813.5
355.491	3671.5
355.718	3795.5
355.945	3701.5
356.172	3671.5
356.399	3643.5
356.626	3598.5
356.853	3739.5
357.08	4082.5
357.307	4351.5
357.534	4379.5
357.761	3847.5
357.988	3630.5
358.215	3554.5
358.441	3581.5
358.668	3504.5
358.895	3553.5
359.122	3825.5
359.349	4178.5
359.576	4143.5
359.802	3742.5
360.029	3621.5
360.256	3518.5
360.483	3616.5
360.709	3757.5
360.936	3820.5
361.163	3977.5
361.39	4309.5
361.616	4625.5
361.843	4470.5
362.07	4202.5
362.296	3722.5
362.523	3655.5
362.749	3722.5
362.976	3748.5
363.203	3777.5
363.429	3662.5
363.656	3564.5
363.882	3746.5
364.109	4098.5
364.335	4421.5
364.562	4103.5
364.788	3895.5
365.015	3733.5
365.241	3645.5
365.468	3636.5
365.694	3865.5
365.92	4053.5
366.147	3848.5
366.373	3642.5
366.599	3582.5
366.826	3593.5
367.052	3609.5
367.278	3692.5
367.505	3708.5
367.731	3823.5
367.957	3786.5
368.184	3906.5
368.41	4140.5
368.636	4130.5
368.862	4244.5
369.089	4169.5
369.315	4050.5
369.541	3903.5
369.767	3758.5
369.993	3656.5
370.219	3717.5
370.445	3822.5
370.672	3999.5
370.898	4162.5
371.124	4137.5
371.35	3856.5
371.576	4042.5
371.802	4174.5
372.028	3998.5
372.254	3845.5
372.48	3719.5
372.706	3689.5
372.932	3701.5
373.158	3708.5
373.384	3837.5
373.61	3934.5
373.835	4174.5
374.061	3973.5
374.287	3886.5
374.513	3913.5
374.739	3876.5
374.965	3952.5
375.191	3997.5
375.416	4089.5
375.642	4039.5
375.868	4216.5
376.094	4351.5
376.319	4182.5
376.545	3906.5
376.771	3957.5
376.997	4132.5
377.222	4108.5
377.448	4041.5
377.674	4060.5
377.899	3979.5
378.125	4277.5
378.35	4205.5
378.576	3904.5
378.802	3681.5
379.027	3710.5
379.253	3776.5
379.478	3839.5
379.704	3862.5
379.929	3853.5
380.155	3832.5
380.38	3884.5
380.606	3929.5
380.831	3840.5
381.057	4069.5
381.282	4096.5
381.507	3994.5
381.733	4261.5
381.958	4406.5
382.184	4096.5
382.409	3996.5
382.634	4003.5
382.86	4054.5
383.085	4021.5
383.31	4115.5
383.535	4548.5
383.761	4683.5
383.986	4518.5
384.211	4392.5
384.436	4363.5
384.662	4526.5
384.887	4753.5
385.112	4452.5
385.337	4486.5
385.562	4484.5
385.787	4429.5
386.013	4551.5
386.238	4535.5
386.463	4537.5
386.688	4804.5
386.913	5039.5
387.138	4953.5
387.363	4643.5
387.588	4579.5
387.813	4577.5
388.038	4604.5
388.263	4734.5
388.488	4591.5
388.713	4241.5
388.938	4238.5
389.163	4281.5
389.387	4379.5
389.612	4334.5
389.837	4455.5
390.062	4485.5
390.287	4416.5
390.512	4386.5
390.736	4380.5
390.961	4276.5
391.186	4216.5
391.411	4229.5
391.636	4371.5
391.86	4434.5
392.085	4449.5
392.31	4449.5
392.534	4436.5
392.759	4504.5
392.984	4419.5
393.208	4539.5
393.433	4566.5
393.658	4742.5
393.882	4747.5
394.107	4569.5
394.331	4410.5
394.556	4389.5
394.78	4442.5
395.005	4673.5
395.229	4778.5
395.454	5006.5
395.678	5078.5
395.903	4835.5
396.127	4638.5
396.352	4791.5
396.576	4852.5
396.801	4957.5
397.025	4867.5
397.249	4888.5
397.474	4791.5
397.698	4796.5
397.922	4953.5
398.147	5122.5
398.371	5252.5
398.595	5281.5
398.82	5168.5
399.044	5267.5
399.268	5361.5
399.492	5788.5
399.717	5967.5
399.941	6041.5
400.165	5916.5
400.389	5695.5
400.613	5647.5
400.837	6162.5
401.062	7033.5
401.286	5990.5
401.51	5578.5
401.734	5765.5
401.958	5569.5
402.182	5299.5
402.406	5066.5
402.63	4993.5
402.854	5053.5
403.078	5071.5
403.302	5248.5
403.526	5240.5
403.75	5311.5
403.974	5330.5
404.198	5234.5
404.422	5421.5
404.645	5625.5
404.869	5576.5
405.093	5225.5
405.317	5102.5
405.541	5292.5
405.765	5354.5
405.988	5319.5
406.212	5409.5
406.436	5474.5
406.66	5647.5
406.883	5723.5
407.107	6299.5
407.331	6917.5
407.555	7332.5
407.778	6755.5
408.002	5744.5
408.226	5510.5
408.449	5596.5
408.673	5386.5
408.896	5388.5
409.12	5534.5
409.344	5386.5
409.567	5151.5
409.791	5358.5
410.014	5366.5
410.238	5649.5
410.461	5970.5
410.685	5355.5
410.908	5136.5
411.132	5254.5
411.355	5174.5
411.578	5156.5
411.802	5148.5
412.025	5261.5
412.249	5181.5
412.472	5025.5
412.695	4978.5
412.919	4989.5
413.142	4976.5
413.365	5050.5
413.589	5223.5
413.812	5397.5
414.035	5493.5
414.258	5119.5
414.482	5008.5
414.705	5066.5
414.928	4940.5
415.151	5009.5
415.374	5073.5
415.597	5096.5
415.821	5157.5
416.044	5228.5
416.267	5206.5
416.49	4814.5
416.713	4833.5
416.936	5016.5
417.159	5158.5
417.382	5218.5
417.605	4946.5
417.828	5076.5
418.051	5102.5
418.274	4945.5
418.497	4878.5
418.72	4928.5
418.943	4856.5
419.166	5121.5
419.389	5409.5
419.611	5131.5
419.834	5009.5
420.057	5016.5
420.28	4895.5
420.503	4938.5
420.726	4989.5
420.948	4993.5
421.171	4794.5
421.394	4898.5
421.617	5068.5
421.839	5054.5
422.062	4936.5
422.285	4827.5
422.507	4846.5
422.73	4701.5
422.953	4663.5
423.175	4637.5
423.398	4826.5
423.621	4865.5
423.843	4849.5
424.066	4998.5
424.288	5120.5
424.511	5242.5
424.733	5096.5
424.956	4654.5
425.178	4670.5
425.401	4765.5
425.623	4671.5
425.846	4705.5
426.068	4918.5
426.291	5066.5
426.513	4977.5
426.735	5015.5
426.958	5290.5
427.18	5508.5
427.402	5134.5
427.625	5241.5
427.847	5204.5
428.069	4954.5
428.292	4788.5
428.514	4626.5
428.736	4579.5
428.958	4690.5
429.181	4730.5
429.403	5276.5
429.625	6488.5
429.847	5654.5
430.069	4801.5
430.292	5256.5
430.514	5497.5
430.736	5044.5
430.958	5240.5
431.18	5011.5
431.402	4664.5
431.624	4571.5
431.846	4583.5
432.068	4517.5
432.29	4629.5
432.512	4665.5
432.734	4781.5
432.956	4864.5
433.178	5055.5
433.4	5029.5
433.622	5032.5
433.844	4773.5
434.066	4628.5
434.287	4574.5
434.509	4787.5
434.731	4986.5
434.953	5319.5
435.175	5263.5
435.397	4939.5
435.618	4897.5
435.84	4916.5
436.062	4792.5
436.284	4836.5
436.505	4927.5
436.727	5038.5
436.949	4812.5
437.17	4688.5
437.392	4655.5
437.614	4693.5
437.835	4563.5
438.057	4824.5
438.278	5001.5
438.5	4672.5
438.721	4630.5
438.943	4652.5
439.165	4642.5
439.386	4518.5
439.608	4585.5
439.829	4711.5
440.05	4623.5
440.272	4628.5
440.493	4497.5
440.715	4646.5
440.936	4979.5
441.158	5444.5
441.379	5310.5
441.6	5150.5
441.822	5132.5
442.043	5072.5
442.264	4929.5
442.486	4738.5
442.707	4679.5
442.928	4678.5
443.149	4856.5
443.371	5093.5
443.592	5297.5
443.813	5084.5
444.034	5093.5
444.255	5121.5
444.476	5193.5
444.698	5353.5
444.919	5316.5
445.14	5380.5
445.361	5364.5
445.582	5597.5
445.803	5266.5
446.024	5156.5
446.245	5312.5
446.466	5060.5
446.687	4894.5
446.908	4928.5
447.129	4741.5
447.35	4811.5
447.571	4764.5
447.792	4608.5
448.013	4590.5
448.234	4717.5
448.455	4837.5
448.675	4872.5
448.896	4436.5
449.117	4429.5
449.338	4566.5
449.559	4736.5
449.779	4979.5
450	5424.5
450.221	5721.5
450.442	5528.5
450.662	4944.5
450.883	4464.5
451.104	4363.5
451.324	4480.5
451.545	4583.5
451.766	4537.5
451.986	4313.5
452.207	4306.5
452.428	4177.5
452.648	4155.5
452.869	4256.5
453.089	4437.5
453.31	4500.5
453.53	4613.5
453.751	4360.5
453.971	4142.5
454.192	4235.5
454.412	4582.5
454.633	4449.5
454.853	4298.5
455.073	4009.5
455.294	3990.5
455.514	3979.5
455.734	4044.5
455.955	4123.5
456.175	4157.5
456.395	4144.5
456.616	4284.5
456.836	4333.5
457.056	4220.5
457.276	4198.5
457.497	4080.5
457.717	4012.5
457.937	4000.5
458.157	4148.5
458.377	4135.5
458.598	4068.5
458.818	4160.5
459.038	4348.5
459.258	4680.5
459.478	4590.5
459.698	4431.5
459.918	4624.5
460.138	4828.5
460.358	4901.5
460.578	4920.5
460.798	5171.5
461.018	5349.5
461.238	5137.5
461.458	4935.5
461.678	4929.5
461.898	4879.5
462.118	4736.5
462.338	4887.5
462.558	4975.5
462.777	4912.5
462.997	5234.5
463.217	5478.5
463.437	5516.5
463.657	5091.5
463.876	5054.5
464.096	4934.5
464.316	4982.5
464.536	5070.5
464.755	5146.5
464.975	5268.5
465.195	5045.5
465.414	5130.5
465.634	5188.5
465.854	4941.5
466.073	5258.5
466.293	5152.5
466.512	4599.5
466.732	4588.5
466.951	4696.5
467.171	4730.5
467.391	4541.5
467.61	4408.5
467.829	4438.5
468.049	4857.5
468.268	5341.5
468.488	5049.5
468.707	4788.5
468.927	4654.5
469.146	4594.5
469.365	4436.5
469.585	4559.5
469.804	4508.5
470.023	4592.5
470.243	4666.5
470.462	4623.5
470.681	4485.5
470.901	4586.5
471.12	4551.5
471.339	4468.5
471.558	4400.5
471.777	4412.5
471.997	4401.5
472.216	4475.5
472.435	4277.5
472.654	4370.5
472.873	4513.5
473.092	4766.5
473.311	4583.5
473.53	4272.5
473.749	4295.5
473.968	4526.5
474.187	4723.5
474.406	4887.5
474.625	4686.5
474.844	4544.5
475.063	4590.5
475.282	4689.5
475.501	4584.5
475.72	4544.5
475.939	4855.5
476.158	4662.5
476.377	4649.5
476.596	4647.5
476.814	4776.5
477.033	4806.5
477.252	4984.5
477.471	5066.5
477.69	4838.5
477.908	4798.5
478.127	5094.5
478.346	5464.5
478.564	5520.5
478.783	5420.5
479.002	5530.5
479.22	5407.5
479.439	5657.5
479.658	6320.5
479.876	6208.5
480.095	5495.5
480.313	5263.5
480.532	5044.5
480.751	5113.5
480.969	5226.5
481.188	5109.5
481.406	5036.5
481.624	4903.5
481.843	5011.5
482.061	5093.5
482.28	5179.5
482.498	5355.5
482.717	5190.5
482.935	5129.5
483.153	5062.5
483.372	5180.5
483.59	5030.5
483.808	5040.5
484.027	5205.5
484.245	5526.5
484.463	6333.5
484.681	7146.5
484.9	5586.5
485.118	5224.5
485.336	5126.5
485.554	5304.5
485.772	5525.5
485.99	5423.5
486.209	5384.5
486.427	5436.5
486.645	5371.5
486.863	5329.5
487.081	5550.5
487.299	5742.5
487.517	5576.5
487.735	5352.5
487.953	5256.5
488.171	5289.5
488.389	5322.5
488.607	5335.5
488.825	5803.5
489.043	5819.5
489.261	5300.5
489.479	5584.5
489.696	5653.5
489.914	5670.5
490.132	5440.5
490.35	5356.5
490.568	5586.5
490.786	5463.5
491.003	5305.5
491.221	5506.5
491.439	5692.5
491.657	5629.5
491.874	5628.5
492.092	5751.5
492.31	5721.5
492.527	5645.5
492.745	5549.5
492.963	5495.5
493.18	5729.5
493.398	6144.5
493.615	6243.5
493.833	5781.5
494.05	5608.5
494.268	5618.5
494.485	5863.5
494.703	5707.5
494.92	5591.5
495.138	5642.5
495.355	5669.5
495.573	5846.5
495.79	6206.5
496.008	6274.5
496.225	5870.5
496.442	5906.5
496.66	6002.5
496.877	5844.5
497.094	6130.5
497.312	6164.5
497.529	6083.5
497.746	6252.5
497.963	7148.5
498.181	7918.5
498.398	7353.5
498.615	7237.5
498.832	7111.5
499.049	7010.5
499.267	6974.5
499.484	7555.5
499.701	8220.5
499.918	8277.5
500.135	8825.5
500.352	9414.5
500.569	9345.5
500.786	9866.5
501.003	9246.5
501.22	8450.5
501.437	8264.5
501.654	8197.5
501.871	7844.5
502.088	7061.5
502.305	6964.5
502.522	6780.5
502.739	6266.5
502.956	6168.5
503.172	6010.5
503.389	5849.5
503.606	5797.5
503.823	5825.5
504.04	5817.5
504.256	5887.5
504.473	5840.5
504.69	6095.5
504.907	5739.5
505.123	5401.5
505.34	5689.5
505.557	7267.5
505.773	6210.5
505.99	5382.5
506.207	5058.5
506.423	4947.5
506.64	5058.5
506.856	4978.5
507.073	5572.5
507.289	6003.5
507.506	5795.5
507.722	5045.5
507.939	4807.5
508.155	4789.5
508.372	4847.5
508.588	4723.5
508.805	4580.5
509.021	4505.5
509.238	4516.5
509.454	4447.5
509.67	4496.5
509.887	4396.5
510.103	4372.5
510.319	4443.5
510.536	4704.5
510.752	4809.5
510.968	4827.5
511.184	5118.5
511.401	5002.5
511.617	4377.5
511.833	4359.5
512.049	4329.5
512.265	4312.5
512.481	4297.5
512.698	4503.5
512.914	4826.5
513.13	4607.5
513.346	4406.5
513.562	4280.5
513.778	4357.5
513.994	4542.5
514.21	4744.5
514.426	4750.5
514.642	5236.5
514.858	4897.5
515.074	4506.5
515.29	4408.5
515.506	4608.5
515.721	4742.5
515.937	4679.5
516.153	5250.5
516.369	5063.5
516.585	4762.5
516.801	4585.5
517.016	4629.5
517.232	4744.5
517.448	4799.5
517.664	4883.5
517.879	4830.5
518.095	5056.5
518.311	4921.5
518.527	4586.5
518.742	4528.5
518.958	4335.5
519.173	4415.5
519.389	4533.5
519.605	4567.5
519.82	4516.5
520.036	4584.5
520.251	4414.5
520.467	4537.5
520.682	4796.5
520.898	5003.5
521.113	4391.5
521.329	4380.5
521.544	4666.5
521.76	4524.5
521.975	4272.5
522.19	4242.5
522.406	4192.5
522.621	5041.5
522.836	4986.5
523.052	4145.5
523.267	4177.5
523.482	4238.5
523.698	3988.5
523.913	3959.5
524.128	4098.5
524.343	4328.5
524.559	4348.5
524.774	4056.5
524.989	4062.5
525.204	4008.5
525.419	3921.5
525.634	3937.5
525.849	3986.5
526.064	3939.5
526.28	4032.5
526.495	3854.5
526.71	3807.5
526.925	3844.5
527.14	3905.5
527.355	3808.5
527.57	3705.5
527.785	3928.5
527.999	3846.5
528.214	3720.5
528.429	3727.5
528.644	3760.5
528.859	3797.5
529.074	3826.5
529.289	3836.5
529.503	3929.5
529.718	3897.5
529.933	3792.5
530.148	3656.5
530.363	3753.5
530.577	3725.5
530.792	3718.5
531.007	3841.5
531.221	3766.5
531.436	3875.5
531.651	3973.5
531.865	4084.5
532.08	3959.5
532.295	3694.5
532.509	3584.5
532.724	3632.5
532.938	3884.5
533.153	4080.5
533.367	3918.5
533.582	3776.5
533.796	3702.5
534.011	3794.5
534.225	3798.5
534.44	3731.5
534.654	3712.5
534.868	3689.5
535.083	3812.5
535.297	3914.5
535.511	3792.5
535.726	3760.5
535.94	3725.5
536.154	3730.5
536.369	3584.5
536.583	3565.5
536.797	3464.5
537.011	3652.5
537.225	3532.5
537.44	3500.5
537.654	3698.5
537.868	3540.5
538.082	3455.5
538.296	3340.5
538.51	3428.5
538.724	3442.5
538.938	3477.5
539.153	3572.5
539.367	3533.5
539.581	3548.5
539.795	3722.5
540.009	3633.5
540.222	3542.5
540.436	3682.5
540.65	3999.5
540.864	4048.5
541.078	3726.5
541.292	3534.5
541.506	3585.5
541.72	3651.5
541.934	3703.5
542.147	3774.5
542.361	3630.5
542.575	3559.5
542.789	3453.5
543.002	3293.5
543.216	3427.5
543.43	3592.5
543.644	3786.5
543.857	3887.5
544.071	3758.5
544.285	3674.5
544.498	3572.5
544.712	3638.5
544.925	3703.5
545.139	3785.5
545.352	3544.5
545.566	3466.5
545.779	3431.5
545.993	3536.5
546.206	3584.5
546.42	3434.5
546.633	3380.5
546.847	3382.5
547.06	3429.5
547.274	3421.5
547.487	3385.5
547.7	3483.5
547.914	3460.5
548.127	3476.5
548.34	3522.5
548.554	3512.5
548.767	3457.5
548.98	3549.5
549.193	3454.5
549.407	3593.5
549.62	3639.5
549.833	3444.5
550.046	3441.5
550.259	3470.5
550.473	3353.5
550.686	3356.5
550.899	3271.5
551.112	3246.5
551.325	3256.5
551.538	3469.5
551.751	3904.5
551.964	3164.5
552.177	3171.5
552.39	3247.5
552.603	3336.5
552.816	3357.5
553.029	3510.5
553.242	3632.5
553.455	3458.5
553.667	3425.5
553.88	3387.5
554.093	3326.5
554.306	3189.5
554.519	3098.5
554.732	3105.5
554.944	3186.5
555.157	3288.5
555.37	3216.5
555.583	3184.5
555.795	3089.5
556.008	2976.5
556.221	2990.5
556.433	2862.5
556.646	2887.5
556.859	2878.5
557.071	2898.5
557.284	2838.5
557.496	2885.5
557.709	2826.5
557.921	2771.5
558.134	2777.5
558.346	2831.5
558.559	2785.5
558.771	2730.5
558.984	2698.5
559.196	2681.5
559.409	2626.5
559.621	2659.5
559.833	2715.5
560.046	2801.5
560.258	2768.5
560.47	2773.5
560.683	2716.5
560.895	2724.5
561.107	2712.5
561.32	2769.5
561.532	2812.5
561.744	2698.5
561.956	2723.5
562.168	2691.5
562.381	2618.5
562.593	2606.5
562.805	2606.5
563.017	2549.5
563.229	2609.5
563.441	2676.5
563.653	2651.5
563.865	2626.5
564.077	2624.5
564.289	2604.5
564.501	2675.5
564.713	2736.5
564.925	2818.5
565.137	2995.5
565.349	2768.5
565.561	2804.5
565.773	2824.5
565.985	2871.5
566.197	3004.5
566.408	3196.5
566.62	3190.5
566.832	3233.5
567.044	3249.5
567.255	3187.5
567.467	3248.5
567.679	3368.5
567.891	3473.5
568.102	3298.5
568.314	3181.5
568.526	3020.5
568.737	2838.5
568.949	2806.5
569.161	2661.5
569.372	2558.5
569.584	2519.5
569.795	2505.5
570.007	2446.5
570.218	2355.5
570.43	2340.5
570.641	2369.5
570.853	2375.5
571.064	2369.5
571.276	2344.5
571.487	2277.5
571.698	2236.5
571.91	2177.5
572.121	2157.5
572.333	2092.5
572.544	2111.5
572.755	2063.5
572.966	2019.5
573.178	2028.5
573.389	2046.5
573.6	2192.5
573.811	2272.5
574.023	2074.5
574.234	2029.5
574.445	1983.5
574.656	1950.5
574.867	1962.5
575.078	1962.5
575.289	1979.5
575.501	1897.5
575.712	1889.5
575.923	1952.5
576.134	1975.5
576.345	1897.5
576.556	1913.5
576.767	1822.5
576.978	1829.5
577.188	1868.5
577.399	1833.5
577.61	1818.5
577.821	1780.5
578.032	1762.5
578.243	1800.5
578.454	1778.5
578.665	1744.5
578.875	1700.5
579.086	1689.5
579.297	1709.5
579.508	1811.5
579.718	1751.5
579.929	1708.5
580.14	1657.5
580.35	1671.5
580.561	1731.5
580.772	1903.5
580.982	1783.5
581.193	1692.5
581.403	1658.5
581.614	1624.5
581.825	1649.5
582.035	1651.5
582.246	1647.5
582.456	1672.5
582.667	1654.5
582.877	1633.5
583.087	1633.5
583.298	1570.5
583.508	1577.5
583.719	1615.5
583.929	1638.5
584.139	1638.5
584.35	1573.5
584.56	1584.5
584.77	1587.5
584.981	1622.5
585.191	1582.5
585.401	1637.5
585.611	1605.5
585.821	1562.5
586.032	1571.5
586.242	1527.5
586.452	1527.5
586.662	1575.5
586.872	1538.5
587.082	1503.5
587.292	1600.5
587.502	1571.5
587.713	1566.5
587.923	1536.5
588.133	1559.5
588.343	1570.5
588.553	1507.5
588.762	1509.5
588.972	1508.5
589.182	1592.5
589.392	1562.5
589.602	1548.5
589.812	1561.5
590.022	1478.5
590.232	1454.5
590.441	1539.5
590.651	1540.5
590.861	1527.5
591.071	1456.5
591.281	1452.5
591.49	1479.5
591.7	1518.5
591.91	1499.5
592.119	1500.5
592.329	1549.5
592.539	1561.5
592.748	1521.5
592.958	1590.5
593.167	1598.5
593.377	1582.5
593.587	1597.5
593.796	1578.5
594.006	1617.5
594.215	1623.5
594.424	1586.5
594.634	1543.5
594.843	1553.5
595.053	1563.5
595.262	1564.5
595.472	1496.5
595.681	1509.5
595.89	1478.5
596.1	1386.5
596.309	1447.5
596.518	1410.5
596.727	1445.5
596.937	1410.5
597.146	1356.5
597.355	1310.5
597.564	1320.5
597.774	1320.5
597.983	1321.5
598.192	1303.5
598.401	1272.5
598.61	1278.5
598.819	1255.5
599.028	1296.5
599.237	1278.5
599.446	1278.5
599.655	1234.5
599.864	1240.5
600.073	1221.5
600.282	1201.5
600.491	1199.5
600.7	1212.5
600.909	1213.5
601.118	1239.5
601.327	1224.5
601.536	1260.5
601.745	1224.5
601.953	1239.5
602.162	1267.5
602.371	1269.5
602.58	1206.5
602.789	1244.5
602.997	1202.5
603.206	1195.5
603.415	1206.5
603.623	1203.5
603.832	1218.5
604.041	1180.5
604.249	1142.5
604.458	1183.5
604.666	1199.5
604.875	1152.5
605.084	1200.5
605.292	1229.5
605.501	1182.5
605.709	1185.5
605.918	1204.5
606.126	1152.5
606.334	1140.5
606.543	1137.5
606.751	1150.5
606.96	1164.5
607.168	1153.5
607.376	1111.5
607.585	1146.5
607.793	1118.5
608.001	1128.5
608.21	1148.5
608.418	1127.5
608.626	1116.5
608.834	1126.5
609.043	1123.5
609.251	1082.5
609.459	1122.5
609.667	1139.5
609.875	1156.5
610.083	1161.5
610.291	1139.5
610.499	1150.5
610.707	1168.5
610.916	1079.5
611.124	1124.5
611.332	1114.5
611.54	1093.5
611.748	1086.5
611.955	1064.5
612.163	1078.5
612.371	1065.5
612.579	1062.5
612.787	1085.5
612.995	1094.5
613.203	1075.5
613.411	1030.5
613.618	1076.5
613.826	1098.5
614.034	1062.5
614.242	1055.5
614.449	1061.5
614.657	1129.5
614.865	1078.5
615.072	1066.5
615.28	1096.5
615.488	1077.5
615.695	1134.5
615.903	1105.5
616.111	1084.5
616.318	1059.5
616.526	1055.5
616.733	1063.5
616.941	1023.5
617.148	1008.5
617.356	1014.5
617.563	1033.5
617.771	1016.5
617.978	1004.5
618.185	1013.5
618.393	1002.5
618.6	1018.5
618.807	1022.5
619.015	1019.5
619.222	1020.5
619.429	970.5
619.637	985.5
619.844	981.5
620.051	966.5
620.258	951.5
620.466	969.5
620.673	935.5
620.88	919.5
621.087	912.5
621.294	942.5
621.501	934.5
621.708	946.5
621.915	950.5
622.122	975.5
622.329	930.5
622.536	972.5
622.743	942.5
622.95	939.5
623.157	914.5
623.364	928.5
623.571	881.5
623.778	943.5
623.985	937.5
624.192	914.5
624.399	893.5
624.606	877.5
624.812	829.5
625.019	846.5
625.226	828.5
625.433	876.5
625.639	856.5
625.846	880.5
626.053	836.5
626.259	820.5
626.466	799.5
626.673	798.5
626.879	776.5
627.086	829.5
627.293	841.5
627.499	825.5
627.706	830.5
627.912	835.5
628.119	816.5
628.325	819.5
628.532	820.5
628.738	860.5
628.945	810.5
629.151	828.5
629.357	812.5
629.564	820.5
629.77	790.5
629.976	791.5
630.183	789.5
630.389	802.5
630.595	812.5
630.802	777.5
631.008	775.5
631.214	783.5
631.42	769.5
631.627	745.5
631.833	727.5
632.039	754.5
632.245	772.5
632.451	752.5
632.657	737.5
632.863	750.5
633.069	758.5
633.275	724.5
633.481	737.5
633.688	737.5
633.893	716.5
634.099	714.5
634.305	716.5
634.511	696.5
634.717	693.5
634.923	674.5
635.129	696.5
635.335	672.5
635.541	703.5
635.747	736.5
635.952	712.5
636.158	721.5
636.364	685.5
636.57	714.5
636.775	672.5
636.981	699.5
637.187	687.5
637.392	680.5
637.598	676.5
637.804	701.5
638.009	690.5
638.215	668.5
638.421	667.5
638.626	674.5
638.832	676.5
639.037	660.5
639.243	636.5
639.448	637.5
639.654	649.5
639.859	644.5
640.065	639.5
640.27	661.5
640.475	632.5
640.681	655.5
640.886	658.5
641.091	643.5
641.297	644.5
641.502	662.5
641.707	653.5
641.913	630.5
642.118	641.5
642.323	638.5
642.528	627.5
642.733	607.5
642.939	613.5
643.144	607.5
643.349	638.5
643.554	611.5
643.759	590.5
643.964	620.5
644.169	609.5
644.374	597.5
644.579	624.5
644.784	650.5
644.989	615.5
645.194	617.5
645.399	581.5
645.604	593.5
645.809	606.5
646.014	612.5
646.219	635.5
646.423	643.5
646.628	607.5
646.833	584.5
647.038	582.5
647.243	585.5
647.447	604.5
647.652	588.5
647.857	613.5
648.062	598.5
648.266	612.5
648.471	637.5
648.676	636.5
648.88	613.5
649.085	630.5
649.289	612.5
649.494	574.5
649.698	604.5
649.903	602.5
650.107	586.5
650.312	574.5
650.516	549.5
650.721	548.5
650.925	558.5
651.13	544.5
651.334	543.5
651.539	541.5
651.743	525.5
651.947	518.5
652.152	510.5
652.356	513.5
652.56	482.5
652.764	503.5
652.969	500.5
653.173	492.5
653.377	487.5
653.581	478.5
653.785	496.5
653.99	454.5
654.194	483.5
654.398	449.5
654.602	460.5
654.806	455.5
655.01	446.5
655.214	425.5
655.418	451.5
655.622	468.5
655.826	445.5
656.03	487.5
656.234	482.5
656.438	520.5
656.642	505.5
656.846	474.5
657.049	448.5
657.253	412.5
657.457	385.5
657.661	349.5
657.865	338.5
658.068	301.5
658.272	297.5
658.476	286.5
658.68	282.5
658.883	240.5
659.087	232.5
659.291	215.5
659.494	208.5
659.698	205.5
659.901	196.5
660.105	175.5
660.309	183.5
660.512	195.5
660.716	184.5
660.919	153.5
661.123	154.5
661.326	136.5
661.53	129.5
661.733	127.5
661.936	125.5
662.14	121.5
662.343	117.5
662.546	119.5
662.75	91.5
662.953	120.5
663.156	98.5
663.36	92.5
663.563	84.5
663.766	89.5
663.969	96.5
664.173	90.5
664.376	83.5
664.579	78.5
664.782	86.5
664.985	98.5
665.188	84.5
665.391	76.5
665.594	84.5
665.797	90.5
666	94.5
666.203	87.5
666.406	65.5
666.609	88.5
666.812	83.5
667.015	94.5
667.218	85.5
667.421	71.5
667.624	83.5
667.827	86.5
668.03	78.5
668.232	79.5
668.435	80.5
668.638	79.5
668.841	80.5
669.043	77.5
669.246	64.5
669.449	85.5
669.651	84.5
669.854	90.5
670.057	87.5
670.259	95.5
670.462	71.5
670.665	66.5
670.867	79.5
671.07	70.5
671.272	69.5
671.475	86.5
671.677	68.5
671.88	81.5
672.082	78.5
672.284	83.5
672.487	72.5
672.689	76.5
672.892	85.5
