Data from WStandard_LampEnergy10_LIBS07252019.E.O._I.C._HRD10591_15-55-45-929.txt Node
Date: Thu Jul 25 15:55:45 EDT 2019
User: cochatt
Spectrometer: HR+D1059
Trigger mode: 1
Integration Time (sec): 1.000000E-1
Scans to average: 1
Electric dark correction enabled: true
Nonlinearity correction enabled: false
Boxcar width: 0
XAxis mode: Wavelengths
Number of Pixels in Spectrum: 2048
>>>>>Begin Spectral Data<<<<<
223.165	-10.06
223.4	-10.06
223.635	-10.06
223.869	-27.06
224.104	-19.06
224.338	-14.06
224.573	-10.06
224.808	-10.06
225.042	-8.06
225.277	-2.06
225.511	-7.06
225.746	11.94
225.98	6.94
226.215	14.94
226.449	12.94
226.683	9.94
226.918	18.94
227.152	31.94
227.387	26.94
227.621	18.94
227.856	41.94
228.09	42.94
228.324	58.94
228.559	62.94
228.793	79.94
229.027	126.94
229.262	134.94
229.496	150.94
229.73	152.94
229.964	165.94
230.199	150.94
230.433	168.94
230.667	184.94
230.901	198.94
231.136	167.94
231.37	162.94
231.604	176.94
231.838	165.94
232.072	169.94
232.306	166.94
232.541	167.94
232.775	188.94
233.009	202.94
233.243	198.94
233.477	179.94
233.711	175.94
233.945	186.94
234.179	190.94
234.413	201.94
234.647	215.94
234.881	204.94
235.115	188.94
235.349	190.94
235.583	178.94
235.817	174.94
236.051	180.94
236.285	185.94
236.519	186.94
236.753	212.94
236.987	224.94
237.221	215.94
237.455	240.94
237.689	211.94
237.922	215.94
238.156	192.94
238.39	207.94
238.624	214.94
238.858	227.94
239.091	237.94
239.325	254.94
239.559	266.94
239.793	285.94
240.027	297.94
240.26	274.94
240.494	227.94
240.728	219.94
240.961	233.94
241.195	247.94
241.429	264.94
241.662	250.94
241.896	230.94
242.13	233.94
242.363	249.94
242.597	267.94
242.83	275.94
243.064	276.94
243.298	278.94
243.531	282.94
243.765	260.94
243.998	266.94
244.232	250.94
244.465	235.94
244.699	247.94
244.932	260.94
245.166	294.94
245.399	305.94
245.633	288.94
245.866	280.94
246.099	298.94
246.333	276.94
246.566	293.94
246.8	297.94
247.033	332.94
247.266	314.94
247.5	304.94
247.733	337.94
247.966	317.94
248.2	331.94
248.433	343.94
248.666	352.94
248.899	382.94
249.133	431.94
249.366	457.94
249.599	374.94
249.832	363.94
250.066	366.94
250.299	353.94
250.532	340.94
250.765	306.94
250.998	331.94
251.231	332.94
251.465	345.94
251.698	320.94
251.931	351.94
252.164	337.94
252.397	340.94
252.63	319.94
252.863	320.94
253.096	301.94
253.329	325.94
253.562	340.94
253.795	345.94
254.028	346.94
254.261	338.94
254.494	328.94
254.727	320.94
254.96	344.94
255.193	355.94
255.426	404.94
255.659	446.94
255.892	444.94
256.124	386.94
256.357	388.94
256.59	411.94
256.823	393.94
257.056	403.94
257.289	435.94
257.521	472.94
257.754	438.94
257.987	440.94
258.22	475.94
258.452	459.94
258.685	414.94
258.918	368.94
259.151	397.94
259.383	364.94
259.616	336.94
259.849	344.94
260.081	410.94
260.314	416.94
260.547	452.94
260.779	436.94
261.012	425.94
261.244	383.94
261.477	392.94
261.71	391.94
261.942	393.94
262.175	382.94
262.407	378.94
262.64	366.94
262.872	355.94
263.105	354.94
263.337	354.94
263.57	366.94
263.802	370.94
264.035	336.94
264.267	346.94
264.499	330.94
264.732	344.94
264.964	364.94
265.197	404.94
265.429	397.94
265.661	455.94
265.894	488.94
266.126	501.94
266.358	442.94
266.591	460.94
266.823	457.94
267.055	446.94
267.287	438.94
267.52	432.94
267.752	430.94
267.984	439.94
268.216	458.94
268.448	447.94
268.681	456.94
268.913	409.94
269.145	400.94
269.377	408.94
269.609	453.94
269.841	504.94
270.073	564.94
270.306	576.94
270.538	585.94
270.77	523.94
271.002	470.94
271.234	467.94
271.466	491.94
271.698	516.94
271.93	584.94
272.162	571.94
272.394	533.94
272.626	503.94
272.858	460.94
273.09	397.94
273.322	398.94
273.553	389.94
273.785	407.94
274.017	415.94
274.249	422.94
274.481	413.94
274.713	396.94
274.945	388.94
275.176	414.94
275.408	395.94
275.64	385.94
275.872	413.94
276.104	433.94
276.335	492.94
276.567	514.94
276.799	500.94
277.031	473.94
277.262	463.94
277.494	483.94
277.726	505.94
277.957	494.94
278.189	444.94
278.421	442.94
278.652	430.94
278.884	400.94
279.115	419.94
279.347	431.94
279.579	441.94
279.81	433.94
280.042	466.94
280.273	488.94
280.505	495.94
280.736	483.94
280.968	450.94
281.199	405.94
281.431	401.94
281.662	402.94
281.894	427.94
282.125	425.94
282.356	444.94
282.588	447.94
282.819	434.94
283.051	477.94
283.282	491.94
283.513	498.94
283.745	419.94
283.976	404.94
284.207	412.94
284.439	434.94
284.67	430.94
284.901	439.94
285.132	460.94
285.364	441.94
285.595	437.94
285.826	433.94
286.057	433.94
286.288	430.94
286.52	458.94
286.751	472.94
286.982	477.94
287.213	423.94
287.444	399.94
287.675	451.94
287.906	461.94
288.138	497.94
288.369	463.94
288.6	427.94
288.831	434.94
289.062	423.94
289.293	443.94
289.524	442.94
289.755	443.94
289.986	446.94
290.217	446.94
290.448	441.94
290.679	447.94
290.91	460.94
291.141	469.94
291.371	470.94
291.602	471.94
291.833	467.94
292.064	494.94
292.295	484.94
292.526	487.94
292.757	482.94
292.987	459.94
293.218	466.94
293.449	539.94
293.68	570.94
293.91	572.94
294.141	542.94
294.372	501.94
294.603	543.94
294.833	553.94
295.064	522.94
295.295	468.94
295.525	450.94
295.756	442.94
295.987	430.94
296.217	436.94
296.448	467.94
296.679	441.94
296.909	449.94
297.14	432.94
297.37	491.94
297.601	503.94
297.831	500.94
298.062	487.94
298.292	486.94
298.523	451.94
298.753	450.94
298.984	471.94
299.214	472.94
299.445	474.94
299.675	469.94
299.905	476.94
300.136	456.94
300.366	450.94
300.597	457.94
300.827	441.94
301.057	468.94
301.288	475.94
301.518	479.94
301.748	522.94
301.979	523.94
302.209	566.94
302.439	599.94
302.669	589.94
302.9	542.94
303.13	484.94
303.36	496.94
303.59	519.94
303.82	486.94
304.051	482.94
304.281	494.94
304.511	525.94
304.741	550.94
304.971	605.94
305.201	617.94
305.431	545.94
305.661	485.94
305.891	445.94
306.121	450.94
306.352	479.94
306.582	498.94
306.812	526.94
307.042	561.94
307.272	539.94
307.502	587.94
307.731	628.94
307.961	609.94
308.191	569.94
308.421	522.94
308.651	472.94
308.881	471.94
309.111	497.94
309.341	503.94
309.571	498.94
309.8	487.94
310.03	482.94
310.26	482.94
310.49	487.94
310.72	524.94
310.949	522.94
311.179	518.94
311.409	498.94
311.639	500.94
311.868	481.94
312.098	472.94
312.328	492.94
312.557	483.94
312.787	499.94
313.017	508.94
313.246	520.94
313.476	518.94
313.706	524.94
313.935	516.94
314.165	530.94
314.394	549.94
314.624	601.94
314.853	613.94
315.083	625.94
315.312	610.94
315.542	576.94
315.771	545.94
316.001	530.94
316.23	582.94
316.46	563.94
316.689	545.94
316.919	506.94
317.148	519.94
317.377	540.94
317.607	571.94
317.836	622.94
318.065	622.94
318.295	586.94
318.524	572.94
318.753	562.94
318.983	572.94
319.212	554.94
319.441	522.94
319.67	529.94
319.9	560.94
320.129	578.94
320.358	602.94
320.587	606.94
320.816	580.94
321.046	579.94
321.275	560.94
321.504	580.94
321.733	597.94
321.962	573.94
322.191	545.94
322.42	564.94
322.649	564.94
322.878	531.94
323.108	543.94
323.337	554.94
323.566	570.94
323.795	559.94
324.024	538.94
324.253	558.94
324.482	539.94
324.71	545.94
324.939	530.94
325.168	542.94
325.397	553.94
325.626	556.94
325.855	564.94
326.084	524.94
326.313	583.94
326.542	551.94
326.77	567.94
326.999	568.94
327.228	540.94
327.457	503.94
327.686	536.94
327.914	527.94
328.143	542.94
328.372	568.94
328.6	539.94
328.829	538.94
329.058	529.94
329.287	551.94
329.515	574.94
329.744	571.94
329.972	616.94
330.201	613.94
330.43	597.94
330.658	577.94
330.887	587.94
331.115	599.94
331.344	583.94
331.572	569.94
331.801	579.94
332.03	584.94
332.258	575.94
332.486	578.94
332.715	586.94
332.943	601.94
333.172	582.94
333.4	573.94
333.629	607.94
333.857	660.94
334.085	747.94
334.314	778.94
334.542	818.94
334.771	737.94
334.999	681.94
335.227	626.94
335.455	614.94
335.684	629.94
335.912	622.94
336.14	636.94
336.369	606.94
336.597	618.94
336.825	588.94
337.053	619.94
337.281	651.94
337.51	684.94
337.738	668.94
337.966	603.94
338.194	588.94
338.422	574.94
338.65	591.94
338.878	572.94
339.106	558.94
339.334	546.94
339.562	564.94
339.79	575.94
340.018	587.94
340.246	613.94
340.474	604.94
340.702	589.94
340.93	604.94
341.158	601.94
341.386	588.94
341.614	601.94
341.842	588.94
342.07	553.94
342.298	598.94
342.526	566.94
342.754	586.94
342.981	577.94
343.209	562.94
343.437	575.94
343.665	606.94
343.893	611.94
344.12	613.94
344.348	630.94
344.576	618.94
344.804	585.94
345.031	573.94
345.259	586.94
345.487	534.94
345.714	536.94
345.942	547.94
346.17	554.94
346.397	567.94
346.625	571.94
346.853	539.94
347.08	539.94
347.308	532.94
347.535	567.94
347.763	552.94
347.99	539.94
348.218	564.94
348.445	560.94
348.673	555.94
348.9	580.94
349.128	600.94
349.355	595.94
349.583	571.94
349.81	536.94
350.037	514.94
350.265	522.94
350.492	515.94
350.72	561.94
350.947	563.94
351.174	563.94
351.402	529.94
351.629	525.94
351.856	516.94
352.083	524.94
352.311	526.94
352.538	551.94
352.765	550.94
352.992	560.94
353.22	543.94
353.447	535.94
353.674	551.94
353.901	534.94
354.128	528.94
354.355	541.94
354.583	584.94
354.81	585.94
355.037	557.94
355.264	566.94
355.491	575.94
355.718	566.94
355.945	530.94
356.172	544.94
356.399	528.94
356.626	550.94
356.853	600.94
357.08	632.94
357.307	639.94
357.534	613.94
357.761	541.94
357.988	518.94
358.215	517.94
358.441	540.94
358.668	540.94
358.895	539.94
359.122	591.94
359.349	648.94
359.576	598.94
359.802	528.94
360.029	531.94
360.256	557.94
360.483	568.94
360.709	573.94
360.936	602.94
361.163	606.94
361.39	662.94
361.616	711.94
361.843	704.94
362.07	614.94
362.296	554.94
362.523	541.94
362.749	538.94
362.976	563.94
363.203	580.94
363.429	549.94
363.656	546.94
363.882	579.94
364.109	631.94
364.335	648.94
364.562	608.94
364.788	603.94
365.015	544.94
365.241	571.94
365.468	568.94
365.694	591.94
365.92	572.94
366.147	566.94
366.373	547.94
366.599	576.94
366.826	560.94
367.052	550.94
367.278	536.94
367.505	585.94
367.731	593.94
367.957	611.94
368.184	615.94
368.41	646.94
368.636	680.94
368.862	640.94
369.089	645.94
369.315	644.94
369.541	593.94
369.767	573.94
369.993	559.94
370.219	596.94
370.445	589.94
370.672	625.94
370.898	656.94
371.124	660.94
371.35	628.94
371.576	626.94
371.802	628.94
372.028	631.94
372.254	606.94
372.48	585.94
372.706	579.94
372.932	585.94
373.158	612.94
373.384	631.94
373.61	625.94
373.835	651.94
374.061	618.94
374.287	612.94
374.513	610.94
374.739	614.94
374.965	610.94
375.191	618.94
375.416	602.94
375.642	641.94
375.868	695.94
376.094	708.94
376.319	656.94
376.545	620.94
376.771	657.94
376.997	679.94
377.222	670.94
377.448	658.94
377.674	650.94
377.899	658.94
378.125	713.94
378.35	679.94
378.576	636.94
378.802	597.94
379.027	600.94
379.253	613.94
379.478	599.94
379.704	604.94
379.929	618.94
380.155	613.94
380.38	652.94
380.606	649.94
380.831	642.94
381.057	664.94
381.282	669.94
381.507	686.94
381.733	706.94
381.958	694.94
382.184	667.94
382.409	647.94
382.634	634.94
382.86	632.94
383.085	664.94
383.31	710.94
383.535	752.94
383.761	778.94
383.986	736.94
384.211	719.94
384.436	732.94
384.662	767.94
384.887	725.94
385.112	726.94
385.337	722.94
385.562	719.94
385.787	725.94
386.013	737.94
386.238	738.94
386.463	775.94
386.688	800.94
386.913	821.94
387.138	802.94
387.363	788.94
387.588	751.94
387.813	719.94
388.038	757.94
388.263	775.94
388.488	741.94
388.713	706.94
388.938	717.94
389.163	732.94
389.387	736.94
389.612	710.94
389.837	747.94
390.062	747.94
390.287	719.94
390.512	736.94
390.736	720.94
390.961	700.94
391.186	697.94
391.411	714.94
391.636	723.94
391.86	730.94
392.085	742.94
392.31	744.94
392.534	739.94
392.759	748.94
392.984	731.94
393.208	752.94
393.433	774.94
393.658	816.94
393.882	812.94
394.107	746.94
394.331	722.94
394.556	754.94
394.78	772.94
395.005	793.94
395.229	818.94
395.454	867.94
395.678	858.94
395.903	802.94
396.127	774.94
396.352	800.94
396.576	816.94
396.801	836.94
397.025	820.94
397.249	811.94
397.474	810.94
397.698	803.94
397.922	844.94
398.147	861.94
398.371	902.94
398.595	888.94
398.82	841.94
399.044	879.94
399.268	890.94
399.492	949.94
399.717	987.94
399.941	971.94
400.165	955.94
400.389	961.94
400.613	938.94
400.837	1110.94
401.062	1192.94
401.286	977.94
401.51	940.94
401.734	978.94
401.958	946.94
402.182	873.94
402.406	867.94
402.63	847.94
402.854	857.94
403.078	867.94
403.302	865.94
403.526	915.94
403.75	892.94
403.974	930.94
404.198	932.94
404.422	971.94
404.645	988.94
404.869	928.94
405.093	917.94
405.317	872.94
405.541	900.94
405.765	906.94
405.988	903.94
406.212	897.94
406.436	946.94
406.66	951.94
406.883	986.94
407.107	1123.94
407.331	1182.94
407.555	1248.94
407.778	1090.94
408.002	955.94
408.226	935.94
408.449	933.94
408.673	913.94
408.896	921.94
409.12	943.94
409.344	918.94
409.567	891.94
409.791	937.94
410.014	954.94
410.238	999.94
410.461	1016.94
410.685	930.94
410.908	912.94
411.132	942.94
411.355	879.94
411.578	908.94
411.802	916.94
412.025	907.94
412.249	862.94
412.472	900.94
412.695	862.94
412.919	889.94
413.142	911.94
413.365	920.94
413.589	936.94
413.812	950.94
414.035	968.94
414.258	898.94
414.482	862.94
414.705	924.94
414.928	902.94
415.151	893.94
415.374	919.94
415.597	908.94
415.821	917.94
416.044	926.94
416.267	905.94
416.49	888.94
416.713	896.94
416.936	938.94
417.159	965.94
417.382	961.94
417.605	909.94
417.828	948.94
418.051	911.94
418.274	930.94
418.497	908.94
418.72	913.94
418.943	891.94
419.166	929.94
419.389	944.94
419.611	955.94
419.834	907.94
420.057	930.94
420.28	903.94
420.503	930.94
420.726	923.94
420.948	926.94
421.171	878.94
421.394	907.94
421.617	983.94
421.839	985.94
422.062	965.94
422.285	896.94
422.507	918.94
422.73	890.94
422.953	860.94
423.175	876.94
423.398	880.94
423.621	894.94
423.843	906.94
424.066	962.94
424.288	980.94
424.511	1008.94
424.733	973.94
424.956	893.94
425.178	907.94
425.401	899.94
425.623	949.94
425.846	921.94
426.068	960.94
426.291	923.94
426.513	944.94
426.735	954.94
426.958	1009.94
427.18	1050.94
427.402	977.94
427.625	982.94
427.847	966.94
428.069	896.94
428.292	888.94
428.514	863.94
428.736	883.94
428.958	908.94
429.181	912.94
429.403	1062.94
429.625	1187.94
429.847	1007.94
430.069	946.94
430.292	1003.94
430.514	994.94
430.736	922.94
430.958	947.94
431.18	919.94
431.402	862.94
431.624	837.94
431.846	783.94
432.068	715.94
432.29	744.94
432.512	786.94
432.734	848.94
432.956	927.94
433.178	946.94
433.4	954.94
433.622	934.94
433.844	853.94
434.066	836.94
434.287	787.94
434.509	770.94
434.731	799.94
434.953	895.94
435.175	908.94
435.397	875.94
435.618	874.94
435.84	830.94
436.062	806.94
436.284	878.94
436.505	923.94
436.727	910.94
436.949	887.94
437.17	887.94
437.392	882.94
437.614	820.94
437.835	768.94
438.057	819.94
438.278	822.94
438.5	863.94
438.721	903.94
438.943	898.94
439.165	892.94
439.386	917.94
439.608	965.94
439.829	952.94
440.05	933.94
440.272	948.94
440.493	944.94
440.715	966.94
440.936	971.94
441.158	1008.94
441.379	1010.94
441.6	998.94
441.822	989.94
442.043	1001.94
442.264	979.94
442.486	913.94
442.707	934.94
442.928	940.94
443.149	959.94
443.371	970.94
443.592	999.94
443.813	981.94
444.034	994.94
444.255	988.94
444.476	1004.94
444.698	1020.94
444.919	1009.94
445.14	1114.94
445.361	1050.94
445.582	1054.94
445.803	1049.94
446.024	1034.94
446.245	1053.94
446.466	1031.94
446.687	1051.94
446.908	1036.94
447.129	977.94
447.35	991.94
447.571	971.94
447.792	954.94
448.013	939.94
448.234	944.94
448.455	999.94
448.675	961.94
448.896	896.94
449.117	891.94
449.338	888.94
449.559	922.94
449.779	958.94
450	990.94
450.221	1023.94
450.442	956.94
450.662	929.94
450.883	852.94
451.104	848.94
451.324	873.94
451.545	906.94
451.766	818.94
451.986	823.94
452.207	792.94
452.428	790.94
452.648	777.94
452.869	786.94
453.089	745.94
453.31	752.94
453.53	760.94
453.751	722.94
453.971	668.94
454.192	723.94
454.412	764.94
454.633	758.94
454.853	764.94
455.073	717.94
455.294	782.94
455.514	736.94
455.734	763.94
455.955	760.94
456.175	761.94
456.395	713.94
456.616	723.94
456.836	697.94
457.056	722.94
457.276	729.94
457.497	670.94
457.717	694.94
457.937	668.94
458.157	714.94
458.377	689.94
458.598	659.94
458.818	634.94
459.038	683.94
459.258	699.94
459.478	712.94
459.698	700.94
459.918	724.94
460.138	778.94
460.358	804.94
460.578	807.94
460.798	846.94
461.018	875.94
461.238	835.94
461.458	821.94
461.678	818.94
461.898	798.94
462.118	762.94
462.338	818.94
462.558	806.94
462.777	832.94
462.997	862.94
463.217	868.94
463.437	860.94
463.657	831.94
463.876	831.94
464.096	823.94
464.316	836.94
464.536	852.94
464.755	868.94
464.975	879.94
465.195	848.94
465.414	867.94
465.634	841.94
465.854	853.94
466.073	936.94
466.293	920.94
466.512	852.94
466.732	866.94
466.951	873.94
467.171	905.94
467.391	868.94
467.61	871.94
467.829	912.94
468.049	972.94
468.268	1037.94
468.488	946.94
468.707	886.94
468.927	879.94
469.146	884.94
469.365	895.94
469.585	914.94
469.804	894.94
470.023	892.94
470.243	940.94
470.462	915.94
470.681	922.94
470.901	901.94
471.12	912.94
471.339	908.94
471.558	879.94
471.777	873.94
471.997	872.94
472.216	815.94
472.435	770.94
472.654	744.94
472.873	770.94
473.092	809.94
473.311	805.94
473.53	804.94
473.749	823.94
473.968	834.94
474.187	843.94
474.406	837.94
474.625	850.94
474.844	850.94
475.063	862.94
475.282	851.94
475.501	807.94
475.72	847.94
475.939	890.94
476.158	883.94
476.377	838.94
476.596	817.94
476.814	800.94
477.033	774.94
477.252	842.94
477.471	884.94
477.69	903.94
477.908	912.94
478.127	942.94
478.346	993.94
478.564	989.94
478.783	980.94
479.002	1008.94
479.22	983.94
479.439	988.94
479.658	1014.94
479.876	975.94
480.095	911.94
480.313	888.94
480.532	882.94
480.751	852.94
480.969	837.94
481.188	776.94
481.406	780.94
481.624	737.94
481.843	769.94
482.061	810.94
482.28	882.94
482.498	866.94
482.717	840.94
482.935	870.94
483.153	978.94
483.372	1024.94
483.59	994.94
483.808	951.94
484.027	942.94
484.245	957.94
484.463	1138.94
484.681	1262.94
484.9	1019.94
485.118	924.94
485.336	906.94
485.554	904.94
485.772	880.94
485.99	869.94
486.209	907.94
486.427	881.94
486.645	914.94
486.863	989.94
487.081	1007.94
487.299	1006.94
487.517	990.94
487.735	1097.94
487.953	1178.94
488.171	1176.94
488.389	1109.94
488.607	1066.94
488.825	1109.94
489.043	1048.94
489.261	951.94
489.479	1008.94
489.696	1038.94
489.914	995.94
490.132	1009.94
490.35	1053.94
490.568	1121.94
490.786	1128.94
491.003	1172.94
491.221	1214.94
491.439	1268.94
491.657	1261.94
491.874	1307.94
492.092	1419.94
492.31	1506.94
492.527	1401.94
492.745	1312.94
492.963	1288.94
493.18	1293.94
493.398	1307.94
493.615	1306.94
493.833	1246.94
494.05	1228.94
494.268	1218.94
494.485	1224.94
494.703	1220.94
494.92	1191.94
495.138	1205.94
495.355	1204.94
495.573	1227.94
495.79	1274.94
496.008	1244.94
496.225	1191.94
496.442	1179.94
496.66	1207.94
496.877	1163.94
497.094	1195.94
497.312	1169.94
497.529	1151.94
497.746	1202.94
497.963	1258.94
498.181	1270.94
498.398	1214.94
498.615	1169.94
498.832	1127.94
499.049	1151.94
499.267	1155.94
499.484	1254.94
499.701	1312.94
499.918	1356.94
500.135	1468.94
500.352	1534.94
500.569	1528.94
500.786	1669.94
501.003	1527.94
501.22	1396.94
501.437	1368.94
501.654	1372.94
501.871	1350.94
502.088	1202.94
502.305	1184.94
502.522	1086.94
502.739	1066.94
502.956	1070.94
503.172	1060.94
503.389	1000.94
503.606	1010.94
503.823	1008.94
504.04	964.94
504.256	954.94
504.473	977.94
504.69	1000.94
504.907	957.94
505.123	953.94
505.34	1047.94
505.557	1322.94
505.773	1105.94
505.99	948.94
506.207	908.94
506.423	863.94
506.64	887.94
506.856	904.94
507.073	1014.94
507.289	1032.94
507.506	1015.94
507.722	883.94
507.939	832.94
508.155	818.94
508.372	832.94
508.588	810.94
508.805	775.94
509.021	742.94
509.238	751.94
509.454	735.94
509.67	735.94
509.887	702.94
510.103	702.94
510.319	720.94
510.536	728.94
510.752	744.94
510.968	740.94
511.184	793.94
511.401	757.94
511.617	707.94
511.833	692.94
512.049	695.94
512.265	691.94
512.481	693.94
512.698	737.94
512.914	743.94
513.13	721.94
513.346	705.94
513.562	699.94
513.778	720.94
513.994	728.94
514.21	750.94
514.426	747.94
514.642	819.94
514.858	764.94
515.074	721.94
515.29	715.94
515.506	701.94
515.721	739.94
515.937	743.94
516.153	775.94
516.369	768.94
516.585	721.94
516.801	729.94
517.016	732.94
517.232	753.94
517.448	762.94
517.664	742.94
517.879	773.94
518.095	793.94
518.311	745.94
518.527	720.94
518.742	743.94
518.958	715.94
519.173	732.94
519.389	779.94
519.605	788.94
519.82	786.94
520.036	751.94
520.251	738.94
520.467	754.94
520.682	808.94
520.898	755.94
521.113	689.94
521.329	682.94
521.544	743.94
521.76	695.94
521.975	715.94
522.19	712.94
522.406	708.94
522.621	889.94
522.836	851.94
523.052	746.94
523.267	734.94
523.482	742.94
523.698	712.94
523.913	717.94
524.128	751.94
524.343	784.94
524.559	799.94
524.774	773.94
524.989	746.94
525.204	760.94
525.419	715.94
525.634	727.94
525.849	697.94
526.064	711.94
526.28	683.94
526.495	656.94
526.71	614.94
526.925	622.94
527.14	629.94
527.355	617.94
527.57	614.94
527.785	643.94
527.999	640.94
528.214	650.94
528.429	672.94
528.644	696.94
528.859	758.94
529.074	793.94
529.289	865.94
529.503	886.94
529.718	806.94
529.933	709.94
530.148	630.94
530.363	634.94
530.577	630.94
530.792	627.94
531.007	614.94
531.221	610.94
531.436	612.94
531.651	635.94
531.865	646.94
532.08	626.94
532.295	615.94
532.509	586.94
532.724	606.94
532.938	662.94
533.153	686.94
533.367	702.94
533.582	732.94
533.796	705.94
534.011	702.94
534.225	645.94
534.44	619.94
534.654	632.94
534.868	625.94
535.083	656.94
535.297	676.94
535.511	659.94
535.726	657.94
535.94	657.94
536.154	628.94
536.369	608.94
536.583	588.94
536.797	605.94
537.011	599.94
537.225	588.94
537.44	597.94
537.654	644.94
537.868	606.94
538.082	570.94
538.296	574.94
538.51	623.94
538.724	644.94
538.938	729.94
539.153	734.94
539.367	693.94
539.581	684.94
539.795	678.94
540.009	626.94
540.222	632.94
540.436	632.94
540.65	717.94
540.864	776.94
541.078	812.94
541.292	810.94
541.506	859.94
541.72	920.94
541.934	981.94
542.147	1043.94
542.361	992.94
542.575	882.94
542.789	807.94
543.002	728.94
543.216	710.94
543.43	725.94
543.644	776.94
543.857	857.94
544.071	884.94
544.285	944.94
544.498	888.94
544.712	911.94
544.925	933.94
545.139	897.94
545.352	919.94
545.566	916.94
545.779	907.94
545.993	945.94
546.206	971.94
546.42	974.94
546.633	934.94
546.847	899.94
547.06	928.94
547.274	919.94
547.487	974.94
547.7	988.94
547.914	972.94
548.127	949.94
548.34	943.94
548.554	895.94
548.767	909.94
548.98	885.94
549.193	899.94
549.407	918.94
549.62	907.94
549.833	892.94
550.046	887.94
550.259	884.94
550.473	844.94
550.686	871.94
550.899	844.94
551.112	833.94
551.325	803.94
551.538	792.94
551.751	850.94
551.964	719.94
552.177	728.94
552.39	776.94
552.603	828.94
552.816	853.94
553.029	888.94
553.242	867.94
553.455	894.94
553.667	904.94
553.88	890.94
554.093	848.94
554.306	842.94
554.519	827.94
554.732	803.94
554.944	810.94
555.157	838.94
555.37	790.94
555.583	775.94
555.795	736.94
556.008	709.94
556.221	709.94
556.433	724.94
556.646	713.94
556.859	704.94
557.071	742.94
557.284	720.94
557.496	740.94
557.709	721.94
557.921	730.94
558.134	702.94
558.346	706.94
558.559	709.94
558.771	701.94
558.984	678.94
559.196	659.94
559.409	662.94
559.621	636.94
559.833	645.94
560.046	647.94
560.258	655.94
560.47	644.94
560.683	680.94
560.895	680.94
561.107	660.94
561.32	668.94
561.532	666.94
561.744	661.94
561.956	658.94
562.168	655.94
562.381	672.94
562.593	635.94
562.805	632.94
563.017	604.94
563.229	600.94
563.441	620.94
563.653	602.94
563.865	604.94
564.077	590.94
564.289	601.94
564.501	612.94
564.713	630.94
564.925	615.94
565.137	664.94
565.349	602.94
565.561	611.94
565.773	574.94
565.985	601.94
566.197	632.94
566.408	663.94
566.62	660.94
566.832	677.94
567.044	678.94
567.255	651.94
567.467	624.94
567.679	645.94
567.891	623.94
568.102	598.94
568.314	570.94
568.526	518.94
568.737	499.94
568.949	487.94
569.161	475.94
569.372	428.94
569.584	417.94
569.795	425.94
570.007	476.94
570.218	439.94
570.43	418.94
570.641	447.94
570.853	471.94
571.064	470.94
571.276	480.94
571.487	472.94
571.698	457.94
571.91	474.94
572.121	433.94
572.333	436.94
572.544	433.94
572.755	398.94
572.966	400.94
573.178	385.94
573.389	384.94
573.6	404.94
573.811	432.94
574.023	380.94
574.234	389.94
574.445	363.94
574.656	398.94
574.867	376.94
575.078	406.94
575.289	396.94
575.501	385.94
575.712	360.94
575.923	400.94
576.134	376.94
576.345	397.94
576.556	376.94
576.767	404.94
576.978	394.94
577.188	373.94
577.399	369.94
577.61	358.94
577.821	370.94
578.032	356.94
578.243	368.94
578.454	344.94
578.665	369.94
578.875	340.94
579.086	338.94
579.297	331.94
579.508	332.94
579.718	338.94
579.929	343.94
580.14	324.94
580.35	335.94
580.561	356.94
580.772	367.94
580.982	338.94
581.193	342.94
581.403	347.94
581.614	336.94
581.825	342.94
582.035	340.94
582.246	329.94
582.456	335.94
582.667	331.94
582.877	328.94
583.087	308.94
583.298	328.94
583.508	318.94
583.719	318.94
583.929	319.94
584.139	335.94
584.35	294.94
584.56	314.94
584.77	344.94
584.981	317.94
585.191	320.94
585.401	330.94
585.611	319.94
585.821	343.94
586.032	331.94
586.242	292.94
586.452	304.94
586.662	292.94
586.872	310.94
587.082	312.94
587.292	308.94
587.502	315.94
587.713	318.94
587.923	306.94
588.133	315.94
588.343	318.94
588.553	311.94
588.762	305.94
588.972	312.94
589.182	314.94
589.392	295.94
589.602	314.94
589.812	314.94
590.022	298.94
590.232	306.94
590.441	304.94
590.651	304.94
590.861	300.94
591.071	304.94
591.281	283.94
591.49	310.94
591.7	290.94
591.91	293.94
592.119	287.94
592.329	303.94
592.539	306.94
592.748	296.94
592.958	327.94
593.167	299.94
593.377	307.94
593.587	332.94
593.796	310.94
594.006	318.94
594.215	325.94
594.424	322.94
594.634	325.94
594.843	336.94
595.053	331.94
595.262	336.94
595.472	331.94
595.681	322.94
595.89	309.94
596.1	300.94
596.309	315.94
596.518	313.94
596.727	332.94
596.937	313.94
597.146	306.94
597.355	311.94
597.564	304.94
597.774	295.94
597.983	298.94
598.192	275.94
598.401	276.94
598.61	279.94
598.819	292.94
599.028	302.94
599.237	298.94
599.446	283.94
599.655	284.94
599.864	270.94
600.073	297.94
600.282	277.94
600.491	271.94
600.7	287.94
600.909	298.94
601.118	326.94
601.327	315.94
601.536	345.94
601.745	329.94
601.953	343.94
602.162	350.94
602.371	341.94
602.58	345.94
602.789	341.94
602.997	348.94
603.206	356.94
603.415	342.94
603.623	329.94
603.832	336.94
604.041	313.94
604.249	306.94
604.458	296.94
604.666	308.94
604.875	277.94
605.084	318.94
605.292	333.94
605.501	361.94
605.709	363.94
605.918	356.94
606.126	360.94
606.334	351.94
606.543	353.94
606.751	339.94
606.96	347.94
607.168	339.94
607.376	336.94
607.585	343.94
607.793	346.94
608.001	362.94
608.21	358.94
608.418	367.94
608.626	355.94
608.834	354.94
609.043	370.94
609.251	343.94
609.459	349.94
609.667	364.94
609.875	372.94
610.083	372.94
610.291	340.94
610.499	379.94
610.707	354.94
610.916	359.94
611.124	359.94
611.332	345.94
611.54	362.94
611.748	371.94
611.955	354.94
612.163	342.94
612.371	361.94
612.579	363.94
612.787	361.94
612.995	353.94
613.203	347.94
613.411	350.94
613.618	366.94
613.826	332.94
614.034	330.94
614.242	358.94
614.449	356.94
614.657	363.94
614.865	347.94
615.072	336.94
615.28	357.94
615.488	343.94
615.695	360.94
615.903	340.94
616.111	347.94
616.318	349.94
616.526	361.94
616.733	370.94
616.941	328.94
617.148	350.94
617.356	330.94
617.563	330.94
617.771	337.94
617.978	338.94
618.185	340.94
618.393	353.94
618.6	343.94
618.807	346.94
619.015	346.94
619.222	345.94
619.429	339.94
619.637	305.94
619.844	292.94
620.051	308.94
620.258	320.94
620.466	308.94
620.673	313.94
620.88	310.94
621.087	309.94
621.294	291.94
621.501	294.94
621.708	293.94
621.915	315.94
622.122	321.94
622.329	321.94
622.536	320.94
622.743	332.94
622.95	306.94
623.157	310.94
623.364	337.94
623.571	330.94
623.778	304.94
623.985	324.94
624.192	332.94
624.399	328.94
624.606	312.94
624.812	324.94
625.019	318.94
625.226	295.94
625.433	276.94
625.639	268.94
625.846	268.94
626.053	231.94
626.259	246.94
626.466	230.94
626.673	235.94
626.879	223.94
627.086	262.94
627.293	266.94
627.499	271.94
627.706	290.94
627.912	286.94
628.119	293.94
628.325	293.94
628.532	291.94
628.738	286.94
628.945	290.94
629.151	287.94
629.357	266.94
629.564	274.94
629.77	276.94
629.976	283.94
630.183	262.94
630.389	266.94
630.595	267.94
630.802	283.94
631.008	281.94
631.214	282.94
631.42	270.94
631.627	247.94
631.833	242.94
632.039	238.94
632.245	277.94
632.451	242.94
632.657	260.94
632.863	272.94
633.069	264.94
633.275	252.94
633.481	250.94
633.688	251.94
633.893	245.94
634.099	264.94
634.305	240.94
634.511	232.94
634.717	227.94
634.923	215.94
635.129	231.94
635.335	236.94
635.541	230.94
635.747	235.94
635.952	252.94
636.158	258.94
636.364	252.94
636.57	258.94
636.775	242.94
636.981	267.94
637.187	267.94
637.392	262.94
637.598	254.94
637.804	268.94
638.009	251.94
638.215	250.94
638.421	242.94
638.626	241.94
638.832	246.94
639.037	239.94
639.243	242.94
639.448	236.94
639.654	241.94
639.859	254.94
640.065	240.94
640.27	242.94
640.475	232.94
640.681	246.94
640.886	226.94
641.091	246.94
641.297	250.94
641.502	249.94
641.707	221.94
641.913	241.94
642.118	248.94
642.323	250.94
642.528	261.94
642.733	232.94
642.939	238.94
643.144	216.94
643.349	240.94
643.554	227.94
643.759	238.94
643.964	250.94
644.169	224.94
644.374	221.94
644.579	229.94
644.784	218.94
644.989	259.94
645.194	237.94
645.399	234.94
645.604	224.94
645.809	235.94
646.014	242.94
646.219	243.94
646.423	236.94
646.628	244.94
646.833	231.94
647.038	233.94
647.243	233.94
647.447	245.94
647.652	255.94
647.857	240.94
648.062	255.94
648.266	250.94
648.471	242.94
648.676	232.94
648.88	248.94
649.085	236.94
649.289	228.94
649.494	238.94
649.698	250.94
649.903	230.94
650.107	228.94
650.312	228.94
650.516	230.94
650.721	211.94
650.925	212.94
651.13	224.94
651.334	224.94
651.539	236.94
651.743	229.94
651.947	224.94
652.152	212.94
652.356	226.94
652.56	222.94
652.764	208.94
652.969	210.94
653.173	215.94
653.377	204.94
653.581	211.94
653.785	207.94
653.99	218.94
654.194	192.94
654.398	195.94
654.602	192.94
654.806	208.94
655.01	197.94
655.214	198.94
655.418	200.94
655.622	206.94
655.826	215.94
656.03	212.94
656.234	218.94
656.438	220.94
656.642	233.94
656.846	213.94
657.049	203.94
657.253	221.94
657.457	202.94
657.661	158.94
657.865	163.94
658.068	175.94
658.272	166.94
658.476	160.94
658.68	142.94
658.883	140.94
659.087	148.94
659.291	142.94
659.494	126.94
659.698	148.94
659.901	127.94
660.105	120.94
660.309	127.94
660.512	142.94
660.716	120.94
660.919	124.94
661.123	115.94
661.326	103.94
661.53	113.94
661.733	110.94
661.936	111.94
662.14	94.94
662.343	116.94
662.546	91.94
662.75	94.94
662.953	110.94
663.156	94.94
663.36	91.94
663.563	83.94
663.766	89.94
663.969	97.94
664.173	84.94
664.376	77.94
664.579	68.94
664.782	82.94
664.985	79.94
665.188	74.94
665.391	75.94
665.594	76.94
665.797	78.94
666	86.94
666.203	76.94
666.406	73.94
666.609	75.94
666.812	74.94
667.015	92.94
667.218	74.94
667.421	70.94
667.624	89.94
667.827	88.94
668.03	80.94
668.232	86.94
668.435	70.94
668.638	78.94
668.841	78.94
669.043	82.94
669.246	66.94
669.449	86.94
669.651	78.94
669.854	78.94
670.057	79.94
670.259	86.94
670.462	93.94
670.665	72.94
670.867	79.94
671.07	78.94
671.272	86.94
671.475	77.94
671.677	68.94
671.88	79.94
672.082	68.94
672.284	73.94
672.487	87.94
672.689	82.94
672.892	86.94
