Data from WStandard_LampEnergy10_LIBS07252019.E.O._I.C._HRD10591_15-55-40-929.txt Node
Date: Thu Jul 25 15:55:40 EDT 2019
User: cochatt
Spectrometer: HR+D1059
Trigger mode: 1
Integration Time (sec): 1.000000E-1
Scans to average: 1
Electric dark correction enabled: true
Nonlinearity correction enabled: false
Boxcar width: 0
XAxis mode: Wavelengths
Number of Pixels in Spectrum: 2048
>>>>>Begin Spectral Data<<<<<
223.165	-12.69
223.4	-12.69
223.635	-12.69
223.869	-19.69
224.104	-13.69
224.338	-12.69
224.573	-24.69
224.808	-28.69
225.042	-7.69
225.277	-14.69
225.511	-6.69
225.746	19.31
225.98	11.31
226.215	7.31
226.449	28.31
226.683	9.31
226.918	37.31
227.152	28.31
227.387	12.31
227.621	22.31
227.856	50.31
228.09	50.31
228.324	43.31
228.559	65.31
228.793	84.31
229.027	137.31
229.262	151.31
229.496	144.31
229.73	152.31
229.964	155.31
230.199	159.31
230.433	180.31
230.667	175.31
230.901	190.31
231.136	173.31
231.37	164.31
231.604	169.31
231.838	192.31
232.072	179.31
232.306	170.31
232.541	186.31
232.775	187.31
233.009	208.31
233.243	197.31
233.477	179.31
233.711	191.31
233.945	191.31
234.179	200.31
234.413	215.31
234.647	215.31
234.881	204.31
235.115	199.31
235.349	185.31
235.583	198.31
235.817	186.31
236.051	198.31
236.285	194.31
236.519	216.31
236.753	211.31
236.987	215.31
237.221	219.31
237.455	228.31
237.689	229.31
237.922	237.31
238.156	218.31
238.39	216.31
238.624	243.31
238.858	220.31
239.091	236.31
239.325	276.31
239.559	286.31
239.793	294.31
240.027	304.31
240.26	294.31
240.494	236.31
240.728	231.31
240.961	229.31
241.195	240.31
241.429	247.31
241.662	265.31
241.896	232.31
242.13	243.31
242.363	268.31
242.597	275.31
242.83	275.31
243.064	263.31
243.298	285.31
243.531	279.31
243.765	283.31
243.998	272.31
244.232	270.31
244.465	261.31
244.699	243.31
244.932	269.31
245.166	303.31
245.399	289.31
245.633	271.31
245.866	269.31
246.099	293.31
246.333	305.31
246.566	299.31
246.8	311.31
247.033	332.31
247.266	324.31
247.5	310.31
247.733	311.31
247.966	338.31
248.2	348.31
248.433	353.31
248.666	361.31
248.899	380.31
249.133	440.31
249.366	464.31
249.599	394.31
249.832	375.31
250.066	372.31
250.299	361.31
250.532	337.31
250.765	309.31
250.998	338.31
251.231	361.31
251.465	360.31
251.698	321.31
251.931	347.31
252.164	350.31
252.397	343.31
252.63	352.31
252.863	326.31
253.096	315.31
253.329	335.31
253.562	339.31
253.795	368.31
254.028	350.31
254.261	321.31
254.494	322.31
254.727	314.31
254.96	346.31
255.193	386.31
255.426	416.31
255.659	440.31
255.892	449.31
256.124	377.31
256.357	366.31
256.59	408.31
256.823	398.31
257.056	423.31
257.289	452.31
257.521	470.31
257.754	452.31
257.987	429.31
258.22	482.31
258.452	446.31
258.685	395.31
258.918	396.31
259.151	387.31
259.383	387.31
259.616	356.31
259.849	377.31
260.081	403.31
260.314	444.31
260.547	458.31
260.779	480.31
261.012	447.31
261.244	400.31
261.477	396.31
261.71	411.31
261.942	374.31
262.175	379.31
262.407	406.31
262.64	392.31
262.872	361.31
263.105	354.31
263.337	373.31
263.57	363.31
263.802	361.31
264.035	357.31
264.267	356.31
264.499	361.31
264.732	362.31
264.964	383.31
265.197	393.31
265.429	410.31
265.661	459.31
265.894	478.31
266.126	458.31
266.358	450.31
266.591	465.31
266.823	473.31
267.055	447.31
267.287	459.31
267.52	440.31
267.752	420.31
267.984	433.31
268.216	457.31
268.448	470.31
268.681	468.31
268.913	426.31
269.145	413.31
269.377	393.31
269.609	437.31
269.841	517.31
270.073	565.31
270.306	594.31
270.538	619.31
270.77	532.31
271.002	490.31
271.234	474.31
271.466	476.31
271.698	539.31
271.93	590.31
272.162	582.31
272.394	550.31
272.626	540.31
272.858	454.31
273.09	384.31
273.322	403.31
273.553	401.31
273.785	411.31
274.017	421.31
274.249	431.31
274.481	445.31
274.713	423.31
274.945	424.31
275.176	409.31
275.408	410.31
275.64	416.31
275.872	385.31
276.104	428.31
276.335	479.31
276.567	524.31
276.799	543.31
277.031	471.31
277.262	456.31
277.494	501.31
277.726	532.31
277.957	509.31
278.189	452.31
278.421	435.31
278.652	441.31
278.884	410.31
279.115	424.31
279.347	437.31
279.579	426.31
279.81	457.31
280.042	469.31
280.273	504.31
280.505	497.31
280.736	508.31
280.968	451.31
281.199	423.31
281.431	426.31
281.662	427.31
281.894	440.31
282.125	445.31
282.356	450.31
282.588	436.31
282.819	461.31
283.051	495.31
283.282	508.31
283.513	495.31
283.745	443.31
283.976	424.31
284.207	439.31
284.439	452.31
284.67	451.31
284.901	453.31
285.132	464.31
285.364	443.31
285.595	471.31
285.826	441.31
286.057	454.31
286.288	437.31
286.52	474.31
286.751	501.31
286.982	496.31
287.213	469.31
287.444	450.31
287.675	454.31
287.906	467.31
288.138	475.31
288.369	465.31
288.6	447.31
288.831	427.31
289.062	445.31
289.293	463.31
289.524	455.31
289.755	454.31
289.986	449.31
290.217	418.31
290.448	435.31
290.679	447.31
290.91	474.31
291.141	459.31
291.371	485.31
291.602	471.31
291.833	465.31
292.064	487.31
292.295	497.31
292.526	509.31
292.757	513.31
292.987	479.31
293.218	483.31
293.449	522.31
293.68	583.31
293.91	583.31
294.141	554.31
294.372	545.31
294.603	562.31
294.833	583.31
295.064	552.31
295.295	495.31
295.525	479.31
295.756	438.31
295.987	451.31
296.217	445.31
296.448	473.31
296.679	448.31
296.909	467.31
297.14	464.31
297.37	464.31
297.601	493.31
297.831	534.31
298.062	507.31
298.292	464.31
298.523	450.31
298.753	469.31
298.984	472.31
299.214	496.31
299.445	479.31
299.675	489.31
299.905	484.31
300.136	490.31
300.366	475.31
300.597	457.31
300.827	479.31
301.057	505.31
301.288	500.31
301.518	501.31
301.748	507.31
301.979	552.31
302.209	564.31
302.439	578.31
302.669	589.31
302.9	538.31
303.13	513.31
303.36	515.31
303.59	509.31
303.82	505.31
304.051	507.31
304.281	525.31
304.511	528.31
304.741	583.31
304.971	602.31
305.201	624.31
305.431	550.31
305.661	475.31
305.891	445.31
306.121	468.31
306.352	479.31
306.582	510.31
306.812	527.31
307.042	556.31
307.272	570.31
307.502	615.31
307.731	613.31
307.961	650.31
308.191	600.31
308.421	519.31
308.651	519.31
308.881	519.31
309.111	478.31
309.341	499.31
309.571	503.31
309.8	487.31
310.03	491.31
310.26	505.31
310.49	491.31
310.72	512.31
310.949	519.31
311.179	545.31
311.409	513.31
311.639	512.31
311.868	499.31
312.098	512.31
312.328	497.31
312.557	520.31
312.787	505.31
313.017	517.31
313.246	529.31
313.476	532.31
313.706	534.31
313.935	532.31
314.165	564.31
314.394	566.31
314.624	594.31
314.853	612.31
315.083	635.31
315.312	634.31
315.542	567.31
315.771	522.31
316.001	553.31
316.23	561.31
316.46	567.31
316.689	534.31
316.919	533.31
317.148	501.31
317.377	537.31
317.607	579.31
317.836	609.31
318.065	659.31
318.295	604.31
318.524	603.31
318.753	578.31
318.983	561.31
319.212	567.31
319.441	554.31
319.67	538.31
319.9	565.31
320.129	608.31
320.358	637.31
320.587	608.31
320.816	613.31
321.046	605.31
321.275	576.31
321.504	607.31
321.733	625.31
321.962	594.31
322.191	565.31
322.42	571.31
322.649	564.31
322.878	561.31
323.108	575.31
323.337	578.31
323.566	564.31
323.795	585.31
324.024	550.31
324.253	592.31
324.482	568.31
324.71	543.31
324.939	523.31
325.168	556.31
325.397	563.31
325.626	576.31
325.855	586.31
326.084	563.31
326.313	569.31
326.542	559.31
326.77	580.31
326.999	579.31
327.228	553.31
327.457	509.31
327.686	525.31
327.914	529.31
328.143	552.31
328.372	550.31
328.6	543.31
328.829	529.31
329.058	545.31
329.287	560.31
329.515	553.31
329.744	584.31
329.972	639.31
330.201	632.31
330.43	600.31
330.658	596.31
330.887	593.31
331.115	609.31
331.344	588.31
331.572	583.31
331.801	550.31
332.03	590.31
332.258	609.31
332.486	611.31
332.715	604.31
332.943	616.31
333.172	608.31
333.4	612.31
333.629	598.31
333.857	663.31
334.085	729.31
334.314	808.31
334.542	821.31
334.771	727.31
334.999	674.31
335.227	651.31
335.455	635.31
335.684	654.31
335.912	652.31
336.14	645.31
336.369	617.31
336.597	606.31
336.825	610.31
337.053	647.31
337.281	660.31
337.51	689.31
337.738	707.31
337.966	661.31
338.194	621.31
338.422	594.31
338.65	588.31
338.878	584.31
339.106	553.31
339.334	547.31
339.562	569.31
339.79	569.31
340.018	617.31
340.246	634.31
340.474	621.31
340.702	604.31
340.93	623.31
341.158	610.31
341.386	612.31
341.614	589.31
341.842	593.31
342.07	588.31
342.298	592.31
342.526	585.31
342.754	572.31
342.981	609.31
343.209	615.31
343.437	576.31
343.665	608.31
343.893	621.31
344.12	656.31
344.348	619.31
344.576	606.31
344.804	599.31
345.031	586.31
345.259	603.31
345.487	562.31
345.714	543.31
345.942	546.31
346.17	562.31
346.397	565.31
346.625	556.31
346.853	533.31
347.08	537.31
347.308	543.31
347.535	571.31
347.763	579.31
347.99	551.31
348.218	557.31
348.445	582.31
348.673	553.31
348.9	587.31
349.128	594.31
349.355	641.31
349.583	620.31
349.81	565.31
350.037	542.31
350.265	539.31
350.492	540.31
350.72	561.31
350.947	582.31
351.174	595.31
351.402	563.31
351.629	530.31
351.856	524.31
352.083	534.31
352.311	539.31
352.538	546.31
352.765	594.31
352.992	582.31
353.22	548.31
353.447	537.31
353.674	564.31
353.901	561.31
354.128	545.31
354.355	554.31
354.583	549.31
354.81	591.31
355.037	582.31
355.264	583.31
355.491	593.31
355.718	584.31
355.945	547.31
356.172	551.31
356.399	532.31
356.626	553.31
356.853	591.31
357.08	647.31
357.307	653.31
357.534	637.31
357.761	549.31
357.988	540.31
358.215	528.31
358.441	530.31
358.668	529.31
358.895	563.31
359.122	603.31
359.349	633.31
359.576	600.31
359.802	571.31
360.029	540.31
360.256	552.31
360.483	549.31
360.709	570.31
360.936	604.31
361.163	613.31
361.39	694.31
361.616	703.31
361.843	705.31
362.07	640.31
362.296	589.31
362.523	573.31
362.749	562.31
362.976	585.31
363.203	586.31
363.429	549.31
363.656	541.31
363.882	605.31
364.109	683.31
364.335	667.31
364.562	632.31
364.788	612.31
365.015	599.31
365.241	560.31
365.468	581.31
365.694	609.31
365.92	617.31
366.147	566.31
366.373	563.31
366.599	575.31
366.826	575.31
367.052	572.31
367.278	589.31
367.505	579.31
367.731	614.31
367.957	620.31
368.184	646.31
368.41	652.31
368.636	691.31
368.862	666.31
369.089	675.31
369.315	610.31
369.541	637.31
369.767	603.31
369.993	574.31
370.219	576.31
370.445	615.31
370.672	647.31
370.898	662.31
371.124	634.31
371.35	636.31
371.576	664.31
371.802	651.31
372.028	635.31
372.254	598.31
372.48	611.31
372.706	603.31
372.932	604.31
373.158	604.31
373.384	615.31
373.61	635.31
373.835	661.31
374.061	636.31
374.287	637.31
374.513	602.31
374.739	632.31
374.965	635.31
375.191	609.31
375.416	641.31
375.642	661.31
375.868	705.31
376.094	697.31
376.319	669.31
376.545	633.31
376.771	661.31
376.997	715.31
377.222	659.31
377.448	652.31
377.674	668.31
377.899	692.31
378.125	696.31
378.35	705.31
378.576	629.31
378.802	633.31
379.027	634.31
379.253	645.31
379.478	636.31
379.704	631.31
379.929	643.31
380.155	637.31
380.38	642.31
380.606	671.31
380.831	664.31
381.057	701.31
381.282	709.31
381.507	687.31
381.733	716.31
381.958	751.31
382.184	689.31
382.409	668.31
382.634	721.31
382.86	676.31
383.085	652.31
383.31	691.31
383.535	783.31
383.761	801.31
383.986	765.31
384.211	724.31
384.436	744.31
384.662	772.31
384.887	769.31
385.112	744.31
385.337	736.31
385.562	748.31
385.787	721.31
386.013	765.31
386.238	760.31
386.463	784.31
386.688	836.31
386.913	843.31
387.138	822.31
387.363	769.31
387.588	758.31
387.813	779.31
388.038	770.31
388.263	803.31
388.488	744.31
388.713	713.31
388.938	710.31
389.163	751.31
389.387	771.31
389.612	738.31
389.837	755.31
390.062	751.31
390.287	765.31
390.512	736.31
390.736	733.31
390.961	732.31
391.186	719.31
391.411	715.31
391.636	739.31
391.86	744.31
392.085	749.31
392.31	751.31
392.534	745.31
392.759	735.31
392.984	741.31
393.208	746.31
393.433	800.31
393.658	815.31
393.882	812.31
394.107	779.31
394.331	764.31
394.556	768.31
394.78	804.31
395.005	797.31
395.229	809.31
395.454	871.31
395.678	851.31
395.903	803.31
396.127	799.31
396.352	812.31
396.576	838.31
396.801	812.31
397.025	821.31
397.249	844.31
397.474	813.31
397.698	799.31
397.922	864.31
398.147	901.31
398.371	915.31
398.595	890.31
398.82	872.31
399.044	893.31
399.268	906.31
399.492	952.31
399.717	973.31
399.941	973.31
400.165	968.31
400.389	971.31
400.613	977.31
400.837	1159.31
401.062	1183.31
401.286	1019.31
401.51	968.31
401.734	997.31
401.958	903.31
402.182	875.31
402.406	873.31
402.63	892.31
402.854	890.31
403.078	891.31
403.302	888.31
403.526	903.31
403.75	940.31
403.974	934.31
404.198	928.31
404.422	990.31
404.645	1013.31
404.869	959.31
405.093	925.31
405.317	906.31
405.541	932.31
405.765	927.31
405.988	943.31
406.212	954.31
406.436	957.31
406.66	988.31
406.883	1022.31
407.107	1141.31
407.331	1233.31
407.555	1289.31
407.778	1141.31
408.002	991.31
408.226	931.31
408.449	950.31
408.673	962.31
408.896	944.31
409.12	943.31
409.344	954.31
409.567	943.31
409.791	935.31
410.014	983.31
410.238	1048.31
410.461	1063.31
410.685	957.31
410.908	950.31
411.132	931.31
411.355	923.31
411.578	915.31
411.802	950.31
412.025	927.31
412.249	906.31
412.472	881.31
412.695	927.31
412.919	915.31
413.142	941.31
413.365	936.31
413.589	957.31
413.812	962.31
414.035	976.31
414.258	936.31
414.482	913.31
414.705	915.31
414.928	894.31
415.151	905.31
415.374	909.31
415.597	900.31
415.821	970.31
416.044	947.31
416.267	940.31
416.49	902.31
416.713	915.31
416.936	956.31
417.159	975.31
417.382	957.31
417.605	917.31
417.828	939.31
418.051	945.31
418.274	951.31
418.497	923.31
418.72	922.31
418.943	914.31
419.166	960.31
419.389	953.31
419.611	937.31
419.834	917.31
420.057	942.31
420.28	933.31
420.503	941.31
420.726	955.31
420.948	915.31
421.171	902.31
421.394	962.31
421.617	1006.31
421.839	988.31
422.062	950.31
422.285	923.31
422.507	925.31
422.73	883.31
422.953	883.31
423.175	892.31
423.398	935.31
423.621	926.31
423.843	919.31
424.066	970.31
424.288	1037.31
424.511	1028.31
424.733	997.31
424.956	929.31
425.178	912.31
425.401	928.31
425.623	962.31
425.846	923.31
426.068	975.31
426.291	952.31
426.513	951.31
426.735	978.31
426.958	1036.31
427.18	1058.31
427.402	993.31
427.625	1036.31
427.847	973.31
428.069	924.31
428.292	935.31
428.514	910.31
428.736	899.31
428.958	896.31
429.181	931.31
429.403	1081.31
429.625	1263.31
429.847	1051.31
430.069	963.31
430.292	1031.31
430.514	993.31
430.736	963.31
430.958	1009.31
431.18	937.31
431.402	887.31
431.624	850.31
431.846	828.31
432.068	746.31
432.29	733.31
432.512	794.31
432.734	856.31
432.956	931.31
433.178	954.31
433.4	963.31
433.622	958.31
433.844	892.31
434.066	844.31
434.287	800.31
434.509	775.31
434.731	823.31
434.953	910.31
435.175	915.31
435.397	917.31
435.618	894.31
435.84	802.31
436.062	825.31
436.284	880.31
436.505	936.31
436.727	939.31
436.949	923.31
437.17	886.31
437.392	875.31
437.614	849.31
437.835	804.31
438.057	834.31
438.278	828.31
438.5	856.31
438.721	908.31
438.943	944.31
439.165	928.31
439.386	934.31
439.608	915.31
439.829	933.31
440.05	943.31
440.272	957.31
440.493	939.31
440.715	973.31
440.936	1017.31
441.158	1051.31
441.379	1066.31
441.6	1022.31
441.822	1011.31
442.043	973.31
442.264	988.31
442.486	945.31
442.707	945.31
442.928	953.31
443.149	950.31
443.371	983.31
443.592	1011.31
443.813	1019.31
444.034	1022.31
444.255	1003.31
444.476	1020.31
444.698	1048.31
444.919	1057.31
445.14	1129.31
445.361	1106.31
445.582	1071.31
445.803	1053.31
446.024	1001.31
446.245	1088.31
446.466	1057.31
446.687	1038.31
446.908	1040.31
447.129	983.31
447.35	1011.31
447.571	1001.31
447.792	941.31
448.013	982.31
448.234	946.31
448.455	979.31
448.675	964.31
448.896	907.31
449.117	875.31
449.338	899.31
449.559	964.31
449.779	945.31
450	1017.31
450.221	1046.31
450.442	997.31
450.662	939.31
450.883	874.31
451.104	908.31
451.324	892.31
451.545	888.31
451.766	858.31
451.986	857.31
452.207	821.31
452.428	825.31
452.648	804.31
452.869	770.31
453.089	767.31
453.31	776.31
453.53	739.31
453.751	741.31
453.971	710.31
454.192	707.31
454.412	777.31
454.633	793.31
454.853	799.31
455.073	787.31
455.294	768.31
455.514	767.31
455.734	781.31
455.955	775.31
456.175	759.31
456.395	713.31
456.616	708.31
456.836	732.31
457.056	723.31
457.276	730.31
457.497	695.31
457.717	716.31
457.937	720.31
458.157	717.31
458.377	695.31
458.598	652.31
458.818	682.31
459.038	713.31
459.258	727.31
459.478	713.31
459.698	716.31
459.918	729.31
460.138	801.31
460.358	836.31
460.578	844.31
460.798	856.31
461.018	879.31
461.238	892.31
461.458	856.31
461.678	844.31
461.898	826.31
462.118	798.31
462.338	829.31
462.558	845.31
462.777	842.31
462.997	866.31
463.217	899.31
463.437	892.31
463.657	821.31
463.876	831.31
464.096	834.31
464.316	832.31
464.536	888.31
464.755	881.31
464.975	887.31
465.195	887.31
465.414	864.31
465.634	880.31
465.854	874.31
466.073	955.31
466.293	929.31
466.512	830.31
466.732	858.31
466.951	902.31
467.171	905.31
467.391	857.31
467.61	889.31
467.829	905.31
468.049	955.31
468.268	1056.31
468.488	964.31
468.707	927.31
468.927	927.31
469.146	915.31
469.365	916.31
469.585	898.31
469.804	937.31
470.023	940.31
470.243	950.31
470.462	908.31
470.681	895.31
470.901	911.31
471.12	906.31
471.339	936.31
471.558	930.31
471.777	883.31
471.997	903.31
472.216	839.31
472.435	811.31
472.654	769.31
472.873	803.31
473.092	823.31
473.311	822.31
473.53	815.31
473.749	791.31
473.968	834.31
474.187	836.31
474.406	834.31
474.625	863.31
474.844	865.31
475.063	880.31
475.282	881.31
475.501	830.31
475.72	852.31
475.939	926.31
476.158	875.31
476.377	856.31
476.596	841.31
476.814	825.31
477.033	818.31
477.252	845.31
477.471	950.31
477.69	913.31
477.908	936.31
478.127	950.31
478.346	986.31
478.564	987.31
478.783	968.31
479.002	1039.31
479.22	1019.31
479.439	1017.31
479.658	1017.31
479.876	949.31
480.095	927.31
480.313	892.31
480.532	883.31
480.751	876.31
480.969	843.31
481.188	805.31
481.406	788.31
481.624	787.31
481.843	809.31
482.061	838.31
482.28	879.31
482.498	895.31
482.717	861.31
482.935	914.31
483.153	963.31
483.372	1011.31
483.59	1016.31
483.808	984.31
484.027	965.31
484.245	1022.31
484.463	1223.31
484.681	1287.31
484.9	1030.31
485.118	977.31
485.336	915.31
485.554	887.31
485.772	908.31
485.99	893.31
486.209	907.31
486.427	902.31
486.645	939.31
486.863	980.31
487.081	1012.31
487.299	1013.31
487.517	1005.31
487.735	1106.31
487.953	1186.31
488.171	1145.31
488.389	1109.31
488.607	1073.31
488.825	1162.31
489.043	1061.31
489.261	992.31
489.479	1033.31
489.696	1060.31
489.914	1036.31
490.132	1026.31
490.35	1083.31
490.568	1151.31
490.786	1163.31
491.003	1173.31
491.221	1230.31
491.439	1311.31
491.657	1296.31
491.874	1348.31
492.092	1425.31
492.31	1481.31
492.527	1453.31
492.745	1362.31
492.963	1281.31
493.18	1313.31
493.398	1341.31
493.615	1336.31
493.833	1244.31
494.05	1227.31
494.268	1226.31
494.485	1230.31
494.703	1244.31
494.92	1211.31
495.138	1223.31
495.355	1245.31
495.573	1250.31
495.79	1239.31
496.008	1285.31
496.225	1219.31
496.442	1220.31
496.66	1245.31
496.877	1209.31
497.094	1237.31
497.312	1247.31
497.529	1174.31
497.746	1195.31
497.963	1312.31
498.181	1284.31
498.398	1231.31
498.615	1183.31
498.832	1159.31
499.049	1162.31
499.267	1192.31
499.484	1266.31
499.701	1347.31
499.918	1353.31
500.135	1509.31
500.352	1547.31
500.569	1603.31
500.786	1717.31
501.003	1564.31
501.22	1447.31
501.437	1368.31
501.654	1419.31
501.871	1349.31
502.088	1169.31
502.305	1171.31
502.522	1128.31
502.739	1142.31
502.956	1067.31
503.172	1053.31
503.389	1013.31
503.606	981.31
503.823	989.31
504.04	1001.31
504.256	1018.31
504.473	1008.31
504.69	996.31
504.907	1009.31
505.123	982.31
505.34	1068.31
505.557	1386.31
505.773	1139.31
505.99	952.31
506.207	899.31
506.423	905.31
506.64	900.31
506.856	929.31
507.073	1011.31
507.289	1119.31
507.506	1037.31
507.722	906.31
507.939	848.31
508.155	866.31
508.372	844.31
508.588	861.31
508.805	806.31
509.021	784.31
509.238	797.31
509.454	725.31
509.67	776.31
509.887	732.31
510.103	738.31
510.319	734.31
510.536	779.31
510.752	768.31
510.968	749.31
511.184	801.31
511.401	751.31
511.617	721.31
511.833	713.31
512.049	715.31
512.265	700.31
512.481	723.31
512.698	754.31
512.914	775.31
513.13	739.31
513.346	715.31
513.562	678.31
513.778	732.31
513.994	733.31
514.21	759.31
514.426	769.31
514.642	826.31
514.858	770.31
515.074	717.31
515.29	720.31
515.506	735.31
515.721	733.31
515.937	738.31
516.153	818.31
516.369	789.31
516.585	732.31
516.801	725.31
517.016	745.31
517.232	760.31
517.448	774.31
517.664	782.31
517.879	791.31
518.095	817.31
518.311	799.31
518.527	755.31
518.742	743.31
518.958	747.31
519.173	757.31
519.389	787.31
519.605	793.31
519.82	786.31
520.036	775.31
520.251	773.31
520.467	797.31
520.682	805.31
520.898	787.31
521.113	710.31
521.329	715.31
521.544	743.31
521.76	733.31
521.975	721.31
522.19	716.31
522.406	726.31
522.621	962.31
522.836	872.31
523.052	744.31
523.267	752.31
523.482	738.31
523.698	769.31
523.913	718.31
524.128	774.31
524.343	812.31
524.559	813.31
524.774	796.31
524.989	777.31
525.204	783.31
525.419	746.31
525.634	729.31
525.849	723.31
526.064	731.31
526.28	709.31
526.495	672.31
526.71	653.31
526.925	639.31
527.14	654.31
527.355	629.31
527.57	639.31
527.785	648.31
527.999	651.31
528.214	671.31
528.429	701.31
528.644	732.31
528.859	753.31
529.074	805.31
529.289	872.31
529.503	881.31
529.718	851.31
529.933	739.31
530.148	706.31
530.363	677.31
530.577	659.31
530.792	623.31
531.007	649.31
531.221	627.31
531.436	624.31
531.651	653.31
531.865	667.31
532.08	667.31
532.295	616.31
532.509	587.31
532.724	635.31
532.938	661.31
533.153	709.31
533.367	727.31
533.582	731.31
533.796	725.31
534.011	705.31
534.225	669.31
534.44	637.31
534.654	622.31
534.868	645.31
535.083	719.31
535.297	699.31
535.511	684.31
535.726	685.31
535.94	659.31
536.154	641.31
536.369	606.31
536.583	589.31
536.797	590.31
537.011	629.31
537.225	604.31
537.44	623.31
537.654	655.31
537.868	628.31
538.082	607.31
538.296	605.31
538.51	619.31
538.724	672.31
538.938	721.31
539.153	752.31
539.367	736.31
539.581	700.31
539.795	692.31
540.009	632.31
540.222	621.31
540.436	675.31
540.65	737.31
540.864	781.31
541.078	803.31
541.292	812.31
541.506	895.31
541.72	946.31
541.934	1012.31
542.147	1049.31
542.361	1014.31
542.575	915.31
542.789	833.31
543.002	751.31
543.216	709.31
543.43	767.31
543.644	789.31
543.857	864.31
544.071	895.31
544.285	931.31
544.498	913.31
544.712	933.31
544.925	939.31
545.139	962.31
545.352	915.31
545.566	888.31
545.779	907.31
545.993	919.31
546.206	993.31
546.42	959.31
546.633	934.31
546.847	949.31
547.06	955.31
547.274	928.31
547.487	983.31
547.7	987.31
547.914	997.31
548.127	971.31
548.34	963.31
548.554	927.31
548.767	909.31
548.98	907.31
549.193	918.31
549.407	933.31
549.62	930.31
549.833	900.31
550.046	938.31
550.259	899.31
550.473	895.31
550.686	903.31
550.899	836.31
551.112	843.31
551.325	831.31
551.538	853.31
551.751	867.31
551.964	687.31
552.177	721.31
552.39	791.31
552.603	852.31
552.816	859.31
553.029	909.31
553.242	935.31
553.455	911.31
553.667	901.31
553.88	895.31
554.093	852.31
554.306	835.31
554.519	820.31
554.732	818.31
554.944	838.31
555.157	839.31
555.37	797.31
555.583	803.31
555.795	760.31
556.008	742.31
556.221	711.31
556.433	731.31
556.646	715.31
556.859	720.31
557.071	757.31
557.284	767.31
557.496	743.31
557.709	751.31
557.921	721.31
558.134	714.31
558.346	735.31
558.559	726.31
558.771	703.31
558.984	681.31
559.196	664.31
559.409	649.31
559.621	659.31
559.833	651.31
560.046	662.31
560.258	673.31
560.47	669.31
560.683	683.31
560.895	658.31
561.107	646.31
561.32	663.31
561.532	674.31
561.744	671.31
561.956	675.31
562.168	652.31
562.381	665.31
562.593	663.31
562.805	629.31
563.017	641.31
563.229	666.31
563.441	633.31
563.653	632.31
563.865	618.31
564.077	635.31
564.289	617.31
564.501	623.31
564.713	635.31
564.925	645.31
565.137	673.31
565.349	619.31
565.561	629.31
565.773	625.31
565.985	608.31
566.197	642.31
566.408	659.31
566.62	670.31
566.832	671.31
567.044	684.31
567.255	659.31
567.467	653.31
567.679	650.31
567.891	662.31
568.102	628.31
568.314	563.31
568.526	557.31
568.737	515.31
568.949	499.31
569.161	474.31
569.372	457.31
569.584	466.31
569.795	435.31
570.007	467.31
570.218	450.31
570.43	450.31
570.641	475.31
570.853	466.31
571.064	482.31
571.276	482.31
571.487	477.31
571.698	458.31
571.91	488.31
572.121	472.31
572.333	459.31
572.544	447.31
572.755	408.31
572.966	407.31
573.178	397.31
573.389	401.31
573.6	421.31
573.811	426.31
574.023	391.31
574.234	385.31
574.445	397.31
574.656	405.31
574.867	422.31
575.078	398.31
575.289	407.31
575.501	398.31
575.712	395.31
575.923	418.31
576.134	408.31
576.345	407.31
576.556	395.31
576.767	395.31
576.978	367.31
577.188	386.31
577.399	371.31
577.61	389.31
577.821	367.31
578.032	371.31
578.243	370.31
578.454	364.31
578.665	377.31
578.875	358.31
579.086	349.31
579.297	351.31
579.508	353.31
579.718	336.31
579.929	354.31
580.14	339.31
580.35	353.31
580.561	356.31
580.772	385.31
580.982	376.31
581.193	352.31
581.403	350.31
581.614	358.31
581.825	350.31
582.035	347.31
582.246	338.31
582.456	350.31
582.667	354.31
582.877	327.31
583.087	328.31
583.298	336.31
583.508	329.31
583.719	316.31
583.929	352.31
584.139	335.31
584.35	316.31
584.56	309.31
584.77	342.31
584.981	330.31
585.191	342.31
585.401	329.31
585.611	319.31
585.821	328.31
586.032	316.31
586.242	321.31
586.452	298.31
586.662	329.31
586.872	313.31
587.082	295.31
587.292	311.31
587.502	324.31
587.713	335.31
587.923	323.31
588.133	312.31
588.343	329.31
588.553	309.31
588.762	325.31
588.972	314.31
589.182	332.31
589.392	325.31
589.602	308.31
589.812	308.31
590.022	311.31
590.232	305.31
590.441	321.31
590.651	323.31
590.861	327.31
591.071	309.31
591.281	320.31
591.49	314.31
591.7	309.31
591.91	301.31
592.119	337.31
592.329	323.31
592.539	320.31
592.748	329.31
592.958	320.31
593.167	314.31
593.377	303.31
593.587	324.31
593.796	326.31
594.006	312.31
594.215	323.31
594.424	341.31
594.634	324.31
594.843	331.31
595.053	343.31
595.262	325.31
595.472	313.31
595.681	320.31
595.89	325.31
596.1	319.31
596.309	325.31
596.518	324.31
596.727	337.31
596.937	317.31
597.146	304.31
597.355	324.31
597.564	296.31
597.774	303.31
597.983	310.31
598.192	285.31
598.401	289.31
598.61	300.31
598.819	267.31
599.028	303.31
599.237	303.31
599.446	288.31
599.655	304.31
599.864	304.31
600.073	280.31
600.282	303.31
600.491	285.31
600.7	268.31
600.909	307.31
601.118	303.31
601.327	336.31
601.536	339.31
601.745	361.31
601.953	346.31
602.162	362.31
602.371	379.31
602.58	352.31
602.789	339.31
602.997	346.31
603.206	357.31
603.415	358.31
603.623	339.31
603.832	354.31
604.041	342.31
604.249	312.31
604.458	317.31
604.666	303.31
604.875	309.31
605.084	308.31
605.292	336.31
605.501	354.31
605.709	353.31
605.918	339.31
606.126	351.31
606.334	352.31
606.543	367.31
606.751	351.31
606.96	371.31
607.168	347.31
607.376	357.31
607.585	362.31
607.793	349.31
608.001	351.31
608.21	353.31
608.418	351.31
608.626	356.31
608.834	371.31
609.043	371.31
609.251	386.31
609.459	378.31
609.667	365.31
609.875	371.31
610.083	373.31
610.291	382.31
610.499	355.31
610.707	387.31
610.916	352.31
611.124	364.31
611.332	373.31
611.54	353.31
611.748	369.31
611.955	389.31
612.163	341.31
612.371	358.31
612.579	353.31
612.787	342.31
612.995	344.31
613.203	358.31
613.411	356.31
613.618	334.31
613.826	348.31
614.034	349.31
614.242	358.31
614.449	354.31
614.657	356.31
614.865	366.31
615.072	357.31
615.28	344.31
615.488	355.31
615.695	351.31
615.903	372.31
616.111	331.31
616.318	343.31
616.526	361.31
616.733	353.31
616.941	347.31
617.148	363.31
617.356	346.31
617.563	338.31
617.771	340.31
617.978	337.31
618.185	315.31
618.393	343.31
618.6	362.31
618.807	353.31
619.015	350.31
619.222	342.31
619.429	320.31
619.637	323.31
619.844	302.31
620.051	309.31
620.258	327.31
620.466	327.31
620.673	327.31
620.88	319.31
621.087	320.31
621.294	292.31
621.501	297.31
621.708	284.31
621.915	306.31
622.122	311.31
622.329	319.31
622.536	328.31
622.743	337.31
622.95	312.31
623.157	326.31
623.364	331.31
623.571	300.31
623.778	321.31
623.985	314.31
624.192	312.31
624.399	309.31
624.606	324.31
624.812	328.31
625.019	294.31
625.226	288.31
625.433	293.31
625.639	293.31
625.846	282.31
626.053	267.31
626.259	246.31
626.466	246.31
626.673	247.31
626.879	233.31
627.086	254.31
627.293	264.31
627.499	279.31
627.706	292.31
627.912	325.31
628.119	298.31
628.325	303.31
628.532	291.31
628.738	288.31
628.945	275.31
629.151	265.31
629.357	279.31
629.564	265.31
629.77	286.31
629.976	257.31
630.183	262.31
630.389	275.31
630.595	278.31
630.802	280.31
631.008	268.31
631.214	267.31
631.42	253.31
631.627	252.31
631.833	260.31
632.039	263.31
632.245	267.31
632.451	266.31
632.657	265.31
632.863	265.31
633.069	266.31
633.275	267.31
633.481	254.31
633.688	243.31
633.893	265.31
634.099	241.31
634.305	265.31
634.511	236.31
634.717	251.31
634.923	221.31
635.129	221.31
635.335	251.31
635.541	228.31
635.747	239.31
635.952	241.31
636.158	273.31
636.364	255.31
636.57	267.31
636.775	268.31
636.981	251.31
637.187	248.31
637.392	256.31
637.598	266.31
637.804	268.31
638.009	249.31
638.215	260.31
638.421	255.31
638.626	255.31
638.832	240.31
639.037	240.31
639.243	244.31
639.448	248.31
639.654	243.31
639.859	251.31
640.065	272.31
640.27	237.31
640.475	237.31
640.681	242.31
640.886	222.31
641.091	245.31
641.297	249.31
641.502	274.31
641.707	255.31
641.913	241.31
642.118	260.31
642.323	234.31
642.528	244.31
642.733	230.31
642.939	247.31
643.144	217.31
643.349	255.31
643.554	244.31
643.759	236.31
643.964	255.31
644.169	252.31
644.374	223.31
644.579	228.31
644.784	249.31
644.989	237.31
645.194	233.31
645.399	234.31
645.604	203.31
645.809	240.31
646.014	234.31
646.219	241.31
646.423	247.31
646.628	236.31
646.833	219.31
647.038	246.31
647.243	237.31
647.447	239.31
647.652	245.31
647.857	250.31
648.062	233.31
648.266	239.31
648.471	236.31
648.676	233.31
648.88	241.31
649.085	237.31
649.289	239.31
649.494	236.31
649.698	251.31
649.903	247.31
650.107	223.31
650.312	239.31
650.516	219.31
650.721	226.31
650.925	226.31
651.13	240.31
651.334	236.31
651.539	231.31
651.743	226.31
651.947	229.31
652.152	221.31
652.356	218.31
652.56	210.31
652.764	211.31
652.969	212.31
653.173	195.31
653.377	205.31
653.581	204.31
653.785	207.31
653.99	207.31
654.194	209.31
654.398	205.31
654.602	200.31
654.806	196.31
655.01	204.31
655.214	222.31
655.418	196.31
655.622	205.31
655.826	225.31
656.03	220.31
656.234	215.31
656.438	233.31
656.642	218.31
656.846	216.31
657.049	218.31
657.253	172.31
657.457	190.31
657.661	171.31
657.865	181.31
658.068	168.31
658.272	161.31
658.476	160.31
658.68	144.31
658.883	164.31
659.087	139.31
659.291	151.31
659.494	130.31
659.698	142.31
659.901	141.31
660.105	127.31
660.309	135.31
660.512	129.31
660.716	107.31
660.919	117.31
661.123	116.31
661.326	111.31
661.53	131.31
661.733	101.31
661.936	109.31
662.14	95.31
662.343	89.31
662.546	87.31
662.75	94.31
662.953	81.31
663.156	89.31
663.36	109.31
663.563	92.31
663.766	86.31
663.969	96.31
664.173	97.31
664.376	80.31
664.579	74.31
664.782	88.31
664.985	73.31
665.188	92.31
665.391	81.31
665.594	86.31
665.797	78.31
666	82.31
666.203	73.31
666.406	103.31
666.609	90.31
666.812	71.31
667.015	74.31
667.218	79.31
667.421	89.31
667.624	70.31
667.827	89.31
668.03	92.31
668.232	85.31
668.435	75.31
668.638	74.31
668.841	100.31
669.043	83.31
669.246	81.31
669.449	84.31
669.651	90.31
669.854	79.31
670.057	72.31
670.259	87.31
670.462	76.31
670.665	99.31
670.867	87.31
671.07	79.31
671.272	84.31
671.475	97.31
671.677	87.31
671.88	80.31
672.082	74.31
672.284	78.31
672.487	81.31
672.689	79.31
672.892	63.31
