Data from WStandard_LampEnergy10_LIBS07252019.E.O._I.C._HRD10591_15-53-59-928.txt Node
Date: Thu Jul 25 15:53:59 EDT 2019
User: cochatt
Spectrometer: HR+D1059
Trigger mode: 1
Integration Time (sec): 1.000000E-1
Scans to average: 1
Electric dark correction enabled: true
Nonlinearity correction enabled: false
Boxcar width: 0
XAxis mode: Wavelengths
Number of Pixels in Spectrum: 2048
>>>>>Begin Spectral Data<<<<<
223.165	-22.56
223.4	-22.56
223.635	-22.56
223.869	-16.56
224.104	-20.56
224.338	-18.56
224.573	-10.56
224.808	-4.56
225.042	3.44
225.277	-22.56
225.511	-14.56
225.746	3.44
225.98	1.44
226.215	7.44
226.449	25.44
226.683	31.44
226.918	28.44
227.152	29.44
227.387	34.44
227.621	48.44
227.856	40.44
228.09	50.44
228.324	62.44
228.559	45.44
228.793	78.44
229.027	134.44
229.262	136.44
229.496	131.44
229.73	147.44
229.964	155.44
230.199	172.44
230.433	163.44
230.667	165.44
230.901	176.44
231.136	163.44
231.37	173.44
231.604	171.44
231.838	167.44
232.072	182.44
232.306	175.44
232.541	184.44
232.775	185.44
233.009	199.44
233.243	207.44
233.477	187.44
233.711	191.44
233.945	200.44
234.179	207.44
234.413	206.44
234.647	206.44
234.881	195.44
235.115	194.44
235.349	192.44
235.583	219.44
235.817	183.44
236.051	189.44
236.285	200.44
236.519	217.44
236.753	232.44
236.987	207.44
237.221	220.44
237.455	232.44
237.689	241.44
237.922	217.44
238.156	215.44
238.39	218.44
238.624	232.44
238.858	240.44
239.091	253.44
239.325	255.44
239.559	279.44
239.793	279.44
240.027	289.44
240.26	289.44
240.494	242.44
240.728	226.44
240.961	247.44
241.195	242.44
241.429	260.44
241.662	254.44
241.896	245.44
242.13	265.44
242.363	241.44
242.597	260.44
242.83	269.44
243.064	258.44
243.298	285.44
243.531	283.44
243.765	291.44
243.998	271.44
244.232	257.44
244.465	269.44
244.699	258.44
244.932	268.44
245.166	296.44
245.399	277.44
245.633	270.44
245.866	287.44
246.099	296.44
246.333	269.44
246.566	291.44
246.8	322.44
247.033	342.44
247.266	318.44
247.5	326.44
247.733	323.44
247.966	350.44
248.2	350.44
248.433	344.44
248.666	352.44
248.899	397.44
249.133	424.44
249.366	453.44
249.599	408.44
249.832	381.44
250.066	360.44
250.299	352.44
250.532	348.44
250.765	305.44
250.998	331.44
251.231	338.44
251.465	349.44
251.698	341.44
251.931	340.44
252.164	335.44
252.397	366.44
252.63	386.44
252.863	330.44
253.096	329.44
253.329	339.44
253.562	338.44
253.795	366.44
254.028	343.44
254.261	329.44
254.494	353.44
254.727	353.44
254.96	348.44
255.193	375.44
255.426	395.44
255.659	449.44
255.892	467.44
256.124	383.44
256.357	371.44
256.59	416.44
256.823	399.44
257.056	411.44
257.289	475.44
257.521	482.44
257.754	463.44
257.987	453.44
258.22	473.44
258.452	458.44
258.685	395.44
258.918	383.44
259.151	369.44
259.383	383.44
259.616	367.44
259.849	358.44
260.081	403.44
260.314	437.44
260.547	457.44
260.779	456.44
261.012	446.44
261.244	394.44
261.477	384.44
261.71	406.44
261.942	408.44
262.175	406.44
262.407	430.44
262.64	374.44
262.872	373.44
263.105	342.44
263.337	387.44
263.57	384.44
263.802	368.44
264.035	342.44
264.267	341.44
264.499	348.44
264.732	354.44
264.964	404.44
265.197	424.44
265.429	424.44
265.661	445.44
265.894	500.44
266.126	483.44
266.358	466.44
266.591	471.44
266.823	494.44
267.055	462.44
267.287	437.44
267.52	454.44
267.752	449.44
267.984	461.44
268.216	448.44
268.448	461.44
268.681	463.44
268.913	415.44
269.145	413.44
269.377	403.44
269.609	444.44
269.841	512.44
270.073	595.44
270.306	626.44
270.538	604.44
270.77	536.44
271.002	482.44
271.234	470.44
271.466	497.44
271.698	518.44
271.93	603.44
272.162	590.44
272.394	532.44
272.626	520.44
272.858	459.44
273.09	424.44
273.322	419.44
273.553	403.44
273.785	413.44
274.017	425.44
274.249	439.44
274.481	441.44
274.713	420.44
274.945	407.44
275.176	417.44
275.408	444.44
275.64	401.44
275.872	412.44
276.104	418.44
276.335	497.44
276.567	527.44
276.799	539.44
277.031	482.44
277.262	475.44
277.494	497.44
277.726	518.44
277.957	491.44
278.189	463.44
278.421	443.44
278.652	421.44
278.884	444.44
279.115	430.44
279.347	446.44
279.579	429.44
279.81	423.44
280.042	463.44
280.273	534.44
280.505	513.44
280.736	493.44
280.968	435.44
281.199	427.44
281.431	412.44
281.662	428.44
281.894	424.44
282.125	435.44
282.356	470.44
282.588	462.44
282.819	459.44
283.051	504.44
283.282	497.44
283.513	497.44
283.745	439.44
283.976	430.44
284.207	437.44
284.439	425.44
284.67	424.44
284.901	445.44
285.132	471.44
285.364	445.44
285.595	447.44
285.826	460.44
286.057	437.44
286.288	471.44
286.52	459.44
286.751	488.44
286.982	503.44
287.213	457.44
287.444	427.44
287.675	453.44
287.906	456.44
288.138	491.44
288.369	483.44
288.6	429.44
288.831	428.44
289.062	440.44
289.293	442.44
289.524	452.44
289.755	472.44
289.986	479.44
290.217	441.44
290.448	430.44
290.679	464.44
290.91	467.44
291.141	477.44
291.371	489.44
291.602	486.44
291.833	449.44
292.064	480.44
292.295	475.44
292.526	495.44
292.757	492.44
292.987	491.44
293.218	489.44
293.449	532.44
293.68	594.44
293.91	622.44
294.141	568.44
294.372	521.44
294.603	552.44
294.833	556.44
295.064	546.44
295.295	490.44
295.525	485.44
295.756	475.44
295.987	438.44
296.217	434.44
296.448	444.44
296.679	465.44
296.909	457.44
297.14	465.44
297.37	464.44
297.601	503.44
297.831	517.44
298.062	525.44
298.292	500.44
298.523	470.44
298.753	460.44
298.984	463.44
299.214	461.44
299.445	486.44
299.675	495.44
299.905	483.44
300.136	479.44
300.366	471.44
300.597	467.44
300.827	475.44
301.057	495.44
301.288	505.44
301.518	517.44
301.748	520.44
301.979	552.44
302.209	547.44
302.439	581.44
302.669	588.44
302.9	543.44
303.13	514.44
303.36	509.44
303.59	525.44
303.82	503.44
304.051	531.44
304.281	522.44
304.511	556.44
304.741	571.44
304.971	614.44
305.201	611.44
305.431	557.44
305.661	472.44
305.891	464.44
306.121	471.44
306.352	488.44
306.582	517.44
306.812	532.44
307.042	555.44
307.272	579.44
307.502	601.44
307.731	619.44
307.961	639.44
308.191	578.44
308.421	525.44
308.651	494.44
308.881	494.44
309.111	502.44
309.341	495.44
309.571	499.44
309.8	479.44
310.03	489.44
310.26	474.44
310.49	492.44
310.72	519.44
310.949	515.44
311.179	527.44
311.409	519.44
311.639	506.44
311.868	496.44
312.098	501.44
312.328	508.44
312.557	506.44
312.787	522.44
313.017	537.44
313.246	537.44
313.476	517.44
313.706	528.44
313.935	540.44
314.165	564.44
314.394	559.44
314.624	587.44
314.853	608.44
315.083	631.44
315.312	640.44
315.542	567.44
315.771	522.44
316.001	544.44
316.23	567.44
316.46	545.44
316.689	544.44
316.919	539.44
317.148	513.44
317.377	537.44
317.607	571.44
317.836	649.44
318.065	648.44
318.295	596.44
318.524	603.44
318.753	545.44
318.983	564.44
319.212	559.44
319.441	571.44
319.67	542.44
319.9	572.44
320.129	590.44
320.358	596.44
320.587	616.44
320.816	622.44
321.046	606.44
321.275	582.44
321.504	590.44
321.733	621.44
321.962	600.44
322.191	555.44
322.42	559.44
322.649	567.44
322.878	553.44
323.108	556.44
323.337	576.44
323.566	542.44
323.795	587.44
324.024	576.44
324.253	548.44
324.482	561.44
324.71	549.44
324.939	536.44
325.168	549.44
325.397	592.44
325.626	573.44
325.855	568.44
326.084	579.44
326.313	564.44
326.542	579.44
326.77	583.44
326.999	589.44
327.228	555.44
327.457	521.44
327.686	541.44
327.914	545.44
328.143	563.44
328.372	557.44
328.6	550.44
328.829	541.44
329.058	561.44
329.287	558.44
329.515	546.44
329.744	602.44
329.972	607.44
330.201	639.44
330.43	603.44
330.658	595.44
330.887	588.44
331.115	585.44
331.344	599.44
331.572	578.44
331.801	571.44
332.03	610.44
332.258	594.44
332.486	587.44
332.715	602.44
332.943	566.44
333.172	586.44
333.4	605.44
333.629	610.44
333.857	656.44
334.085	745.44
334.314	839.44
334.542	837.44
334.771	778.44
334.999	678.44
335.227	651.44
335.455	655.44
335.684	630.44
335.912	655.44
336.14	673.44
336.369	652.44
336.597	628.44
336.825	616.44
337.053	609.44
337.281	670.44
337.51	688.44
337.738	684.44
337.966	671.44
338.194	606.44
338.422	595.44
338.65	625.44
338.878	594.44
339.106	571.44
339.334	565.44
339.562	551.44
339.79	591.44
340.018	619.44
340.246	626.44
340.474	633.44
340.702	627.44
340.93	600.44
341.158	598.44
341.386	601.44
341.614	589.44
341.842	590.44
342.07	613.44
342.298	610.44
342.526	590.44
342.754	589.44
342.981	616.44
343.209	625.44
343.437	561.44
343.665	594.44
343.893	615.44
344.12	639.44
344.348	624.44
344.576	596.44
344.804	594.44
345.031	595.44
345.259	584.44
345.487	568.44
345.714	567.44
345.942	559.44
346.17	544.44
346.397	577.44
346.625	569.44
346.853	545.44
347.08	557.44
347.308	551.44
347.535	585.44
347.763	592.44
347.99	539.44
348.218	545.44
348.445	552.44
348.673	575.44
348.9	591.44
349.128	610.44
349.355	599.44
349.583	577.44
349.81	568.44
350.037	521.44
350.265	544.44
350.492	527.44
350.72	532.44
350.947	570.44
351.174	583.44
351.402	553.44
351.629	530.44
351.856	528.44
352.083	517.44
352.311	525.44
352.538	542.44
352.765	586.44
352.992	571.44
353.22	548.44
353.447	546.44
353.674	573.44
353.901	566.44
354.128	545.44
354.355	558.44
354.583	618.44
354.81	589.44
355.037	590.44
355.264	561.44
355.491	565.44
355.718	589.44
355.945	545.44
356.172	545.44
356.399	535.44
356.626	591.44
356.853	606.44
357.08	640.44
357.307	685.44
357.534	655.44
357.761	571.44
357.988	567.44
358.215	549.44
358.441	522.44
358.668	528.44
358.895	577.44
359.122	632.44
359.349	653.44
359.576	610.44
359.802	565.44
360.029	559.44
360.256	562.44
360.483	573.44
360.709	587.44
360.936	600.44
361.163	633.44
361.39	668.44
361.616	709.44
361.843	696.44
362.07	622.44
362.296	584.44
362.523	556.44
362.749	566.44
362.976	576.44
363.203	592.44
363.429	574.44
363.656	543.44
363.882	584.44
364.109	649.44
364.335	663.44
364.562	640.44
364.788	593.44
365.015	553.44
365.241	558.44
365.468	587.44
365.694	593.44
365.92	597.44
366.147	578.44
366.373	539.44
366.599	553.44
366.826	575.44
367.052	543.44
367.278	563.44
367.505	603.44
367.731	620.44
367.957	621.44
368.184	648.44
368.41	663.44
368.636	663.44
368.862	677.44
369.089	669.44
369.315	648.44
369.541	633.44
369.767	596.44
369.993	573.44
370.219	581.44
370.445	621.44
370.672	653.44
370.898	671.44
371.124	633.44
371.35	664.44
371.576	663.44
371.802	645.44
372.028	626.44
372.254	630.44
372.48	607.44
372.706	588.44
372.932	596.44
373.158	607.44
373.384	638.44
373.61	661.44
373.835	671.44
374.061	643.44
374.287	620.44
374.513	627.44
374.739	616.44
374.965	653.44
375.191	629.44
375.416	647.44
375.642	670.44
375.868	694.44
376.094	694.44
376.319	691.44
376.545	640.44
376.771	675.44
376.997	695.44
377.222	676.44
377.448	669.44
377.674	658.44
377.899	675.44
378.125	736.44
378.35	668.44
378.576	639.44
378.802	624.44
379.027	614.44
379.253	633.44
379.478	645.44
379.704	636.44
379.929	651.44
380.155	632.44
380.38	651.44
380.606	637.44
380.831	664.44
381.057	707.44
381.282	699.44
381.507	673.44
381.733	720.44
381.958	727.44
382.184	699.44
382.409	695.44
382.634	681.44
382.86	695.44
383.085	683.44
383.31	708.44
383.535	787.44
383.761	787.44
383.986	766.44
384.211	744.44
384.436	729.44
384.662	783.44
384.887	787.44
385.112	752.44
385.337	731.44
385.562	751.44
385.787	729.44
386.013	769.44
386.238	755.44
386.463	773.44
386.688	816.44
386.913	860.44
387.138	823.44
387.363	765.44
387.588	778.44
387.813	776.44
388.038	775.44
388.263	821.44
388.488	747.44
388.713	728.44
388.938	720.44
389.163	735.44
389.387	765.44
389.612	765.44
389.837	757.44
390.062	757.44
390.287	752.44
390.512	746.44
390.736	748.44
390.961	728.44
391.186	709.44
391.411	750.44
391.636	755.44
391.86	761.44
392.085	746.44
392.31	742.44
392.534	770.44
392.759	744.44
392.984	762.44
393.208	763.44
393.433	805.44
393.658	847.44
393.882	813.44
394.107	780.44
394.331	749.44
394.556	750.44
394.78	774.44
395.005	808.44
395.229	846.44
395.454	845.44
395.678	850.44
395.903	834.44
396.127	797.44
396.352	806.44
396.576	847.44
396.801	855.44
397.025	851.44
397.249	840.44
397.474	807.44
397.698	816.44
397.922	858.44
398.147	882.44
398.371	912.44
398.595	917.44
398.82	866.44
399.044	905.44
399.268	923.44
399.492	975.44
399.717	966.44
399.941	966.44
400.165	967.44
400.389	956.44
400.613	988.44
400.837	1117.44
401.062	1157.44
401.286	1032.44
401.51	977.44
401.734	1005.44
401.958	925.44
402.182	900.44
402.406	867.44
402.63	902.44
402.854	886.44
403.078	885.44
403.302	886.44
403.526	920.44
403.75	903.44
403.974	941.44
404.198	941.44
404.422	959.44
404.645	1031.44
404.869	982.44
405.093	904.44
405.317	901.44
405.541	924.44
405.765	899.44
405.988	922.44
406.212	953.44
406.436	987.44
406.66	1021.44
406.883	1028.44
407.107	1111.44
407.331	1199.44
407.555	1299.44
407.778	1124.44
408.002	993.44
408.226	990.44
408.449	992.44
408.673	947.44
408.896	920.44
409.12	951.44
409.344	951.44
409.567	931.44
409.791	949.44
410.014	972.44
410.238	1033.44
410.461	1048.44
410.685	989.44
410.908	934.44
411.132	960.44
411.355	933.44
411.578	911.44
411.802	956.44
412.025	940.44
412.249	939.44
412.472	905.44
412.695	897.44
412.919	928.44
413.142	900.44
413.365	932.44
413.589	952.44
413.812	985.44
414.035	972.44
414.258	939.44
414.482	886.44
414.705	929.44
414.928	940.44
415.151	923.44
415.374	929.44
415.597	944.44
415.821	943.44
416.044	951.44
416.267	939.44
416.49	904.44
416.713	884.44
416.936	957.44
417.159	1005.44
417.382	968.44
417.605	952.44
417.828	941.44
418.051	959.44
418.274	948.44
418.497	942.44
418.72	932.44
418.943	960.44
419.166	959.44
419.389	998.44
419.611	970.44
419.834	973.44
420.057	970.44
420.28	927.44
420.503	962.44
420.726	960.44
420.948	951.44
421.171	929.44
421.394	945.44
421.617	980.44
421.839	988.44
422.062	980.44
422.285	943.44
422.507	945.44
422.73	909.44
422.953	880.44
423.175	882.44
423.398	895.44
423.621	912.44
423.843	929.44
424.066	959.44
424.288	1014.44
424.511	1051.44
424.733	992.44
424.956	928.44
425.178	945.44
425.401	942.44
425.623	944.44
425.846	945.44
426.068	968.44
426.291	974.44
426.513	948.44
426.735	988.44
426.958	1082.44
427.18	1107.44
427.402	984.44
427.625	1027.44
427.847	963.44
428.069	879.44
428.292	899.44
428.514	885.44
428.736	867.44
428.958	931.44
429.181	954.44
429.403	1085.44
429.625	1243.44
429.847	1069.44
430.069	966.44
430.292	1044.44
430.514	1045.44
430.736	989.44
430.958	965.44
431.18	921.44
431.402	866.44
431.624	838.44
431.846	805.44
432.068	740.44
432.29	751.44
432.512	811.44
432.734	910.44
432.956	905.44
433.178	998.44
433.4	943.44
433.622	964.44
433.844	879.44
434.066	830.44
434.287	783.44
434.509	781.44
434.731	803.44
434.953	899.44
435.175	916.44
435.397	903.44
435.618	865.44
435.84	839.44
436.062	836.44
436.284	892.44
436.505	925.44
436.727	954.44
436.949	909.44
437.17	918.44
437.392	932.44
437.614	861.44
437.835	801.44
438.057	828.44
438.278	845.44
438.5	858.44
438.721	898.44
438.943	939.44
439.165	927.44
439.386	936.44
439.608	954.44
439.829	935.44
440.05	919.44
440.272	970.44
440.493	939.44
440.715	969.44
440.936	1032.44
441.158	1049.44
441.379	1077.44
441.6	1046.44
441.822	1020.44
442.043	1023.44
442.264	960.44
442.486	945.44
442.707	962.44
442.928	966.44
443.149	969.44
443.371	1005.44
443.592	1045.44
443.813	1009.44
444.034	1027.44
444.255	992.44
444.476	1031.44
444.698	1039.44
444.919	1027.44
445.14	1101.44
445.361	1089.44
445.582	1055.44
445.803	1073.44
446.024	1038.44
446.245	1045.44
446.466	1057.44
446.687	1048.44
446.908	1057.44
447.129	1032.44
447.35	1039.44
447.571	1026.44
447.792	973.44
448.013	985.44
448.234	950.44
448.455	965.44
448.675	977.44
448.896	937.44
449.117	920.44
449.338	920.44
449.559	939.44
449.779	969.44
450	1008.44
450.221	1036.44
450.442	1031.44
450.662	963.44
450.883	860.44
451.104	869.44
451.324	878.44
451.545	870.44
451.766	860.44
451.986	847.44
452.207	816.44
452.428	791.44
452.648	775.44
452.869	770.44
453.089	780.44
453.31	784.44
453.53	775.44
453.751	724.44
453.971	719.44
454.192	735.44
454.412	773.44
454.633	797.44
454.853	802.44
455.073	743.44
455.294	787.44
455.514	817.44
455.734	769.44
455.955	771.44
456.175	772.44
456.395	740.44
456.616	719.44
456.836	747.44
457.056	749.44
457.276	713.44
457.497	713.44
457.717	688.44
457.937	706.44
458.157	723.44
458.377	703.44
458.598	688.44
458.818	694.44
459.038	689.44
459.258	696.44
459.478	705.44
459.698	703.44
459.918	719.44
460.138	793.44
460.358	820.44
460.578	825.44
460.798	857.44
461.018	888.44
461.238	855.44
461.458	859.44
461.678	836.44
461.898	827.44
462.118	833.44
462.338	860.44
462.558	856.44
462.777	846.44
462.997	884.44
463.217	887.44
463.437	868.44
463.657	838.44
463.876	838.44
464.096	807.44
464.316	855.44
464.536	853.44
464.755	896.44
464.975	864.44
465.195	855.44
465.414	878.44
465.634	864.44
465.854	881.44
466.073	979.44
466.293	974.44
466.512	858.44
466.732	859.44
466.951	911.44
467.171	905.44
467.391	884.44
467.61	887.44
467.829	926.44
468.049	983.44
468.268	1064.44
468.488	960.44
468.707	895.44
468.927	906.44
469.146	910.44
469.365	918.44
469.585	958.44
469.804	926.44
470.023	917.44
470.243	942.44
470.462	952.44
470.681	927.44
470.901	929.44
471.12	960.44
471.339	938.44
471.558	927.44
471.777	896.44
471.997	899.44
472.216	839.44
472.435	782.44
472.654	766.44
472.873	776.44
473.092	809.44
473.311	818.44
473.53	847.44
473.749	803.44
473.968	836.44
474.187	829.44
474.406	821.44
474.625	855.44
474.844	871.44
475.063	886.44
475.282	873.44
475.501	830.44
475.72	824.44
475.939	901.44
476.158	884.44
476.377	859.44
476.596	841.44
476.814	858.44
477.033	807.44
477.252	831.44
477.471	882.44
477.69	926.44
477.908	939.44
478.127	1011.44
478.346	1001.44
478.564	998.44
478.783	1010.44
479.002	1023.44
479.22	1019.44
479.439	1017.44
479.658	1026.44
479.876	992.44
480.095	891.44
480.313	867.44
480.532	861.44
480.751	844.44
480.969	866.44
481.188	799.44
481.406	788.44
481.624	748.44
481.843	804.44
482.061	823.44
482.28	909.44
482.498	891.44
482.717	859.44
482.935	884.44
483.153	982.44
483.372	1034.44
483.59	1034.44
483.808	987.44
484.027	939.44
484.245	987.44
484.463	1236.44
484.681	1311.44
484.9	1021.44
485.118	968.44
485.336	919.44
485.554	901.44
485.772	900.44
485.99	863.44
486.209	899.44
486.427	899.44
486.645	933.44
486.863	995.44
487.081	1038.44
487.299	993.44
487.517	1019.44
487.735	1103.44
487.953	1179.44
488.171	1203.44
488.389	1123.44
488.607	1107.44
488.825	1152.44
489.043	1060.44
489.261	1002.44
489.479	1077.44
489.696	1074.44
489.914	1042.44
490.132	1051.44
490.35	1093.44
490.568	1159.44
490.786	1196.44
491.003	1205.44
491.221	1219.44
491.439	1318.44
491.657	1301.44
491.874	1356.44
492.092	1435.44
492.31	1519.44
492.527	1462.44
492.745	1374.44
492.963	1304.44
493.18	1325.44
493.398	1345.44
493.615	1328.44
493.833	1281.44
494.05	1250.44
494.268	1263.44
494.485	1256.44
494.703	1234.44
494.92	1266.44
495.138	1216.44
495.355	1248.44
495.573	1277.44
495.79	1301.44
496.008	1268.44
496.225	1240.44
496.442	1246.44
496.66	1253.44
496.877	1218.44
497.094	1255.44
497.312	1225.44
497.529	1222.44
497.746	1183.44
497.963	1266.44
498.181	1350.44
498.398	1246.44
498.615	1215.44
498.832	1140.44
499.049	1155.44
499.267	1194.44
499.484	1287.44
499.701	1333.44
499.918	1379.44
500.135	1476.44
500.352	1597.44
500.569	1587.44
500.786	1703.44
501.003	1577.44
501.22	1473.44
501.437	1416.44
501.654	1423.44
501.871	1339.44
502.088	1207.44
502.305	1204.44
502.522	1126.44
502.739	1157.44
502.956	1076.44
503.172	1037.44
503.389	1027.44
503.606	993.44
503.823	1019.44
504.04	1010.44
504.256	1007.44
504.473	990.44
504.69	1028.44
504.907	990.44
505.123	957.44
505.34	1083.44
505.557	1373.44
505.773	1127.44
505.99	929.44
506.207	923.44
506.423	893.44
506.64	877.44
506.856	901.44
507.073	1061.44
507.289	1047.44
507.506	1009.44
507.722	895.44
507.939	862.44
508.155	845.44
508.372	853.44
508.588	816.44
508.805	791.44
509.021	783.44
509.238	765.44
509.454	771.44
509.67	759.44
509.887	736.44
510.103	723.44
510.319	731.44
510.536	753.44
510.752	778.44
510.968	760.44
511.184	792.44
511.401	768.44
511.617	696.44
511.833	724.44
512.049	687.44
512.265	707.44
512.481	721.44
512.698	749.44
512.914	761.44
513.13	745.44
513.346	711.44
513.562	718.44
513.778	713.44
513.994	738.44
514.21	736.44
514.426	768.44
514.642	834.44
514.858	772.44
515.074	741.44
515.29	711.44
515.506	731.44
515.721	729.44
515.937	732.44
516.153	806.44
516.369	767.44
516.585	741.44
516.801	716.44
517.016	775.44
517.232	744.44
517.448	772.44
517.664	799.44
517.879	814.44
518.095	819.44
518.311	800.44
518.527	767.44
518.742	752.44
518.958	736.44
519.173	770.44
519.389	781.44
519.605	805.44
519.82	794.44
520.036	792.44
520.251	757.44
520.467	774.44
520.682	806.44
520.898	801.44
521.113	737.44
521.329	722.44
521.544	774.44
521.76	730.44
521.975	722.44
522.19	721.44
522.406	751.44
522.621	953.44
522.836	861.44
523.052	726.44
523.267	741.44
523.482	733.44
523.698	728.44
523.913	740.44
524.128	797.44
524.343	820.44
524.559	834.44
524.774	793.44
524.989	768.44
525.204	763.44
525.419	748.44
525.634	756.44
525.849	740.44
526.064	733.44
526.28	716.44
526.495	665.44
526.71	613.44
526.925	650.44
527.14	635.44
527.355	634.44
527.57	643.44
527.785	644.44
527.999	658.44
528.214	675.44
528.429	718.44
528.644	739.44
528.859	791.44
529.074	821.44
529.289	903.44
529.503	870.44
529.718	806.44
529.933	720.44
530.148	660.44
530.363	647.44
530.577	649.44
530.792	641.44
531.007	623.44
531.221	610.44
531.436	632.44
531.651	633.44
531.865	656.44
532.08	660.44
532.295	646.44
532.509	626.44
532.724	619.44
532.938	651.44
533.153	728.44
533.367	723.44
533.582	753.44
533.796	758.44
534.011	704.44
534.225	653.44
534.44	632.44
534.654	654.44
534.868	641.44
535.083	710.44
535.297	704.44
535.511	710.44
535.726	692.44
535.94	673.44
536.154	648.44
536.369	620.44
536.583	619.44
536.797	612.44
537.011	641.44
537.225	626.44
537.44	605.44
537.654	625.44
537.868	624.44
538.082	601.44
538.296	597.44
538.51	635.44
538.724	672.44
538.938	709.44
539.153	755.44
539.367	726.44
539.581	705.44
539.795	667.44
540.009	641.44
540.222	658.44
540.436	653.44
540.65	767.44
540.864	800.44
541.078	819.44
541.292	842.44
541.506	893.44
541.72	967.44
541.934	1021.44
542.147	1062.44
542.361	1015.44
542.575	878.44
542.789	836.44
543.002	790.44
543.216	719.44
543.43	775.44
543.644	802.44
543.857	872.44
544.071	916.44
544.285	931.44
544.498	929.44
544.712	916.44
544.925	959.44
545.139	976.44
545.352	949.44
545.566	932.44
545.779	949.44
545.993	944.44
546.206	973.44
546.42	949.44
546.633	957.44
546.847	921.44
547.06	973.44
547.274	940.44
547.487	995.44
547.7	1015.44
547.914	968.44
548.127	966.44
548.34	932.44
548.554	925.44
548.767	916.44
548.98	936.44
549.193	942.44
549.407	957.44
549.62	959.44
549.833	933.44
550.046	916.44
550.259	928.44
550.473	903.44
550.686	889.44
550.899	851.44
551.112	843.44
551.325	815.44
551.538	842.44
551.751	878.44
551.964	716.44
552.177	741.44
552.39	814.44
552.603	855.44
552.816	879.44
553.029	913.44
553.242	905.44
553.455	921.44
553.667	919.44
553.88	892.44
554.093	857.44
554.306	854.44
554.519	844.44
554.732	844.44
554.944	842.44
555.157	807.44
555.37	805.44
555.583	789.44
555.795	766.44
556.008	747.44
556.221	742.44
556.433	713.44
556.646	724.44
556.859	752.44
557.071	750.44
557.284	725.44
557.496	765.44
557.709	754.44
557.921	741.44
558.134	718.44
558.346	717.44
558.559	722.44
558.771	701.44
558.984	696.44
559.196	688.44
559.409	685.44
559.621	679.44
559.833	676.44
560.046	701.44
560.258	672.44
560.47	647.44
560.683	696.44
560.895	672.44
561.107	681.44
561.32	662.44
561.532	661.44
561.744	673.44
561.956	699.44
562.168	689.44
562.381	632.44
562.593	681.44
562.805	639.44
563.017	608.44
563.229	628.44
563.441	641.44
563.653	637.44
563.865	624.44
564.077	607.44
564.289	604.44
564.501	628.44
564.713	619.44
564.925	628.44
565.137	716.44
565.349	619.44
565.561	633.44
565.773	608.44
565.985	637.44
566.197	669.44
566.408	688.44
566.62	659.44
566.832	678.44
567.044	688.44
567.255	671.44
567.467	662.44
567.679	653.44
567.891	639.44
568.102	610.44
568.314	579.44
568.526	551.44
568.737	521.44
568.949	483.44
569.161	468.44
569.372	446.44
569.584	454.44
569.795	462.44
570.007	434.44
570.218	469.44
570.43	451.44
570.641	445.44
570.853	464.44
571.064	485.44
571.276	504.44
571.487	481.44
571.698	464.44
571.91	448.44
572.121	449.44
572.333	463.44
572.544	443.44
572.755	411.44
572.966	401.44
573.178	381.44
573.389	375.44
573.6	377.44
573.811	418.44
574.023	408.44
574.234	388.44
574.445	395.44
574.656	388.44
574.867	390.44
575.078	397.44
575.289	417.44
575.501	390.44
575.712	385.44
575.923	389.44
576.134	404.44
576.345	412.44
576.556	399.44
576.767	404.44
576.978	378.44
577.188	373.44
577.399	392.44
577.61	375.44
577.821	368.44
578.032	384.44
578.243	396.44
578.454	371.44
578.665	350.44
578.875	345.44
579.086	330.44
579.297	342.44
579.508	338.44
579.718	353.44
579.929	352.44
580.14	336.44
580.35	355.44
580.561	335.44
580.772	369.44
580.982	373.44
581.193	358.44
581.403	369.44
581.614	350.44
581.825	340.44
582.035	344.44
582.246	341.44
582.456	354.44
582.667	350.44
582.877	353.44
583.087	335.44
583.298	332.44
583.508	321.44
583.719	321.44
583.929	312.44
584.139	309.44
584.35	309.44
584.56	309.44
584.77	335.44
584.981	303.44
585.191	319.44
585.401	347.44
585.611	343.44
585.821	323.44
586.032	306.44
586.242	311.44
586.452	292.44
586.662	315.44
586.872	323.44
587.082	310.44
587.292	302.44
587.502	315.44
587.713	306.44
587.923	319.44
588.133	322.44
588.343	301.44
588.553	317.44
588.762	315.44
588.972	311.44
589.182	334.44
589.392	324.44
589.602	312.44
589.812	310.44
590.022	312.44
590.232	301.44
590.441	319.44
590.651	314.44
590.861	326.44
591.071	315.44
591.281	298.44
591.49	307.44
591.7	296.44
591.91	303.44
592.119	315.44
592.329	320.44
592.539	334.44
592.748	325.44
592.958	310.44
593.167	327.44
593.377	307.44
593.587	316.44
593.796	318.44
594.006	320.44
594.215	323.44
594.424	327.44
594.634	321.44
594.843	340.44
595.053	328.44
595.262	328.44
595.472	324.44
595.681	310.44
595.89	320.44
596.1	313.44
596.309	316.44
596.518	313.44
596.727	344.44
596.937	334.44
597.146	313.44
597.355	317.44
597.564	326.44
597.774	280.44
597.983	285.44
598.192	280.44
598.401	271.44
598.61	302.44
598.819	291.44
599.028	311.44
599.237	301.44
599.446	290.44
599.655	291.44
599.864	289.44
600.073	285.44
600.282	284.44
600.491	293.44
600.7	284.44
600.909	297.44
601.118	313.44
601.327	336.44
601.536	349.44
601.745	361.44
601.953	334.44
602.162	362.44
602.371	333.44
602.58	355.44
602.789	353.44
602.997	348.44
603.206	356.44
603.415	342.44
603.623	339.44
603.832	335.44
604.041	327.44
604.249	328.44
604.458	293.44
604.666	301.44
604.875	305.44
605.084	322.44
605.292	315.44
605.501	363.44
605.709	353.44
605.918	359.44
606.126	366.44
606.334	355.44
606.543	356.44
606.751	380.44
606.96	378.44
607.168	365.44
607.376	338.44
607.585	341.44
607.793	348.44
608.001	361.44
608.21	352.44
608.418	358.44
608.626	364.44
608.834	343.44
609.043	375.44
609.251	354.44
609.459	351.44
609.667	373.44
609.875	375.44
610.083	378.44
610.291	369.44
610.499	359.44
610.707	344.44
610.916	372.44
611.124	363.44
611.332	335.44
611.54	368.44
611.748	365.44
611.955	353.44
612.163	367.44
612.371	340.44
612.579	350.44
612.787	373.44
612.995	375.44
613.203	350.44
613.411	339.44
613.618	329.44
613.826	344.44
614.034	367.44
614.242	356.44
614.449	359.44
614.657	348.44
614.865	348.44
615.072	354.44
615.28	360.44
615.488	376.44
615.695	371.44
615.903	340.44
616.111	341.44
616.318	372.44
616.526	361.44
616.733	363.44
616.941	341.44
617.148	361.44
617.356	342.44
617.563	351.44
617.771	335.44
617.978	312.44
618.185	308.44
618.393	340.44
618.6	339.44
618.807	341.44
619.015	344.44
619.222	343.44
619.429	330.44
619.637	303.44
619.844	293.44
620.051	301.44
620.258	317.44
620.466	318.44
620.673	340.44
620.88	292.44
621.087	305.44
621.294	311.44
621.501	299.44
621.708	301.44
621.915	319.44
622.122	325.44
622.329	311.44
622.536	324.44
622.743	310.44
622.95	292.44
623.157	305.44
623.364	323.44
623.571	332.44
623.778	322.44
623.985	329.44
624.192	319.44
624.399	308.44
624.606	303.44
624.812	311.44
625.019	309.44
625.226	298.44
625.433	294.44
625.639	290.44
625.846	236.44
626.053	231.44
626.259	239.44
626.466	248.44
626.673	251.44
626.879	226.44
627.086	223.44
627.293	264.44
627.499	290.44
627.706	271.44
627.912	299.44
628.119	305.44
628.325	281.44
628.532	286.44
628.738	295.44
628.945	297.44
629.151	275.44
629.357	279.44
629.564	294.44
629.77	269.44
629.976	276.44
630.183	272.44
630.389	273.44
630.595	270.44
630.802	292.44
631.008	279.44
631.214	271.44
631.42	265.44
631.627	265.44
631.833	254.44
632.039	252.44
632.245	256.44
632.451	280.44
632.657	271.44
632.863	271.44
633.069	252.44
633.275	267.44
633.481	232.44
633.688	255.44
633.893	249.44
634.099	249.44
634.305	259.44
634.511	236.44
634.717	248.44
634.923	224.44
635.129	232.44
635.335	223.44
635.541	239.44
635.747	239.44
635.952	251.44
636.158	251.44
636.364	264.44
636.57	259.44
636.775	259.44
636.981	266.44
637.187	262.44
637.392	254.44
637.598	254.44
637.804	273.44
638.009	261.44
638.215	237.44
638.421	242.44
638.626	246.44
638.832	243.44
639.037	244.44
639.243	257.44
639.448	232.44
639.654	235.44
639.859	235.44
640.065	255.44
640.27	242.44
640.475	240.44
640.681	231.44
640.886	237.44
641.091	235.44
641.297	266.44
641.502	244.44
641.707	253.44
641.913	261.44
642.118	249.44
642.323	254.44
642.528	257.44
642.733	231.44
642.939	249.44
643.144	252.44
643.349	241.44
643.554	234.44
643.759	240.44
643.964	241.44
644.169	243.44
644.374	242.44
644.579	232.44
644.784	219.44
644.989	257.44
645.194	255.44
645.399	235.44
645.604	222.44
645.809	223.44
646.014	248.44
646.219	235.44
646.423	230.44
646.628	231.44
646.833	249.44
647.038	227.44
647.243	240.44
647.447	231.44
647.652	228.44
647.857	228.44
648.062	237.44
648.266	230.44
648.471	226.44
648.676	263.44
648.88	230.44
649.085	214.44
649.289	232.44
649.494	243.44
649.698	242.44
649.903	227.44
650.107	229.44
650.312	236.44
650.516	227.44
650.721	223.44
650.925	215.44
651.13	232.44
651.334	231.44
651.539	215.44
651.743	214.44
651.947	199.44
652.152	204.44
652.356	199.44
652.56	194.44
652.764	217.44
652.969	215.44
653.173	197.44
653.377	190.44
653.581	212.44
653.785	209.44
653.99	205.44
654.194	195.44
654.398	209.44
654.602	194.44
654.806	204.44
655.01	209.44
655.214	202.44
655.418	201.44
655.622	211.44
655.826	197.44
656.03	208.44
656.234	215.44
656.438	233.44
656.642	225.44
656.846	220.44
657.049	224.44
657.253	186.44
657.457	180.44
657.661	175.44
657.865	166.44
658.068	151.44
658.272	153.44
658.476	151.44
658.68	159.44
658.883	145.44
659.087	142.44
659.291	147.44
659.494	151.44
659.698	125.44
659.901	132.44
660.105	125.44
660.309	121.44
660.512	124.44
660.716	113.44
660.919	107.44
661.123	98.44
661.326	107.44
661.53	110.44
661.733	96.44
661.936	117.44
662.14	93.44
662.343	91.44
662.546	107.44
662.75	95.44
662.953	98.44
663.156	95.44
663.36	84.44
663.563	86.44
663.766	99.44
663.969	98.44
664.173	85.44
664.376	97.44
664.579	89.44
664.782	95.44
664.985	87.44
665.188	68.44
665.391	90.44
665.594	68.44
665.797	82.44
666	62.44
666.203	85.44
666.406	85.44
666.609	78.44
666.812	76.44
667.015	74.44
667.218	62.44
667.421	65.44
667.624	80.44
667.827	74.44
668.03	66.44
668.232	71.44
668.435	81.44
668.638	71.44
668.841	88.44
669.043	87.44
669.246	76.44
669.449	86.44
669.651	78.44
669.854	81.44
670.057	73.44
670.259	83.44
670.462	80.44
670.665	62.44
670.867	78.44
671.07	81.44
671.272	80.44
671.475	93.44
671.677	73.44
671.88	92.44
672.082	79.44
672.284	80.44
672.487	70.44
672.689	79.44
672.892	80.44
