Data from WStandard_LampEnergy8_LIBS07252019.E.O._I.C._HRD10591_15-58-34-929.txt Node
Date: Thu Jul 25 15:58:34 EDT 2019
User: cochatt
Spectrometer: HR+D1059
Trigger mode: 1
Integration Time (sec): 1.000000E-1
Scans to average: 1
Electric dark correction enabled: true
Nonlinearity correction enabled: false
Boxcar width: 0
XAxis mode: Wavelengths
Number of Pixels in Spectrum: 2048
>>>>>Begin Spectral Data<<<<<
223.165	-16.25
223.4	-16.25
223.635	-16.25
223.869	-10.25
224.104	-15.25
224.338	-24.25
224.573	-11.25
224.808	-19.25
225.042	-14.25
225.277	-10.25
225.511	-2.25
225.746	12.75
225.98	11.75
226.215	12.75
226.449	16.75
226.683	21.75
226.918	9.75
227.152	37.75
227.387	29.75
227.621	44.75
227.856	42.75
228.09	51.75
228.324	44.75
228.559	62.75
228.793	90.75
229.027	208.75
229.262	193.75
229.496	198.75
229.73	216.75
229.964	240.75
230.199	258.75
230.433	259.75
230.667	281.75
230.901	280.75
231.136	268.75
231.37	261.75
231.604	269.75
231.838	271.75
232.072	272.75
232.306	260.75
232.541	272.75
232.775	312.75
233.009	340.75
233.243	326.75
233.477	294.75
233.711	291.75
233.945	325.75
234.179	308.75
234.413	312.75
234.647	359.75
234.881	302.75
235.115	282.75
235.349	296.75
235.583	297.75
235.817	304.75
236.051	283.75
236.285	284.75
236.519	327.75
236.753	363.75
236.987	354.75
237.221	373.75
237.455	384.75
237.689	372.75
237.922	372.75
238.156	350.75
238.39	348.75
238.624	366.75
238.858	390.75
239.091	425.75
239.325	418.75
239.559	462.75
239.793	490.75
240.027	518.75
240.26	474.75
240.494	428.75
240.728	385.75
240.961	376.75
241.195	396.75
241.429	418.75
241.662	430.75
241.896	388.75
242.13	388.75
242.363	439.75
242.597	478.75
242.83	441.75
243.064	463.75
243.298	466.75
243.531	471.75
243.765	483.75
243.998	470.75
244.232	407.75
244.465	424.75
244.699	400.75
244.932	456.75
245.166	536.75
245.399	500.75
245.633	474.75
245.866	471.75
246.099	479.75
246.333	490.75
246.566	487.75
246.8	537.75
247.033	580.75
247.266	538.75
247.5	505.75
247.733	533.75
247.966	567.75
248.2	620.75
248.433	603.75
248.666	620.75
248.899	681.75
249.133	758.75
249.366	794.75
249.599	683.75
249.832	615.75
250.066	636.75
250.299	617.75
250.532	598.75
250.765	537.75
250.998	556.75
251.231	604.75
251.465	587.75
251.698	578.75
251.931	583.75
252.164	598.75
252.397	616.75
252.63	634.75
252.863	544.75
253.096	523.75
253.329	591.75
253.562	579.75
253.795	627.75
254.028	599.75
254.261	587.75
254.494	596.75
254.727	560.75
254.96	581.75
255.193	662.75
255.426	716.75
255.659	776.75
255.892	799.75
256.124	652.75
256.357	681.75
256.59	711.75
256.823	705.75
257.056	715.75
257.289	841.75
257.521	886.75
257.754	788.75
257.987	790.75
258.22	860.75
258.452	805.75
258.685	694.75
258.918	674.75
259.151	645.75
259.383	640.75
259.616	578.75
259.849	608.75
260.081	692.75
260.314	764.75
260.547	829.75
260.779	842.75
261.012	769.75
261.244	692.75
261.477	675.75
261.71	707.75
261.942	697.75
262.175	674.75
262.407	704.75
262.64	674.75
262.872	657.75
263.105	643.75
263.337	650.75
263.57	628.75
263.802	649.75
264.035	592.75
264.267	573.75
264.499	562.75
264.732	612.75
264.964	656.75
265.197	681.75
265.429	686.75
265.661	793.75
265.894	861.75
266.126	852.75
266.358	768.75
266.591	826.75
266.823	882.75
267.055	782.75
267.287	766.75
267.52	731.75
267.752	750.75
267.984	799.75
268.216	808.75
268.448	822.75
268.681	777.75
268.913	727.75
269.145	707.75
269.377	686.75
269.609	772.75
269.841	890.75
270.073	1011.75
270.306	1068.75
270.538	1129.75
270.77	974.75
271.002	835.75
271.234	817.75
271.466	832.75
271.698	919.75
271.93	1076.75
272.162	1045.75
272.394	956.75
272.626	892.75
272.858	815.75
273.09	718.75
273.322	693.75
273.553	668.75
273.785	702.75
274.017	706.75
274.249	775.75
274.481	770.75
274.713	724.75
274.945	706.75
275.176	699.75
275.408	695.75
275.64	686.75
275.872	690.75
276.104	748.75
276.335	831.75
276.567	915.75
276.799	907.75
277.031	841.75
277.262	822.75
277.494	858.75
277.726	902.75
277.957	882.75
278.189	848.75
278.421	782.75
278.652	743.75
278.884	747.75
279.115	757.75
279.347	766.75
279.579	723.75
279.81	796.75
280.042	827.75
280.273	883.75
280.505	872.75
280.736	869.75
280.968	832.75
281.199	731.75
281.431	743.75
281.662	714.75
281.894	730.75
282.125	756.75
282.356	786.75
282.588	803.75
282.819	791.75
283.051	863.75
283.282	903.75
283.513	858.75
283.745	747.75
283.976	737.75
284.207	731.75
284.439	765.75
284.67	758.75
284.901	774.75
285.132	814.75
285.364	768.75
285.595	786.75
285.826	756.75
286.057	803.75
286.288	763.75
286.52	819.75
286.751	880.75
286.982	881.75
287.213	812.75
287.444	720.75
287.675	748.75
287.906	819.75
288.138	828.75
288.369	827.75
288.6	765.75
288.831	730.75
289.062	758.75
289.293	762.75
289.524	778.75
289.755	791.75
289.986	771.75
290.217	737.75
290.448	761.75
290.679	794.75
290.91	802.75
291.141	808.75
291.371	819.75
291.602	816.75
291.833	834.75
292.064	884.75
292.295	815.75
292.526	856.75
292.757	870.75
292.987	819.75
293.218	850.75
293.449	886.75
293.68	982.75
293.91	1015.75
294.141	952.75
294.372	944.75
294.603	938.75
294.833	969.75
295.064	906.75
295.295	834.75
295.525	805.75
295.756	787.75
295.987	743.75
296.217	782.75
296.448	783.75
296.679	775.75
296.909	747.75
297.14	799.75
297.37	798.75
297.601	847.75
297.831	868.75
298.062	853.75
298.292	809.75
298.523	776.75
298.753	810.75
298.984	805.75
299.214	815.75
299.445	838.75
299.675	845.75
299.905	854.75
300.136	809.75
300.366	794.75
300.597	776.75
300.827	794.75
301.057	820.75
301.288	863.75
301.518	851.75
301.748	866.75
301.979	930.75
302.209	954.75
302.439	979.75
302.669	990.75
302.9	918.75
303.13	870.75
303.36	873.75
303.59	883.75
303.82	862.75
304.051	870.75
304.281	860.75
304.511	886.75
304.741	958.75
304.971	1028.75
305.201	1051.75
305.431	948.75
305.661	817.75
305.891	763.75
306.121	768.75
306.352	807.75
306.582	857.75
306.812	916.75
307.042	955.75
307.272	966.75
307.502	986.75
307.731	1072.75
307.961	1103.75
308.191	1002.75
308.421	881.75
308.651	866.75
308.881	833.75
309.111	853.75
309.341	820.75
309.571	835.75
309.8	851.75
310.03	835.75
310.26	809.75
310.49	820.75
310.72	852.75
310.949	874.75
311.179	894.75
311.409	859.75
311.639	834.75
311.868	856.75
312.098	847.75
312.328	846.75
312.557	849.75
312.787	888.75
313.017	870.75
313.246	865.75
313.476	874.75
313.706	891.75
313.935	916.75
314.165	906.75
314.394	928.75
314.624	986.75
314.853	1034.75
315.083	1062.75
315.312	1055.75
315.542	990.75
315.771	905.75
316.001	927.75
316.23	988.75
316.46	976.75
316.689	942.75
316.919	875.75
317.148	874.75
317.377	880.75
317.607	970.75
317.836	1050.75
318.065	1074.75
318.295	1030.75
318.524	1002.75
318.753	992.75
318.983	948.75
319.212	916.75
319.441	940.75
319.67	902.75
319.9	973.75
320.129	1013.75
320.358	1055.75
320.587	1072.75
320.816	1027.75
321.046	1026.75
321.275	978.75
321.504	993.75
321.733	1038.75
321.962	1024.75
322.191	949.75
322.42	948.75
322.649	892.75
322.878	931.75
323.108	930.75
323.337	972.75
323.566	994.75
323.795	968.75
324.024	972.75
324.253	947.75
324.482	950.75
324.71	895.75
324.939	901.75
325.168	907.75
325.397	941.75
325.626	972.75
325.855	1004.75
326.084	947.75
326.313	916.75
326.542	950.75
326.77	990.75
326.999	956.75
327.228	936.75
327.457	880.75
327.686	874.75
327.914	926.75
328.143	947.75
328.372	953.75
328.6	912.75
328.829	914.75
329.058	907.75
329.287	942.75
329.515	943.75
329.744	975.75
329.972	1022.75
330.201	1054.75
330.43	1014.75
330.658	1013.75
330.887	989.75
331.115	993.75
331.344	992.75
331.572	980.75
331.801	986.75
332.03	978.75
332.258	1001.75
332.486	1026.75
332.715	1030.75
332.943	1009.75
333.172	1012.75
333.4	995.75
333.629	1033.75
333.857	1130.75
334.085	1234.75
334.314	1386.75
334.542	1451.75
334.771	1300.75
334.999	1174.75
335.227	1119.75
335.455	1061.75
335.684	1083.75
335.912	1100.75
336.14	1115.75
336.369	1056.75
336.597	1022.75
336.825	998.75
337.053	1056.75
337.281	1126.75
337.51	1152.75
337.738	1216.75
337.966	1156.75
338.194	1049.75
338.422	993.75
338.65	974.75
338.878	972.75
339.106	942.75
339.334	942.75
339.562	934.75
339.79	958.75
340.018	1026.75
340.246	1101.75
340.474	1058.75
340.702	1042.75
340.93	1053.75
341.158	1045.75
341.386	1001.75
341.614	1008.75
341.842	999.75
342.07	1000.75
342.298	1010.75
342.526	1012.75
342.754	983.75
342.981	972.75
343.209	948.75
343.437	966.75
343.665	985.75
343.893	1017.75
344.12	1049.75
344.348	1058.75
344.576	1008.75
344.804	985.75
345.031	980.75
345.259	1001.75
345.487	963.75
345.714	929.75
345.942	923.75
346.17	933.75
346.397	938.75
346.625	922.75
346.853	897.75
347.08	889.75
347.308	891.75
347.535	924.75
347.763	970.75
347.99	915.75
348.218	900.75
348.445	912.75
348.673	937.75
348.9	972.75
349.128	994.75
349.355	1000.75
349.583	979.75
349.81	926.75
350.037	879.75
350.265	866.75
350.492	891.75
350.72	908.75
350.947	948.75
351.174	971.75
351.402	937.75
351.629	891.75
351.856	863.75
352.083	860.75
352.311	892.75
352.538	902.75
352.765	932.75
352.992	982.75
353.22	913.75
353.447	923.75
353.674	912.75
353.901	890.75
354.128	900.75
354.355	930.75
354.583	931.75
354.81	979.75
355.037	968.75
355.264	948.75
355.491	930.75
355.718	939.75
355.945	940.75
356.172	899.75
356.399	900.75
356.626	887.75
356.853	954.75
357.08	1070.75
357.307	1126.75
357.534	1093.75
357.761	967.75
357.988	886.75
358.215	894.75
358.441	908.75
358.668	894.75
358.895	900.75
359.122	1007.75
359.349	1046.75
359.576	1029.75
359.802	953.75
360.029	879.75
360.256	884.75
360.483	917.75
360.709	960.75
360.936	978.75
361.163	1060.75
361.39	1101.75
361.616	1152.75
361.843	1154.75
362.07	1084.75
362.296	937.75
362.523	894.75
362.749	902.75
362.976	950.75
363.203	961.75
363.429	912.75
363.656	888.75
363.882	952.75
364.109	1075.75
364.335	1114.75
364.562	1038.75
364.788	990.75
365.015	939.75
365.241	925.75
365.468	943.75
365.694	1015.75
365.92	987.75
366.147	970.75
366.373	918.75
366.599	895.75
366.826	860.75
367.052	900.75
367.278	925.75
367.505	921.75
367.731	946.75
367.957	958.75
368.184	1028.75
368.41	1054.75
368.636	1062.75
368.862	1072.75
369.089	1076.75
369.315	1024.75
369.541	991.75
369.767	960.75
369.993	949.75
370.219	931.75
370.445	1001.75
370.672	1049.75
370.898	1060.75
371.124	1065.75
371.35	1011.75
371.576	1056.75
371.802	1052.75
372.028	1020.75
372.254	946.75
372.48	930.75
372.706	933.75
372.932	963.75
373.158	962.75
373.384	992.75
373.61	1015.75
373.835	1038.75
374.061	985.75
374.287	977.75
374.513	995.75
374.739	981.75
374.965	1017.75
375.191	1008.75
375.416	1025.75
375.642	1024.75
375.868	1097.75
376.094	1118.75
376.319	1041.75
376.545	1004.75
376.771	1038.75
376.997	1108.75
377.222	1051.75
377.448	1028.75
377.674	1061.75
377.899	1072.75
378.125	1134.75
378.35	1089.75
378.576	954.75
378.802	962.75
379.027	963.75
379.253	947.75
379.478	995.75
379.704	1016.75
379.929	971.75
380.155	1016.75
380.38	988.75
380.606	1008.75
380.831	1010.75
381.057	1116.75
381.282	1066.75
381.507	1059.75
381.733	1130.75
381.958	1171.75
382.184	1086.75
382.409	1032.75
382.634	1068.75
382.86	1054.75
383.085	1056.75
383.31	1101.75
383.535	1159.75
383.761	1225.75
383.986	1144.75
384.211	1134.75
384.436	1107.75
384.662	1200.75
384.887	1221.75
385.112	1142.75
385.337	1151.75
385.562	1136.75
385.787	1155.75
386.013	1168.75
386.238	1158.75
386.463	1170.75
386.688	1276.75
386.913	1354.75
387.138	1257.75
387.363	1195.75
387.588	1146.75
387.813	1151.75
388.038	1211.75
388.263	1226.75
388.488	1158.75
388.713	1095.75
388.938	1092.75
389.163	1100.75
389.387	1116.75
389.612	1118.75
389.837	1165.75
390.062	1148.75
390.287	1135.75
390.512	1107.75
390.736	1109.75
390.961	1069.75
391.186	1090.75
391.411	1148.75
391.636	1130.75
391.86	1144.75
392.085	1172.75
392.31	1091.75
392.534	1166.75
392.759	1151.75
392.984	1136.75
393.208	1173.75
393.433	1182.75
393.658	1229.75
393.882	1212.75
394.107	1135.75
394.331	1128.75
394.556	1144.75
394.78	1160.75
395.005	1220.75
395.229	1250.75
395.454	1315.75
395.678	1310.75
395.903	1248.75
396.127	1215.75
396.352	1232.75
396.576	1259.75
396.801	1287.75
397.025	1265.75
397.249	1273.75
397.474	1234.75
397.698	1238.75
397.922	1296.75
398.147	1334.75
398.371	1345.75
398.595	1378.75
398.82	1332.75
399.044	1330.75
399.268	1402.75
399.492	1461.75
399.717	1514.75
399.941	1509.75
400.165	1492.75
400.389	1462.75
400.613	1454.75
400.837	1657.75
401.062	1815.75
401.286	1545.75
401.51	1460.75
401.734	1499.75
401.958	1443.75
402.182	1347.75
402.406	1295.75
402.63	1285.75
402.854	1290.75
403.078	1304.75
403.302	1340.75
403.526	1337.75
403.75	1363.75
403.974	1372.75
404.198	1350.75
404.422	1432.75
404.645	1520.75
404.869	1464.75
405.093	1319.75
405.317	1306.75
405.541	1355.75
405.765	1395.75
405.988	1341.75
406.212	1378.75
406.436	1408.75
406.66	1459.75
406.883	1526.75
407.107	1697.75
407.331	1812.75
407.555	1944.75
407.778	1698.75
408.002	1469.75
408.226	1434.75
408.449	1426.75
408.673	1394.75
408.896	1414.75
409.12	1425.75
409.344	1399.75
409.567	1322.75
409.791	1390.75
410.014	1394.75
410.238	1464.75
410.461	1575.75
410.685	1400.75
410.908	1362.75
411.132	1353.75
411.355	1330.75
411.578	1353.75
411.802	1363.75
412.025	1383.75
412.249	1342.75
412.472	1299.75
412.695	1282.75
412.919	1322.75
413.142	1310.75
413.365	1281.75
413.589	1356.75
413.812	1426.75
414.035	1468.75
414.258	1339.75
414.482	1303.75
414.705	1329.75
414.928	1351.75
415.151	1318.75
415.374	1314.75
415.597	1330.75
415.821	1383.75
416.044	1362.75
416.267	1376.75
416.49	1274.75
416.713	1274.75
416.936	1307.75
417.159	1391.75
417.382	1396.75
417.605	1304.75
417.828	1348.75
418.051	1355.75
418.274	1294.75
418.497	1269.75
418.72	1309.75
418.943	1281.75
419.166	1327.75
419.389	1379.75
419.611	1318.75
419.834	1334.75
420.057	1335.75
420.28	1292.75
420.503	1309.75
420.726	1328.75
420.948	1309.75
421.171	1282.75
421.394	1319.75
421.617	1356.75
421.839	1340.75
422.062	1336.75
422.285	1271.75
422.507	1252.75
422.73	1250.75
422.953	1232.75
423.175	1257.75
423.398	1292.75
423.621	1255.75
423.843	1281.75
424.066	1342.75
424.288	1388.75
424.511	1424.75
424.733	1378.75
424.956	1258.75
425.178	1227.75
425.401	1283.75
425.623	1279.75
425.846	1277.75
426.068	1336.75
426.291	1347.75
426.513	1340.75
426.735	1342.75
426.958	1454.75
427.18	1524.75
427.402	1431.75
427.625	1433.75
427.847	1393.75
428.069	1298.75
428.292	1233.75
428.514	1221.75
428.736	1237.75
428.958	1282.75
429.181	1312.75
429.403	1504.75
429.625	1747.75
429.847	1497.75
430.069	1335.75
430.292	1456.75
430.514	1447.75
430.736	1379.75
430.958	1395.75
431.18	1340.75
431.402	1238.75
431.624	1226.75
431.846	1245.75
432.068	1138.75
432.29	1137.75
432.512	1210.75
432.734	1239.75
432.956	1282.75
433.178	1323.75
433.4	1320.75
433.622	1282.75
433.844	1263.75
434.066	1207.75
434.287	1204.75
434.509	1223.75
434.731	1270.75
434.953	1385.75
435.175	1361.75
435.397	1315.75
435.618	1249.75
435.84	1283.75
436.062	1220.75
436.284	1288.75
436.505	1316.75
436.727	1326.75
436.949	1258.75
437.17	1265.75
437.392	1277.75
437.614	1238.75
437.835	1185.75
438.057	1241.75
438.278	1254.75
438.5	1231.75
438.721	1225.75
438.943	1228.75
439.165	1264.75
439.386	1212.75
439.608	1238.75
439.829	1248.75
440.05	1260.75
440.272	1260.75
440.493	1274.75
440.715	1285.75
440.936	1359.75
441.158	1435.75
441.379	1410.75
441.6	1384.75
441.822	1402.75
442.043	1377.75
442.264	1338.75
442.486	1267.75
442.707	1311.75
442.928	1263.75
443.149	1330.75
443.371	1360.75
443.592	1397.75
443.813	1392.75
444.034	1367.75
444.255	1404.75
444.476	1420.75
444.698	1439.75
444.919	1398.75
445.14	1466.75
445.361	1491.75
445.582	1492.75
445.803	1459.75
446.024	1369.75
446.245	1394.75
446.466	1420.75
446.687	1336.75
446.908	1381.75
447.129	1328.75
447.35	1354.75
447.571	1302.75
447.792	1261.75
448.013	1241.75
448.234	1258.75
448.455	1319.75
448.675	1331.75
448.896	1232.75
449.117	1233.75
449.338	1240.75
449.559	1306.75
449.779	1336.75
450	1434.75
450.221	1526.75
450.442	1440.75
450.662	1287.75
450.883	1202.75
451.104	1158.75
451.324	1226.75
451.545	1228.75
451.766	1192.75
451.986	1162.75
452.207	1127.75
452.428	1112.75
452.648	1095.75
452.869	1104.75
453.089	1131.75
453.31	1163.75
453.53	1178.75
453.751	1116.75
453.971	1068.75
454.192	1108.75
454.412	1164.75
454.633	1177.75
454.853	1139.75
455.073	1030.75
455.294	1066.75
455.514	1081.75
455.734	1097.75
455.955	1079.75
456.175	1106.75
456.395	1082.75
456.616	1093.75
456.836	1132.75
457.056	1109.75
457.276	1105.75
457.497	1046.75
457.717	1025.75
457.937	1042.75
458.157	1089.75
458.377	1038.75
458.598	1026.75
458.818	1037.75
459.038	1134.75
459.258	1156.75
459.478	1172.75
459.698	1144.75
459.918	1171.75
460.138	1217.75
460.358	1271.75
460.578	1254.75
460.798	1292.75
461.018	1361.75
461.238	1337.75
461.458	1297.75
461.678	1282.75
461.898	1236.75
462.118	1231.75
462.338	1288.75
462.558	1251.75
462.777	1268.75
462.997	1334.75
463.217	1332.75
463.437	1365.75
463.657	1278.75
463.876	1286.75
464.096	1251.75
464.316	1294.75
464.536	1337.75
464.755	1321.75
464.975	1303.75
465.195	1291.75
465.414	1339.75
465.634	1289.75
465.854	1305.75
466.073	1426.75
466.293	1369.75
466.512	1193.75
466.732	1210.75
466.951	1255.75
467.171	1248.75
467.391	1216.75
467.61	1200.75
467.829	1226.75
468.049	1363.75
468.268	1414.75
468.488	1355.75
468.707	1256.75
468.927	1289.75
469.146	1255.75
469.365	1222.75
469.585	1265.75
469.804	1214.75
470.023	1234.75
470.243	1259.75
470.462	1248.75
470.681	1251.75
470.901	1257.75
471.12	1227.75
471.339	1227.75
471.558	1214.75
471.777	1183.75
471.997	1215.75
472.216	1192.75
472.435	1124.75
472.654	1142.75
472.873	1195.75
473.092	1239.75
473.311	1176.75
473.53	1154.75
473.749	1130.75
473.968	1180.75
474.187	1224.75
474.406	1249.75
474.625	1204.75
474.844	1234.75
475.063	1227.75
475.282	1227.75
475.501	1215.75
475.72	1219.75
475.939	1295.75
476.158	1224.75
476.377	1227.75
476.596	1216.75
476.814	1251.75
477.033	1241.75
477.252	1291.75
477.471	1319.75
477.69	1284.75
477.908	1282.75
478.127	1351.75
478.346	1406.75
478.564	1430.75
478.783	1425.75
479.002	1474.75
479.22	1427.75
479.439	1493.75
479.658	1546.75
479.876	1516.75
480.095	1385.75
480.313	1379.75
480.532	1282.75
480.751	1308.75
480.969	1332.75
481.188	1271.75
481.406	1236.75
481.624	1233.75
481.843	1297.75
482.061	1299.75
482.28	1336.75
482.498	1366.75
482.717	1324.75
482.935	1328.75
483.153	1348.75
483.372	1406.75
483.59	1396.75
483.808	1392.75
484.027	1371.75
484.245	1493.75
484.463	1746.75
484.681	1879.75
484.9	1521.75
485.118	1387.75
485.336	1342.75
485.554	1378.75
485.772	1414.75
485.99	1394.75
486.209	1376.75
486.427	1418.75
486.645	1414.75
486.863	1447.75
487.081	1466.75
487.299	1452.75
487.517	1479.75
487.735	1472.75
487.953	1500.75
488.171	1518.75
488.389	1444.75
488.607	1430.75
488.825	1601.75
489.043	1548.75
489.261	1390.75
489.479	1489.75
489.696	1503.75
489.914	1460.75
490.132	1451.75
490.35	1467.75
490.568	1579.75
490.786	1524.75
491.003	1503.75
491.221	1548.75
491.439	1602.75
491.657	1593.75
491.874	1624.75
492.092	1679.75
492.31	1715.75
492.527	1656.75
492.745	1646.75
492.963	1635.75
493.18	1627.75
493.398	1722.75
493.615	1707.75
493.833	1612.75
494.05	1547.75
494.268	1560.75
494.485	1592.75
494.703	1561.75
494.92	1552.75
495.138	1543.75
495.355	1574.75
495.573	1587.75
495.79	1702.75
496.008	1684.75
496.225	1642.75
496.442	1629.75
496.66	1628.75
496.877	1614.75
497.094	1658.75
497.312	1610.75
497.529	1629.75
497.746	1651.75
497.963	1870.75
498.181	1992.75
498.398	1937.75
498.615	1862.75
498.832	1816.75
499.049	1806.75
499.267	1780.75
499.484	1912.75
499.701	2065.75
499.918	2097.75
500.135	2211.75
500.352	2371.75
500.569	2350.75
500.786	2577.75
501.003	2334.75
501.22	2098.75
501.437	2051.75
501.654	2122.75
501.871	2036.75
502.088	1814.75
502.305	1810.75
502.522	1730.75
502.739	1628.75
502.956	1597.75
503.172	1602.75
503.389	1524.75
503.606	1506.75
503.823	1483.75
504.04	1511.75
504.256	1501.75
504.473	1507.75
504.69	1563.75
504.907	1462.75
505.123	1417.75
505.34	1573.75
505.557	2048.75
505.773	1692.75
505.99	1425.75
506.207	1327.75
506.423	1300.75
506.64	1316.75
506.856	1339.75
507.073	1505.75
507.289	1637.75
507.506	1551.75
507.722	1310.75
507.939	1249.75
508.155	1249.75
508.372	1262.75
508.588	1189.75
508.805	1196.75
509.021	1168.75
509.238	1142.75
509.454	1158.75
509.67	1149.75
509.887	1142.75
510.103	1142.75
510.319	1145.75
510.536	1203.75
510.752	1246.75
510.968	1220.75
511.184	1293.75
511.401	1254.75
511.617	1151.75
511.833	1105.75
512.049	1106.75
512.265	1091.75
512.481	1102.75
512.698	1169.75
512.914	1248.75
513.13	1166.75
513.346	1142.75
513.562	1093.75
513.778	1107.75
513.994	1148.75
514.21	1191.75
514.426	1202.75
514.642	1312.75
514.858	1246.75
515.074	1154.75
515.29	1107.75
515.506	1191.75
515.721	1180.75
515.937	1169.75
516.153	1318.75
516.369	1224.75
516.585	1221.75
516.801	1151.75
517.016	1174.75
517.232	1203.75
517.448	1240.75
517.664	1219.75
517.879	1226.75
518.095	1288.75
518.311	1226.75
518.527	1198.75
518.742	1163.75
518.958	1158.75
519.173	1137.75
519.389	1201.75
519.605	1184.75
519.82	1181.75
520.036	1195.75
520.251	1183.75
520.467	1181.75
520.682	1256.75
520.898	1288.75
521.113	1134.75
521.329	1106.75
521.544	1197.75
521.76	1142.75
521.975	1091.75
522.19	1088.75
522.406	1129.75
522.621	1443.75
522.836	1338.75
523.052	1108.75
523.267	1123.75
523.482	1131.75
523.698	1074.75
523.913	1074.75
524.128	1090.75
524.343	1160.75
524.559	1168.75
524.774	1115.75
524.989	1102.75
525.204	1071.75
525.419	1039.75
525.634	1083.75
525.849	1052.75
526.064	1070.75
526.28	1096.75
526.495	1034.75
526.71	1011.75
526.925	1003.75
527.14	997.75
527.355	973.75
527.57	989.75
527.785	1059.75
527.999	996.75
528.214	970.75
528.429	987.75
528.644	1057.75
528.859	1049.75
529.074	1107.75
529.289	1123.75
529.503	1119.75
529.718	1104.75
529.933	1047.75
530.148	979.75
530.363	983.75
530.577	971.75
530.792	974.75
531.007	974.75
531.221	980.75
531.436	998.75
531.651	1011.75
531.865	1054.75
532.08	1027.75
532.295	972.75
532.509	918.75
532.724	965.75
532.938	1004.75
533.153	1065.75
533.367	1050.75
533.582	1066.75
533.796	1017.75
534.011	1025.75
534.225	988.75
534.44	972.75
534.654	983.75
534.868	979.75
535.083	998.75
535.297	1054.75
535.511	991.75
535.726	998.75
535.94	1016.75
536.154	1001.75
536.369	951.75
536.583	954.75
536.797	917.75
537.011	947.75
537.225	932.75
537.44	931.75
537.654	995.75
537.868	952.75
538.082	904.75
538.296	870.75
538.51	923.75
538.724	963.75
538.938	948.75
539.153	1006.75
539.367	998.75
539.581	965.75
539.795	961.75
540.009	958.75
540.222	951.75
540.436	962.75
540.65	1076.75
540.864	1089.75
541.078	1085.75
541.292	1038.75
541.506	1082.75
541.72	1102.75
541.934	1163.75
542.147	1170.75
542.361	1148.75
542.575	1086.75
542.789	1022.75
543.002	983.75
543.216	979.75
543.43	1039.75
543.644	1035.75
543.857	1125.75
544.071	1107.75
544.285	1087.75
544.498	1078.75
544.712	1117.75
544.925	1114.75
545.139	1130.75
545.352	1095.75
545.566	1067.75
545.779	1064.75
545.993	1067.75
546.206	1093.75
546.42	1070.75
546.633	1067.75
546.847	1066.75
547.06	1063.75
547.274	1077.75
547.487	1108.75
547.7	1079.75
547.914	1081.75
548.127	1121.75
548.34	1086.75
548.554	1056.75
548.767	1064.75
548.98	1089.75
549.193	1066.75
549.407	1121.75
549.62	1120.75
549.833	1056.75
550.046	1071.75
550.259	1051.75
550.473	1054.75
550.686	1016.75
550.899	1012.75
551.112	982.75
551.325	974.75
551.538	1054.75
551.751	1149.75
551.964	936.75
552.177	947.75
552.39	953.75
552.603	1013.75
552.816	1014.75
553.029	1078.75
553.242	1103.75
553.455	1046.75
553.667	1062.75
553.88	1055.75
554.093	1040.75
554.306	999.75
554.519	966.75
554.732	933.75
554.944	966.75
555.157	976.75
555.37	940.75
555.583	978.75
555.795	932.75
556.008	904.75
556.221	882.75
556.433	882.75
556.646	888.75
556.859	867.75
557.071	867.75
557.284	866.75
557.496	885.75
557.709	880.75
557.921	858.75
558.134	902.75
558.346	864.75
558.559	871.75
558.771	854.75
558.984	844.75
559.196	799.75
559.409	843.75
559.621	807.75
559.833	828.75
560.046	870.75
560.258	828.75
560.47	835.75
560.683	844.75
560.895	817.75
561.107	801.75
561.32	831.75
561.532	816.75
561.744	798.75
561.956	816.75
562.168	802.75
562.381	803.75
562.593	782.75
562.805	800.75
563.017	799.75
563.229	796.75
563.441	824.75
563.653	793.75
563.865	794.75
564.077	776.75
564.289	767.75
564.501	792.75
564.713	822.75
564.925	847.75
565.137	900.75
565.349	816.75
565.561	826.75
565.773	839.75
565.985	802.75
566.197	846.75
566.408	882.75
566.62	884.75
566.832	896.75
567.044	910.75
567.255	932.75
567.467	900.75
567.679	948.75
567.891	941.75
568.102	927.75
568.314	852.75
568.526	826.75
568.737	761.75
568.949	771.75
569.161	706.75
569.372	691.75
569.584	704.75
569.795	690.75
570.007	683.75
570.218	645.75
570.43	651.75
570.641	662.75
570.853	644.75
571.064	656.75
571.276	660.75
571.487	664.75
571.698	644.75
571.91	634.75
572.121	656.75
572.333	618.75
572.544	619.75
572.755	591.75
572.966	571.75
573.178	560.75
573.389	575.75
573.6	611.75
573.811	649.75
574.023	616.75
574.234	583.75
574.445	583.75
574.656	541.75
574.867	568.75
575.078	562.75
575.289	590.75
575.501	558.75
575.712	558.75
575.923	582.75
576.134	583.75
576.345	558.75
576.556	558.75
576.767	563.75
576.978	531.75
577.188	520.75
577.399	520.75
577.61	534.75
577.821	532.75
578.032	501.75
578.243	529.75
578.454	515.75
578.665	522.75
578.875	531.75
579.086	490.75
579.297	499.75
579.508	526.75
579.718	496.75
579.929	507.75
580.14	498.75
580.35	470.75
580.561	508.75
580.772	555.75
580.982	512.75
581.193	506.75
581.403	496.75
581.614	487.75
581.825	478.75
582.035	466.75
582.246	471.75
582.456	495.75
582.667	487.75
582.877	485.75
583.087	473.75
583.298	459.75
583.508	469.75
583.719	484.75
583.929	449.75
584.139	464.75
584.35	459.75
584.56	453.75
584.77	481.75
584.981	461.75
585.191	467.75
585.401	474.75
585.611	474.75
585.821	472.75
586.032	449.75
586.242	442.75
586.452	443.75
586.662	462.75
586.872	461.75
587.082	448.75
587.292	481.75
587.502	439.75
587.713	478.75
587.923	441.75
588.133	452.75
588.343	461.75
588.553	452.75
588.762	452.75
588.972	442.75
589.182	462.75
589.392	443.75
589.602	443.75
589.812	457.75
590.022	422.75
590.232	450.75
590.441	452.75
590.651	445.75
590.861	438.75
591.071	434.75
591.281	432.75
591.49	426.75
591.7	452.75
591.91	445.75
592.119	445.75
592.329	440.75
592.539	474.75
592.748	469.75
592.958	467.75
593.167	480.75
593.377	467.75
593.587	472.75
593.796	453.75
594.006	454.75
594.215	487.75
594.424	468.75
594.634	452.75
594.843	459.75
595.053	505.75
595.262	467.75
595.472	456.75
595.681	447.75
595.89	410.75
596.1	432.75
596.309	439.75
596.518	439.75
596.727	456.75
596.937	422.75
597.146	405.75
597.355	420.75
597.564	421.75
597.774	409.75
597.983	411.75
598.192	410.75
598.401	404.75
598.61	376.75
598.819	382.75
599.028	392.75
599.237	412.75
599.446	400.75
599.655	380.75
599.864	368.75
600.073	382.75
600.282	383.75
600.491	386.75
600.7	379.75
600.909	380.75
601.118	399.75
601.327	400.75
601.536	408.75
601.745	421.75
601.953	394.75
602.162	404.75
602.371	414.75
602.58	414.75
602.789	394.75
602.997	416.75
603.206	425.75
603.415	416.75
603.623	400.75
603.832	389.75
604.041	386.75
604.249	380.75
604.458	374.75
604.666	378.75
604.875	371.75
605.084	409.75
605.292	417.75
605.501	403.75
605.709	398.75
605.918	411.75
606.126	400.75
606.334	401.75
606.543	411.75
606.751	396.75
606.96	418.75
607.168	399.75
607.376	390.75
607.585	398.75
607.793	397.75
608.001	391.75
608.21	404.75
608.418	406.75
608.626	396.75
608.834	389.75
609.043	394.75
609.251	373.75
609.459	389.75
609.667	387.75
609.875	411.75
610.083	410.75
610.291	396.75
610.499	404.75
610.707	388.75
610.916	413.75
611.124	399.75
611.332	396.75
611.54	391.75
611.748	377.75
611.955	402.75
612.163	402.75
612.371	367.75
612.579	373.75
612.787	366.75
612.995	409.75
613.203	401.75
613.411	385.75
613.618	401.75
613.826	384.75
614.034	387.75
614.242	392.75
614.449	387.75
614.657	391.75
614.865	398.75
615.072	400.75
615.28	385.75
615.488	409.75
615.695	416.75
615.903	400.75
616.111	401.75
616.318	387.75
616.526	394.75
616.733	380.75
616.941	379.75
617.148	414.75
617.356	369.75
617.563	372.75
617.771	355.75
617.978	378.75
618.185	374.75
618.393	371.75
618.6	390.75
618.807	406.75
619.015	367.75
619.222	368.75
619.429	374.75
619.637	343.75
619.844	350.75
620.051	353.75
620.258	351.75
620.466	375.75
620.673	336.75
620.88	361.75
621.087	344.75
621.294	342.75
621.501	346.75
621.708	337.75
621.915	341.75
622.122	352.75
622.329	372.75
622.536	356.75
622.743	355.75
622.95	343.75
623.157	337.75
623.364	345.75
623.571	346.75
623.778	362.75
623.985	349.75
624.192	350.75
624.399	338.75
624.606	358.75
624.812	322.75
625.019	323.75
625.226	329.75
625.433	328.75
625.639	324.75
625.846	317.75
626.053	293.75
626.259	306.75
626.466	280.75
626.673	294.75
626.879	288.75
627.086	283.75
627.293	298.75
627.499	320.75
627.706	323.75
627.912	330.75
628.119	327.75
628.325	335.75
628.532	314.75
628.738	314.75
628.945	313.75
629.151	311.75
629.357	308.75
629.564	317.75
629.77	305.75
629.976	311.75
630.183	302.75
630.389	308.75
630.595	307.75
630.802	339.75
631.008	305.75
631.214	294.75
631.42	306.75
631.627	286.75
631.833	265.75
632.039	297.75
632.245	292.75
632.451	261.75
632.657	282.75
632.863	278.75
633.069	264.75
633.275	315.75
633.481	285.75
633.688	302.75
633.893	271.75
634.099	283.75
634.305	294.75
634.511	261.75
634.717	282.75
634.923	274.75
635.129	265.75
635.335	263.75
635.541	273.75
635.747	278.75
635.952	282.75
636.158	289.75
636.364	278.75
636.57	282.75
636.775	276.75
636.981	291.75
637.187	272.75
637.392	279.75
637.598	281.75
637.804	292.75
638.009	272.75
638.215	267.75
638.421	274.75
638.626	262.75
638.832	276.75
639.037	262.75
639.243	259.75
639.448	274.75
639.654	258.75
639.859	256.75
640.065	276.75
640.27	278.75
640.475	258.75
640.681	270.75
640.886	275.75
641.091	246.75
641.297	259.75
641.502	271.75
641.707	283.75
641.913	263.75
642.118	276.75
642.323	264.75
642.528	257.75
642.733	263.75
642.939	264.75
643.144	260.75
643.349	260.75
643.554	261.75
643.759	266.75
643.964	260.75
644.169	254.75
644.374	247.75
644.579	254.75
644.784	264.75
644.989	254.75
645.194	247.75
645.399	243.75
645.604	249.75
645.809	265.75
646.014	264.75
646.219	260.75
646.423	260.75
646.628	258.75
646.833	259.75
647.038	256.75
647.243	257.75
647.447	266.75
647.652	265.75
647.857	248.75
648.062	255.75
648.266	259.75
648.471	242.75
648.676	271.75
648.88	278.75
649.085	265.75
649.289	263.75
649.494	257.75
649.698	251.75
649.903	255.75
650.107	261.75
650.312	245.75
650.516	245.75
650.721	252.75
650.925	240.75
651.13	250.75
651.334	235.75
651.539	233.75
651.743	235.75
651.947	241.75
652.152	245.75
652.356	230.75
652.56	228.75
652.764	228.75
652.969	211.75
653.173	211.75
653.377	215.75
653.581	241.75
653.785	212.75
653.99	217.75
654.194	221.75
654.398	211.75
654.602	216.75
654.806	228.75
655.01	230.75
655.214	218.75
655.418	202.75
655.622	215.75
655.826	252.75
656.03	244.75
656.234	252.75
656.438	260.75
656.642	258.75
656.846	243.75
657.049	230.75
657.253	218.75
657.457	206.75
657.661	206.75
657.865	195.75
658.068	183.75
658.272	168.75
658.476	165.75
658.68	174.75
658.883	155.75
659.087	140.75
659.291	132.75
659.494	130.75
659.698	123.75
659.901	140.75
660.105	135.75
660.309	124.75
660.512	114.75
660.716	113.75
660.919	119.75
661.123	129.75
661.326	123.75
661.53	99.75
661.733	105.75
661.936	102.75
662.14	107.75
662.343	104.75
662.546	100.75
662.75	102.75
662.953	106.75
663.156	87.75
663.36	98.75
663.563	74.75
663.766	77.75
663.969	80.75
664.173	97.75
664.376	91.75
664.579	89.75
664.782	84.75
664.985	72.75
665.188	99.75
665.391	81.75
665.594	64.75
665.797	79.75
666	88.75
666.203	78.75
666.406	80.75
666.609	79.75
666.812	83.75
667.015	85.75
667.218	78.75
667.421	90.75
667.624	86.75
667.827	93.75
668.03	92.75
668.232	71.75
668.435	75.75
668.638	74.75
668.841	88.75
669.043	81.75
669.246	79.75
669.449	84.75
669.651	82.75
669.854	87.75
670.057	85.75
670.259	79.75
670.462	76.75
670.665	72.75
670.867	73.75
671.07	85.75
671.272	81.75
671.475	84.75
671.677	81.75
671.88	96.75
672.082	72.75
672.284	75.75
672.487	81.75
672.689	79.75
672.892	59.75
