Data from WStandard_LampEnergy5.5LIBS07252019.E.O._I.C._HRD10591_16-06-18-920.txt Node
Date: Thu Jul 25 16:06:18 EDT 2019
User: cochatt
Spectrometer: HR+D1059
Trigger mode: 1
Integration Time (sec): 1.000000E-1
Scans to average: 1
Electric dark correction enabled: true
Nonlinearity correction enabled: false
Boxcar width: 0
XAxis mode: Wavelengths
Number of Pixels in Spectrum: 2048
>>>>>Begin Spectral Data<<<<<
223.165	-28.06
223.4	-28.06
223.635	-28.06
223.869	-23.06
224.104	-26.06
224.338	-18.06
224.573	-13.06
224.808	4.94
225.042	4.94
225.277	-15.06
225.511	-8.06
225.746	17.94
225.98	-1.06
226.215	18.94
226.449	14.94
226.683	24.94
226.918	23.94
227.152	21.94
227.387	34.94
227.621	15.94
227.856	46.94
228.09	49.94
228.324	57.94
228.559	50.94
228.793	117.94
229.027	329.94
229.262	348.94
229.496	339.94
229.73	364.94
229.964	398.94
230.199	412.94
230.433	417.94
230.667	435.94
230.901	483.94
231.136	428.94
231.37	417.94
231.604	431.94
231.838	439.94
232.072	420.94
232.306	428.94
232.541	420.94
232.775	497.94
233.009	543.94
233.243	554.94
233.477	475.94
233.711	496.94
233.945	497.94
234.179	498.94
234.413	508.94
234.647	592.94
234.881	541.94
235.115	489.94
235.349	516.94
235.583	512.94
235.817	518.94
236.051	486.94
236.285	493.94
236.519	537.94
236.753	598.94
236.987	643.94
237.221	596.94
237.455	692.94
237.689	650.94
237.922	607.94
238.156	590.94
238.39	591.94
238.624	633.94
238.858	672.94
239.091	699.94
239.325	702.94
239.559	840.94
239.793	851.94
240.027	929.94
240.26	920.94
240.494	689.94
240.728	615.94
240.961	666.94
241.195	661.94
241.429	742.94
241.662	738.94
241.896	689.94
242.13	659.94
242.363	750.94
242.597	813.94
242.83	800.94
243.064	808.94
243.298	834.94
243.531	836.94
243.765	808.94
243.998	813.94
244.232	728.94
244.465	692.94
244.699	689.94
244.932	808.94
245.166	920.94
245.399	880.94
245.633	799.94
245.866	778.94
246.099	802.94
246.333	848.94
246.566	855.94
246.8	918.94
247.033	1061.94
247.266	937.94
247.5	944.94
247.733	935.94
247.966	969.94
248.2	1099.94
248.433	1015.94
248.666	1081.94
248.899	1171.94
249.133	1362.94
249.366	1575.94
249.599	1256.94
249.832	1107.94
250.066	1150.94
250.299	1134.94
250.532	1078.94
250.765	958.94
250.998	1003.94
251.231	1071.94
251.465	1102.94
251.698	1018.94
251.931	1053.94
252.164	1077.94
252.397	1122.94
252.63	1104.94
252.863	940.94
253.096	932.94
253.329	1034.94
253.562	1063.94
253.795	1154.94
254.028	1104.94
254.261	1016.94
254.494	1030.94
254.727	960.94
254.96	994.94
255.193	1092.94
255.426	1224.94
255.659	1430.94
255.892	1478.94
256.124	1209.94
256.357	1162.94
256.59	1250.94
256.823	1226.94
257.056	1235.94
257.289	1539.94
257.521	1703.94
257.754	1487.94
257.987	1408.94
258.22	1612.94
258.452	1535.94
258.685	1220.94
258.918	1185.94
259.151	1216.94
259.383	1149.94
259.616	1041.94
259.849	1093.94
260.081	1212.94
260.314	1354.94
260.547	1503.94
260.779	1522.94
261.012	1410.94
261.244	1216.94
261.477	1152.94
261.71	1242.94
261.942	1249.94
262.175	1206.94
262.407	1272.94
262.64	1208.94
262.872	1122.94
263.105	1094.94
263.337	1132.94
263.57	1148.94
263.802	1167.94
264.035	1095.94
264.267	1016.94
264.499	995.94
264.732	1062.94
264.964	1135.94
265.197	1161.94
265.429	1251.94
265.661	1346.94
265.894	1478.94
266.126	1560.94
266.358	1377.94
266.591	1400.94
266.823	1553.94
267.055	1418.94
267.287	1377.94
267.52	1378.94
267.752	1314.94
267.984	1309.94
268.216	1392.94
268.448	1447.94
268.681	1433.94
268.913	1320.94
269.145	1265.94
269.377	1192.94
269.609	1327.94
269.841	1509.94
270.073	1736.94
270.306	1980.94
270.538	2117.94
270.77	1775.94
271.002	1496.94
271.234	1442.94
271.466	1409.94
271.698	1581.94
271.93	1930.94
272.162	1888.94
272.394	1738.94
272.626	1648.94
272.858	1436.94
273.09	1266.94
273.322	1238.94
273.553	1200.94
273.785	1218.94
274.017	1267.94
274.249	1417.94
274.481	1374.94
274.713	1280.94
274.945	1252.94
275.176	1247.94
275.408	1248.94
275.64	1238.94
275.872	1169.94
276.104	1256.94
276.335	1446.94
276.567	1634.94
276.799	1683.94
277.031	1482.94
277.262	1394.94
277.494	1454.94
277.726	1647.94
277.957	1625.94
278.189	1469.94
278.421	1316.94
278.652	1268.94
278.884	1314.94
279.115	1310.94
279.347	1351.94
279.579	1362.94
279.81	1337.94
280.042	1444.94
280.273	1566.94
280.505	1573.94
280.736	1583.94
280.968	1521.94
281.199	1320.94
281.431	1266.94
281.662	1271.94
281.894	1226.94
282.125	1279.94
282.356	1334.94
282.588	1367.94
282.819	1385.94
283.051	1424.94
283.282	1568.94
283.513	1471.94
283.745	1320.94
283.976	1223.94
284.207	1220.94
284.439	1300.94
284.67	1290.94
284.901	1314.94
285.132	1319.94
285.364	1321.94
285.595	1344.94
285.826	1345.94
286.057	1327.94
286.288	1327.94
286.52	1367.94
286.751	1512.94
286.982	1548.94
287.213	1427.94
287.444	1316.94
287.675	1301.94
287.906	1331.94
288.138	1442.94
288.369	1390.94
288.6	1350.94
288.831	1295.94
289.062	1343.94
289.293	1346.94
289.524	1316.94
289.755	1366.94
289.986	1367.94
290.217	1258.94
290.448	1292.94
290.679	1348.94
290.91	1388.94
291.141	1401.94
291.371	1484.94
291.602	1420.94
291.833	1392.94
292.064	1464.94
292.295	1444.94
292.526	1495.94
292.757	1570.94
292.987	1438.94
293.218	1383.94
293.449	1472.94
293.68	1641.94
293.91	1759.94
294.141	1641.94
294.372	1543.94
294.603	1564.94
294.833	1589.94
295.064	1544.94
295.295	1436.94
295.525	1400.94
295.756	1319.94
295.987	1256.94
296.217	1284.94
296.448	1319.94
296.679	1326.94
296.909	1318.94
297.14	1312.94
297.37	1344.94
297.601	1438.94
297.831	1496.94
298.062	1496.94
298.292	1388.94
298.523	1332.94
298.753	1345.94
298.984	1367.94
299.214	1376.94
299.445	1395.94
299.675	1428.94
299.905	1392.94
300.136	1401.94
300.366	1378.94
300.597	1324.94
300.827	1312.94
301.057	1376.94
301.288	1450.94
301.518	1454.94
301.748	1416.94
301.979	1538.94
302.209	1555.94
302.439	1641.94
302.669	1741.94
302.9	1628.94
303.13	1472.94
303.36	1445.94
303.59	1492.94
303.82	1469.94
304.051	1454.94
304.281	1449.94
304.511	1461.94
304.741	1514.94
304.971	1656.94
305.201	1828.94
305.431	1671.94
305.661	1421.94
305.891	1276.94
306.121	1319.94
306.352	1337.94
306.582	1414.94
306.812	1540.94
307.042	1604.94
307.272	1625.94
307.502	1654.94
307.731	1757.94
307.961	1934.94
308.191	1760.94
308.421	1524.94
308.651	1450.94
308.881	1406.94
309.111	1401.94
309.341	1390.94
309.571	1424.94
309.8	1391.94
310.03	1368.94
310.26	1400.94
310.49	1372.94
310.72	1421.94
310.949	1505.94
311.179	1580.94
311.409	1508.94
311.639	1460.94
311.868	1395.94
312.098	1454.94
312.328	1458.94
312.557	1405.94
312.787	1459.94
313.017	1474.94
313.246	1502.94
313.476	1455.94
313.706	1511.94
313.935	1487.94
314.165	1493.94
314.394	1507.94
314.624	1619.94
314.853	1696.94
315.083	1793.94
315.312	1828.94
315.542	1736.94
315.771	1560.94
316.001	1540.94
316.23	1596.94
316.46	1624.94
316.689	1575.94
316.919	1480.94
317.148	1443.94
317.377	1477.94
317.607	1608.94
317.836	1751.94
318.065	1833.94
318.295	1791.94
318.524	1691.94
318.753	1623.94
318.983	1602.94
319.212	1561.94
319.441	1502.94
319.67	1548.94
319.9	1541.94
320.129	1653.94
320.358	1659.94
320.587	1739.94
320.816	1744.94
321.046	1649.94
321.275	1580.94
321.504	1599.94
321.733	1715.94
321.962	1676.94
322.191	1575.94
322.42	1577.94
322.649	1555.94
322.878	1549.94
323.108	1538.94
323.337	1601.94
323.566	1625.94
323.795	1621.94
324.024	1597.94
324.253	1555.94
324.482	1613.94
324.71	1596.94
324.939	1502.94
325.168	1482.94
325.397	1545.94
325.626	1587.94
325.855	1566.94
326.084	1556.94
326.313	1542.94
326.542	1592.94
326.77	1632.94
326.999	1653.94
327.228	1617.94
327.457	1550.94
327.686	1516.94
327.914	1535.94
328.143	1551.94
328.372	1544.94
328.6	1527.94
328.829	1585.94
329.058	1554.94
329.287	1526.94
329.515	1593.94
329.744	1571.94
329.972	1682.94
330.201	1720.94
330.43	1701.94
330.658	1658.94
330.887	1610.94
331.115	1678.94
331.344	1649.94
331.572	1646.94
331.801	1653.94
332.03	1618.94
332.258	1668.94
332.486	1715.94
332.715	1656.94
332.943	1693.94
333.172	1670.94
333.4	1722.94
333.629	1746.94
333.857	1837.94
334.085	1983.94
334.314	2188.94
334.542	2487.94
334.771	2258.94
334.999	2033.94
335.227	1948.94
335.455	1822.94
335.684	1766.94
335.912	1825.94
336.14	1905.94
336.369	1851.94
336.597	1746.94
336.825	1684.94
337.053	1746.94
337.281	1814.94
337.51	1923.94
337.738	1982.94
337.966	1940.94
338.194	1747.94
338.422	1682.94
338.65	1653.94
338.878	1659.94
339.106	1613.94
339.334	1614.94
339.562	1547.94
339.79	1609.94
340.018	1696.94
340.246	1768.94
340.474	1778.94
340.702	1712.94
340.93	1708.94
341.158	1672.94
341.386	1633.94
341.614	1641.94
341.842	1662.94
342.07	1652.94
342.298	1671.94
342.526	1675.94
342.754	1660.94
342.981	1631.94
343.209	1610.94
343.437	1624.94
343.665	1683.94
343.893	1718.94
344.12	1774.94
344.348	1828.94
344.576	1710.94
344.804	1645.94
345.031	1634.94
345.259	1672.94
345.487	1607.94
345.714	1558.94
345.942	1520.94
346.17	1533.94
346.397	1560.94
346.625	1605.94
346.853	1472.94
347.08	1461.94
347.308	1508.94
347.535	1524.94
347.763	1593.94
347.99	1535.94
348.218	1534.94
348.445	1525.94
348.673	1522.94
348.9	1564.94
349.128	1623.94
349.355	1666.94
349.583	1596.94
349.81	1567.94
350.037	1449.94
350.265	1406.94
350.492	1468.94
350.72	1499.94
350.947	1520.94
351.174	1597.94
351.402	1543.94
351.629	1477.94
351.856	1428.94
352.083	1415.94
352.311	1455.94
352.538	1469.94
352.765	1534.94
352.992	1589.94
353.22	1534.94
353.447	1452.94
353.674	1519.94
353.901	1520.94
354.128	1506.94
354.355	1508.94
354.583	1553.94
354.81	1557.94
355.037	1563.94
355.264	1566.94
355.491	1500.94
355.718	1552.94
355.945	1524.94
356.172	1476.94
356.399	1489.94
356.626	1479.94
356.853	1479.94
357.08	1588.94
357.307	1764.94
357.534	1815.94
357.761	1572.94
357.988	1494.94
358.215	1445.94
358.441	1474.94
358.668	1480.94
358.895	1483.94
359.122	1537.94
359.349	1703.94
359.576	1711.94
359.802	1548.94
360.029	1466.94
360.256	1458.94
360.483	1487.94
360.709	1502.94
360.936	1598.94
361.163	1640.94
361.39	1759.94
361.616	1848.94
361.843	1820.94
362.07	1756.94
362.296	1542.94
362.523	1508.94
362.749	1468.94
362.976	1546.94
363.203	1550.94
363.429	1507.94
363.656	1462.94
363.882	1514.94
364.109	1651.94
364.335	1862.94
364.562	1681.94
364.788	1598.94
365.015	1547.94
365.241	1507.94
365.468	1529.94
365.694	1585.94
365.92	1632.94
366.147	1588.94
366.373	1482.94
366.599	1449.94
366.826	1484.94
367.052	1476.94
367.278	1538.94
367.505	1498.94
367.731	1553.94
367.957	1568.94
368.184	1567.94
368.41	1657.94
368.636	1680.94
368.862	1677.94
369.089	1712.94
369.315	1638.94
369.541	1598.94
369.767	1574.94
369.993	1508.94
370.219	1514.94
370.445	1549.94
370.672	1614.94
370.898	1716.94
371.124	1676.94
371.35	1563.94
371.576	1650.94
371.802	1703.94
372.028	1665.94
372.254	1547.94
372.48	1546.94
372.706	1549.94
372.932	1549.94
373.158	1547.94
373.384	1601.94
373.61	1603.94
373.835	1703.94
374.061	1621.94
374.287	1601.94
374.513	1609.94
374.739	1630.94
374.965	1646.94
375.191	1675.94
375.416	1662.94
375.642	1653.94
375.868	1720.94
376.094	1755.94
376.319	1682.94
376.545	1597.94
376.771	1610.94
376.997	1679.94
377.222	1690.94
377.448	1622.94
377.674	1669.94
377.899	1646.94
378.125	1728.94
378.35	1754.94
378.576	1620.94
378.802	1565.94
379.027	1572.94
379.253	1587.94
379.478	1590.94
379.704	1559.94
379.929	1597.94
380.155	1605.94
380.38	1598.94
380.606	1662.94
380.831	1639.94
381.057	1656.94
381.282	1706.94
381.507	1669.94
381.733	1729.94
381.958	1817.94
382.184	1703.94
382.409	1666.94
382.634	1652.94
382.86	1690.94
383.085	1669.94
383.31	1712.94
383.535	1817.94
383.761	1893.94
383.986	1831.94
384.211	1769.94
384.436	1812.94
384.662	1879.94
384.887	1953.94
385.112	1850.94
385.337	1893.94
385.562	1853.94
385.787	1820.94
386.013	1903.94
386.238	1912.94
386.463	1904.94
386.688	1969.94
386.913	2060.94
387.138	2045.94
387.363	1908.94
387.588	1916.94
387.813	1889.94
388.038	1909.94
388.263	1956.94
388.488	1925.94
388.713	1806.94
388.938	1781.94
389.163	1810.94
389.387	1824.94
389.612	1831.94
389.837	1865.94
390.062	1900.94
390.287	1876.94
390.512	1904.94
390.736	1846.94
390.961	1792.94
391.186	1775.94
391.411	1785.94
391.636	1878.94
391.86	1911.94
392.085	1913.94
392.31	1843.94
392.534	1904.94
392.759	1982.94
392.984	1964.94
393.208	2133.94
393.433	2556.94
393.658	2662.94
393.882	2152.94
394.107	1936.94
394.331	1876.94
394.556	1844.94
394.78	1846.94
395.005	1925.94
395.229	1970.94
395.454	2090.94
395.678	2139.94
395.903	2069.94
396.127	1971.94
396.352	2015.94
396.576	2084.94
396.801	2237.94
397.025	2491.94
397.249	2254.94
397.474	2115.94
397.698	2055.94
397.922	2049.94
398.147	2131.94
398.371	2171.94
398.595	2158.94
398.82	2154.94
399.044	2221.94
399.268	2300.94
399.492	2422.94
399.717	2584.94
399.941	2564.94
400.165	2474.94
400.389	2393.94
400.613	2352.94
400.837	2523.94
401.062	2766.94
401.286	2485.94
401.51	2248.94
401.734	2386.94
401.958	2337.94
402.182	2166.94
402.406	2152.94
402.63	2133.94
402.854	2128.94
403.078	2121.94
403.302	2178.94
403.526	2226.94
403.75	2240.94
403.974	2239.94
404.198	2222.94
404.422	2244.94
404.645	2354.94
404.869	2390.94
405.093	2224.94
405.317	2179.94
405.541	2231.94
405.765	2258.94
405.988	2257.94
406.212	2274.94
406.436	2313.94
406.66	2320.94
406.883	2344.94
407.107	2613.94
407.331	2781.94
407.555	2979.94
407.778	2827.94
408.002	2498.94
408.226	2362.94
408.449	2337.94
408.673	2274.94
408.896	2282.94
409.12	2327.94
409.344	2271.94
409.567	2226.94
409.791	2292.94
410.014	2265.94
410.238	2358.94
410.461	2463.94
410.685	2266.94
410.908	2150.94
411.132	2231.94
411.355	2238.94
411.578	2194.94
411.802	2176.94
412.025	2197.94
412.249	2167.94
412.472	2089.94
412.695	2136.94
412.919	2076.94
413.142	2061.94
413.365	2145.94
413.589	2170.94
413.812	2213.94
414.035	2269.94
414.258	2135.94
414.482	2114.94
414.705	2149.94
414.928	2102.94
415.151	2107.94
415.374	2118.94
415.597	2167.94
415.821	2176.94
416.044	2240.94
416.267	2271.94
416.49	2059.94
416.713	2024.94
416.936	2076.94
417.159	2183.94
417.382	2196.94
417.605	2076.94
417.828	2131.94
418.051	2200.94
418.274	2115.94
418.497	2059.94
418.72	2087.94
418.943	2105.94
419.166	2241.94
419.389	2327.94
419.611	2187.94
419.834	2112.94
420.057	2148.94
420.28	2064.94
420.503	2005.94
420.726	2063.94
420.948	2064.94
421.171	2019.94
421.394	2040.94
421.617	2119.94
421.839	2125.94
422.062	2092.94
422.285	2014.94
422.507	2050.94
422.73	2070.94
422.953	2084.94
423.175	2039.94
423.398	2050.94
423.621	2034.94
423.843	2052.94
424.066	2102.94
424.288	2102.94
424.511	2096.94
424.733	2117.94
424.956	1957.94
425.178	1904.94
425.401	2010.94
425.623	2024.94
425.846	1956.94
426.068	2029.94
426.291	2094.94
426.513	2063.94
426.735	2057.94
426.958	2168.94
427.18	2261.94
427.402	2053.94
427.625	2127.94
427.847	2151.94
428.069	2054.94
428.292	2034.94
428.514	1928.94
428.736	1873.94
428.958	1932.94
429.181	2010.94
429.403	2152.94
429.625	2604.94
429.847	2320.94
430.069	1972.94
430.292	2133.94
430.514	2210.94
430.736	2102.94
430.958	2196.94
431.18	2084.94
431.402	1990.94
431.624	1946.94
431.846	1965.94
432.068	1944.94
432.29	1956.94
432.512	1936.94
432.734	1996.94
432.956	2082.94
433.178	2141.94
433.4	2066.94
433.622	2129.94
433.844	2029.94
434.066	1934.94
434.287	1957.94
434.509	1977.94
434.731	2108.94
434.953	2251.94
435.175	2248.94
435.397	2105.94
435.618	2083.94
435.84	2088.94
436.062	2037.94
436.284	2055.94
436.505	2110.94
436.727	2072.94
436.949	2021.94
437.17	2027.94
437.392	1980.94
437.614	2007.94
437.835	1948.94
438.057	2073.94
438.278	2132.94
438.5	1981.94
438.721	1972.94
438.943	2022.94
439.165	1986.94
439.386	1915.94
439.608	1919.94
439.829	1950.94
440.05	2005.94
440.272	1925.94
440.493	1908.94
440.715	1908.94
440.936	2047.94
441.158	2304.94
441.379	2260.94
441.6	2164.94
441.822	2122.94
442.043	2108.94
442.264	2021.94
442.486	1945.94
442.707	2000.94
442.928	1935.94
443.149	2028.94
443.371	2155.94
443.592	2204.94
443.813	2140.94
444.034	2158.94
444.255	2191.94
444.476	2227.94
444.698	2255.94
444.919	2239.94
445.14	2321.94
445.361	2277.94
445.582	2323.94
445.803	2214.94
446.024	2158.94
446.245	2232.94
446.466	2144.94
446.687	2017.94
446.908	2069.94
447.129	1959.94
447.35	2060.94
447.571	2046.94
447.792	1972.94
448.013	1903.94
448.234	1972.94
448.455	2055.94
448.675	2040.94
448.896	1874.94
449.117	1846.94
449.338	1884.94
449.559	1961.94
449.779	2105.94
450	2292.94
450.221	2482.94
450.442	2428.94
450.662	2083.94
450.883	1874.94
451.104	1825.94
451.324	1909.94
451.545	1942.94
451.766	1922.94
451.986	1819.94
452.207	1802.94
452.428	1759.94
452.648	1743.94
452.869	1792.94
453.089	1926.94
453.31	1856.94
453.53	1962.94
453.751	1862.94
453.971	1732.94
454.192	1826.94
454.412	1954.94
454.633	1878.94
454.853	1788.94
455.073	1718.94
455.294	1720.94
455.514	1706.94
455.734	1703.94
455.955	1768.94
456.175	1758.94
456.395	1793.94
456.616	1798.94
456.836	1849.94
457.056	1747.94
457.276	1777.94
457.497	1752.94
457.717	1679.94
457.937	1746.94
458.157	1789.94
458.377	1779.94
458.598	1747.94
458.818	1714.94
459.038	1860.94
459.258	1972.94
459.478	1952.94
459.698	1902.94
459.918	1985.94
460.138	2070.94
460.358	2081.94
460.578	2106.94
460.798	2186.94
461.018	2313.94
461.238	2206.94
461.458	2068.94
461.678	2094.94
461.898	2123.94
462.118	2020.94
462.338	2125.94
462.558	2141.94
462.777	2115.94
462.997	2227.94
463.217	2352.94
463.437	2366.94
463.657	2205.94
463.876	2153.94
464.096	2181.94
464.316	2157.94
464.536	2204.94
464.755	2211.94
464.975	2278.94
465.195	2163.94
465.414	2257.94
465.634	2198.94
465.854	2053.94
466.073	2112.94
466.293	2128.94
466.512	1920.94
466.732	1948.94
466.951	2022.94
467.171	2007.94
467.391	1901.94
467.61	1861.94
467.829	1883.94
468.049	1990.94
468.268	2208.94
468.488	2106.94
468.707	2000.94
468.927	1956.94
469.146	1907.94
469.365	1912.94
469.585	1889.94
469.804	1896.94
470.023	1913.94
470.243	1968.94
470.462	1912.94
470.681	1875.94
470.901	1954.94
471.12	1940.94
471.339	1890.94
471.558	1876.94
471.777	1823.94
471.997	1871.94
472.216	1864.94
472.435	1782.94
472.654	1832.94
472.873	1934.94
473.092	2012.94
473.311	1940.94
473.53	1827.94
473.749	1821.94
473.968	1905.94
474.187	1946.94
474.406	2108.94
474.625	1961.94
474.844	1945.94
475.063	1880.94
475.282	1944.94
475.501	1911.94
475.72	1884.94
475.939	2001.94
476.158	1950.94
476.377	1915.94
476.596	1944.94
476.814	1993.94
477.033	1999.94
477.252	2107.94
477.471	2135.94
477.69	2009.94
477.908	1991.94
478.127	2159.94
478.346	2321.94
478.564	2305.94
478.783	2250.94
479.002	2329.94
479.22	2279.94
479.439	2340.94
479.658	2665.94
479.876	2622.94
480.095	2298.94
480.313	2226.94
480.532	2094.94
480.751	2135.94
480.969	2223.94
481.188	2192.94
481.406	2135.94
481.624	2068.94
481.843	2102.94
482.061	2167.94
482.28	2138.94
482.498	2249.94
482.717	2196.94
482.935	2065.94
483.153	2128.94
483.372	2124.94
483.59	2084.94
483.808	2098.94
484.027	2187.94
484.245	2292.94
484.463	2593.94
484.681	2906.94
484.9	2324.94
485.118	2178.94
485.336	2151.94
485.554	2210.94
485.772	2274.94
485.99	2294.94
486.209	2313.94
486.427	2215.94
486.645	2242.94
486.863	2204.94
487.081	2258.94
487.299	2312.94
487.517	2227.94
487.735	2187.94
487.953	2166.94
488.171	2197.94
488.389	2167.94
488.607	2177.94
488.825	2342.94
489.043	2388.94
489.261	2181.94
489.479	2278.94
489.696	2406.94
489.914	2352.94
490.132	2287.94
490.35	2216.94
490.568	2305.94
490.786	2254.94
491.003	2191.94
491.221	2218.94
491.439	2322.94
491.657	2250.94
491.874	2254.94
492.092	2358.94
492.31	2348.94
492.527	2301.94
492.745	2287.94
492.963	2303.94
493.18	2353.94
493.398	2489.94
493.615	2641.94
493.833	2378.94
494.05	2283.94
494.268	2336.94
494.485	2404.94
494.703	2332.94
494.92	2295.94
495.138	2318.94
495.355	2319.94
495.573	2374.94
495.79	2531.94
496.008	2612.94
496.225	2447.94
496.442	2407.94
496.66	2480.94
496.877	2485.94
497.094	2613.94
497.312	2629.94
497.529	2534.94
497.746	2620.94
497.963	3038.94
498.181	3370.94
498.398	3095.94
498.615	3060.94
498.832	3001.94
499.049	2953.94
499.267	3023.94
499.484	3214.94
499.701	3497.94
499.918	3576.94
500.135	3792.94
500.352	4142.94
500.569	4016.94
500.786	4243.94
501.003	3952.94
501.22	3683.94
501.437	3540.94
501.654	3488.94
501.871	3318.94
502.088	2961.94
502.305	2988.94
502.522	2904.94
502.739	2712.94
502.956	2607.94
503.172	2601.94
503.389	2541.94
503.606	2464.94
503.823	2450.94
504.04	2470.94
504.256	2509.94
504.473	2476.94
504.69	2616.94
504.907	2406.94
505.123	2344.94
505.34	2404.94
505.557	2936.94
505.773	2593.94
505.99	2250.94
506.207	2163.94
506.423	2099.94
506.64	2075.94
506.856	2096.94
507.073	2312.94
507.289	2440.94
507.506	2325.94
507.722	2080.94
507.939	2010.94
508.155	2037.94
508.372	2062.94
508.588	2021.94
508.805	1955.94
509.021	1920.94
509.238	1922.94
509.454	1879.94
509.67	1913.94
509.887	1888.94
510.103	1874.94
510.319	1907.94
510.536	2001.94
510.752	2028.94
510.968	2027.94
511.184	2158.94
511.401	2132.94
511.617	1864.94
511.833	1828.94
512.049	1836.94
512.265	1825.94
512.481	1823.94
512.698	1896.94
512.914	2031.94
513.13	1965.94
513.346	1842.94
513.562	1844.94
513.778	1845.94
513.994	1942.94
514.21	2032.94
514.426	1973.94
514.642	2189.94
514.858	2134.94
515.074	1928.94
515.29	1900.94
515.506	1910.94
515.721	1948.94
515.937	1952.94
516.153	2296.94
516.369	2170.94
516.585	2039.94
516.801	1939.94
517.016	1981.94
517.232	2013.94
517.448	2061.94
517.664	2102.94
517.879	2098.94
518.095	2215.94
518.311	2068.94
518.527	1982.94
518.742	1961.94
518.958	1894.94
519.173	1870.94
519.389	1922.94
519.605	1896.94
519.82	1900.94
520.036	1929.94
520.251	1855.94
520.467	1909.94
520.682	1981.94
520.898	2114.94
521.113	1913.94
521.329	1824.94
521.544	1956.94
521.76	1895.94
521.975	1776.94
522.19	1771.94
522.406	1752.94
522.621	2023.94
522.836	2078.94
523.052	1727.94
523.267	1700.94
523.482	1748.94
523.698	1701.94
523.913	1654.94
524.128	1712.94
524.343	1820.94
524.559	1822.94
524.774	1713.94
524.989	1676.94
525.204	1708.94
525.419	1662.94
525.634	1638.94
525.849	1678.94
526.064	1684.94
526.28	1694.94
526.495	1662.94
526.71	1650.94
526.925	1656.94
527.14	1618.94
527.355	1594.94
527.57	1569.94
527.785	1657.94
527.999	1598.94
528.214	1581.94
528.429	1530.94
528.644	1582.94
528.859	1591.94
529.074	1589.94
529.289	1584.94
529.503	1639.94
529.718	1627.94
529.933	1596.94
530.148	1551.94
530.363	1564.94
530.577	1575.94
530.792	1654.94
531.007	1633.94
531.221	1605.94
531.436	1599.94
531.651	1670.94
531.865	1703.94
532.08	1646.94
532.295	1594.94
532.509	1525.94
532.724	1507.94
532.938	1625.94
533.153	1728.94
533.367	1656.94
533.582	1621.94
533.796	1592.94
534.011	1633.94
534.225	1581.94
534.44	1560.94
534.654	1497.94
534.868	1556.94
535.083	1626.94
535.297	1630.94
535.511	1565.94
535.726	1543.94
535.94	1561.94
536.154	1514.94
536.369	1528.94
536.583	1520.94
536.797	1519.94
537.011	1569.94
537.225	1514.94
537.44	1458.94
537.654	1513.94
537.868	1488.94
538.082	1446.94
538.296	1404.94
538.51	1444.94
538.724	1456.94
538.938	1488.94
539.153	1493.94
539.367	1524.94
539.581	1506.94
539.795	1582.94
540.009	1512.94
540.222	1503.94
540.436	1534.94
540.65	1674.94
540.864	1681.94
541.078	1587.94
541.292	1484.94
541.506	1483.94
541.72	1518.94
541.934	1520.94
542.147	1559.94
542.361	1493.94
542.575	1457.94
542.789	1436.94
543.002	1399.94
543.216	1470.94
543.43	1544.94
543.644	1557.94
543.857	1632.94
544.071	1582.94
544.285	1520.94
544.498	1475.94
544.712	1534.94
544.925	1499.94
545.139	1536.94
545.352	1494.94
545.566	1426.94
545.779	1441.94
545.993	1446.94
546.206	1462.94
546.42	1437.94
546.633	1432.94
546.847	1419.94
547.06	1448.94
547.274	1457.94
547.487	1432.94
547.7	1436.94
547.914	1424.94
548.127	1458.94
548.34	1491.94
548.554	1476.94
548.767	1418.94
548.98	1450.94
549.193	1454.94
549.407	1477.94
549.62	1505.94
549.833	1439.94
550.046	1411.94
550.259	1429.94
550.473	1439.94
550.686	1458.94
550.899	1381.94
551.112	1365.94
551.325	1356.94
551.538	1432.94
551.751	1612.94
551.964	1372.94
552.177	1369.94
552.39	1378.94
552.603	1424.94
552.816	1413.94
553.029	1476.94
553.242	1537.94
553.455	1444.94
553.667	1410.94
553.88	1440.94
554.093	1364.94
554.306	1379.94
554.519	1363.94
554.732	1320.94
554.944	1302.94
555.157	1358.94
555.37	1335.94
555.583	1340.94
555.795	1305.94
556.008	1284.94
556.221	1262.94
556.433	1216.94
556.646	1224.94
556.859	1230.94
557.071	1189.94
557.284	1225.94
557.496	1204.94
557.709	1214.94
557.921	1197.94
558.134	1206.94
558.346	1217.94
558.559	1162.94
558.771	1171.94
558.984	1154.94
559.196	1134.94
559.409	1165.94
559.621	1137.94
559.833	1162.94
560.046	1208.94
560.258	1212.94
560.47	1144.94
560.683	1160.94
560.895	1152.94
561.107	1177.94
561.32	1155.94
561.532	1208.94
561.744	1167.94
561.956	1172.94
562.168	1152.94
562.381	1148.94
562.593	1121.94
562.805	1129.94
563.017	1143.94
563.229	1133.94
563.441	1144.94
563.653	1143.94
563.865	1151.94
564.077	1146.94
564.289	1129.94
564.501	1150.94
564.713	1200.94
564.925	1254.94
565.137	1280.94
565.349	1200.94
565.561	1237.94
565.773	1194.94
565.985	1249.94
566.197	1316.94
566.408	1430.94
566.62	1421.94
566.832	1431.94
567.044	1462.94
567.255	1429.94
567.467	1438.94
567.679	1496.94
567.891	1518.94
568.102	1482.94
568.314	1455.94
568.526	1368.94
568.737	1288.94
568.949	1248.94
569.161	1184.94
569.372	1155.94
569.584	1117.94
569.795	1121.94
570.007	1097.94
570.218	1074.94
570.43	1054.94
570.641	1065.94
570.853	1054.94
571.064	1038.94
571.276	1041.94
571.487	1026.94
571.698	1002.94
571.91	962.94
572.121	976.94
572.333	951.94
572.544	925.94
572.755	942.94
572.966	910.94
573.178	925.94
573.389	932.94
573.6	935.94
573.811	972.94
574.023	934.94
574.234	904.94
574.445	893.94
574.656	878.94
574.867	873.94
575.078	882.94
575.289	871.94
575.501	858.94
575.712	839.94
575.923	837.94
576.134	861.94
576.345	837.94
576.556	852.94
576.767	848.94
576.978	834.94
577.188	820.94
577.399	797.94
577.61	822.94
577.821	796.94
578.032	770.94
578.243	824.94
578.454	818.94
578.665	779.94
578.875	783.94
579.086	797.94
579.297	770.94
579.508	792.94
579.718	793.94
579.929	783.94
580.14	751.94
580.35	749.94
580.561	757.94
580.772	810.94
580.982	774.94
581.193	753.94
581.403	754.94
581.614	748.94
581.825	746.94
582.035	742.94
582.246	749.94
582.456	748.94
582.667	740.94
582.877	726.94
583.087	733.94
583.298	728.94
583.508	743.94
583.719	720.94
583.929	722.94
584.139	712.94
584.35	689.94
584.56	697.94
584.77	701.94
584.981	722.94
585.191	724.94
585.401	750.94
585.611	698.94
585.821	713.94
586.032	696.94
586.242	705.94
586.452	686.94
586.662	726.94
586.872	729.94
587.082	697.94
587.292	730.94
587.502	727.94
587.713	700.94
587.923	692.94
588.133	722.94
588.343	728.94
588.553	716.94
588.762	687.94
588.972	689.94
589.182	872.94
589.392	859.94
589.602	734.94
589.812	821.94
590.022	749.94
590.232	672.94
590.441	692.94
590.651	698.94
590.861	674.94
591.071	697.94
591.281	681.94
591.49	688.94
591.7	708.94
591.91	681.94
592.119	666.94
592.329	710.94
592.539	710.94
592.748	713.94
592.958	709.94
593.167	738.94
593.377	726.94
593.587	714.94
593.796	740.94
594.006	737.94
594.215	741.94
594.424	713.94
594.634	710.94
594.843	697.94
595.053	742.94
595.262	713.94
595.472	688.94
595.681	689.94
595.89	670.94
596.1	645.94
596.309	646.94
596.518	647.94
596.727	647.94
596.937	645.94
597.146	612.94
597.355	622.94
597.564	630.94
597.774	593.94
597.983	598.94
598.192	609.94
598.401	588.94
598.61	606.94
598.819	609.94
599.028	599.94
599.237	605.94
599.446	583.94
599.655	576.94
599.864	587.94
600.073	564.94
600.282	565.94
600.491	579.94
600.7	569.94
600.909	577.94
601.118	566.94
601.327	559.94
601.536	561.94
601.745	547.94
601.953	543.94
602.162	564.94
602.371	567.94
602.58	545.94
602.789	574.94
602.997	562.94
603.206	579.94
603.415	554.94
603.623	549.94
603.832	555.94
604.041	527.94
604.249	551.94
604.458	540.94
604.666	538.94
604.875	551.94
605.084	534.94
605.292	553.94
605.501	543.94
605.709	520.94
605.918	516.94
606.126	509.94
606.334	523.94
606.543	543.94
606.751	520.94
606.96	543.94
607.168	520.94
607.376	500.94
607.585	536.94
607.793	519.94
608.001	523.94
608.21	516.94
608.418	525.94
608.626	508.94
608.834	537.94
609.043	520.94
609.251	525.94
609.459	512.94
609.667	525.94
609.875	530.94
610.083	533.94
610.291	545.94
610.499	529.94
610.707	501.94
610.916	525.94
611.124	499.94
611.332	513.94
611.54	504.94
611.748	504.94
611.955	514.94
612.163	465.94
612.371	501.94
612.579	481.94
612.787	496.94
612.995	472.94
613.203	505.94
613.411	488.94
613.618	475.94
613.826	511.94
614.034	504.94
614.242	483.94
614.449	464.94
614.657	485.94
614.865	501.94
615.072	523.94
615.28	506.94
615.488	482.94
615.695	519.94
615.903	521.94
616.111	482.94
616.318	503.94
616.526	494.94
616.733	487.94
616.941	485.94
617.148	493.94
617.356	488.94
617.563	476.94
617.771	469.94
617.978	455.94
618.185	477.94
618.393	450.94
618.6	471.94
618.807	484.94
619.015	468.94
619.222	455.94
619.429	456.94
619.637	454.94
619.844	438.94
620.051	463.94
620.258	457.94
620.466	452.94
620.673	426.94
620.88	420.94
621.087	429.94
621.294	433.94
621.501	426.94
621.708	458.94
621.915	445.94
622.122	450.94
622.329	469.94
622.536	438.94
622.743	434.94
622.95	434.94
623.157	428.94
623.364	424.94
623.571	431.94
623.778	416.94
623.985	414.94
624.192	424.94
624.399	428.94
624.606	414.94
624.812	414.94
625.019	414.94
625.226	435.94
625.433	398.94
625.639	398.94
625.846	388.94
626.053	391.94
626.259	398.94
626.466	399.94
626.673	395.94
626.879	388.94
627.086	381.94
627.293	403.94
627.499	388.94
627.706	376.94
627.912	373.94
628.119	392.94
628.325	395.94
628.532	410.94
628.738	400.94
628.945	390.94
629.151	391.94
629.357	395.94
629.564	370.94
629.77	377.94
629.976	360.94
630.183	374.94
630.389	377.94
630.595	374.94
630.802	361.94
631.008	374.94
631.214	355.94
631.42	345.94
631.627	364.94
631.833	361.94
632.039	355.94
632.245	358.94
632.451	337.94
632.657	364.94
632.863	358.94
633.069	337.94
633.275	359.94
633.481	349.94
633.688	353.94
633.893	360.94
634.099	332.94
634.305	352.94
634.511	334.94
634.717	348.94
634.923	342.94
635.129	326.94
635.335	326.94
635.541	342.94
635.747	327.94
635.952	345.94
636.158	343.94
636.364	339.94
636.57	343.94
636.775	351.94
636.981	341.94
637.187	343.94
637.392	315.94
637.598	318.94
637.804	324.94
638.009	332.94
638.215	332.94
638.421	327.94
638.626	324.94
638.832	320.94
639.037	328.94
639.243	321.94
639.448	316.94
639.654	297.94
639.859	321.94
640.065	301.94
640.27	318.94
640.475	311.94
640.681	320.94
640.886	314.94
641.091	324.94
641.297	312.94
641.502	306.94
641.707	314.94
641.913	315.94
642.118	318.94
642.323	298.94
642.528	319.94
642.733	318.94
642.939	310.94
643.144	312.94
643.349	292.94
643.554	295.94
643.759	310.94
643.964	308.94
644.169	298.94
644.374	316.94
644.579	316.94
644.784	304.94
644.989	304.94
645.194	291.94
645.399	277.94
645.604	305.94
645.809	301.94
646.014	294.94
646.219	310.94
646.423	297.94
646.628	302.94
646.833	308.94
647.038	303.94
647.243	297.94
647.447	284.94
647.652	318.94
647.857	308.94
648.062	292.94
648.266	302.94
648.471	285.94
648.676	304.94
648.88	281.94
649.085	290.94
649.289	302.94
649.494	290.94
649.698	301.94
649.903	278.94
650.107	287.94
650.312	281.94
650.516	269.94
650.721	270.94
650.925	277.94
651.13	245.94
651.334	263.94
651.539	254.94
651.743	260.94
651.947	269.94
652.152	244.94
652.356	243.94
652.56	250.94
652.764	239.94
652.969	252.94
653.173	240.94
653.377	245.94
653.581	243.94
653.785	231.94
653.99	231.94
654.194	215.94
654.398	230.94
654.602	237.94
654.806	219.94
655.01	209.94
655.214	225.94
655.418	222.94
655.622	227.94
655.826	214.94
656.03	225.94
656.234	230.94
656.438	234.94
656.642	250.94
656.846	224.94
657.049	210.94
657.253	199.94
657.457	192.94
657.661	168.94
657.865	168.94
658.068	145.94
658.272	167.94
658.476	158.94
658.68	141.94
658.883	136.94
659.087	138.94
659.291	145.94
659.494	128.94
659.698	123.94
659.901	123.94
660.105	114.94
660.309	112.94
660.512	123.94
660.716	110.94
660.919	104.94
661.123	117.94
661.326	101.94
661.53	104.94
661.733	108.94
661.936	97.94
662.14	87.94
662.343	97.94
662.546	99.94
662.75	86.94
662.953	99.94
663.156	99.94
663.36	103.94
663.563	90.94
663.766	94.94
663.969	87.94
664.173	88.94
664.376	77.94
664.579	79.94
664.782	92.94
664.985	78.94
665.188	87.94
665.391	89.94
665.594	80.94
665.797	81.94
666	83.94
666.203	75.94
666.406	63.94
666.609	90.94
666.812	88.94
667.015	89.94
667.218	91.94
667.421	86.94
667.624	79.94
667.827	83.94
668.03	77.94
668.232	61.94
668.435	82.94
668.638	80.94
668.841	83.94
669.043	80.94
669.246	87.94
669.449	82.94
669.651	95.94
669.854	81.94
670.057	81.94
670.259	89.94
670.462	84.94
670.665	87.94
670.867	81.94
671.07	83.94
671.272	82.94
671.475	69.94
671.677	82.94
671.88	96.94
672.082	58.94
672.284	72.94
672.487	75.94
672.689	89.94
672.892	84.94
