Data from WStandard_LampEnergy10_LIBS07252019.E.O._I.C._HRD10591_15-55-38-928.txt Node
Date: Thu Jul 25 15:55:38 EDT 2019
User: cochatt
Spectrometer: HR+D1059
Trigger mode: 1
Integration Time (sec): 1.000000E-1
Scans to average: 1
Electric dark correction enabled: true
Nonlinearity correction enabled: false
Boxcar width: 0
XAxis mode: Wavelengths
Number of Pixels in Spectrum: 2048
>>>>>Begin Spectral Data<<<<<
223.165	-20.5
223.4	-20.5
223.635	-20.5
223.869	-12.5
224.104	-14.5
224.338	-16.5
224.573	-11.5
224.808	-11.5
225.042	-7.5
225.277	-5.5
225.511	1.5
225.746	9.5
225.98	-1.5
226.215	12.5
226.449	10.5
226.683	22.5
226.918	26.5
227.152	18.5
227.387	34.5
227.621	37.5
227.856	50.5
228.09	47.5
228.324	50.5
228.559	45.5
228.793	77.5
229.027	137.5
229.262	139.5
229.496	142.5
229.73	153.5
229.964	168.5
230.199	165.5
230.433	167.5
230.667	187.5
230.901	181.5
231.136	176.5
231.37	166.5
231.604	164.5
231.838	178.5
232.072	178.5
232.306	196.5
232.541	164.5
232.775	185.5
233.009	219.5
233.243	202.5
233.477	183.5
233.711	184.5
233.945	186.5
234.179	201.5
234.413	202.5
234.647	215.5
234.881	194.5
235.115	185.5
235.349	197.5
235.583	196.5
235.817	163.5
236.051	182.5
236.285	185.5
236.519	201.5
236.753	225.5
236.987	231.5
237.221	216.5
237.455	225.5
237.689	216.5
237.922	203.5
238.156	216.5
238.39	219.5
238.624	204.5
238.858	258.5
239.091	256.5
239.325	253.5
239.559	267.5
239.793	312.5
240.027	313.5
240.26	283.5
240.494	251.5
240.728	230.5
240.961	247.5
241.195	231.5
241.429	243.5
241.662	251.5
241.896	245.5
242.13	249.5
242.363	263.5
242.597	279.5
242.83	264.5
243.064	270.5
243.298	276.5
243.531	262.5
243.765	279.5
243.998	276.5
244.232	241.5
244.465	224.5
244.699	258.5
244.932	292.5
245.166	307.5
245.399	297.5
245.633	266.5
245.866	248.5
246.099	287.5
246.333	282.5
246.566	301.5
246.8	327.5
247.033	337.5
247.266	318.5
247.5	310.5
247.733	320.5
247.966	310.5
248.2	364.5
248.433	355.5
248.666	380.5
248.899	383.5
249.133	432.5
249.366	455.5
249.599	401.5
249.832	337.5
250.066	359.5
250.299	379.5
250.532	324.5
250.765	326.5
250.998	323.5
251.231	336.5
251.465	337.5
251.698	336.5
251.931	344.5
252.164	342.5
252.397	355.5
252.63	344.5
252.863	306.5
253.096	327.5
253.329	324.5
253.562	338.5
253.795	370.5
254.028	349.5
254.261	344.5
254.494	339.5
254.727	349.5
254.96	351.5
255.193	370.5
255.426	413.5
255.659	433.5
255.892	463.5
256.124	379.5
256.357	373.5
256.59	374.5
256.823	390.5
257.056	416.5
257.289	484.5
257.521	501.5
257.754	449.5
257.987	427.5
258.22	472.5
258.452	459.5
258.685	404.5
258.918	385.5
259.151	366.5
259.383	385.5
259.616	350.5
259.849	373.5
260.081	407.5
260.314	437.5
260.547	461.5
260.779	447.5
261.012	427.5
261.244	381.5
261.477	371.5
261.71	399.5
261.942	393.5
262.175	380.5
262.407	418.5
262.64	386.5
262.872	387.5
263.105	363.5
263.337	377.5
263.57	381.5
263.802	370.5
264.035	367.5
264.267	344.5
264.499	339.5
264.732	375.5
264.964	393.5
265.197	398.5
265.429	411.5
265.661	433.5
265.894	498.5
266.126	487.5
266.358	465.5
266.591	471.5
266.823	497.5
267.055	450.5
267.287	437.5
267.52	443.5
267.752	425.5
267.984	455.5
268.216	461.5
268.448	477.5
268.681	442.5
268.913	417.5
269.145	393.5
269.377	404.5
269.609	459.5
269.841	493.5
270.073	590.5
270.306	605.5
270.538	620.5
270.77	532.5
271.002	491.5
271.234	481.5
271.466	474.5
271.698	529.5
271.93	571.5
272.162	578.5
272.394	531.5
272.626	500.5
272.858	469.5
273.09	418.5
273.322	394.5
273.553	396.5
273.785	381.5
274.017	424.5
274.249	440.5
274.481	433.5
274.713	388.5
274.945	420.5
275.176	423.5
275.408	397.5
275.64	403.5
275.872	387.5
276.104	423.5
276.335	491.5
276.567	529.5
276.799	522.5
277.031	477.5
277.262	471.5
277.494	513.5
277.726	534.5
277.957	484.5
278.189	458.5
278.421	426.5
278.652	414.5
278.884	408.5
279.115	423.5
279.347	421.5
279.579	421.5
279.81	424.5
280.042	469.5
280.273	476.5
280.505	510.5
280.736	515.5
280.968	460.5
281.199	421.5
281.431	411.5
281.662	409.5
281.894	421.5
282.125	443.5
282.356	426.5
282.588	433.5
282.819	440.5
283.051	487.5
283.282	510.5
283.513	503.5
283.745	427.5
283.976	407.5
284.207	427.5
284.439	428.5
284.67	443.5
284.901	451.5
285.132	447.5
285.364	459.5
285.595	446.5
285.826	450.5
286.057	450.5
286.288	444.5
286.52	458.5
286.751	480.5
286.982	489.5
287.213	462.5
287.444	428.5
287.675	431.5
287.906	441.5
288.138	495.5
288.369	452.5
288.6	429.5
288.831	424.5
289.062	427.5
289.293	453.5
289.524	448.5
289.755	441.5
289.986	447.5
290.217	411.5
290.448	439.5
290.679	439.5
290.91	455.5
291.141	463.5
291.371	480.5
291.602	473.5
291.833	475.5
292.064	496.5
292.295	504.5
292.526	504.5
292.757	496.5
292.987	464.5
293.218	487.5
293.449	537.5
293.68	553.5
293.91	579.5
294.141	532.5
294.372	530.5
294.603	555.5
294.833	553.5
295.064	524.5
295.295	487.5
295.525	479.5
295.756	446.5
295.987	429.5
296.217	442.5
296.448	441.5
296.679	466.5
296.909	454.5
297.14	434.5
297.37	475.5
297.601	512.5
297.831	521.5
298.062	499.5
298.292	459.5
298.523	427.5
298.753	450.5
298.984	469.5
299.214	490.5
299.445	475.5
299.675	506.5
299.905	498.5
300.136	472.5
300.366	446.5
300.597	443.5
300.827	449.5
301.057	471.5
301.288	486.5
301.518	505.5
301.748	527.5
301.979	552.5
302.209	555.5
302.439	565.5
302.669	589.5
302.9	529.5
303.13	492.5
303.36	500.5
303.59	500.5
303.82	525.5
304.051	484.5
304.281	514.5
304.511	519.5
304.741	542.5
304.971	620.5
305.201	635.5
305.431	561.5
305.661	469.5
305.891	436.5
306.121	442.5
306.352	474.5
306.582	500.5
306.812	527.5
307.042	559.5
307.272	552.5
307.502	601.5
307.731	618.5
307.961	630.5
308.191	551.5
308.421	505.5
308.651	480.5
308.881	503.5
309.111	484.5
309.341	493.5
309.571	497.5
309.8	481.5
310.03	495.5
310.26	483.5
310.49	473.5
310.72	522.5
310.949	509.5
311.179	540.5
311.409	502.5
311.639	515.5
311.868	506.5
312.098	526.5
312.328	516.5
312.557	499.5
312.787	483.5
313.017	516.5
313.246	527.5
313.476	491.5
313.706	513.5
313.935	525.5
314.165	554.5
314.394	569.5
314.624	587.5
314.853	634.5
315.083	616.5
315.312	624.5
315.542	593.5
315.771	531.5
316.001	536.5
316.23	569.5
316.46	568.5
316.689	526.5
316.919	516.5
317.148	517.5
317.377	531.5
317.607	593.5
317.836	619.5
318.065	615.5
318.295	598.5
318.524	561.5
318.753	588.5
318.983	543.5
319.212	552.5
319.441	539.5
319.67	525.5
319.9	543.5
320.129	606.5
320.358	626.5
320.587	598.5
320.816	603.5
321.046	605.5
321.275	567.5
321.504	610.5
321.733	603.5
321.962	578.5
322.191	546.5
322.42	547.5
322.649	545.5
322.878	552.5
323.108	551.5
323.337	553.5
323.566	583.5
323.795	563.5
324.024	557.5
324.253	560.5
324.482	571.5
324.71	542.5
324.939	514.5
325.168	526.5
325.397	546.5
325.626	580.5
325.855	574.5
326.084	569.5
326.313	561.5
326.542	539.5
326.77	589.5
326.999	585.5
327.228	537.5
327.457	529.5
327.686	526.5
327.914	528.5
328.143	553.5
328.372	548.5
328.6	533.5
328.829	541.5
329.058	536.5
329.287	541.5
329.515	565.5
329.744	567.5
329.972	619.5
330.201	610.5
330.43	595.5
330.658	573.5
330.887	569.5
331.115	580.5
331.344	597.5
331.572	591.5
331.801	577.5
332.03	564.5
332.258	597.5
332.486	568.5
332.715	586.5
332.943	605.5
333.172	586.5
333.4	584.5
333.629	613.5
333.857	675.5
334.085	750.5
334.314	817.5
334.542	828.5
334.771	743.5
334.999	653.5
335.227	626.5
335.455	613.5
335.684	636.5
335.912	660.5
336.14	640.5
336.369	604.5
336.597	573.5
336.825	587.5
337.053	621.5
337.281	649.5
337.51	681.5
337.738	712.5
337.966	636.5
338.194	606.5
338.422	573.5
338.65	577.5
338.878	561.5
339.106	574.5
339.334	560.5
339.562	534.5
339.79	569.5
340.018	595.5
340.246	631.5
340.474	630.5
340.702	606.5
340.93	599.5
341.158	603.5
341.386	589.5
341.614	588.5
341.842	584.5
342.07	565.5
342.298	592.5
342.526	599.5
342.754	575.5
342.981	578.5
343.209	567.5
343.437	582.5
343.665	584.5
343.893	609.5
344.12	624.5
344.348	626.5
344.576	586.5
344.804	578.5
345.031	582.5
345.259	591.5
345.487	553.5
345.714	547.5
345.942	541.5
346.17	551.5
346.397	565.5
346.625	556.5
346.853	520.5
347.08	522.5
347.308	530.5
347.535	568.5
347.763	548.5
347.99	552.5
348.218	549.5
348.445	531.5
348.673	571.5
348.9	582.5
349.128	617.5
349.355	589.5
349.583	581.5
349.81	556.5
350.037	537.5
350.265	539.5
350.492	539.5
350.72	572.5
350.947	574.5
351.174	565.5
351.402	536.5
351.629	537.5
351.856	513.5
352.083	502.5
352.311	517.5
352.538	531.5
352.765	589.5
352.992	568.5
353.22	549.5
353.447	527.5
353.674	540.5
353.901	572.5
354.128	542.5
354.355	538.5
354.583	587.5
354.81	588.5
355.037	575.5
355.264	565.5
355.491	572.5
355.718	555.5
355.945	541.5
356.172	543.5
356.399	525.5
356.626	545.5
356.853	586.5
357.08	642.5
357.307	672.5
357.534	640.5
357.761	586.5
357.988	508.5
358.215	523.5
358.441	548.5
358.668	517.5
358.895	561.5
359.122	615.5
359.349	626.5
359.576	600.5
359.802	569.5
360.029	550.5
360.256	523.5
360.483	567.5
360.709	562.5
360.936	607.5
361.163	608.5
361.39	673.5
361.616	709.5
361.843	697.5
362.07	625.5
362.296	572.5
362.523	553.5
362.749	548.5
362.976	585.5
363.203	571.5
363.429	536.5
363.656	557.5
363.882	595.5
364.109	657.5
364.335	665.5
364.562	629.5
364.788	587.5
365.015	539.5
365.241	552.5
365.468	569.5
365.694	606.5
365.92	596.5
366.147	575.5
366.373	557.5
366.599	547.5
366.826	541.5
367.052	557.5
367.278	581.5
367.505	578.5
367.731	596.5
367.957	604.5
368.184	640.5
368.41	680.5
368.636	684.5
368.862	658.5
369.089	650.5
369.315	596.5
369.541	609.5
369.767	575.5
369.993	588.5
370.219	580.5
370.445	589.5
370.672	646.5
370.898	683.5
371.124	618.5
371.35	619.5
371.576	672.5
371.802	657.5
372.028	620.5
372.254	582.5
372.48	581.5
372.706	587.5
372.932	607.5
373.158	606.5
373.384	589.5
373.61	633.5
373.835	625.5
374.061	623.5
374.287	626.5
374.513	631.5
374.739	621.5
374.965	637.5
375.191	625.5
375.416	634.5
375.642	663.5
375.868	697.5
376.094	707.5
376.319	667.5
376.545	643.5
376.771	668.5
376.997	675.5
377.222	683.5
377.448	640.5
377.674	668.5
377.899	654.5
378.125	724.5
378.35	690.5
378.576	640.5
378.802	611.5
379.027	604.5
379.253	609.5
379.478	625.5
379.704	628.5
379.929	634.5
380.155	614.5
380.38	646.5
380.606	648.5
380.831	656.5
381.057	712.5
381.282	706.5
381.507	693.5
381.733	711.5
381.958	729.5
382.184	675.5
382.409	665.5
382.634	660.5
382.86	661.5
383.085	669.5
383.31	727.5
383.535	791.5
383.761	781.5
383.986	728.5
384.211	732.5
384.436	722.5
384.662	754.5
384.887	738.5
385.112	733.5
385.337	717.5
385.562	741.5
385.787	724.5
386.013	730.5
386.238	723.5
386.463	760.5
386.688	808.5
386.913	855.5
387.138	782.5
387.363	763.5
387.588	739.5
387.813	777.5
388.038	790.5
388.263	819.5
388.488	767.5
388.713	715.5
388.938	723.5
389.163	706.5
389.387	737.5
389.612	753.5
389.837	742.5
390.062	741.5
390.287	740.5
390.512	738.5
390.736	716.5
390.961	695.5
391.186	711.5
391.411	715.5
391.636	735.5
391.86	737.5
392.085	719.5
392.31	737.5
392.534	747.5
392.759	741.5
392.984	736.5
393.208	737.5
393.433	805.5
393.658	805.5
393.882	769.5
394.107	754.5
394.331	751.5
394.556	735.5
394.78	757.5
395.005	808.5
395.229	796.5
395.454	855.5
395.678	828.5
395.903	827.5
396.127	807.5
396.352	788.5
396.576	835.5
396.801	835.5
397.025	820.5
397.249	828.5
397.474	820.5
397.698	817.5
397.922	832.5
398.147	889.5
398.371	881.5
398.595	888.5
398.82	878.5
399.044	872.5
399.268	937.5
399.492	955.5
399.717	967.5
399.941	990.5
400.165	943.5
400.389	917.5
400.613	965.5
400.837	1110.5
401.062	1174.5
401.286	1037.5
401.51	943.5
401.734	971.5
401.958	903.5
402.182	867.5
402.406	859.5
402.63	857.5
402.854	866.5
403.078	883.5
403.302	887.5
403.526	899.5
403.75	905.5
403.974	923.5
404.198	927.5
404.422	954.5
404.645	1023.5
404.869	957.5
405.093	880.5
405.317	892.5
405.541	885.5
405.765	907.5
405.988	927.5
406.212	939.5
406.436	955.5
406.66	971.5
406.883	1011.5
407.107	1132.5
407.331	1189.5
407.555	1256.5
407.778	1110.5
408.002	994.5
408.226	943.5
408.449	974.5
408.673	920.5
408.896	954.5
409.12	935.5
409.344	923.5
409.567	917.5
409.791	900.5
410.014	928.5
410.238	995.5
410.461	1067.5
410.685	938.5
410.908	932.5
411.132	939.5
411.355	893.5
411.578	927.5
411.802	919.5
412.025	904.5
412.249	888.5
412.472	896.5
412.695	886.5
412.919	899.5
413.142	922.5
413.365	898.5
413.589	941.5
413.812	986.5
414.035	989.5
414.258	911.5
414.482	914.5
414.705	894.5
414.928	911.5
415.151	899.5
415.374	909.5
415.597	940.5
415.821	949.5
416.044	941.5
416.267	943.5
416.49	905.5
416.713	893.5
416.936	949.5
417.159	962.5
417.382	999.5
417.605	927.5
417.828	915.5
418.051	920.5
418.274	902.5
418.497	925.5
418.72	889.5
418.943	913.5
419.166	932.5
419.389	956.5
419.611	941.5
419.834	898.5
420.057	936.5
420.28	908.5
420.503	935.5
420.726	947.5
420.948	947.5
421.171	873.5
421.394	917.5
421.617	977.5
421.839	975.5
422.062	941.5
422.285	925.5
422.507	902.5
422.73	906.5
422.953	849.5
423.175	870.5
423.398	916.5
423.621	916.5
423.843	925.5
424.066	952.5
424.288	1020.5
424.511	1021.5
424.733	1004.5
424.956	895.5
425.178	893.5
425.401	897.5
425.623	921.5
425.846	918.5
426.068	993.5
426.291	942.5
426.513	936.5
426.735	946.5
426.958	1023.5
427.18	1063.5
427.402	976.5
427.625	1007.5
427.847	1009.5
428.069	923.5
428.292	913.5
428.514	897.5
428.736	896.5
428.958	894.5
429.181	895.5
429.403	1043.5
429.625	1221.5
429.847	1043.5
430.069	911.5
430.292	1033.5
430.514	1009.5
430.736	970.5
430.958	961.5
431.18	903.5
431.402	852.5
431.624	848.5
431.846	785.5
432.068	708.5
432.29	746.5
432.512	788.5
432.734	861.5
432.956	923.5
433.178	964.5
433.4	974.5
433.622	941.5
433.844	877.5
434.066	812.5
434.287	790.5
434.509	770.5
434.731	808.5
434.953	897.5
435.175	923.5
435.397	888.5
435.618	881.5
435.84	813.5
436.062	821.5
436.284	870.5
436.505	907.5
436.727	945.5
436.949	921.5
437.17	870.5
437.392	851.5
437.614	805.5
437.835	791.5
438.057	795.5
438.278	875.5
438.5	837.5
438.721	890.5
438.943	893.5
439.165	884.5
439.386	915.5
439.608	925.5
439.829	937.5
440.05	931.5
440.272	924.5
440.493	946.5
440.715	964.5
440.936	973.5
441.158	1020.5
441.379	1015.5
441.6	1018.5
441.822	998.5
442.043	989.5
442.264	1002.5
442.486	970.5
442.707	949.5
442.928	930.5
443.149	951.5
443.371	989.5
443.592	1018.5
443.813	999.5
444.034	994.5
444.255	997.5
444.476	1019.5
444.698	1018.5
444.919	986.5
445.14	1076.5
445.361	1100.5
445.582	1075.5
445.803	1007.5
446.024	1011.5
446.245	1060.5
446.466	1039.5
446.687	1043.5
446.908	1016.5
447.129	947.5
447.35	983.5
447.571	987.5
447.792	937.5
448.013	925.5
448.234	938.5
448.455	945.5
448.675	955.5
448.896	928.5
449.117	907.5
449.338	905.5
449.559	959.5
449.779	964.5
450	1035.5
450.221	1027.5
450.442	1008.5
450.662	904.5
450.883	847.5
451.104	864.5
451.324	856.5
451.545	867.5
451.766	851.5
451.986	826.5
452.207	802.5
452.428	793.5
452.648	775.5
452.869	763.5
453.089	778.5
453.31	757.5
453.53	787.5
453.751	727.5
453.971	705.5
454.192	722.5
454.412	753.5
454.633	775.5
454.853	739.5
455.073	726.5
455.294	773.5
455.514	767.5
455.734	742.5
455.955	753.5
456.175	735.5
456.395	725.5
456.616	711.5
456.836	731.5
457.056	701.5
457.276	705.5
457.497	687.5
457.717	682.5
457.937	700.5
458.157	683.5
458.377	652.5
458.598	668.5
458.818	651.5
459.038	689.5
459.258	711.5
459.478	721.5
459.698	707.5
459.918	741.5
460.138	796.5
460.358	801.5
460.578	827.5
460.798	844.5
461.018	862.5
461.238	829.5
461.458	844.5
461.678	837.5
461.898	800.5
462.118	790.5
462.338	826.5
462.558	855.5
462.777	820.5
462.997	853.5
463.217	844.5
463.437	843.5
463.657	831.5
463.876	806.5
464.096	808.5
464.316	828.5
464.536	848.5
464.755	884.5
464.975	843.5
465.195	825.5
465.414	849.5
465.634	858.5
465.854	871.5
466.073	971.5
466.293	897.5
466.512	827.5
466.732	874.5
466.951	898.5
467.171	853.5
467.391	850.5
467.61	895.5
467.829	889.5
468.049	963.5
468.268	1059.5
468.488	959.5
468.707	908.5
468.927	899.5
469.146	888.5
469.365	908.5
469.585	908.5
469.804	902.5
470.023	917.5
470.243	947.5
470.462	940.5
470.681	912.5
470.901	907.5
471.12	909.5
471.339	928.5
471.558	883.5
471.777	892.5
471.997	890.5
472.216	834.5
472.435	777.5
472.654	740.5
472.873	779.5
473.092	828.5
473.311	823.5
473.53	800.5
473.749	795.5
473.968	819.5
474.187	853.5
474.406	854.5
474.625	855.5
474.844	865.5
475.063	838.5
475.282	849.5
475.501	821.5
475.72	838.5
475.939	897.5
476.158	852.5
476.377	855.5
476.596	833.5
476.814	836.5
477.033	817.5
477.252	852.5
477.471	875.5
477.69	915.5
477.908	925.5
478.127	955.5
478.346	963.5
478.564	969.5
478.783	1003.5
479.002	980.5
479.22	1008.5
479.439	1001.5
479.658	1026.5
479.876	973.5
480.095	875.5
480.313	872.5
480.532	890.5
480.751	848.5
480.969	831.5
481.188	778.5
481.406	766.5
481.624	758.5
481.843	785.5
482.061	811.5
482.28	896.5
482.498	888.5
482.717	851.5
482.935	884.5
483.153	959.5
483.372	1009.5
483.59	1001.5
483.808	947.5
484.027	911.5
484.245	959.5
484.463	1220.5
484.681	1271.5
484.9	1009.5
485.118	957.5
485.336	905.5
485.554	900.5
485.772	872.5
485.99	868.5
486.209	879.5
486.427	917.5
486.645	907.5
486.863	963.5
487.081	1026.5
487.299	1035.5
487.517	1017.5
487.735	1099.5
487.953	1174.5
488.171	1195.5
488.389	1135.5
488.607	1062.5
488.825	1157.5
489.043	1084.5
489.261	945.5
489.479	997.5
489.696	1013.5
489.914	1054.5
490.132	1022.5
490.35	1064.5
490.568	1152.5
490.786	1181.5
491.003	1175.5
491.221	1242.5
491.439	1292.5
491.657	1283.5
491.874	1335.5
492.092	1411.5
492.31	1479.5
492.527	1428.5
492.745	1340.5
492.963	1311.5
493.18	1308.5
493.398	1330.5
493.615	1322.5
493.833	1239.5
494.05	1195.5
494.268	1215.5
494.485	1214.5
494.703	1213.5
494.92	1201.5
495.138	1211.5
495.355	1188.5
495.573	1268.5
495.79	1240.5
496.008	1283.5
496.225	1207.5
496.442	1220.5
496.66	1177.5
496.877	1214.5
497.094	1219.5
497.312	1206.5
497.529	1205.5
497.746	1183.5
497.963	1231.5
498.181	1306.5
498.398	1254.5
498.615	1188.5
498.832	1144.5
499.049	1124.5
499.267	1153.5
499.484	1201.5
499.701	1286.5
499.918	1313.5
500.135	1400.5
500.352	1501.5
500.569	1553.5
500.786	1667.5
501.003	1511.5
501.22	1389.5
501.437	1352.5
501.654	1405.5
501.871	1314.5
502.088	1163.5
502.305	1198.5
502.522	1121.5
502.739	1063.5
502.956	1062.5
503.172	1032.5
503.389	1000.5
503.606	964.5
503.823	978.5
504.04	970.5
504.256	990.5
504.473	986.5
504.69	1032.5
504.907	981.5
505.123	940.5
505.34	1094.5
505.557	1365.5
505.773	1105.5
505.99	957.5
506.207	880.5
506.423	877.5
506.64	861.5
506.856	912.5
507.073	1029.5
507.289	1072.5
507.506	1008.5
507.722	866.5
507.939	843.5
508.155	830.5
508.372	812.5
508.588	797.5
508.805	792.5
509.021	777.5
509.238	759.5
509.454	745.5
509.67	794.5
509.887	729.5
510.103	740.5
510.319	745.5
510.536	782.5
510.752	781.5
510.968	769.5
511.184	784.5
511.401	756.5
511.617	704.5
511.833	711.5
512.049	705.5
512.265	698.5
512.481	701.5
512.698	722.5
512.914	740.5
513.13	712.5
513.346	715.5
513.562	697.5
513.778	709.5
513.994	745.5
514.21	751.5
514.426	758.5
514.642	807.5
514.858	760.5
515.074	719.5
515.29	712.5
515.506	720.5
515.721	722.5
515.937	742.5
516.153	789.5
516.369	775.5
516.585	747.5
516.801	693.5
517.016	729.5
517.232	747.5
517.448	773.5
517.664	765.5
517.879	757.5
518.095	800.5
518.311	771.5
518.527	757.5
518.742	736.5
518.958	727.5
519.173	755.5
519.389	764.5
519.605	787.5
519.82	787.5
520.036	791.5
520.251	754.5
520.467	769.5
520.682	787.5
520.898	791.5
521.113	689.5
521.329	699.5
521.544	745.5
521.76	737.5
521.975	706.5
522.19	712.5
522.406	727.5
522.621	920.5
522.836	874.5
523.052	721.5
523.267	721.5
523.482	733.5
523.698	731.5
523.913	711.5
524.128	768.5
524.343	802.5
524.559	841.5
524.774	760.5
524.989	780.5
525.204	757.5
525.419	731.5
525.634	716.5
525.849	738.5
526.064	722.5
526.28	712.5
526.495	646.5
526.71	647.5
526.925	640.5
527.14	631.5
527.355	638.5
527.57	620.5
527.785	659.5
527.999	652.5
528.214	670.5
528.429	683.5
528.644	732.5
528.859	765.5
529.074	804.5
529.289	871.5
529.503	864.5
529.718	832.5
529.933	713.5
530.148	648.5
530.363	649.5
530.577	629.5
530.792	617.5
531.007	633.5
531.221	638.5
531.436	648.5
531.651	638.5
531.865	668.5
532.08	615.5
532.295	614.5
532.509	604.5
532.724	611.5
532.938	644.5
533.153	697.5
533.367	695.5
533.582	738.5
533.796	713.5
534.011	701.5
534.225	675.5
534.44	607.5
534.654	629.5
534.868	612.5
535.083	657.5
535.297	705.5
535.511	678.5
535.726	667.5
535.94	693.5
536.154	646.5
536.369	609.5
536.583	605.5
536.797	602.5
537.011	613.5
537.225	597.5
537.44	605.5
537.654	643.5
537.868	619.5
538.082	609.5
538.296	614.5
538.51	647.5
538.724	665.5
538.938	718.5
539.153	737.5
539.367	737.5
539.581	669.5
539.795	670.5
540.009	617.5
540.222	626.5
540.436	631.5
540.65	735.5
540.864	778.5
541.078	801.5
541.292	846.5
541.506	880.5
541.72	950.5
541.934	1013.5
542.147	1062.5
542.361	991.5
542.575	906.5
542.789	823.5
543.002	751.5
543.216	716.5
543.43	758.5
543.644	794.5
543.857	866.5
544.071	895.5
544.285	928.5
544.498	908.5
544.712	922.5
544.925	945.5
545.139	923.5
545.352	927.5
545.566	904.5
545.779	930.5
545.993	932.5
546.206	937.5
546.42	930.5
546.633	933.5
546.847	931.5
547.06	951.5
547.274	943.5
547.487	973.5
547.7	953.5
547.914	978.5
548.127	957.5
548.34	960.5
548.554	906.5
548.767	910.5
548.98	921.5
549.193	935.5
549.407	963.5
549.62	947.5
549.833	908.5
550.046	883.5
550.259	887.5
550.473	860.5
550.686	871.5
550.899	855.5
551.112	830.5
551.325	816.5
551.538	832.5
551.751	868.5
551.964	708.5
552.177	741.5
552.39	763.5
552.603	826.5
552.816	858.5
553.029	869.5
553.242	899.5
553.455	916.5
553.667	892.5
553.88	862.5
554.093	859.5
554.306	844.5
554.519	823.5
554.732	788.5
554.944	807.5
555.157	824.5
555.37	763.5
555.583	791.5
555.795	772.5
556.008	721.5
556.221	707.5
556.433	706.5
556.646	714.5
556.859	719.5
557.071	713.5
557.284	729.5
557.496	732.5
557.709	725.5
557.921	733.5
558.134	733.5
558.346	721.5
558.559	732.5
558.771	736.5
558.984	679.5
559.196	690.5
559.409	683.5
559.621	653.5
559.833	664.5
560.046	659.5
560.258	637.5
560.47	680.5
560.683	645.5
560.895	665.5
561.107	637.5
561.32	653.5
561.532	661.5
561.744	679.5
561.956	669.5
562.168	657.5
562.381	643.5
562.593	625.5
562.805	639.5
563.017	617.5
563.229	623.5
563.441	631.5
563.653	646.5
563.865	638.5
564.077	604.5
564.289	604.5
564.501	615.5
564.713	607.5
564.925	631.5
565.137	692.5
565.349	630.5
565.561	629.5
565.773	601.5
565.985	617.5
566.197	656.5
566.408	666.5
566.62	664.5
566.832	652.5
567.044	675.5
567.255	636.5
567.467	645.5
567.679	647.5
567.891	639.5
568.102	597.5
568.314	559.5
568.526	544.5
568.737	490.5
568.949	488.5
569.161	472.5
569.372	468.5
569.584	467.5
569.795	459.5
570.007	444.5
570.218	419.5
570.43	423.5
570.641	420.5
570.853	446.5
571.064	473.5
571.276	468.5
571.487	467.5
571.698	452.5
571.91	456.5
572.121	461.5
572.333	441.5
572.544	445.5
572.755	404.5
572.966	413.5
573.178	396.5
573.389	398.5
573.6	409.5
573.811	463.5
574.023	385.5
574.234	390.5
574.445	387.5
574.656	387.5
574.867	380.5
575.078	417.5
575.289	420.5
575.501	385.5
575.712	396.5
575.923	396.5
576.134	395.5
576.345	392.5
576.556	395.5
576.767	400.5
576.978	387.5
577.188	371.5
577.399	358.5
577.61	366.5
577.821	363.5
578.032	346.5
578.243	361.5
578.454	359.5
578.665	363.5
578.875	352.5
579.086	324.5
579.297	334.5
579.508	359.5
579.718	352.5
579.929	327.5
580.14	341.5
580.35	319.5
580.561	367.5
580.772	404.5
580.982	369.5
581.193	344.5
581.403	342.5
581.614	340.5
581.825	334.5
582.035	345.5
582.246	343.5
582.456	357.5
582.667	349.5
582.877	346.5
583.087	331.5
583.298	332.5
583.508	332.5
583.719	319.5
583.929	314.5
584.139	317.5
584.35	297.5
584.56	304.5
584.77	328.5
584.981	331.5
585.191	324.5
585.401	332.5
585.611	326.5
585.821	327.5
586.032	317.5
586.242	311.5
586.452	319.5
586.662	318.5
586.872	297.5
587.082	308.5
587.292	315.5
587.502	303.5
587.713	313.5
587.923	305.5
588.133	308.5
588.343	308.5
588.553	312.5
588.762	308.5
588.972	309.5
589.182	313.5
589.392	296.5
589.602	306.5
589.812	325.5
590.022	310.5
590.232	311.5
590.441	313.5
590.651	299.5
590.861	328.5
591.071	301.5
591.281	287.5
591.49	293.5
591.7	313.5
591.91	305.5
592.119	310.5
592.329	309.5
592.539	319.5
592.748	319.5
592.958	342.5
593.167	317.5
593.377	330.5
593.587	335.5
593.796	322.5
594.006	313.5
594.215	334.5
594.424	343.5
594.634	346.5
594.843	333.5
595.053	349.5
595.262	347.5
595.472	320.5
595.681	315.5
595.89	331.5
596.1	301.5
596.309	322.5
596.518	313.5
596.727	323.5
596.937	334.5
597.146	309.5
597.355	297.5
597.564	308.5
597.774	301.5
597.983	298.5
598.192	271.5
598.401	274.5
598.61	285.5
598.819	284.5
599.028	303.5
599.237	301.5
599.446	307.5
599.655	287.5
599.864	266.5
600.073	264.5
600.282	291.5
600.491	288.5
600.7	308.5
600.909	313.5
601.118	312.5
601.327	344.5
601.536	348.5
601.745	344.5
601.953	371.5
602.162	329.5
602.371	344.5
602.58	349.5
602.789	333.5
602.997	346.5
603.206	341.5
603.415	324.5
603.623	352.5
603.832	345.5
604.041	325.5
604.249	338.5
604.458	307.5
604.666	293.5
604.875	291.5
605.084	315.5
605.292	326.5
605.501	333.5
605.709	337.5
605.918	351.5
606.126	368.5
606.334	364.5
606.543	353.5
606.751	354.5
606.96	357.5
607.168	342.5
607.376	345.5
607.585	329.5
607.793	348.5
608.001	346.5
608.21	354.5
608.418	357.5
608.626	361.5
608.834	364.5
609.043	336.5
609.251	346.5
609.459	362.5
609.667	357.5
609.875	368.5
610.083	373.5
610.291	360.5
610.499	361.5
610.707	375.5
610.916	352.5
611.124	354.5
611.332	372.5
611.54	369.5
611.748	352.5
611.955	355.5
612.163	371.5
612.371	364.5
612.579	365.5
612.787	353.5
612.995	344.5
613.203	367.5
613.411	362.5
613.618	355.5
613.826	327.5
614.034	355.5
614.242	348.5
614.449	362.5
614.657	341.5
614.865	345.5
615.072	345.5
615.28	345.5
615.488	342.5
615.695	356.5
615.903	355.5
616.111	344.5
616.318	359.5
616.526	370.5
616.733	358.5
616.941	338.5
617.148	350.5
617.356	353.5
617.563	331.5
617.771	342.5
617.978	339.5
618.185	330.5
618.393	329.5
618.6	319.5
618.807	353.5
619.015	353.5
619.222	339.5
619.429	338.5
619.637	320.5
619.844	293.5
620.051	294.5
620.258	304.5
620.466	305.5
620.673	315.5
620.88	337.5
621.087	301.5
621.294	280.5
621.501	303.5
621.708	283.5
621.915	313.5
622.122	323.5
622.329	329.5
622.536	324.5
622.743	338.5
622.95	323.5
623.157	316.5
623.364	327.5
623.571	335.5
623.778	310.5
623.985	333.5
624.192	316.5
624.399	303.5
624.606	321.5
624.812	299.5
625.019	297.5
625.226	294.5
625.433	273.5
625.639	272.5
625.846	261.5
626.053	241.5
626.259	235.5
626.466	224.5
626.673	231.5
626.879	236.5
627.086	266.5
627.293	274.5
627.499	276.5
627.706	298.5
627.912	292.5
628.119	287.5
628.325	309.5
628.532	281.5
628.738	287.5
628.945	273.5
629.151	296.5
629.357	266.5
629.564	269.5
629.77	290.5
629.976	284.5
630.183	262.5
630.389	268.5
630.595	267.5
630.802	281.5
631.008	271.5
631.214	278.5
631.42	269.5
631.627	247.5
631.833	246.5
632.039	272.5
632.245	278.5
632.451	266.5
632.657	249.5
632.863	271.5
633.069	261.5
633.275	245.5
633.481	260.5
633.688	241.5
633.893	247.5
634.099	242.5
634.305	268.5
634.511	257.5
634.717	242.5
634.923	223.5
635.129	217.5
635.335	236.5
635.541	216.5
635.747	246.5
635.952	246.5
636.158	238.5
636.364	256.5
636.57	246.5
636.775	273.5
636.981	275.5
637.187	268.5
637.392	270.5
637.598	259.5
637.804	268.5
638.009	254.5
638.215	240.5
638.421	254.5
638.626	252.5
638.832	253.5
639.037	239.5
639.243	243.5
639.448	256.5
639.654	236.5
639.859	244.5
640.065	242.5
640.27	237.5
640.475	239.5
640.681	231.5
640.886	239.5
641.091	248.5
641.297	227.5
641.502	241.5
641.707	259.5
641.913	246.5
642.118	242.5
642.323	235.5
642.528	255.5
642.733	251.5
642.939	236.5
643.144	244.5
643.349	242.5
643.554	246.5
643.759	233.5
643.964	230.5
644.169	233.5
644.374	240.5
644.579	251.5
644.784	257.5
644.989	248.5
645.194	232.5
645.399	230.5
645.604	227.5
645.809	224.5
646.014	249.5
646.219	229.5
646.423	240.5
646.628	233.5
646.833	243.5
647.038	241.5
647.243	219.5
647.447	230.5
647.652	244.5
647.857	242.5
648.062	249.5
648.266	235.5
648.471	244.5
648.676	233.5
648.88	226.5
649.085	231.5
649.289	243.5
649.494	239.5
649.698	228.5
649.903	227.5
650.107	229.5
650.312	228.5
650.516	230.5
650.721	241.5
650.925	228.5
651.13	228.5
651.334	229.5
651.539	223.5
651.743	211.5
651.947	231.5
652.152	203.5
652.356	216.5
652.56	198.5
652.764	219.5
652.969	208.5
653.173	201.5
653.377	194.5
653.581	206.5
653.785	208.5
653.99	203.5
654.194	208.5
654.398	203.5
654.602	186.5
654.806	203.5
655.01	199.5
655.214	187.5
655.418	199.5
655.622	200.5
655.826	202.5
656.03	203.5
656.234	207.5
656.438	227.5
656.642	234.5
656.846	214.5
657.049	207.5
657.253	215.5
657.457	171.5
657.661	182.5
657.865	169.5
658.068	169.5
658.272	172.5
658.476	155.5
658.68	147.5
658.883	151.5
659.087	152.5
659.291	142.5
659.494	124.5
659.698	129.5
659.901	147.5
660.105	119.5
660.309	137.5
660.512	121.5
660.716	123.5
660.919	123.5
661.123	123.5
661.326	112.5
661.53	108.5
661.733	104.5
661.936	98.5
662.14	90.5
662.343	108.5
662.546	86.5
662.75	95.5
662.953	92.5
663.156	95.5
663.36	85.5
663.563	82.5
663.766	91.5
663.969	93.5
664.173	100.5
664.376	88.5
664.579	87.5
664.782	96.5
664.985	92.5
665.188	99.5
665.391	76.5
665.594	77.5
665.797	85.5
666	73.5
666.203	61.5
666.406	77.5
666.609	77.5
666.812	82.5
667.015	74.5
667.218	89.5
667.421	88.5
667.624	85.5
667.827	86.5
668.03	76.5
668.232	82.5
668.435	89.5
668.638	66.5
668.841	79.5
669.043	81.5
669.246	81.5
669.449	87.5
669.651	82.5
669.854	74.5
670.057	72.5
670.259	69.5
670.462	69.5
670.665	85.5
670.867	92.5
671.07	67.5
671.272	75.5
671.475	82.5
671.677	73.5
671.88	81.5
672.082	82.5
672.284	77.5
672.487	73.5
672.689	82.5
672.892	79.5
