Data from WStandard_LampEnergy8_LIBS07252019.E.O._I.C._HRD10591_15-58-43-929.txt Node
Date: Thu Jul 25 15:58:43 EDT 2019
User: cochatt
Spectrometer: HR+D1059
Trigger mode: 1
Integration Time (sec): 1.000000E-1
Scans to average: 1
Electric dark correction enabled: true
Nonlinearity correction enabled: false
Boxcar width: 0
XAxis mode: Wavelengths
Number of Pixels in Spectrum: 2048
>>>>>Begin Spectral Data<<<<<
223.165	-8.12
223.4	-8.12
223.635	-8.12
223.869	-17.12
224.104	-14.12
224.338	-5.12
224.573	-17.12
224.808	-10.12
225.042	-13.12
225.277	-14.12
225.511	-0.12
225.746	18.88
225.98	4.88
226.215	12.88
226.449	8.88
226.683	11.88
226.918	19.88
227.152	21.88
227.387	40.88
227.621	37.88
227.856	36.88
228.09	45.88
228.324	52.88
228.559	74.88
228.793	101.88
229.027	198.88
229.262	199.88
229.496	220.88
229.73	226.88
229.964	272.88
230.199	267.88
230.433	258.88
230.667	273.88
230.901	304.88
231.136	271.88
231.37	266.88
231.604	256.88
231.838	284.88
232.072	255.88
232.306	266.88
232.541	267.88
232.775	281.88
233.009	325.88
233.243	341.88
233.477	299.88
233.711	283.88
233.945	324.88
234.179	322.88
234.413	321.88
234.647	341.88
234.881	316.88
235.115	287.88
235.349	297.88
235.583	331.88
235.817	293.88
236.051	281.88
236.285	296.88
236.519	321.88
236.753	359.88
236.987	374.88
237.221	336.88
237.455	400.88
237.689	368.88
237.922	362.88
238.156	355.88
238.39	363.88
238.624	380.88
238.858	384.88
239.091	393.88
239.325	437.88
239.559	485.88
239.793	506.88
240.027	521.88
240.26	501.88
240.494	386.88
240.728	363.88
240.961	370.88
241.195	392.88
241.429	428.88
241.662	404.88
241.896	418.88
242.13	392.88
242.363	442.88
242.597	469.88
242.83	456.88
243.064	446.88
243.298	499.88
243.531	485.88
243.765	480.88
243.998	477.88
244.232	415.88
244.465	408.88
244.699	412.88
244.932	455.88
245.166	530.88
245.399	489.88
245.633	474.88
245.866	468.88
246.099	476.88
246.333	496.88
246.566	510.88
246.8	547.88
247.033	580.88
247.266	536.88
247.5	533.88
247.733	560.88
247.966	541.88
248.2	602.88
248.433	601.88
248.666	621.88
248.899	665.88
249.133	764.88
249.366	819.88
249.599	698.88
249.832	619.88
250.066	635.88
250.299	630.88
250.532	582.88
250.765	548.88
250.998	568.88
251.231	610.88
251.465	612.88
251.698	586.88
251.931	576.88
252.164	619.88
252.397	624.88
252.63	617.88
252.863	539.88
253.096	554.88
253.329	589.88
253.562	620.88
253.795	629.88
254.028	607.88
254.261	573.88
254.494	588.88
254.727	574.88
254.96	590.88
255.193	651.88
255.426	732.88
255.659	808.88
255.892	804.88
256.124	694.88
256.357	658.88
256.59	704.88
256.823	711.88
257.056	718.88
257.289	845.88
257.521	926.88
257.754	826.88
257.987	779.88
258.22	852.88
258.452	811.88
258.685	701.88
258.918	684.88
259.151	679.88
259.383	642.88
259.616	582.88
259.849	648.88
260.081	688.88
260.314	787.88
260.547	827.88
260.779	831.88
261.012	784.88
261.244	699.88
261.477	677.88
261.71	680.88
261.942	681.88
262.175	672.88
262.407	729.88
262.64	664.88
262.872	635.88
263.105	622.88
263.337	646.88
263.57	651.88
263.802	654.88
264.035	598.88
264.267	569.88
264.499	587.88
264.732	627.88
264.964	673.88
265.197	687.88
265.429	728.88
265.661	804.88
265.894	870.88
266.126	869.88
266.358	796.88
266.591	835.88
266.823	859.88
267.055	798.88
267.287	804.88
267.52	789.88
267.752	783.88
267.984	762.88
268.216	798.88
268.448	808.88
268.681	791.88
268.913	774.88
269.145	715.88
269.377	702.88
269.609	762.88
269.841	916.88
270.073	996.88
270.306	1132.88
270.538	1130.88
270.77	977.88
271.002	845.88
271.234	828.88
271.466	834.88
271.698	928.88
271.93	1075.88
272.162	1034.88
272.394	969.88
272.626	906.88
272.858	814.88
273.09	739.88
273.322	716.88
273.553	692.88
273.785	678.88
274.017	707.88
274.249	780.88
274.481	792.88
274.713	747.88
274.945	695.88
275.176	712.88
275.408	677.88
275.64	702.88
275.872	702.88
276.104	734.88
276.335	854.88
276.567	928.88
276.799	946.88
277.031	840.88
277.262	826.88
277.494	845.88
277.726	922.88
277.957	900.88
278.189	826.88
278.421	755.88
278.652	731.88
278.884	739.88
279.115	725.88
279.347	731.88
279.579	761.88
279.81	766.88
280.042	812.88
280.273	892.88
280.505	914.88
280.736	902.88
280.968	822.88
281.199	770.88
281.431	741.88
281.662	720.88
281.894	715.88
282.125	754.88
282.356	775.88
282.588	781.88
282.819	783.88
283.051	865.88
283.282	858.88
283.513	855.88
283.745	778.88
283.976	744.88
284.207	723.88
284.439	755.88
284.67	761.88
284.901	807.88
285.132	804.88
285.364	782.88
285.595	768.88
285.826	752.88
286.057	741.88
286.288	762.88
286.52	818.88
286.751	875.88
286.982	867.88
287.213	835.88
287.444	748.88
287.675	774.88
287.906	794.88
288.138	855.88
288.369	821.88
288.6	757.88
288.831	745.88
289.062	743.88
289.293	785.88
289.524	777.88
289.755	802.88
289.986	809.88
290.217	752.88
290.448	768.88
290.679	801.88
290.91	806.88
291.141	789.88
291.371	857.88
291.602	848.88
291.833	836.88
292.064	887.88
292.295	846.88
292.526	828.88
292.757	849.88
292.987	854.88
293.218	824.88
293.449	875.88
293.68	1001.88
293.91	1006.88
294.141	970.88
294.372	918.88
294.603	966.88
294.833	987.88
295.064	917.88
295.295	824.88
295.525	814.88
295.756	772.88
295.987	730.88
296.217	759.88
296.448	792.88
296.679	786.88
296.909	787.88
297.14	776.88
297.37	796.88
297.601	856.88
297.831	884.88
298.062	907.88
298.292	829.88
298.523	790.88
298.753	807.88
298.984	805.88
299.214	816.88
299.445	846.88
299.675	869.88
299.905	835.88
300.136	839.88
300.366	812.88
300.597	799.88
300.827	771.88
301.057	817.88
301.288	818.88
301.518	869.88
301.748	882.88
301.979	944.88
302.209	968.88
302.439	988.88
302.669	1022.88
302.9	947.88
303.13	878.88
303.36	846.88
303.59	874.88
303.82	841.88
304.051	866.88
304.281	870.88
304.511	867.88
304.741	960.88
304.971	1076.88
305.201	1103.88
305.431	979.88
305.661	835.88
305.891	761.88
306.121	757.88
306.352	826.88
306.582	877.88
306.812	898.88
307.042	962.88
307.272	960.88
307.502	1001.88
307.731	1085.88
307.961	1066.88
308.191	1009.88
308.421	885.88
308.651	837.88
308.881	852.88
309.111	848.88
309.341	832.88
309.571	862.88
309.8	796.88
310.03	838.88
310.26	850.88
310.49	844.88
310.72	854.88
310.949	915.88
311.179	905.88
311.409	851.88
311.639	864.88
311.868	868.88
312.098	856.88
312.328	849.88
312.557	853.88
312.787	879.88
313.017	914.88
313.246	859.88
313.476	880.88
313.706	888.88
313.935	901.88
314.165	892.88
314.394	960.88
314.624	992.88
314.853	1041.88
315.083	1087.88
315.312	1072.88
315.542	1008.88
315.771	904.88
316.001	909.88
316.23	982.88
316.46	973.88
316.689	939.88
316.919	902.88
317.148	861.88
317.377	922.88
317.607	992.88
317.836	1060.88
318.065	1097.88
318.295	1076.88
318.524	985.88
318.753	987.88
318.983	962.88
319.212	939.88
319.441	942.88
319.67	946.88
319.9	954.88
320.129	994.88
320.358	1052.88
320.587	1065.88
320.816	1069.88
321.046	1005.88
321.275	969.88
321.504	1039.88
321.733	1069.88
321.962	1010.88
322.191	938.88
322.42	960.88
322.649	928.88
322.878	933.88
323.108	949.88
323.337	971.88
323.566	997.88
323.795	954.88
324.024	965.88
324.253	918.88
324.482	930.88
324.71	913.88
324.939	916.88
325.168	905.88
325.397	941.88
325.626	957.88
325.855	972.88
326.084	952.88
326.313	945.88
326.542	953.88
326.77	998.88
326.999	992.88
327.228	940.88
327.457	884.88
327.686	883.88
327.914	913.88
328.143	925.88
328.372	946.88
328.6	977.88
328.829	942.88
329.058	939.88
329.287	932.88
329.515	947.88
329.744	968.88
329.972	1015.88
330.201	1058.88
330.43	1020.88
330.658	979.88
330.887	987.88
331.115	977.88
331.344	998.88
331.572	984.88
331.801	977.88
332.03	967.88
332.258	987.88
332.486	1009.88
332.715	1040.88
332.943	1012.88
333.172	1021.88
333.4	1021.88
333.629	1022.88
333.857	1129.88
334.085	1248.88
334.314	1403.88
334.542	1412.88
334.771	1316.88
334.999	1152.88
335.227	1123.88
335.455	1060.88
335.684	1033.88
335.912	1111.88
336.14	1139.88
336.369	1064.88
336.597	1037.88
336.825	1013.88
337.053	1085.88
337.281	1131.88
337.51	1156.88
337.738	1175.88
337.966	1112.88
338.194	1005.88
338.422	1009.88
338.65	984.88
338.878	957.88
339.106	956.88
339.334	984.88
339.562	948.88
339.79	987.88
340.018	1012.88
340.246	1069.88
340.474	1014.88
340.702	1029.88
340.93	1032.88
341.158	1039.88
341.386	983.88
341.614	1014.88
341.842	976.88
342.07	983.88
342.298	1038.88
342.526	1016.88
342.754	1001.88
342.981	987.88
343.209	981.88
343.437	990.88
343.665	1001.88
343.893	1042.88
344.12	1069.88
344.348	1072.88
344.576	1001.88
344.804	1002.88
345.031	993.88
345.259	1030.88
345.487	961.88
345.714	907.88
345.942	932.88
346.17	953.88
346.397	952.88
346.625	947.88
346.853	921.88
347.08	899.88
347.308	903.88
347.535	962.88
347.763	972.88
347.99	944.88
348.218	920.88
348.445	899.88
348.673	937.88
348.9	985.88
349.128	991.88
349.355	1013.88
349.583	1014.88
349.81	952.88
350.037	875.88
350.265	872.88
350.492	902.88
350.72	906.88
350.947	949.88
351.174	940.88
351.402	905.88
351.629	891.88
351.856	885.88
352.083	846.88
352.311	880.88
352.538	891.88
352.765	968.88
352.992	945.88
353.22	912.88
353.447	897.88
353.674	956.88
353.901	938.88
354.128	881.88
354.355	896.88
354.583	939.88
354.81	972.88
355.037	966.88
355.264	949.88
355.491	966.88
355.718	953.88
355.945	969.88
356.172	889.88
356.399	885.88
356.626	896.88
356.853	982.88
357.08	1046.88
357.307	1115.88
357.534	1116.88
357.761	966.88
357.988	914.88
358.215	896.88
358.441	908.88
358.668	901.88
358.895	903.88
359.122	1000.88
359.349	1038.88
359.576	1002.88
359.802	920.88
360.029	887.88
360.256	900.88
360.483	911.88
360.709	947.88
360.936	1003.88
361.163	1041.88
361.39	1157.88
361.616	1154.88
361.843	1164.88
362.07	1072.88
362.296	919.88
362.523	913.88
362.749	933.88
362.976	957.88
363.203	953.88
363.429	924.88
363.656	937.88
363.882	966.88
364.109	1046.88
364.335	1136.88
364.562	1036.88
364.788	1005.88
365.015	953.88
365.241	903.88
365.468	949.88
365.694	974.88
365.92	994.88
366.147	963.88
366.373	896.88
366.599	897.88
366.826	914.88
367.052	901.88
367.278	909.88
367.505	940.88
367.731	953.88
367.957	988.88
368.184	1026.88
368.41	1068.88
368.636	1084.88
368.862	1080.88
369.089	1040.88
369.315	1024.88
369.541	993.88
369.767	955.88
369.993	939.88
370.219	938.88
370.445	983.88
370.672	1044.88
370.898	1098.88
371.124	1065.88
371.35	1009.88
371.576	1029.88
371.802	1078.88
372.028	981.88
372.254	1005.88
372.48	929.88
372.706	965.88
372.932	976.88
373.158	987.88
373.384	1017.88
373.61	1053.88
373.835	1052.88
374.061	998.88
374.287	1003.88
374.513	976.88
374.739	998.88
374.965	1012.88
375.191	1022.88
375.416	1034.88
375.642	1042.88
375.868	1101.88
376.094	1146.88
376.319	1087.88
376.545	1013.88
376.771	1041.88
376.997	1128.88
377.222	1046.88
377.448	1052.88
377.674	1054.88
377.899	1089.88
378.125	1129.88
378.35	1100.88
378.576	1016.88
378.802	958.88
379.027	971.88
379.253	1008.88
379.478	990.88
379.704	1018.88
379.929	996.88
380.155	999.88
380.38	1022.88
380.606	1010.88
380.831	1026.88
381.057	1092.88
381.282	1090.88
381.507	1074.88
381.733	1152.88
381.958	1186.88
382.184	1086.88
382.409	1035.88
382.634	1056.88
382.86	1064.88
383.085	1061.88
383.31	1085.88
383.535	1185.88
383.761	1238.88
383.986	1192.88
384.211	1113.88
384.436	1139.88
384.662	1224.88
384.887	1236.88
385.112	1163.88
385.337	1160.88
385.562	1133.88
385.787	1132.88
386.013	1165.88
386.238	1167.88
386.463	1174.88
386.688	1289.88
386.913	1359.88
387.138	1280.88
387.363	1182.88
387.588	1171.88
387.813	1193.88
388.038	1200.88
388.263	1217.88
388.488	1135.88
388.713	1061.88
388.938	1097.88
389.163	1123.88
389.387	1148.88
389.612	1160.88
389.837	1181.88
390.062	1171.88
390.287	1149.88
390.512	1134.88
390.736	1119.88
390.961	1112.88
391.186	1096.88
391.411	1103.88
391.636	1127.88
391.86	1111.88
392.085	1151.88
392.31	1096.88
392.534	1136.88
392.759	1186.88
392.984	1145.88
393.208	1172.88
393.433	1200.88
393.658	1267.88
393.882	1223.88
394.107	1186.88
394.331	1149.88
394.556	1107.88
394.78	1197.88
395.005	1198.88
395.229	1299.88
395.454	1344.88
395.678	1342.88
395.903	1254.88
396.127	1212.88
396.352	1220.88
396.576	1265.88
396.801	1253.88
397.025	1251.88
397.249	1236.88
397.474	1250.88
397.698	1240.88
397.922	1267.88
398.147	1344.88
398.371	1385.88
398.595	1380.88
398.82	1312.88
399.044	1303.88
399.268	1397.88
399.492	1491.88
399.717	1488.88
399.941	1534.88
400.165	1485.88
400.389	1460.88
400.613	1485.88
400.837	1663.88
401.062	1830.88
401.286	1547.88
401.51	1492.88
401.734	1493.88
401.958	1426.88
402.182	1349.88
402.406	1284.88
402.63	1267.88
402.854	1299.88
403.078	1320.88
403.302	1355.88
403.526	1354.88
403.75	1378.88
403.974	1407.88
404.198	1387.88
404.422	1453.88
404.645	1498.88
404.869	1466.88
405.093	1331.88
405.317	1340.88
405.541	1346.88
405.765	1380.88
405.988	1343.88
406.212	1399.88
406.436	1440.88
406.66	1488.88
406.883	1468.88
407.107	1682.88
407.331	1848.88
407.555	1948.88
407.778	1714.88
408.002	1472.88
408.226	1412.88
408.449	1428.88
408.673	1410.88
408.896	1387.88
409.12	1401.88
409.344	1360.88
409.567	1307.88
409.791	1350.88
410.014	1401.88
410.238	1494.88
410.461	1560.88
410.685	1405.88
410.908	1344.88
411.132	1363.88
411.355	1321.88
411.578	1332.88
411.802	1352.88
412.025	1381.88
412.249	1328.88
412.472	1328.88
412.695	1343.88
412.919	1310.88
413.142	1294.88
413.365	1320.88
413.589	1393.88
413.812	1464.88
414.035	1440.88
414.258	1362.88
414.482	1334.88
414.705	1294.88
414.928	1306.88
415.151	1331.88
415.374	1340.88
415.597	1360.88
415.821	1323.88
416.044	1340.88
416.267	1350.88
416.49	1259.88
416.713	1282.88
416.936	1341.88
417.159	1433.88
417.382	1389.88
417.605	1292.88
417.828	1314.88
418.051	1367.88
418.274	1334.88
418.497	1293.88
418.72	1298.88
418.943	1265.88
419.166	1315.88
419.389	1385.88
419.611	1338.88
419.834	1313.88
420.057	1322.88
420.28	1272.88
420.503	1284.88
420.726	1321.88
420.948	1329.88
421.171	1262.88
421.394	1308.88
421.617	1324.88
421.839	1342.88
422.062	1337.88
422.285	1303.88
422.507	1282.88
422.73	1261.88
422.953	1216.88
423.175	1248.88
423.398	1289.88
423.621	1308.88
423.843	1272.88
424.066	1335.88
424.288	1423.88
424.511	1433.88
424.733	1355.88
424.956	1244.88
425.178	1269.88
425.401	1260.88
425.623	1296.88
425.846	1283.88
426.068	1386.88
426.291	1396.88
426.513	1337.88
426.735	1338.88
426.958	1473.88
427.18	1521.88
427.402	1400.88
427.625	1443.88
427.847	1395.88
428.069	1306.88
428.292	1298.88
428.514	1227.88
428.736	1265.88
428.958	1251.88
429.181	1333.88
429.403	1523.88
429.625	1784.88
429.847	1523.88
430.069	1313.88
430.292	1472.88
430.514	1484.88
430.736	1361.88
430.958	1380.88
431.18	1322.88
431.402	1236.88
431.624	1228.88
431.846	1193.88
432.068	1152.88
432.29	1185.88
432.512	1172.88
432.734	1241.88
432.956	1268.88
433.178	1358.88
433.4	1354.88
433.622	1323.88
433.844	1255.88
434.066	1238.88
434.287	1192.88
434.509	1234.88
434.731	1296.88
434.953	1385.88
435.175	1328.88
435.397	1303.88
435.618	1305.88
435.84	1245.88
436.062	1209.88
436.284	1288.88
436.505	1315.88
436.727	1344.88
436.949	1297.88
437.17	1221.88
437.392	1221.88
437.614	1173.88
437.835	1170.88
438.057	1222.88
438.278	1248.88
438.5	1218.88
438.721	1279.88
438.943	1243.88
439.165	1257.88
439.386	1250.88
439.608	1277.88
439.829	1242.88
440.05	1264.88
440.272	1266.88
440.493	1257.88
440.715	1283.88
440.936	1398.88
441.158	1458.88
441.379	1396.88
441.6	1410.88
441.822	1407.88
442.043	1356.88
442.264	1315.88
442.486	1258.88
442.707	1248.88
442.928	1245.88
443.149	1282.88
443.371	1352.88
443.592	1385.88
443.813	1398.88
444.034	1398.88
444.255	1408.88
444.476	1418.88
444.698	1435.88
444.919	1396.88
445.14	1510.88
445.361	1464.88
445.582	1460.88
445.803	1424.88
446.024	1407.88
446.245	1425.88
446.466	1362.88
446.687	1354.88
446.908	1371.88
447.129	1317.88
447.35	1336.88
447.571	1316.88
447.792	1272.88
448.013	1238.88
448.234	1291.88
448.455	1382.88
448.675	1327.88
448.896	1234.88
449.117	1212.88
449.338	1252.88
449.559	1278.88
449.779	1347.88
450	1430.88
450.221	1471.88
450.442	1430.88
450.662	1305.88
450.883	1200.88
451.104	1181.88
451.324	1210.88
451.545	1217.88
451.766	1178.88
451.986	1151.88
452.207	1137.88
452.428	1132.88
452.648	1113.88
452.869	1118.88
453.089	1189.88
453.31	1154.88
453.53	1204.88
453.751	1123.88
453.971	1083.88
454.192	1125.88
454.412	1176.88
454.633	1142.88
454.853	1148.88
455.073	1109.88
455.294	1080.88
455.514	1084.88
455.734	1088.88
455.955	1099.88
456.175	1074.88
456.395	1076.88
456.616	1094.88
456.836	1111.88
457.056	1094.88
457.276	1106.88
457.497	1080.88
457.717	1051.88
457.937	1054.88
458.157	1089.88
458.377	1052.88
458.598	1048.88
458.818	1073.88
459.038	1156.88
459.258	1163.88
459.478	1185.88
459.698	1137.88
459.918	1178.88
460.138	1254.88
460.358	1260.88
460.578	1262.88
460.798	1315.88
461.018	1364.88
461.238	1303.88
461.458	1292.88
461.678	1288.88
461.898	1248.88
462.118	1212.88
462.338	1247.88
462.558	1249.88
462.777	1262.88
462.997	1331.88
463.217	1381.88
463.437	1362.88
463.657	1281.88
463.876	1295.88
464.096	1295.88
464.316	1287.88
464.536	1338.88
464.755	1313.88
464.975	1331.88
465.195	1250.88
465.414	1320.88
465.634	1359.88
465.854	1292.88
466.073	1426.88
466.293	1365.88
466.512	1223.88
466.732	1214.88
466.951	1235.88
467.171	1242.88
467.391	1189.88
467.61	1201.88
467.829	1255.88
468.049	1378.88
468.268	1498.88
468.488	1339.88
468.707	1260.88
468.927	1245.88
469.146	1221.88
469.365	1245.88
469.585	1234.88
469.804	1250.88
470.023	1228.88
470.243	1244.88
470.462	1249.88
470.681	1234.88
470.901	1248.88
471.12	1260.88
471.339	1261.88
471.558	1194.88
471.777	1193.88
471.997	1234.88
472.216	1197.88
472.435	1124.88
472.654	1149.88
472.873	1184.88
473.092	1222.88
473.311	1218.88
473.53	1136.88
473.749	1124.88
473.968	1172.88
474.187	1218.88
474.406	1251.88
474.625	1256.88
474.844	1237.88
475.063	1233.88
475.282	1217.88
475.501	1182.88
475.72	1225.88
475.939	1304.88
476.158	1254.88
476.377	1219.88
476.596	1226.88
476.814	1220.88
477.033	1244.88
477.252	1305.88
477.471	1348.88
477.69	1286.88
477.908	1323.88
478.127	1368.88
478.346	1446.88
478.564	1447.88
478.783	1401.88
479.002	1464.88
479.22	1427.88
479.439	1428.88
479.658	1598.88
479.876	1505.88
480.095	1396.88
480.313	1340.88
480.532	1286.88
480.751	1340.88
480.969	1332.88
481.188	1267.88
481.406	1270.88
481.624	1238.88
481.843	1283.88
482.061	1296.88
482.28	1360.88
482.498	1385.88
482.717	1348.88
482.935	1331.88
483.153	1373.88
483.372	1401.88
483.59	1376.88
483.808	1373.88
484.027	1400.88
484.245	1468.88
484.463	1772.88
484.681	1907.88
484.9	1483.88
485.118	1385.88
485.336	1344.88
485.554	1400.88
485.772	1413.88
485.99	1410.88
486.209	1404.88
486.427	1434.88
486.645	1413.88
486.863	1450.88
487.081	1477.88
487.299	1475.88
487.517	1433.88
487.735	1460.88
487.953	1520.88
488.171	1539.88
488.389	1462.88
488.607	1449.88
488.825	1672.88
489.043	1586.88
489.261	1437.88
489.479	1445.88
489.696	1486.88
489.914	1450.88
490.132	1434.88
490.35	1490.88
490.568	1565.88
490.786	1530.88
491.003	1466.88
491.221	1569.88
491.439	1612.88
491.657	1591.88
491.874	1625.88
492.092	1680.88
492.31	1701.88
492.527	1682.88
492.745	1647.88
492.963	1581.88
493.18	1633.88
493.398	1731.88
493.615	1670.88
493.833	1601.88
494.05	1572.88
494.268	1568.88
494.485	1589.88
494.703	1572.88
494.92	1554.88
495.138	1569.88
495.355	1604.88
495.573	1628.88
495.79	1677.88
496.008	1684.88
496.225	1598.88
496.442	1654.88
496.66	1619.88
496.877	1635.88
497.094	1658.88
497.312	1632.88
497.529	1653.88
497.746	1643.88
497.963	1835.88
498.181	1983.88
498.398	1934.88
498.615	1863.88
498.832	1820.88
499.049	1766.88
499.267	1780.88
499.484	1920.88
499.701	2005.88
499.918	2079.88
500.135	2218.88
500.352	2346.88
500.569	2356.88
500.786	2546.88
501.003	2328.88
501.22	2128.88
501.437	1984.88
501.654	2068.88
501.871	2050.88
502.088	1825.88
502.305	1747.88
502.522	1716.88
502.739	1605.88
502.956	1594.88
503.172	1554.88
503.389	1565.88
503.606	1509.88
503.823	1502.88
504.04	1533.88
504.256	1504.88
504.473	1491.88
504.69	1536.88
504.907	1478.88
505.123	1430.88
505.34	1568.88
505.557	2080.88
505.773	1689.88
505.99	1424.88
506.207	1322.88
506.423	1303.88
506.64	1310.88
506.856	1313.88
507.073	1511.88
507.289	1660.88
507.506	1549.88
507.722	1324.88
507.939	1269.88
508.155	1262.88
508.372	1283.88
508.588	1195.88
508.805	1198.88
509.021	1164.88
509.238	1158.88
509.454	1161.88
509.67	1164.88
509.887	1161.88
510.103	1159.88
510.319	1154.88
510.536	1198.88
510.752	1249.88
510.968	1229.88
511.184	1324.88
511.401	1267.88
511.617	1127.88
511.833	1113.88
512.049	1103.88
512.265	1132.88
512.481	1142.88
512.698	1178.88
512.914	1224.88
513.13	1180.88
513.346	1113.88
513.562	1070.88
513.778	1117.88
513.994	1180.88
514.21	1191.88
514.426	1217.88
514.642	1349.88
514.858	1286.88
515.074	1144.88
515.29	1147.88
515.506	1177.88
515.721	1180.88
515.937	1197.88
516.153	1347.88
516.369	1260.88
516.585	1188.88
516.801	1130.88
517.016	1184.88
517.232	1196.88
517.448	1226.88
517.664	1241.88
517.879	1240.88
518.095	1308.88
518.311	1216.88
518.527	1197.88
518.742	1170.88
518.958	1153.88
519.173	1162.88
519.389	1189.88
519.605	1192.88
519.82	1170.88
520.036	1176.88
520.251	1171.88
520.467	1194.88
520.682	1269.88
520.898	1278.88
521.113	1133.88
521.329	1130.88
521.544	1249.88
521.76	1160.88
521.975	1084.88
522.19	1088.88
522.406	1113.88
522.621	1405.88
522.836	1328.88
523.052	1112.88
523.267	1093.88
523.482	1120.88
523.698	1089.88
523.913	1079.88
524.128	1078.88
524.343	1131.88
524.559	1164.88
524.774	1105.88
524.989	1092.88
525.204	1099.88
525.419	1076.88
525.634	1106.88
525.849	1109.88
526.064	1088.88
526.28	1072.88
526.495	1008.88
526.71	1006.88
526.925	992.88
527.14	987.88
527.355	1017.88
527.57	987.88
527.785	1028.88
527.999	1016.88
528.214	981.88
528.429	1016.88
528.644	1012.88
528.859	1053.88
529.074	1064.88
529.289	1107.88
529.503	1095.88
529.718	1070.88
529.933	1026.88
530.148	956.88
530.363	970.88
530.577	1008.88
530.792	990.88
531.007	1005.88
531.221	981.88
531.436	1011.88
531.651	1047.88
531.865	1092.88
532.08	1035.88
532.295	969.88
532.509	939.88
532.724	959.88
532.938	994.88
533.153	1053.88
533.367	1041.88
533.582	1043.88
533.796	1033.88
534.011	1016.88
534.225	1012.88
534.44	1001.88
534.654	975.88
534.868	979.88
535.083	1034.88
535.297	1056.88
535.511	998.88
535.726	1038.88
535.94	1024.88
536.154	968.88
536.369	965.88
536.583	928.88
536.797	952.88
537.011	973.88
537.225	939.88
537.44	930.88
537.654	1001.88
537.868	948.88
538.082	928.88
538.296	912.88
538.51	950.88
538.724	962.88
538.938	968.88
539.153	1008.88
539.367	993.88
539.581	985.88
539.795	992.88
540.009	965.88
540.222	949.88
540.436	968.88
540.65	1069.88
540.864	1067.88
541.078	1076.88
541.292	1034.88
541.506	1076.88
541.72	1096.88
541.934	1142.88
542.147	1192.88
542.361	1155.88
542.575	1097.88
542.789	1012.88
543.002	973.88
543.216	965.88
543.43	1003.88
543.644	1087.88
543.857	1131.88
544.071	1111.88
544.285	1120.88
544.498	1089.88
544.712	1099.88
544.925	1113.88
545.139	1136.88
545.352	1099.88
545.566	1081.88
545.779	1068.88
545.993	1090.88
546.206	1098.88
546.42	1074.88
546.633	1045.88
546.847	1065.88
547.06	1076.88
547.274	1096.88
547.487	1058.88
547.7	1109.88
547.914	1101.88
548.127	1090.88
548.34	1066.88
548.554	1062.88
548.767	1052.88
548.98	1051.88
549.193	1063.88
549.407	1126.88
549.62	1118.88
549.833	1095.88
550.046	1083.88
550.259	1043.88
550.473	1037.88
550.686	1032.88
550.899	1034.88
551.112	1005.88
551.325	980.88
551.538	1058.88
551.751	1178.88
551.964	953.88
552.177	907.88
552.39	970.88
552.603	1046.88
552.816	1040.88
553.029	1090.88
553.242	1096.88
553.455	1053.88
553.667	1043.88
553.88	1068.88
554.093	1010.88
554.306	974.88
554.519	970.88
554.732	963.88
554.944	966.88
555.157	983.88
555.37	979.88
555.583	967.88
555.795	925.88
556.008	898.88
556.221	898.88
556.433	857.88
556.646	854.88
556.859	892.88
557.071	876.88
557.284	897.88
557.496	884.88
557.709	874.88
557.921	873.88
558.134	864.88
558.346	885.88
558.559	875.88
558.771	880.88
558.984	829.88
559.196	831.88
559.409	825.88
559.621	829.88
559.833	818.88
560.046	850.88
560.258	843.88
560.47	828.88
560.683	800.88
560.895	832.88
561.107	834.88
561.32	815.88
561.532	850.88
561.744	811.88
561.956	852.88
562.168	795.88
562.381	793.88
562.593	789.88
562.805	797.88
563.017	756.88
563.229	781.88
563.441	812.88
563.653	787.88
563.865	787.88
564.077	794.88
564.289	794.88
564.501	792.88
564.713	805.88
564.925	874.88
565.137	888.88
565.349	832.88
565.561	810.88
565.773	805.88
565.985	813.88
566.197	875.88
566.408	926.88
566.62	910.88
566.832	908.88
567.044	910.88
567.255	907.88
567.467	913.88
567.679	911.88
567.891	936.88
568.102	905.88
568.314	868.88
568.526	822.88
568.737	769.88
568.949	761.88
569.161	714.88
569.372	687.88
569.584	702.88
569.795	698.88
570.007	690.88
570.218	642.88
570.43	682.88
570.641	682.88
570.853	677.88
571.064	673.88
571.276	661.88
571.487	700.88
571.698	643.88
571.91	660.88
572.121	649.88
572.333	626.88
572.544	639.88
572.755	569.88
572.966	587.88
573.178	585.88
573.389	608.88
573.6	627.88
573.811	654.88
574.023	590.88
574.234	606.88
574.445	552.88
574.656	570.88
574.867	579.88
575.078	570.88
575.289	593.88
575.501	568.88
575.712	553.88
575.923	562.88
576.134	589.88
576.345	572.88
576.556	544.88
576.767	551.88
576.978	548.88
577.188	531.88
577.399	524.88
577.61	516.88
577.821	519.88
578.032	531.88
578.243	508.88
578.454	522.88
578.665	518.88
578.875	484.88
579.086	504.88
579.297	497.88
579.508	537.88
579.718	533.88
579.929	498.88
580.14	493.88
580.35	482.88
580.561	515.88
580.772	570.88
580.982	530.88
581.193	506.88
581.403	501.88
581.614	485.88
581.825	479.88
582.035	487.88
582.246	510.88
582.456	509.88
582.667	491.88
582.877	485.88
583.087	498.88
583.298	480.88
583.508	482.88
583.719	499.88
583.929	474.88
584.139	487.88
584.35	462.88
584.56	477.88
584.77	469.88
584.981	470.88
585.191	476.88
585.401	487.88
585.611	468.88
585.821	461.88
586.032	473.88
586.242	452.88
586.452	444.88
586.662	460.88
586.872	447.88
587.082	453.88
587.292	452.88
587.502	461.88
587.713	468.88
587.923	461.88
588.133	463.88
588.343	459.88
588.553	449.88
588.762	439.88
588.972	428.88
589.182	449.88
589.392	457.88
589.602	455.88
589.812	447.88
590.022	439.88
590.232	427.88
590.441	456.88
590.651	482.88
590.861	469.88
591.071	442.88
591.281	442.88
591.49	420.88
591.7	453.88
591.91	439.88
592.119	445.88
592.329	452.88
592.539	468.88
592.748	454.88
592.958	447.88
593.167	456.88
593.377	456.88
593.587	468.88
593.796	455.88
594.006	458.88
594.215	485.88
594.424	462.88
594.634	462.88
594.843	475.88
595.053	499.88
595.262	463.88
595.472	445.88
595.681	429.88
595.89	439.88
596.1	421.88
596.309	447.88
596.518	424.88
596.727	455.88
596.937	427.88
597.146	420.88
597.355	412.88
597.564	434.88
597.774	412.88
597.983	402.88
598.192	407.88
598.401	386.88
598.61	402.88
598.819	403.88
599.028	398.88
599.237	404.88
599.446	385.88
599.655	384.88
599.864	390.88
600.073	394.88
600.282	396.88
600.491	389.88
600.7	398.88
600.909	391.88
601.118	390.88
601.327	423.88
601.536	436.88
601.745	406.88
601.953	423.88
602.162	407.88
602.371	413.88
602.58	417.88
602.789	444.88
602.997	404.88
603.206	421.88
603.415	399.88
603.623	406.88
603.832	430.88
604.041	390.88
604.249	378.88
604.458	389.88
604.666	388.88
604.875	392.88
605.084	389.88
605.292	434.88
605.501	421.88
605.709	395.88
605.918	408.88
606.126	392.88
606.334	384.88
606.543	397.88
606.751	409.88
606.96	423.88
607.168	409.88
607.376	409.88
607.585	402.88
607.793	395.88
608.001	408.88
608.21	383.88
608.418	421.88
608.626	408.88
608.834	391.88
609.043	401.88
609.251	396.88
609.459	404.88
609.667	399.88
609.875	438.88
610.083	439.88
610.291	422.88
610.499	412.88
610.707	404.88
610.916	400.88
611.124	403.88
611.332	397.88
611.54	413.88
611.748	414.88
611.955	384.88
612.163	394.88
612.371	384.88
612.579	384.88
612.787	419.88
612.995	389.88
613.203	393.88
613.411	396.88
613.618	373.88
613.826	418.88
614.034	404.88
614.242	386.88
614.449	383.88
614.657	395.88
614.865	409.88
615.072	388.88
615.28	393.88
615.488	388.88
615.695	408.88
615.903	406.88
616.111	376.88
616.318	392.88
616.526	377.88
616.733	381.88
616.941	400.88
617.148	371.88
617.356	389.88
617.563	372.88
617.771	379.88
617.978	353.88
618.185	382.88
618.393	392.88
618.6	374.88
618.807	384.88
619.015	400.88
619.222	374.88
619.429	363.88
619.637	378.88
619.844	338.88
620.051	349.88
620.258	353.88
620.466	346.88
620.673	352.88
620.88	352.88
621.087	346.88
621.294	342.88
621.501	359.88
621.708	349.88
621.915	360.88
622.122	370.88
622.329	361.88
622.536	364.88
622.743	365.88
622.95	359.88
623.157	331.88
623.364	339.88
623.571	359.88
623.778	357.88
623.985	349.88
624.192	355.88
624.399	347.88
624.606	357.88
624.812	348.88
625.019	339.88
625.226	318.88
625.433	316.88
625.639	328.88
625.846	327.88
626.053	315.88
626.259	281.88
626.466	296.88
626.673	311.88
626.879	293.88
627.086	297.88
627.293	327.88
627.499	327.88
627.706	328.88
627.912	329.88
628.119	333.88
628.325	312.88
628.532	316.88
628.738	331.88
628.945	329.88
629.151	308.88
629.357	313.88
629.564	312.88
629.77	287.88
629.976	304.88
630.183	310.88
630.389	293.88
630.595	319.88
630.802	314.88
631.008	315.88
631.214	321.88
631.42	290.88
631.627	290.88
631.833	302.88
632.039	302.88
632.245	296.88
632.451	305.88
632.657	299.88
632.863	292.88
633.069	283.88
633.275	307.88
633.481	270.88
633.688	283.88
633.893	269.88
634.099	268.88
634.305	292.88
634.511	294.88
634.717	273.88
634.923	261.88
635.129	261.88
635.335	275.88
635.541	274.88
635.747	281.88
635.952	294.88
636.158	276.88
636.364	294.88
636.57	285.88
636.775	290.88
636.981	293.88
637.187	296.88
637.392	267.88
637.598	275.88
637.804	283.88
638.009	272.88
638.215	291.88
638.421	279.88
638.626	262.88
638.832	288.88
639.037	279.88
639.243	274.88
639.448	274.88
639.654	265.88
639.859	256.88
640.065	263.88
640.27	283.88
640.475	255.88
640.681	274.88
640.886	267.88
641.091	264.88
641.297	267.88
641.502	257.88
641.707	268.88
641.913	278.88
642.118	274.88
642.323	244.88
642.528	268.88
642.733	256.88
642.939	258.88
643.144	274.88
643.349	271.88
643.554	272.88
643.759	270.88
643.964	265.88
644.169	262.88
644.374	268.88
644.579	267.88
644.784	283.88
644.989	274.88
645.194	254.88
645.399	270.88
645.604	263.88
645.809	256.88
646.014	255.88
646.219	267.88
646.423	262.88
646.628	263.88
646.833	255.88
647.038	270.88
647.243	265.88
647.447	247.88
647.652	261.88
647.857	265.88
648.062	276.88
648.266	270.88
648.471	276.88
648.676	270.88
648.88	260.88
649.085	263.88
649.289	261.88
649.494	263.88
649.698	271.88
649.903	241.88
650.107	253.88
650.312	246.88
650.516	245.88
650.721	251.88
650.925	238.88
651.13	222.88
651.334	240.88
651.539	248.88
651.743	226.88
651.947	242.88
652.152	230.88
652.356	237.88
652.56	235.88
652.764	244.88
652.969	226.88
653.173	216.88
653.377	216.88
653.581	206.88
653.785	223.88
653.99	221.88
654.194	226.88
654.398	237.88
654.602	224.88
654.806	216.88
655.01	221.88
655.214	225.88
655.418	227.88
655.622	233.88
655.826	236.88
656.03	245.88
656.234	266.88
656.438	272.88
656.642	260.88
656.846	227.88
657.049	248.88
657.253	228.88
657.457	203.88
657.661	210.88
657.865	186.88
658.068	187.88
658.272	174.88
658.476	172.88
658.68	161.88
658.883	155.88
659.087	149.88
659.291	133.88
659.494	138.88
659.698	144.88
659.901	139.88
660.105	129.88
660.309	128.88
660.512	126.88
660.716	126.88
660.919	122.88
661.123	130.88
661.326	126.88
661.53	117.88
661.733	124.88
661.936	99.88
662.14	99.88
662.343	83.88
662.546	105.88
662.75	94.88
662.953	89.88
663.156	76.88
663.36	88.88
663.563	100.88
663.766	95.88
663.969	87.88
664.173	104.88
664.376	83.88
664.579	87.88
664.782	82.88
664.985	91.88
665.188	87.88
665.391	94.88
665.594	85.88
665.797	78.88
666	81.88
666.203	90.88
666.406	90.88
666.609	88.88
666.812	94.88
667.015	87.88
667.218	75.88
667.421	78.88
667.624	85.88
667.827	78.88
668.03	78.88
668.232	83.88
668.435	86.88
668.638	82.88
668.841	88.88
669.043	90.88
669.246	99.88
669.449	92.88
669.651	83.88
669.854	84.88
670.057	91.88
670.259	83.88
670.462	81.88
670.665	94.88
670.867	95.88
671.07	75.88
671.272	86.88
671.475	75.88
671.677	90.88
671.88	90.88
672.082	87.88
672.284	84.88
672.487	79.88
672.689	93.88
672.892	77.88
