Data from WStandard_LampEnergy8_LIBS07252019.E.O._I.C._HRD10591_15-58-38-929.txt Node
Date: Thu Jul 25 15:58:38 EDT 2019
User: cochatt
Spectrometer: HR+D1059
Trigger mode: 1
Integration Time (sec): 1.000000E-1
Scans to average: 1
Electric dark correction enabled: true
Nonlinearity correction enabled: false
Boxcar width: 0
XAxis mode: Wavelengths
Number of Pixels in Spectrum: 2048
>>>>>Begin Spectral Data<<<<<
223.165	-25.31
223.4	-25.31
223.635	-25.31
223.869	-27.31
224.104	-20.31
224.338	-5.31
224.573	-13.31
224.808	-17.31
225.042	-13.31
225.277	7.69
225.511	4.69
225.746	3.69
225.98	4.69
226.215	14.69
226.449	17.69
226.683	13.69
226.918	29.69
227.152	25.69
227.387	33.69
227.621	36.69
227.856	50.69
228.09	34.69
228.324	40.69
228.559	46.69
228.793	96.69
229.027	184.69
229.262	211.69
229.496	207.69
229.73	236.69
229.964	233.69
230.199	249.69
230.433	261.69
230.667	277.69
230.901	281.69
231.136	262.69
231.37	253.69
231.604	250.69
231.838	261.69
232.072	247.69
232.306	257.69
232.541	279.69
232.775	298.69
233.009	321.69
233.243	309.69
233.477	292.69
233.711	281.69
233.945	315.69
234.179	317.69
234.413	309.69
234.647	345.69
234.881	318.69
235.115	284.69
235.349	305.69
235.583	317.69
235.817	317.69
236.051	270.69
236.285	306.69
236.519	315.69
236.753	351.69
236.987	360.69
237.221	349.69
237.455	372.69
237.689	376.69
237.922	342.69
238.156	331.69
238.39	352.69
238.624	354.69
238.858	382.69
239.091	400.69
239.325	427.69
239.559	484.69
239.793	482.69
240.027	496.69
240.26	502.69
240.494	404.69
240.728	360.69
240.961	363.69
241.195	374.69
241.429	396.69
241.662	401.69
241.896	388.69
242.13	399.69
242.363	437.69
242.597	473.69
242.83	469.69
243.064	451.69
243.298	469.69
243.531	450.69
243.765	454.69
243.998	455.69
244.232	406.69
244.465	381.69
244.699	415.69
244.932	471.69
245.166	522.69
245.399	493.69
245.633	442.69
245.866	458.69
246.099	473.69
246.333	476.69
246.566	508.69
246.8	537.69
247.033	569.69
247.266	529.69
247.5	513.69
247.733	528.69
247.966	559.69
248.2	599.69
248.433	591.69
248.666	617.69
248.899	647.69
249.133	752.69
249.366	817.69
249.599	662.69
249.832	609.69
250.066	600.69
250.299	603.69
250.532	576.69
250.765	545.69
250.998	571.69
251.231	581.69
251.465	627.69
251.698	557.69
251.931	576.69
252.164	609.69
252.397	617.69
252.63	613.69
252.863	523.69
253.096	564.69
253.329	585.69
253.562	578.69
253.795	633.69
254.028	606.69
254.261	550.69
254.494	579.69
254.727	557.69
254.96	583.69
255.193	659.69
255.426	710.69
255.659	778.69
255.892	792.69
256.124	673.69
256.357	635.69
256.59	685.69
256.823	714.69
257.056	703.69
257.289	822.69
257.521	903.69
257.754	811.69
257.987	734.69
258.22	850.69
258.452	777.69
258.685	660.69
258.918	682.69
259.151	656.69
259.383	657.69
259.616	570.69
259.849	599.69
260.081	709.69
260.314	744.69
260.547	814.69
260.779	790.69
261.012	749.69
261.244	701.69
261.477	677.69
261.71	706.69
261.942	704.69
262.175	681.69
262.407	691.69
262.64	658.69
262.872	621.69
263.105	616.69
263.337	629.69
263.57	630.69
263.802	621.69
264.035	588.69
264.267	569.69
264.499	577.69
264.732	609.69
264.964	665.69
265.197	678.69
265.429	709.69
265.661	783.69
265.894	866.69
266.126	837.69
266.358	806.69
266.591	796.69
266.823	837.69
267.055	769.69
267.287	789.69
267.52	755.69
267.752	779.69
267.984	750.69
268.216	804.69
268.448	807.69
268.681	798.69
268.913	733.69
269.145	691.69
269.377	701.69
269.609	754.69
269.841	879.69
270.073	1017.69
270.306	1066.69
270.538	1146.69
270.77	955.69
271.002	846.69
271.234	847.69
271.466	814.69
271.698	900.69
271.93	1061.69
272.162	1022.69
272.394	915.69
272.626	928.69
272.858	792.69
273.09	689.69
273.322	689.69
273.553	662.69
273.785	695.69
274.017	717.69
274.249	755.69
274.481	745.69
274.713	726.69
274.945	697.69
275.176	700.69
275.408	687.69
275.64	685.69
275.872	668.69
276.104	731.69
276.335	834.69
276.567	926.69
276.799	895.69
277.031	844.69
277.262	807.69
277.494	843.69
277.726	904.69
277.957	889.69
278.189	793.69
278.421	765.69
278.652	736.69
278.884	745.69
279.115	728.69
279.347	746.69
279.579	721.69
279.81	753.69
280.042	805.69
280.273	885.69
280.505	877.69
280.736	887.69
280.968	838.69
281.199	750.69
281.431	721.69
281.662	719.69
281.894	711.69
282.125	735.69
282.356	738.69
282.588	777.69
282.819	785.69
283.051	858.69
283.282	887.69
283.513	873.69
283.745	740.69
283.976	713.69
284.207	726.69
284.439	729.69
284.67	733.69
284.901	774.69
285.132	788.69
285.364	797.69
285.595	753.69
285.826	769.69
286.057	767.69
286.288	774.69
286.52	756.69
286.751	847.69
286.982	855.69
287.213	799.69
287.444	726.69
287.675	743.69
287.906	772.69
288.138	820.69
288.369	792.69
288.6	773.69
288.831	731.69
289.062	769.69
289.293	775.69
289.524	781.69
289.755	777.69
289.986	811.69
290.217	747.69
290.448	749.69
290.679	781.69
290.91	770.69
291.141	809.69
291.371	825.69
291.602	841.69
291.833	804.69
292.064	817.69
292.295	833.69
292.526	848.69
292.757	865.69
292.987	843.69
293.218	822.69
293.449	893.69
293.68	978.69
293.91	1019.69
294.141	948.69
294.372	902.69
294.603	952.69
294.833	957.69
295.064	897.69
295.295	837.69
295.525	821.69
295.756	752.69
295.987	737.69
296.217	745.69
296.448	764.69
296.679	777.69
296.909	772.69
297.14	777.69
297.37	780.69
297.601	862.69
297.831	906.69
298.062	884.69
298.292	811.69
298.523	787.69
298.753	801.69
298.984	806.69
299.214	805.69
299.445	799.69
299.675	819.69
299.905	854.69
300.136	809.69
300.366	791.69
300.597	769.69
300.827	802.69
301.057	829.69
301.288	867.69
301.518	838.69
301.748	855.69
301.979	896.69
302.209	928.69
302.439	994.69
302.669	990.69
302.9	928.69
303.13	860.69
303.36	851.69
303.59	847.69
303.82	852.69
304.051	858.69
304.281	843.69
304.511	885.69
304.741	939.69
304.971	1015.69
305.201	1077.69
305.431	934.69
305.661	817.69
305.891	773.69
306.121	738.69
306.352	772.69
306.582	839.69
306.812	897.69
307.042	947.69
307.272	946.69
307.502	950.69
307.731	1060.69
307.961	1087.69
308.191	999.69
308.421	885.69
308.651	844.69
308.881	817.69
309.111	827.69
309.341	833.69
309.571	820.69
309.8	821.69
310.03	812.69
310.26	823.69
310.49	814.69
310.72	840.69
310.949	899.69
311.179	886.69
311.409	850.69
311.639	853.69
311.868	829.69
312.098	843.69
312.328	854.69
312.557	841.69
312.787	831.69
313.017	891.69
313.246	872.69
313.476	894.69
313.706	905.69
313.935	886.69
314.165	892.69
314.394	933.69
314.624	994.69
314.853	1021.69
315.083	1057.69
315.312	1061.69
315.542	985.69
315.771	909.69
316.001	946.69
316.23	950.69
316.46	953.69
316.689	912.69
316.919	870.69
317.148	876.69
317.377	885.69
317.607	945.69
317.836	1047.69
318.065	1079.69
318.295	1031.69
318.524	986.69
318.753	985.69
318.983	959.69
319.212	934.69
319.441	929.69
319.67	929.69
319.9	945.69
320.129	996.69
320.358	1025.69
320.587	1041.69
320.816	1029.69
321.046	997.69
321.275	955.69
321.504	973.69
321.733	1043.69
321.962	982.69
322.191	927.69
322.42	903.69
322.649	925.69
322.878	927.69
323.108	925.69
323.337	974.69
323.566	974.69
323.795	958.69
324.024	933.69
324.253	951.69
324.482	936.69
324.71	926.69
324.939	879.69
325.168	909.69
325.397	925.69
325.626	971.69
325.855	957.69
326.084	975.69
326.313	935.69
326.542	973.69
326.77	998.69
326.999	971.69
327.228	921.69
327.457	893.69
327.686	878.69
327.914	932.69
328.143	981.69
328.372	951.69
328.6	918.69
328.829	925.69
329.058	910.69
329.287	912.69
329.515	914.69
329.744	959.69
329.972	1019.69
330.201	1025.69
330.43	1033.69
330.658	989.69
330.887	976.69
331.115	1018.69
331.344	1015.69
331.572	971.69
331.801	975.69
332.03	986.69
332.258	1025.69
332.486	998.69
332.715	1004.69
332.943	1003.69
333.172	992.69
333.4	997.69
333.629	1011.69
333.857	1105.69
334.085	1226.69
334.314	1382.69
334.542	1435.69
334.771	1289.69
334.999	1155.69
335.227	1085.69
335.455	1087.69
335.684	1050.69
335.912	1095.69
336.14	1080.69
336.369	1061.69
336.597	1005.69
336.825	996.69
337.053	1029.69
337.281	1090.69
337.51	1150.69
337.738	1159.69
337.966	1094.69
338.194	1025.69
338.422	1001.69
338.65	981.69
338.878	983.69
339.106	959.69
339.334	923.69
339.562	963.69
339.79	1017.69
340.018	1013.69
340.246	1058.69
340.474	1043.69
340.702	1027.69
340.93	1026.69
341.158	1015.69
341.386	992.69
341.614	977.69
341.842	998.69
342.07	997.69
342.298	1016.69
342.526	1011.69
342.754	999.69
342.981	1013.69
343.209	985.69
343.437	985.69
343.665	1007.69
343.893	1019.69
344.12	1027.69
344.348	1057.69
344.576	1018.69
344.804	951.69
345.031	974.69
345.259	994.69
345.487	978.69
345.714	931.69
345.942	934.69
346.17	948.69
346.397	953.69
346.625	949.69
346.853	883.69
347.08	863.69
347.308	887.69
347.535	917.69
347.763	923.69
347.99	913.69
348.218	926.69
348.445	935.69
348.673	930.69
348.9	961.69
349.128	981.69
349.355	993.69
349.583	982.69
349.81	917.69
350.037	873.69
350.265	870.69
350.492	885.69
350.72	909.69
350.947	977.69
351.174	959.69
351.402	897.69
351.629	884.69
351.856	872.69
352.083	861.69
352.311	895.69
352.538	879.69
352.765	951.69
352.992	967.69
353.22	934.69
353.447	861.69
353.674	923.69
353.901	915.69
354.128	922.69
354.355	924.69
354.583	955.69
354.81	977.69
355.037	932.69
355.264	968.69
355.491	905.69
355.718	925.69
355.945	929.69
356.172	924.69
356.399	878.69
356.626	902.69
356.853	946.69
357.08	1067.69
357.307	1121.69
357.534	1068.69
357.761	978.69
357.988	894.69
358.215	879.69
358.441	890.69
358.668	875.69
358.895	921.69
359.122	983.69
359.349	1047.69
359.576	1028.69
359.802	949.69
360.029	895.69
360.256	898.69
360.483	922.69
360.709	929.69
360.936	956.69
361.163	1005.69
361.39	1090.69
361.616	1147.69
361.843	1137.69
362.07	1045.69
362.296	961.69
362.523	889.69
362.749	922.69
362.976	945.69
363.203	929.69
363.429	915.69
363.656	916.69
363.882	971.69
364.109	1055.69
364.335	1108.69
364.562	1029.69
364.788	980.69
365.015	937.69
365.241	908.69
365.468	942.69
365.694	1000.69
365.92	1000.69
366.147	929.69
366.373	902.69
366.599	889.69
366.826	906.69
367.052	916.69
367.278	940.69
367.505	938.69
367.731	956.69
367.957	951.69
368.184	989.69
368.41	1053.69
368.636	1073.69
368.862	1051.69
369.089	1013.69
369.315	1002.69
369.541	967.69
369.767	952.69
369.993	910.69
370.219	934.69
370.445	961.69
370.672	1039.69
370.898	1071.69
371.124	1011.69
371.35	1021.69
371.576	1040.69
371.802	1018.69
372.028	985.69
372.254	953.69
372.48	954.69
372.706	935.69
372.932	938.69
373.158	974.69
373.384	979.69
373.61	1016.69
373.835	1026.69
374.061	979.69
374.287	989.69
374.513	982.69
374.739	1011.69
374.965	1000.69
375.191	1017.69
375.416	1016.69
375.642	1014.69
375.868	1092.69
376.094	1127.69
376.319	1079.69
376.545	1044.69
376.771	1036.69
376.997	1103.69
377.222	1070.69
377.448	1032.69
377.674	1003.69
377.899	1029.69
378.125	1127.69
378.35	1096.69
378.576	996.69
378.802	971.69
379.027	968.69
379.253	990.69
379.478	986.69
379.704	986.69
379.929	1008.69
380.155	997.69
380.38	1005.69
380.606	1009.69
380.831	1013.69
381.057	1053.69
381.282	1076.69
381.507	1056.69
381.733	1124.69
381.958	1179.69
382.184	1071.69
382.409	1027.69
382.634	1060.69
382.86	1039.69
383.085	1065.69
383.31	1106.69
383.535	1202.69
383.761	1239.69
383.986	1141.69
384.211	1133.69
384.436	1114.69
384.662	1143.69
384.887	1169.69
385.112	1137.69
385.337	1157.69
385.562	1143.69
385.787	1155.69
386.013	1155.69
386.238	1187.69
386.463	1179.69
386.688	1278.69
386.913	1309.69
387.138	1246.69
387.363	1185.69
387.588	1159.69
387.813	1179.69
388.038	1179.69
388.263	1253.69
388.488	1186.69
388.713	1081.69
388.938	1088.69
389.163	1096.69
389.387	1117.69
389.612	1109.69
389.837	1127.69
390.062	1155.69
390.287	1115.69
390.512	1120.69
390.736	1072.69
390.961	1087.69
391.186	1082.69
391.411	1128.69
391.636	1086.69
391.86	1130.69
392.085	1123.69
392.31	1122.69
392.534	1122.69
392.759	1129.69
392.984	1139.69
393.208	1174.69
393.433	1189.69
393.658	1242.69
393.882	1206.69
394.107	1129.69
394.331	1163.69
394.556	1111.69
394.78	1137.69
395.005	1177.69
395.229	1242.69
395.454	1301.69
395.678	1289.69
395.903	1239.69
396.127	1188.69
396.352	1191.69
396.576	1230.69
396.801	1247.69
397.025	1262.69
397.249	1254.69
397.474	1251.69
397.698	1226.69
397.922	1271.69
398.147	1339.69
398.371	1363.69
398.595	1369.69
398.82	1314.69
399.044	1306.69
399.268	1361.69
399.492	1450.69
399.717	1506.69
399.941	1506.69
400.165	1485.69
400.389	1439.69
400.613	1450.69
400.837	1672.69
401.062	1810.69
401.286	1567.69
401.51	1425.69
401.734	1493.69
401.958	1442.69
402.182	1330.69
402.406	1268.69
402.63	1269.69
402.854	1319.69
403.078	1330.69
403.302	1342.69
403.526	1347.69
403.75	1360.69
403.974	1396.69
404.198	1379.69
404.422	1411.69
404.645	1482.69
404.869	1428.69
405.093	1329.69
405.317	1288.69
405.541	1355.69
405.765	1391.69
405.988	1345.69
406.212	1382.69
406.436	1370.69
406.66	1470.69
406.883	1520.69
407.107	1670.69
407.331	1801.69
407.555	1922.69
407.778	1683.69
408.002	1439.69
408.226	1407.69
408.449	1397.69
408.673	1334.69
408.896	1361.69
409.12	1401.69
409.344	1375.69
409.567	1375.69
409.791	1361.69
410.014	1418.69
410.238	1471.69
410.461	1523.69
410.685	1403.69
410.908	1313.69
411.132	1391.69
411.355	1325.69
411.578	1293.69
411.802	1325.69
412.025	1373.69
412.249	1333.69
412.472	1283.69
412.695	1313.69
412.919	1296.69
413.142	1292.69
413.365	1278.69
413.589	1414.69
413.812	1427.69
414.035	1473.69
414.258	1338.69
414.482	1303.69
414.705	1339.69
414.928	1295.69
415.151	1286.69
415.374	1349.69
415.597	1343.69
415.821	1318.69
416.044	1337.69
416.267	1336.69
416.49	1246.69
416.713	1254.69
416.936	1333.69
417.159	1399.69
417.382	1370.69
417.605	1297.69
417.828	1343.69
418.051	1305.69
418.274	1291.69
418.497	1280.69
418.72	1293.69
418.943	1269.69
419.166	1319.69
419.389	1364.69
419.611	1292.69
419.834	1319.69
420.057	1314.69
420.28	1275.69
420.503	1313.69
420.726	1312.69
420.948	1307.69
421.171	1246.69
421.394	1337.69
421.617	1331.69
421.839	1322.69
422.062	1355.69
422.285	1288.69
422.507	1268.69
422.73	1282.69
422.953	1229.69
423.175	1241.69
423.398	1240.69
423.621	1287.69
423.843	1283.69
424.066	1348.69
424.288	1399.69
424.511	1482.69
424.733	1357.69
424.956	1240.69
425.178	1251.69
425.401	1248.69
425.623	1277.69
425.846	1270.69
426.068	1329.69
426.291	1349.69
426.513	1301.69
426.735	1330.69
426.958	1378.69
427.18	1490.69
427.402	1367.69
427.625	1449.69
427.847	1370.69
428.069	1293.69
428.292	1265.69
428.514	1202.69
428.736	1213.69
428.958	1256.69
429.181	1277.69
429.403	1479.69
429.625	1776.69
429.847	1489.69
430.069	1304.69
430.292	1454.69
430.514	1468.69
430.736	1349.69
430.958	1362.69
431.18	1293.69
431.402	1233.69
431.624	1188.69
431.846	1173.69
432.068	1145.69
432.29	1131.69
432.512	1191.69
432.734	1217.69
432.956	1249.69
433.178	1306.69
433.4	1301.69
433.622	1322.69
433.844	1259.69
434.066	1183.69
434.287	1171.69
434.509	1220.69
434.731	1275.69
434.953	1369.69
435.175	1318.69
435.397	1303.69
435.618	1292.69
435.84	1246.69
436.062	1222.69
436.284	1274.69
436.505	1279.69
436.727	1327.69
436.949	1251.69
437.17	1217.69
437.392	1231.69
437.614	1205.69
437.835	1185.69
438.057	1228.69
438.278	1264.69
438.5	1244.69
438.721	1236.69
438.943	1229.69
439.165	1215.69
439.386	1242.69
439.608	1242.69
439.829	1256.69
440.05	1280.69
440.272	1233.69
440.493	1297.69
440.715	1279.69
440.936	1365.69
441.158	1427.69
441.379	1403.69
441.6	1365.69
441.822	1384.69
442.043	1356.69
442.264	1334.69
442.486	1262.69
442.707	1258.69
442.928	1273.69
443.149	1281.69
443.371	1323.69
443.592	1377.69
443.813	1397.69
444.034	1349.69
444.255	1344.69
444.476	1370.69
444.698	1442.69
444.919	1376.69
445.14	1490.69
445.361	1419.69
445.582	1469.69
445.803	1397.69
446.024	1396.69
446.245	1389.69
446.466	1378.69
446.687	1337.69
446.908	1369.69
447.129	1325.69
447.35	1305.69
447.571	1303.69
447.792	1277.69
448.013	1275.69
448.234	1310.69
448.455	1342.69
448.675	1334.69
448.896	1215.69
449.117	1176.69
449.338	1219.69
449.559	1281.69
449.779	1350.69
450	1412.69
450.221	1483.69
450.442	1403.69
450.662	1291.69
450.883	1175.69
451.104	1171.69
451.324	1159.69
451.545	1237.69
451.766	1200.69
451.986	1137.69
452.207	1151.69
452.428	1119.69
452.648	1087.69
452.869	1127.69
453.089	1147.69
453.31	1140.69
453.53	1159.69
453.751	1123.69
453.971	1065.69
454.192	1094.69
454.412	1168.69
454.633	1137.69
454.853	1106.69
455.073	1037.69
455.294	1045.69
455.514	1071.69
455.734	1087.69
455.955	1079.69
456.175	1070.69
456.395	1073.69
456.616	1094.69
456.836	1098.69
457.056	1087.69
457.276	1055.69
457.497	1052.69
457.717	1013.69
457.937	1051.69
458.157	1081.69
458.377	1053.69
458.598	1023.69
458.818	1086.69
459.038	1109.69
459.258	1149.69
459.478	1147.69
459.698	1114.69
459.918	1173.69
460.138	1213.69
460.358	1227.69
460.578	1244.69
460.798	1267.69
461.018	1350.69
461.238	1322.69
461.458	1241.69
461.678	1245.69
461.898	1236.69
462.118	1178.69
462.338	1273.69
462.558	1265.69
462.777	1250.69
462.997	1303.69
463.217	1362.69
463.437	1354.69
463.657	1300.69
463.876	1241.69
464.096	1254.69
464.316	1283.69
464.536	1304.69
464.755	1320.69
464.975	1311.69
465.195	1261.69
465.414	1302.69
465.634	1288.69
465.854	1272.69
466.073	1413.69
466.293	1369.69
466.512	1215.69
466.732	1200.69
466.951	1277.69
467.171	1240.69
467.391	1210.69
467.61	1183.69
467.829	1237.69
468.049	1315.69
468.268	1462.69
468.488	1353.69
468.707	1250.69
468.927	1223.69
469.146	1220.69
469.365	1221.69
469.585	1216.69
469.804	1251.69
470.023	1248.69
470.243	1241.69
470.462	1221.69
470.681	1195.69
470.901	1224.69
471.12	1233.69
471.339	1261.69
471.558	1198.69
471.777	1184.69
471.997	1214.69
472.216	1174.69
472.435	1129.69
472.654	1143.69
472.873	1191.69
473.092	1246.69
473.311	1203.69
473.53	1144.69
473.749	1128.69
473.968	1198.69
474.187	1235.69
474.406	1238.69
474.625	1213.69
474.844	1226.69
475.063	1249.69
475.282	1233.69
475.501	1205.69
475.72	1248.69
475.939	1310.69
476.158	1256.69
476.377	1201.69
476.596	1223.69
476.814	1199.69
477.033	1225.69
477.252	1277.69
477.471	1258.69
477.69	1261.69
477.908	1309.69
478.127	1335.69
478.346	1429.69
478.564	1427.69
478.783	1408.69
479.002	1489.69
479.22	1447.69
479.439	1448.69
479.658	1567.69
479.876	1494.69
480.095	1385.69
480.313	1363.69
480.532	1306.69
480.751	1293.69
480.969	1313.69
481.188	1263.69
481.406	1231.69
481.624	1245.69
481.843	1245.69
482.061	1286.69
482.28	1335.69
482.498	1343.69
482.717	1304.69
482.935	1291.69
483.153	1363.69
483.372	1370.69
483.59	1375.69
483.808	1363.69
484.027	1359.69
484.245	1429.69
484.463	1748.69
484.681	1921.69
484.9	1479.69
485.118	1359.69
485.336	1324.69
485.554	1370.69
485.772	1369.69
485.99	1348.69
486.209	1405.69
486.427	1365.69
486.645	1405.69
486.863	1395.69
487.081	1435.69
487.299	1462.69
487.517	1447.69
487.735	1473.69
487.953	1491.69
488.171	1531.69
488.389	1485.69
488.607	1466.69
488.825	1621.69
489.043	1535.69
489.261	1432.69
489.479	1475.69
489.696	1487.69
489.914	1457.69
490.132	1425.69
490.35	1473.69
490.568	1502.69
490.786	1514.69
491.003	1497.69
491.221	1561.69
491.439	1562.69
491.657	1595.69
491.874	1644.69
492.092	1711.69
492.31	1712.69
492.527	1687.69
492.745	1612.69
492.963	1561.69
493.18	1601.69
493.398	1713.69
493.615	1685.69
493.833	1575.69
494.05	1565.69
494.268	1549.69
494.485	1579.69
494.703	1576.69
494.92	1536.69
495.138	1518.69
495.355	1553.69
495.573	1658.69
495.79	1690.69
496.008	1702.69
496.225	1592.69
496.442	1591.69
496.66	1599.69
496.877	1592.69
497.094	1637.69
497.312	1650.69
497.529	1625.69
497.746	1640.69
497.963	1889.69
498.181	1956.69
498.398	1921.69
498.615	1834.69
498.832	1769.69
499.049	1766.69
499.267	1795.69
499.484	1881.69
499.701	2031.69
499.918	2055.69
500.135	2209.69
500.352	2344.69
500.569	2351.69
500.786	2592.69
501.003	2311.69
501.22	2105.69
501.437	2087.69
501.654	2077.69
501.871	1986.69
502.088	1781.69
502.305	1764.69
502.522	1695.69
502.739	1602.69
502.956	1565.69
503.172	1546.69
503.389	1545.69
503.606	1488.69
503.823	1486.69
504.04	1505.69
504.256	1505.69
504.473	1526.69
504.69	1521.69
504.907	1467.69
505.123	1401.69
505.34	1581.69
505.557	1995.69
505.773	1661.69
505.99	1414.69
506.207	1318.69
506.423	1287.69
506.64	1299.69
506.856	1303.69
507.073	1523.69
507.289	1612.69
507.506	1500.69
507.722	1303.69
507.939	1264.69
508.155	1249.69
508.372	1228.69
508.588	1217.69
508.805	1171.69
509.021	1146.69
509.238	1154.69
509.454	1149.69
509.67	1146.69
509.887	1124.69
510.103	1149.69
510.319	1130.69
510.536	1190.69
510.752	1251.69
510.968	1213.69
511.184	1288.69
511.401	1223.69
511.617	1135.69
511.833	1111.69
512.049	1089.69
512.265	1136.69
512.481	1097.69
512.698	1161.69
512.914	1230.69
513.13	1159.69
513.346	1100.69
513.562	1105.69
513.778	1106.69
513.994	1158.69
514.21	1223.69
514.426	1204.69
514.642	1292.69
514.858	1247.69
515.074	1142.69
515.29	1108.69
515.506	1161.69
515.721	1165.69
515.937	1191.69
516.153	1303.69
516.369	1256.69
516.585	1161.69
516.801	1142.69
517.016	1146.69
517.232	1212.69
517.448	1213.69
517.664	1235.69
517.879	1213.69
518.095	1287.69
518.311	1238.69
518.527	1161.69
518.742	1181.69
518.958	1124.69
519.173	1110.69
519.389	1168.69
519.605	1149.69
519.82	1169.69
520.036	1176.69
520.251	1152.69
520.467	1154.69
520.682	1252.69
520.898	1272.69
521.113	1106.69
521.329	1111.69
521.544	1185.69
521.76	1144.69
521.975	1097.69
522.19	1095.69
522.406	1099.69
522.621	1402.69
522.836	1289.69
523.052	1115.69
523.267	1085.69
523.482	1109.69
523.698	1075.69
523.913	1048.69
524.128	1091.69
524.343	1157.69
524.559	1193.69
524.774	1101.69
524.989	1103.69
525.204	1083.69
525.419	1063.69
525.634	1064.69
525.849	1050.69
526.064	1039.69
526.28	1084.69
526.495	1015.69
526.71	995.69
526.925	973.69
527.14	981.69
527.355	1001.69
527.57	978.69
527.785	1030.69
527.999	980.69
528.214	992.69
528.429	996.69
528.644	1009.69
528.859	1055.69
529.074	1088.69
529.289	1097.69
529.503	1123.69
529.718	1077.69
529.933	1032.69
530.148	953.69
530.363	974.69
530.577	989.69
530.792	1021.69
531.007	986.69
531.221	1005.69
531.436	992.69
531.651	1012.69
531.865	1053.69
532.08	1037.69
532.295	984.69
532.509	954.69
532.724	974.69
532.938	1014.69
533.153	1064.69
533.367	1069.69
533.582	1055.69
533.796	1024.69
534.011	1017.69
534.225	967.69
534.44	971.69
534.654	946.69
534.868	963.69
535.083	1014.69
535.297	1025.69
535.511	986.69
535.726	958.69
535.94	997.69
536.154	970.69
536.369	959.69
536.583	961.69
536.797	936.69
537.011	950.69
537.225	922.69
537.44	928.69
537.654	988.69
537.868	957.69
538.082	905.69
538.296	915.69
538.51	921.69
538.724	944.69
538.938	958.69
539.153	989.69
539.367	997.69
539.581	965.69
539.795	993.69
540.009	936.69
540.222	961.69
540.436	964.69
540.65	1076.69
540.864	1089.69
541.078	1091.69
541.292	1050.69
541.506	1069.69
541.72	1108.69
541.934	1140.69
542.147	1185.69
542.361	1123.69
542.575	1060.69
542.789	1005.69
543.002	975.69
543.216	985.69
543.43	1025.69
543.644	1069.69
543.857	1133.69
544.071	1131.69
544.285	1105.69
544.498	1095.69
544.712	1107.69
544.925	1112.69
545.139	1138.69
545.352	1055.69
545.566	1059.69
545.779	1056.69
545.993	1072.69
546.206	1104.69
546.42	1061.69
546.633	1023.69
546.847	1059.69
547.06	1063.69
547.274	1058.69
547.487	1093.69
547.7	1103.69
547.914	1103.69
548.127	1089.69
548.34	1067.69
548.554	1076.69
548.767	1033.69
548.98	1090.69
549.193	1042.69
549.407	1125.69
549.62	1117.69
549.833	1065.69
550.046	1027.69
550.259	1054.69
550.473	1029.69
550.686	1029.69
550.899	996.69
551.112	1006.69
551.325	975.69
551.538	1031.69
551.751	1162.69
551.964	908.69
552.177	914.69
552.39	966.69
552.603	1037.69
552.816	1025.69
553.029	1076.69
553.242	1066.69
553.455	1043.69
553.667	1052.69
553.88	1050.69
554.093	998.69
554.306	979.69
554.519	963.69
554.732	954.69
554.944	962.69
555.157	981.69
555.37	957.69
555.583	945.69
555.795	901.69
556.008	895.69
556.221	874.69
556.433	897.69
556.646	867.69
556.859	882.69
557.071	888.69
557.284	872.69
557.496	899.69
557.709	886.69
557.921	881.69
558.134	897.69
558.346	862.69
558.559	856.69
558.771	857.69
558.984	825.69
559.196	785.69
559.409	817.69
559.621	775.69
559.833	807.69
560.046	839.69
560.258	808.69
560.47	830.69
560.683	824.69
560.895	822.69
561.107	821.69
561.32	843.69
561.532	827.69
561.744	808.69
561.956	835.69
562.168	818.69
562.381	794.69
562.593	789.69
562.805	791.69
563.017	785.69
563.229	785.69
563.441	816.69
563.653	779.69
563.865	766.69
564.077	778.69
564.289	775.69
564.501	796.69
564.713	802.69
564.925	832.69
565.137	898.69
565.349	805.69
565.561	807.69
565.773	807.69
565.985	818.69
566.197	883.69
566.408	914.69
566.62	880.69
566.832	880.69
567.044	945.69
567.255	917.69
567.467	889.69
567.679	937.69
567.891	959.69
568.102	872.69
568.314	849.69
568.526	818.69
568.737	777.69
568.949	755.69
569.161	728.69
569.372	693.69
569.584	671.69
569.795	661.69
570.007	687.69
570.218	657.69
570.43	669.69
570.641	650.69
570.853	630.69
571.064	678.69
571.276	666.69
571.487	654.69
571.698	646.69
571.91	634.69
572.121	627.69
572.333	614.69
572.544	615.69
572.755	590.69
572.966	572.69
573.178	579.69
573.389	583.69
573.6	582.69
573.811	645.69
574.023	598.69
574.234	567.69
574.445	563.69
574.656	537.69
574.867	547.69
575.078	553.69
575.289	565.69
575.501	545.69
575.712	547.69
575.923	555.69
576.134	563.69
576.345	543.69
576.556	553.69
576.767	554.69
576.978	560.69
577.188	557.69
577.399	526.69
577.61	523.69
577.821	510.69
578.032	517.69
578.243	519.69
578.454	529.69
578.665	515.69
578.875	502.69
579.086	490.69
579.297	506.69
579.508	521.69
579.718	503.69
579.929	467.69
580.14	474.69
580.35	459.69
580.561	508.69
580.772	557.69
580.982	507.69
581.193	506.69
581.403	501.69
581.614	487.69
581.825	459.69
582.035	462.69
582.246	481.69
582.456	471.69
582.667	486.69
582.877	483.69
583.087	459.69
583.298	467.69
583.508	457.69
583.719	457.69
583.929	474.69
584.139	473.69
584.35	457.69
584.56	465.69
584.77	474.69
584.981	464.69
585.191	490.69
585.401	481.69
585.611	488.69
585.821	475.69
586.032	454.69
586.242	439.69
586.452	449.69
586.662	448.69
586.872	457.69
587.082	440.69
587.292	451.69
587.502	444.69
587.713	503.69
587.923	458.69
588.133	460.69
588.343	444.69
588.553	464.69
588.762	438.69
588.972	433.69
589.182	430.69
589.392	467.69
589.602	453.69
589.812	459.69
590.022	464.69
590.232	431.69
590.441	458.69
590.651	450.69
590.861	421.69
591.071	433.69
591.281	433.69
591.49	427.69
591.7	436.69
591.91	439.69
592.119	438.69
592.329	453.69
592.539	445.69
592.748	462.69
592.958	461.69
593.167	458.69
593.377	445.69
593.587	466.69
593.796	462.69
594.006	439.69
594.215	475.69
594.424	471.69
594.634	477.69
594.843	466.69
595.053	494.69
595.262	445.69
595.472	453.69
595.681	437.69
595.89	463.69
596.1	441.69
596.309	439.69
596.518	415.69
596.727	448.69
596.937	423.69
597.146	436.69
597.355	430.69
597.564	395.69
597.774	399.69
597.983	398.69
598.192	399.69
598.401	386.69
598.61	395.69
598.819	395.69
599.028	424.69
599.237	407.69
599.446	387.69
599.655	382.69
599.864	394.69
600.073	391.69
600.282	396.69
600.491	360.69
600.7	378.69
600.909	387.69
601.118	405.69
601.327	421.69
601.536	408.69
601.745	398.69
601.953	399.69
602.162	392.69
602.371	423.69
602.58	427.69
602.789	409.69
602.997	420.69
603.206	422.69
603.415	418.69
603.623	414.69
603.832	420.69
604.041	399.69
604.249	394.69
604.458	387.69
604.666	373.69
604.875	370.69
605.084	407.69
605.292	414.69
605.501	402.69
605.709	393.69
605.918	425.69
606.126	410.69
606.334	415.69
606.543	420.69
606.751	395.69
606.96	416.69
607.168	409.69
607.376	397.69
607.585	406.69
607.793	383.69
608.001	377.69
608.21	406.69
608.418	388.69
608.626	391.69
608.834	403.69
609.043	411.69
609.251	390.69
609.459	387.69
609.667	395.69
609.875	393.69
610.083	410.69
610.291	414.69
610.499	392.69
610.707	381.69
610.916	404.69
611.124	388.69
611.332	391.69
611.54	385.69
611.748	402.69
611.955	395.69
612.163	395.69
612.371	390.69
612.579	373.69
612.787	391.69
612.995	411.69
613.203	385.69
613.411	387.69
613.618	385.69
613.826	389.69
614.034	392.69
614.242	378.69
614.449	402.69
614.657	363.69
614.865	385.69
615.072	405.69
615.28	385.69
615.488	385.69
615.695	394.69
615.903	366.69
616.111	381.69
616.318	405.69
616.526	392.69
616.733	393.69
616.941	412.69
617.148	389.69
617.356	383.69
617.563	384.69
617.771	377.69
617.978	372.69
618.185	383.69
618.393	360.69
618.6	373.69
618.807	383.69
619.015	388.69
619.222	371.69
619.429	376.69
619.637	358.69
619.844	347.69
620.051	349.69
620.258	353.69
620.466	349.69
620.673	365.69
620.88	354.69
621.087	331.69
621.294	336.69
621.501	319.69
621.708	337.69
621.915	342.69
622.122	367.69
622.329	353.69
622.536	351.69
622.743	335.69
622.95	332.69
623.157	335.69
623.364	360.69
623.571	360.69
623.778	357.69
623.985	351.69
624.192	338.69
624.399	321.69
624.606	329.69
624.812	335.69
625.019	350.69
625.226	306.69
625.433	318.69
625.639	314.69
625.846	305.69
626.053	289.69
626.259	289.69
626.466	287.69
626.673	286.69
626.879	282.69
627.086	294.69
627.293	310.69
627.499	307.69
627.706	334.69
627.912	311.69
628.119	331.69
628.325	330.69
628.532	323.69
628.738	329.69
628.945	303.69
629.151	313.69
629.357	318.69
629.564	310.69
629.77	308.69
629.976	293.69
630.183	313.69
630.389	297.69
630.595	291.69
630.802	308.69
631.008	299.69
631.214	310.69
631.42	293.69
631.627	298.69
631.833	289.69
632.039	277.69
632.245	284.69
632.451	277.69
632.657	301.69
632.863	294.69
633.069	287.69
633.275	295.69
633.481	294.69
633.688	287.69
633.893	258.69
634.099	293.69
634.305	279.69
634.511	263.69
634.717	275.69
634.923	254.69
635.129	272.69
635.335	266.69
635.541	273.69
635.747	275.69
635.952	280.69
636.158	277.69
636.364	284.69
636.57	295.69
636.775	301.69
636.981	283.69
637.187	279.69
637.392	269.69
637.598	295.69
637.804	273.69
638.009	289.69
638.215	259.69
638.421	261.69
638.626	267.69
638.832	287.69
639.037	258.69
639.243	273.69
639.448	270.69
639.654	258.69
639.859	268.69
640.065	256.69
640.27	261.69
640.475	283.69
640.681	265.69
640.886	264.69
641.091	286.69
641.297	252.69
641.502	257.69
641.707	261.69
641.913	257.69
642.118	253.69
642.323	254.69
642.528	250.69
642.733	256.69
642.939	237.69
643.144	259.69
643.349	258.69
643.554	279.69
643.759	254.69
643.964	246.69
644.169	246.69
644.374	258.69
644.579	252.69
644.784	273.69
644.989	251.69
645.194	263.69
645.399	262.69
645.604	262.69
645.809	280.69
646.014	253.69
646.219	273.69
646.423	259.69
646.628	242.69
646.833	264.69
647.038	258.69
647.243	250.69
647.447	247.69
647.652	234.69
647.857	273.69
648.062	273.69
648.266	255.69
648.471	250.69
648.676	262.69
648.88	255.69
649.085	258.69
649.289	242.69
649.494	266.69
649.698	266.69
649.903	249.69
650.107	229.69
650.312	253.69
650.516	246.69
650.721	254.69
650.925	259.69
651.13	254.69
651.334	238.69
651.539	227.69
651.743	229.69
651.947	218.69
652.152	237.69
652.356	219.69
652.56	220.69
652.764	227.69
652.969	205.69
653.173	243.69
653.377	224.69
653.581	229.69
653.785	228.69
653.99	220.69
654.194	215.69
654.398	229.69
654.602	221.69
654.806	212.69
655.01	219.69
655.214	225.69
655.418	220.69
655.622	214.69
655.826	228.69
656.03	227.69
656.234	252.69
656.438	260.69
656.642	256.69
656.846	231.69
657.049	230.69
657.253	209.69
657.457	198.69
657.661	193.69
657.865	185.69
658.068	186.69
658.272	165.69
658.476	170.69
658.68	173.69
658.883	166.69
659.087	119.69
659.291	149.69
659.494	141.69
659.698	140.69
659.901	138.69
660.105	135.69
660.309	119.69
660.512	123.69
660.716	114.69
660.919	109.69
661.123	120.69
661.326	98.69
661.53	98.69
661.733	101.69
661.936	107.69
662.14	83.69
662.343	107.69
662.546	107.69
662.75	100.69
662.953	100.69
663.156	99.69
663.36	83.69
663.563	88.69
663.766	80.69
663.969	78.69
664.173	81.69
664.376	96.69
664.579	84.69
664.782	82.69
664.985	87.69
665.188	97.69
665.391	84.69
665.594	88.69
665.797	83.69
666	80.69
666.203	77.69
666.406	73.69
666.609	77.69
666.812	78.69
667.015	87.69
667.218	85.69
667.421	86.69
667.624	78.69
667.827	105.69
668.03	83.69
668.232	79.69
668.435	86.69
668.638	82.69
668.841	102.69
669.043	85.69
669.246	73.69
669.449	62.69
669.651	73.69
669.854	74.69
670.057	85.69
670.259	74.69
670.462	76.69
670.665	70.69
670.867	94.69
671.07	77.69
671.272	84.69
671.475	84.69
671.677	80.69
671.88	80.69
672.082	57.69
672.284	87.69
672.487	75.69
672.689	81.69
672.892	78.69
