Data from WStandard_LampEnergy8_LIBS07252019.E.O._I.C._HRD10591_15-59-39-929.txt Node
Date: Thu Jul 25 15:59:39 EDT 2019
User: cochatt
Spectrometer: HR+D1059
Trigger mode: 1
Integration Time (sec): 1.000000E-1
Scans to average: 1
Electric dark correction enabled: true
Nonlinearity correction enabled: false
Boxcar width: 0
XAxis mode: Wavelengths
Number of Pixels in Spectrum: 2048
>>>>>Begin Spectral Data<<<<<
223.165	-21.56
223.4	-21.56
223.635	-21.56
223.869	-8.56
224.104	-24.56
224.338	-22.56
224.573	-16.56
224.808	-2.56
225.042	-13.56
225.277	-5.56
225.511	5.44
225.746	7.44
225.98	4.44
226.215	7.44
226.449	19.44
226.683	20.44
226.918	22.44
227.152	28.44
227.387	34.44
227.621	24.44
227.856	48.44
228.09	56.44
228.324	55.44
228.559	46.44
228.793	102.44
229.027	208.44
229.262	212.44
229.496	228.44
229.73	212.44
229.964	236.44
230.199	251.44
230.433	256.44
230.667	254.44
230.901	282.44
231.136	245.44
231.37	266.44
231.604	246.44
231.838	266.44
232.072	255.44
232.306	260.44
232.541	268.44
232.775	295.44
233.009	318.44
233.243	306.44
233.477	297.44
233.711	315.44
233.945	315.44
234.179	295.44
234.413	318.44
234.647	322.44
234.881	311.44
235.115	291.44
235.349	314.44
235.583	326.44
235.817	290.44
236.051	272.44
236.285	292.44
236.519	312.44
236.753	351.44
236.987	349.44
237.221	365.44
237.455	402.44
237.689	365.44
237.922	347.44
238.156	352.44
238.39	345.44
238.624	361.44
238.858	381.44
239.091	388.44
239.325	418.44
239.559	455.44
239.793	462.44
240.027	490.44
240.26	488.44
240.494	381.44
240.728	366.44
240.961	370.44
241.195	366.44
241.429	403.44
241.662	420.44
241.896	396.44
242.13	399.44
242.363	426.44
242.597	472.44
242.83	454.44
243.064	460.44
243.298	477.44
243.531	462.44
243.765	465.44
243.998	448.44
244.232	427.44
244.465	387.44
244.699	404.44
244.932	435.44
245.166	480.44
245.399	478.44
245.633	457.44
245.866	452.44
246.099	446.44
246.333	490.44
246.566	475.44
246.8	527.44
247.033	575.44
247.266	523.44
247.5	529.44
247.733	546.44
247.966	542.44
248.2	600.44
248.433	583.44
248.666	596.44
248.899	675.44
249.133	742.44
249.366	790.44
249.599	684.44
249.832	597.44
250.066	617.44
250.299	625.44
250.532	554.44
250.765	521.44
250.998	555.44
251.231	574.44
251.465	614.44
251.698	562.44
251.931	591.44
252.164	593.44
252.397	608.44
252.63	598.44
252.863	527.44
253.096	542.44
253.329	578.44
253.562	574.44
253.795	597.44
254.028	586.44
254.261	560.44
254.494	579.44
254.727	575.44
254.96	596.44
255.193	642.44
255.426	695.44
255.659	758.44
255.892	780.44
256.124	683.44
256.357	629.44
256.59	699.44
256.823	685.44
257.056	694.44
257.289	806.44
257.521	887.44
257.754	806.44
257.987	742.44
258.22	816.44
258.452	773.44
258.685	680.44
258.918	666.44
259.151	665.44
259.383	608.44
259.616	545.44
259.849	612.44
260.081	680.44
260.314	750.44
260.547	809.44
260.779	824.44
261.012	743.44
261.244	709.44
261.477	662.44
261.71	687.44
261.942	666.44
262.175	663.44
262.407	692.44
262.64	643.44
262.872	626.44
263.105	599.44
263.337	624.44
263.57	629.44
263.802	609.44
264.035	588.44
264.267	566.44
264.499	547.44
264.732	583.44
264.964	642.44
265.197	665.44
265.429	696.44
265.661	771.44
265.894	826.44
266.126	871.44
266.358	771.44
266.591	808.44
266.823	852.44
267.055	746.44
267.287	765.44
267.52	749.44
267.752	769.44
267.984	753.44
268.216	803.44
268.448	817.44
268.681	758.44
268.913	714.44
269.145	673.44
269.377	709.44
269.609	760.44
269.841	857.44
270.073	1006.44
270.306	1074.44
270.538	1106.44
270.77	966.44
271.002	859.44
271.234	818.44
271.466	796.44
271.698	896.44
271.93	1034.44
272.162	1010.44
272.394	928.44
272.626	863.44
272.858	759.44
273.09	708.44
273.322	716.44
273.553	664.44
273.785	688.44
274.017	708.44
274.249	722.44
274.481	770.44
274.713	697.44
274.945	690.44
275.176	702.44
275.408	692.44
275.64	679.44
275.872	665.44
276.104	726.44
276.335	805.44
276.567	880.44
276.799	905.44
277.031	821.44
277.262	796.44
277.494	833.44
277.726	910.44
277.957	894.44
278.189	806.44
278.421	759.44
278.652	741.44
278.884	725.44
279.115	706.44
279.347	738.44
279.579	722.44
279.81	743.44
280.042	802.44
280.273	865.44
280.505	883.44
280.736	860.44
280.968	804.44
281.199	742.44
281.431	707.44
281.662	700.44
281.894	715.44
282.125	727.44
282.356	744.44
282.588	735.44
282.819	748.44
283.051	816.44
283.282	850.44
283.513	826.44
283.745	769.44
283.976	722.44
284.207	719.44
284.439	710.44
284.67	755.44
284.901	739.44
285.132	774.44
285.364	736.44
285.595	773.44
285.826	768.44
286.057	746.44
286.288	718.44
286.52	771.44
286.751	839.44
286.982	863.44
287.213	771.44
287.444	751.44
287.675	735.44
287.906	768.44
288.138	822.44
288.369	804.44
288.6	758.44
288.831	717.44
289.062	750.44
289.293	752.44
289.524	766.44
289.755	784.44
289.986	781.44
290.217	732.44
290.448	750.44
290.679	773.44
290.91	768.44
291.141	797.44
291.371	825.44
291.602	818.44
291.833	800.44
292.064	830.44
292.295	814.44
292.526	846.44
292.757	891.44
292.987	822.44
293.218	790.44
293.449	873.44
293.68	974.44
293.91	988.44
294.141	948.44
294.372	899.44
294.603	933.44
294.833	961.44
295.064	891.44
295.295	823.44
295.525	797.44
295.756	755.44
295.987	722.44
296.217	737.44
296.448	741.44
296.679	772.44
296.909	753.44
297.14	745.44
297.37	781.44
297.601	837.44
297.831	866.44
298.062	874.44
298.292	814.44
298.523	773.44
298.753	771.44
298.984	765.44
299.214	795.44
299.445	822.44
299.675	832.44
299.905	814.44
300.136	818.44
300.366	802.44
300.597	774.44
300.827	779.44
301.057	804.44
301.288	833.44
301.518	854.44
301.748	850.44
301.979	881.44
302.209	941.44
302.439	985.44
302.669	976.44
302.9	889.44
303.13	826.44
303.36	842.44
303.59	831.44
303.82	850.44
304.051	836.44
304.281	856.44
304.511	883.44
304.741	922.44
304.971	1020.44
305.201	1063.44
305.431	952.44
305.661	798.44
305.891	751.44
306.121	760.44
306.352	795.44
306.582	847.44
306.812	890.44
307.042	958.44
307.272	954.44
307.502	975.44
307.731	1026.44
307.961	1067.44
308.191	993.44
308.421	868.44
308.651	815.44
308.881	814.44
309.111	826.44
309.341	815.44
309.571	822.44
309.8	820.44
310.03	814.44
310.26	806.44
310.49	839.44
310.72	832.44
310.949	855.44
311.179	879.44
311.409	862.44
311.639	838.44
311.868	847.44
312.098	824.44
312.328	835.44
312.557	827.44
312.787	874.44
313.017	862.44
313.246	863.44
313.476	860.44
313.706	890.44
313.935	875.44
314.165	901.44
314.394	928.44
314.624	962.44
314.853	1035.44
315.083	1047.44
315.312	1035.44
315.542	982.44
315.771	882.44
316.001	910.44
316.23	937.44
316.46	921.44
316.689	920.44
316.919	906.44
317.148	837.44
317.377	901.44
317.607	964.44
317.836	1053.44
318.065	1055.44
318.295	1029.44
318.524	983.44
318.753	932.44
318.983	903.44
319.212	912.44
319.441	891.44
319.67	904.44
319.9	921.44
320.129	976.44
320.358	1015.44
320.587	1040.44
320.816	1008.44
321.046	972.44
321.275	928.44
321.504	973.44
321.733	1039.44
321.962	1000.44
322.191	919.44
322.42	934.44
322.649	919.44
322.878	910.44
323.108	914.44
323.337	953.44
323.566	954.44
323.795	943.44
324.024	962.44
324.253	928.44
324.482	936.44
324.71	880.44
324.939	855.44
325.168	883.44
325.397	908.44
325.626	930.44
325.855	946.44
326.084	931.44
326.313	920.44
326.542	937.44
326.77	972.44
326.999	974.44
327.228	918.44
327.457	874.44
327.686	886.44
327.914	908.44
328.143	937.44
328.372	915.44
328.6	944.44
328.829	922.44
329.058	882.44
329.287	904.44
329.515	927.44
329.744	962.44
329.972	1006.44
330.201	1016.44
330.43	1016.44
330.658	985.44
330.887	959.44
331.115	971.44
331.344	968.44
331.572	954.44
331.801	936.44
332.03	974.44
332.258	990.44
332.486	1001.44
332.715	998.44
332.943	1002.44
333.172	987.44
333.4	999.44
333.629	1010.44
333.857	1117.44
334.085	1209.44
334.314	1348.44
334.542	1394.44
334.771	1266.44
334.999	1147.44
335.227	1088.44
335.455	1059.44
335.684	1048.44
335.912	1087.44
336.14	1098.44
336.369	1030.44
336.597	1007.44
336.825	986.44
337.053	1030.44
337.281	1073.44
337.51	1176.44
337.738	1145.44
337.966	1092.44
338.194	986.44
338.422	963.44
338.65	982.44
338.878	918.44
339.106	938.44
339.334	927.44
339.562	934.44
339.79	943.44
340.018	1042.44
340.246	1018.44
340.474	1035.44
340.702	1042.44
340.93	1033.44
341.158	1014.44
341.386	997.44
341.614	983.44
341.842	982.44
342.07	962.44
342.298	979.44
342.526	971.44
342.754	952.44
342.981	969.44
343.209	965.44
343.437	957.44
343.665	946.44
343.893	1013.44
344.12	1050.44
344.348	1043.44
344.576	995.44
344.804	977.44
345.031	988.44
345.259	994.44
345.487	956.44
345.714	915.44
345.942	905.44
346.17	908.44
346.397	924.44
346.625	914.44
346.853	890.44
347.08	867.44
347.308	840.44
347.535	892.44
347.763	922.44
347.99	916.44
348.218	898.44
348.445	914.44
348.673	939.44
348.9	950.44
349.128	986.44
349.355	992.44
349.583	970.44
349.81	910.44
350.037	855.44
350.265	848.44
350.492	859.44
350.72	898.44
350.947	910.44
351.174	936.44
351.402	906.44
351.629	857.44
351.856	825.44
352.083	843.44
352.311	862.44
352.538	892.44
352.765	920.44
352.992	927.44
353.22	883.44
353.447	887.44
353.674	914.44
353.901	944.44
354.128	891.44
354.355	896.44
354.583	955.44
354.81	987.44
355.037	942.44
355.264	924.44
355.491	923.44
355.718	933.44
355.945	894.44
356.172	888.44
356.399	903.44
356.626	887.44
356.853	938.44
357.08	1000.44
357.307	1089.44
357.534	1055.44
357.761	978.44
357.988	923.44
358.215	866.44
358.441	859.44
358.668	871.44
358.895	899.44
359.122	965.44
359.349	1024.44
359.576	1008.44
359.802	928.44
360.029	898.44
360.256	884.44
360.483	904.44
360.709	908.44
360.936	951.44
361.163	1012.44
361.39	1086.44
361.616	1122.44
361.843	1121.44
362.07	1053.44
362.296	931.44
362.523	917.44
362.749	900.44
362.976	939.44
363.203	941.44
363.429	916.44
363.656	869.44
363.882	931.44
364.109	1064.44
364.335	1086.44
364.562	1001.44
364.788	983.44
365.015	906.44
365.241	900.44
365.468	911.44
365.694	970.44
365.92	994.44
366.147	908.44
366.373	895.44
366.599	888.44
366.826	916.44
367.052	916.44
367.278	923.44
367.505	937.44
367.731	968.44
367.957	926.44
368.184	1014.44
368.41	1029.44
368.636	1035.44
368.862	1053.44
369.089	1049.44
369.315	999.44
369.541	958.44
369.767	915.44
369.993	909.44
370.219	919.44
370.445	951.44
370.672	1006.44
370.898	1028.44
371.124	1020.44
371.35	972.44
371.576	998.44
371.802	1038.44
372.028	1000.44
372.254	931.44
372.48	922.44
372.706	918.44
372.932	936.44
373.158	938.44
373.384	1000.44
373.61	997.44
373.835	996.44
374.061	996.44
374.287	991.44
374.513	981.44
374.739	988.44
374.965	984.44
375.191	983.44
375.416	1032.44
375.642	1029.44
375.868	1086.44
376.094	1110.44
376.319	1046.44
376.545	960.44
376.771	1022.44
376.997	1076.44
377.222	1054.44
377.448	1027.44
377.674	1028.44
377.899	1058.44
378.125	1064.44
378.35	1056.44
378.576	980.44
378.802	978.44
379.027	980.44
379.253	996.44
379.478	983.44
379.704	993.44
379.929	1002.44
380.155	980.44
380.38	1002.44
380.606	986.44
380.831	989.44
381.057	1077.44
381.282	1057.44
381.507	1033.44
381.733	1103.44
381.958	1112.44
382.184	1076.44
382.409	1034.44
382.634	1050.44
382.86	1034.44
383.085	995.44
383.31	1073.44
383.535	1181.44
383.761	1207.44
383.986	1144.44
384.211	1110.44
384.436	1104.44
384.662	1136.44
384.887	1222.44
385.112	1118.44
385.337	1129.44
385.562	1114.44
385.787	1127.44
386.013	1156.44
386.238	1146.44
386.463	1164.44
386.688	1243.44
386.913	1306.44
387.138	1245.44
387.363	1144.44
387.588	1160.44
387.813	1165.44
388.038	1184.44
388.263	1218.44
388.488	1139.44
388.713	1048.44
388.938	1062.44
389.163	1123.44
389.387	1123.44
389.612	1108.44
389.837	1139.44
390.062	1159.44
390.287	1128.44
390.512	1110.44
390.736	1091.44
390.961	1090.44
391.186	1061.44
391.411	1068.44
391.636	1112.44
391.86	1138.44
392.085	1109.44
392.31	1106.44
392.534	1134.44
392.759	1105.44
392.984	1110.44
393.208	1113.44
393.433	1184.44
393.658	1216.44
393.882	1208.44
394.107	1146.44
394.331	1146.44
394.556	1111.44
394.78	1170.44
395.005	1156.44
395.229	1239.44
395.454	1308.44
395.678	1296.44
395.903	1219.44
396.127	1166.44
396.352	1196.44
396.576	1247.44
396.801	1248.44
397.025	1215.44
397.249	1228.44
397.474	1219.44
397.698	1228.44
397.922	1259.44
398.147	1304.44
398.371	1339.44
398.595	1314.44
398.82	1282.44
399.044	1310.44
399.268	1384.44
399.492	1411.44
399.717	1491.44
399.941	1463.44
400.165	1462.44
400.389	1435.44
400.613	1428.44
400.837	1652.44
401.062	1791.44
401.286	1551.44
401.51	1417.44
401.734	1488.44
401.958	1379.44
402.182	1302.44
402.406	1276.44
402.63	1292.44
402.854	1274.44
403.078	1339.44
403.302	1331.44
403.526	1352.44
403.75	1328.44
403.974	1340.44
404.198	1365.44
404.422	1440.44
404.645	1502.44
404.869	1422.44
405.093	1299.44
405.317	1328.44
405.541	1359.44
405.765	1334.44
405.988	1313.44
406.212	1367.44
406.436	1383.44
406.66	1444.44
406.883	1452.44
407.107	1667.44
407.331	1775.44
407.555	1896.44
407.778	1675.44
408.002	1428.44
408.226	1423.44
408.449	1416.44
408.673	1366.44
408.896	1370.44
409.12	1410.44
409.344	1343.44
409.567	1336.44
409.791	1376.44
410.014	1377.44
410.238	1440.44
410.461	1504.44
410.685	1348.44
410.908	1323.44
411.132	1345.44
411.355	1350.44
411.578	1301.44
411.802	1329.44
412.025	1320.44
412.249	1320.44
412.472	1294.44
412.695	1295.44
412.919	1265.44
413.142	1328.44
413.365	1318.44
413.589	1351.44
413.812	1396.44
414.035	1438.44
414.258	1321.44
414.482	1298.44
414.705	1301.44
414.928	1283.44
415.151	1289.44
415.374	1318.44
415.597	1354.44
415.821	1358.44
416.044	1353.44
416.267	1299.44
416.49	1242.44
416.713	1232.44
416.936	1307.44
417.159	1370.44
417.382	1348.44
417.605	1299.44
417.828	1319.44
418.051	1293.44
418.274	1300.44
418.497	1275.44
418.72	1315.44
418.943	1277.44
419.166	1313.44
419.389	1350.44
419.611	1313.44
419.834	1284.44
420.057	1323.44
420.28	1267.44
420.503	1281.44
420.726	1279.44
420.948	1282.44
421.171	1286.44
421.394	1266.44
421.617	1349.44
421.839	1347.44
422.062	1293.44
422.285	1292.44
422.507	1287.44
422.73	1227.44
422.953	1241.44
423.175	1209.44
423.398	1232.44
423.621	1256.44
423.843	1275.44
424.066	1338.44
424.288	1346.44
424.511	1388.44
424.733	1363.44
424.956	1216.44
425.178	1219.44
425.401	1246.44
425.623	1233.44
425.846	1246.44
426.068	1310.44
426.291	1325.44
426.513	1302.44
426.735	1321.44
426.958	1401.44
427.18	1444.44
427.402	1360.44
427.625	1373.44
427.847	1357.44
428.069	1270.44
428.292	1251.44
428.514	1232.44
428.736	1223.44
428.958	1243.44
429.181	1267.44
429.403	1447.44
429.625	1758.44
429.847	1471.44
430.069	1283.44
430.292	1439.44
430.514	1457.44
430.736	1330.44
430.958	1362.44
431.18	1312.44
431.402	1217.44
431.624	1202.44
431.846	1154.44
432.068	1130.44
432.29	1116.44
432.512	1182.44
432.734	1214.44
432.956	1244.44
433.178	1296.44
433.4	1304.44
433.622	1294.44
433.844	1257.44
434.066	1183.44
434.287	1175.44
434.509	1185.44
434.731	1238.44
434.953	1326.44
435.175	1348.44
435.397	1263.44
435.618	1265.44
435.84	1219.44
436.062	1198.44
436.284	1249.44
436.505	1271.44
436.727	1306.44
436.949	1235.44
437.17	1226.44
437.392	1210.44
437.614	1221.44
437.835	1178.44
438.057	1251.44
438.278	1222.44
438.5	1204.44
438.721	1216.44
438.943	1227.44
439.165	1203.44
439.386	1208.44
439.608	1264.44
439.829	1243.44
440.05	1247.44
440.272	1266.44
440.493	1234.44
440.715	1252.44
440.936	1333.44
441.158	1418.44
441.379	1430.44
441.6	1347.44
441.822	1328.44
442.043	1340.44
442.264	1297.44
442.486	1256.44
442.707	1251.44
442.928	1267.44
443.149	1282.44
443.371	1344.44
443.592	1377.44
443.813	1346.44
444.034	1321.44
444.255	1370.44
444.476	1387.44
444.698	1380.44
444.919	1374.44
445.14	1504.44
445.361	1443.44
445.582	1472.44
445.803	1396.44
446.024	1345.44
446.245	1362.44
446.466	1354.44
446.687	1330.44
446.908	1351.44
447.129	1314.44
447.35	1327.44
447.571	1304.44
447.792	1228.44
448.013	1227.44
448.234	1253.44
448.455	1275.44
448.675	1318.44
448.896	1192.44
449.117	1187.44
449.338	1238.44
449.559	1278.44
449.779	1308.44
450	1421.44
450.221	1471.44
450.442	1428.44
450.662	1289.44
450.883	1172.44
451.104	1178.44
451.324	1167.44
451.545	1204.44
451.766	1166.44
451.986	1141.44
452.207	1100.44
452.428	1076.44
452.648	1098.44
452.869	1108.44
453.089	1136.44
453.31	1155.44
453.53	1115.44
453.751	1104.44
453.971	1039.44
454.192	1103.44
454.412	1139.44
454.633	1131.44
454.853	1100.44
455.073	1093.44
455.294	1059.44
455.514	1081.44
455.734	1063.44
455.955	1073.44
456.175	1048.44
456.395	1046.44
456.616	1113.44
456.836	1041.44
457.056	1086.44
457.276	1083.44
457.497	1050.44
457.717	1006.44
457.937	1034.44
458.157	1067.44
458.377	1033.44
458.598	1014.44
458.818	1024.44
459.038	1082.44
459.258	1143.44
459.478	1145.44
459.698	1100.44
459.918	1157.44
460.138	1220.44
460.358	1248.44
460.578	1231.44
460.798	1294.44
461.018	1328.44
461.238	1289.44
461.458	1246.44
461.678	1245.44
461.898	1205.44
462.118	1202.44
462.338	1265.44
462.558	1240.44
462.777	1265.44
462.997	1305.44
463.217	1340.44
463.437	1336.44
463.657	1228.44
463.876	1252.44
464.096	1240.44
464.316	1237.44
464.536	1300.44
464.755	1312.44
464.975	1295.44
465.195	1241.44
465.414	1300.44
465.634	1272.44
465.854	1242.44
466.073	1392.44
466.293	1331.44
466.512	1200.44
466.732	1199.44
466.951	1248.44
467.171	1197.44
467.391	1159.44
467.61	1166.44
467.829	1207.44
468.049	1335.44
468.268	1460.44
468.488	1307.44
468.707	1254.44
468.927	1191.44
469.146	1191.44
469.365	1189.44
469.585	1200.44
469.804	1190.44
470.023	1229.44
470.243	1244.44
470.462	1244.44
470.681	1191.44
470.901	1229.44
471.12	1218.44
471.339	1220.44
471.558	1182.44
471.777	1204.44
471.997	1239.44
472.216	1188.44
472.435	1096.44
472.654	1114.44
472.873	1146.44
473.092	1236.44
473.311	1205.44
473.53	1144.44
473.749	1128.44
473.968	1182.44
474.187	1219.44
474.406	1222.44
474.625	1214.44
474.844	1217.44
475.063	1218.44
475.282	1227.44
475.501	1196.44
475.72	1209.44
475.939	1304.44
476.158	1244.44
476.377	1213.44
476.596	1188.44
476.814	1187.44
477.033	1195.44
477.252	1234.44
477.471	1310.44
477.69	1255.44
477.908	1301.44
478.127	1321.44
478.346	1425.44
478.564	1429.44
478.783	1416.44
479.002	1393.44
479.22	1408.44
479.439	1476.44
479.658	1574.44
479.876	1476.44
480.095	1361.44
480.313	1323.44
480.532	1273.44
480.751	1303.44
480.969	1335.44
481.188	1237.44
481.406	1250.44
481.624	1215.44
481.843	1234.44
482.061	1259.44
482.28	1318.44
482.498	1302.44
482.717	1324.44
482.935	1310.44
483.153	1332.44
483.372	1371.44
483.59	1319.44
483.808	1347.44
484.027	1352.44
484.245	1430.44
484.463	1708.44
484.681	1860.44
484.9	1426.44
485.118	1348.44
485.336	1344.44
485.554	1342.44
485.772	1362.44
485.99	1370.44
486.209	1364.44
486.427	1383.44
486.645	1394.44
486.863	1381.44
487.081	1473.44
487.299	1416.44
487.517	1418.44
487.735	1445.44
487.953	1465.44
488.171	1483.44
488.389	1462.44
488.607	1462.44
488.825	1579.44
489.043	1514.44
489.261	1387.44
489.479	1422.44
489.696	1452.44
489.914	1447.44
490.132	1401.44
490.35	1445.44
490.568	1542.44
490.786	1503.44
491.003	1459.44
491.221	1528.44
491.439	1567.44
491.657	1603.44
491.874	1614.44
492.092	1646.44
492.31	1677.44
492.527	1636.44
492.745	1572.44
492.963	1562.44
493.18	1620.44
493.398	1687.44
493.615	1683.44
493.833	1574.44
494.05	1503.44
494.268	1511.44
494.485	1566.44
494.703	1503.44
494.92	1496.44
495.138	1530.44
495.355	1570.44
495.573	1604.44
495.79	1660.44
496.008	1660.44
496.225	1578.44
496.442	1584.44
496.66	1621.44
496.877	1558.44
497.094	1636.44
497.312	1651.44
497.529	1602.44
497.746	1657.44
497.963	1814.44
498.181	1941.44
498.398	1902.44
498.615	1857.44
498.832	1771.44
499.049	1699.44
499.267	1744.44
499.484	1862.44
499.701	2052.44
499.918	2035.44
500.135	2185.44
500.352	2332.44
500.569	2354.44
500.786	2501.44
501.003	2254.44
501.22	2098.44
501.437	2060.44
501.654	2035.44
501.871	1985.44
502.088	1749.44
502.305	1765.44
502.522	1692.44
502.739	1570.44
502.956	1548.44
503.172	1538.44
503.389	1475.44
503.606	1471.44
503.823	1461.44
504.04	1459.44
504.256	1492.44
504.473	1503.44
504.69	1528.44
504.907	1409.44
505.123	1359.44
505.34	1518.44
505.557	1954.44
505.773	1627.44
505.99	1373.44
506.207	1326.44
506.423	1274.44
506.64	1253.44
506.856	1318.44
507.073	1502.44
507.289	1571.44
507.506	1486.44
507.722	1302.44
507.939	1212.44
508.155	1230.44
508.372	1247.44
508.588	1181.44
508.805	1161.44
509.021	1162.44
509.238	1131.44
509.454	1137.44
509.67	1143.44
509.887	1117.44
510.103	1142.44
510.319	1139.44
510.536	1202.44
510.752	1208.44
510.968	1192.44
511.184	1257.44
511.401	1182.44
511.617	1142.44
511.833	1108.44
512.049	1108.44
512.265	1104.44
512.481	1085.44
512.698	1128.44
512.914	1192.44
513.13	1127.44
513.346	1109.44
513.562	1099.44
513.778	1095.44
513.994	1173.44
514.21	1173.44
514.426	1207.44
514.642	1291.44
514.858	1221.44
515.074	1137.44
515.29	1141.44
515.506	1150.44
515.721	1166.44
515.937	1200.44
516.153	1305.44
516.369	1249.44
516.585	1152.44
516.801	1146.44
517.016	1136.44
517.232	1160.44
517.448	1187.44
517.664	1209.44
517.879	1222.44
518.095	1253.44
518.311	1179.44
518.527	1183.44
518.742	1139.44
518.958	1133.44
519.173	1111.44
519.389	1114.44
519.605	1154.44
519.82	1175.44
520.036	1194.44
520.251	1140.44
520.467	1124.44
520.682	1216.44
520.898	1215.44
521.113	1096.44
521.329	1123.44
521.544	1184.44
521.76	1110.44
521.975	1102.44
522.19	1060.44
522.406	1099.44
522.621	1347.44
522.836	1294.44
523.052	1097.44
523.267	1096.44
523.482	1118.44
523.698	1054.44
523.913	1045.44
524.128	1065.44
524.343	1102.44
524.559	1111.44
524.774	1090.44
524.989	1067.44
525.204	1075.44
525.419	1027.44
525.634	1063.44
525.849	1045.44
526.064	1059.44
526.28	1028.44
526.495	1000.44
526.71	976.44
526.925	998.44
527.14	978.44
527.355	935.44
527.57	972.44
527.785	1006.44
527.999	996.44
528.214	972.44
528.429	943.44
528.644	992.44
528.859	1058.44
529.074	1048.44
529.289	1107.44
529.503	1120.44
529.718	1063.44
529.933	999.44
530.148	968.44
530.363	967.44
530.577	962.44
530.792	970.44
531.007	944.44
531.221	976.44
531.436	964.44
531.651	996.44
531.865	1054.44
532.08	990.44
532.295	978.44
532.509	962.44
532.724	937.44
532.938	969.44
533.153	1045.44
533.367	1013.44
533.582	1004.44
533.796	1004.44
534.011	1027.44
534.225	993.44
534.44	989.44
534.654	942.44
534.868	969.44
535.083	1060.44
535.297	1017.44
535.511	982.44
535.726	977.44
535.94	979.44
536.154	942.44
536.369	911.44
536.583	918.44
536.797	904.44
537.011	948.44
537.225	920.44
537.44	929.44
537.654	986.44
537.868	915.44
538.082	874.44
538.296	890.44
538.51	948.44
538.724	950.44
538.938	939.44
539.153	976.44
539.367	988.44
539.581	956.44
539.795	960.44
540.009	927.44
540.222	937.44
540.436	949.44
540.65	1064.44
540.864	1058.44
541.078	1040.44
541.292	1026.44
541.506	1048.44
541.72	1112.44
541.934	1151.44
542.147	1141.44
542.361	1142.44
542.575	1070.44
542.789	1000.44
543.002	985.44
543.216	974.44
543.43	1012.44
543.644	1067.44
543.857	1122.44
544.071	1109.44
544.285	1098.44
544.498	1050.44
544.712	1076.44
544.925	1091.44
545.139	1129.44
545.352	1082.44
545.566	1062.44
545.779	1059.44
545.993	1082.44
546.206	1086.44
546.42	1056.44
546.633	1044.44
546.847	1051.44
547.06	1046.44
547.274	1071.44
547.487	1076.44
547.7	1072.44
547.914	1083.44
548.127	1090.44
548.34	1072.44
548.554	1057.44
548.767	1056.44
548.98	1051.44
549.193	1058.44
549.407	1114.44
549.62	1099.44
549.833	1029.44
550.046	1048.44
550.259	1061.44
550.473	1008.44
550.686	1023.44
550.899	1010.44
551.112	965.44
551.325	952.44
551.538	998.44
551.751	1120.44
551.964	889.44
552.177	908.44
552.39	958.44
552.603	1002.44
552.816	1029.44
553.029	1093.44
553.242	1108.44
553.455	1050.44
553.667	1042.44
553.88	1028.44
554.093	1034.44
554.306	983.44
554.519	943.44
554.732	962.44
554.944	971.44
555.157	950.44
555.37	954.44
555.583	930.44
555.795	916.44
556.008	894.44
556.221	854.44
556.433	857.44
556.646	871.44
556.859	870.44
557.071	841.44
557.284	868.44
557.496	870.44
557.709	863.44
557.921	858.44
558.134	861.44
558.346	857.44
558.559	843.44
558.771	845.44
558.984	821.44
559.196	805.44
559.409	798.44
559.621	806.44
559.833	796.44
560.046	824.44
560.258	834.44
560.47	839.44
560.683	834.44
560.895	788.44
561.107	818.44
561.32	799.44
561.532	801.44
561.744	787.44
561.956	831.44
562.168	788.44
562.381	767.44
562.593	771.44
562.805	757.44
563.017	754.44
563.229	805.44
563.441	794.44
563.653	779.44
563.865	777.44
564.077	771.44
564.289	776.44
564.501	771.44
564.713	798.44
564.925	816.44
565.137	887.44
565.349	803.44
565.561	795.44
565.773	811.44
565.985	832.44
566.197	864.44
566.408	898.44
566.62	875.44
566.832	884.44
567.044	896.44
567.255	874.44
567.467	914.44
567.679	946.44
567.891	896.44
568.102	843.44
568.314	838.44
568.526	792.44
568.737	778.44
568.949	723.44
569.161	702.44
569.372	687.44
569.584	686.44
569.795	697.44
570.007	668.44
570.218	638.44
570.43	650.44
570.641	639.44
570.853	665.44
571.064	664.44
571.276	663.44
571.487	684.44
571.698	638.44
571.91	629.44
572.121	614.44
572.333	624.44
572.544	602.44
572.755	590.44
572.966	578.44
573.178	571.44
573.389	574.44
573.6	580.44
573.811	629.44
574.023	579.44
574.234	564.44
574.445	546.44
574.656	553.44
574.867	545.44
575.078	571.44
575.289	578.44
575.501	533.44
575.712	530.44
575.923	536.44
576.134	561.44
576.345	538.44
576.556	566.44
576.767	529.44
576.978	548.44
577.188	530.44
577.399	530.44
577.61	547.44
577.821	520.44
578.032	521.44
578.243	526.44
578.454	519.44
578.665	487.44
578.875	476.44
579.086	496.44
579.297	485.44
579.508	519.44
579.718	500.44
579.929	503.44
580.14	476.44
580.35	489.44
580.561	494.44
580.772	542.44
580.982	510.44
581.193	502.44
581.403	496.44
581.614	477.44
581.825	455.44
582.035	465.44
582.246	483.44
582.456	504.44
582.667	478.44
582.877	498.44
583.087	463.44
583.298	464.44
583.508	467.44
583.719	471.44
583.929	467.44
584.139	448.44
584.35	427.44
584.56	446.44
584.77	452.44
584.981	449.44
585.191	462.44
585.401	475.44
585.611	468.44
585.821	470.44
586.032	449.44
586.242	443.44
586.452	447.44
586.662	460.44
586.872	450.44
587.082	440.44
587.292	454.44
587.502	443.44
587.713	445.44
587.923	450.44
588.133	435.44
588.343	453.44
588.553	452.44
588.762	432.44
588.972	420.44
589.182	452.44
589.392	439.44
589.602	436.44
589.812	466.44
590.022	446.44
590.232	436.44
590.441	421.44
590.651	459.44
590.861	443.44
591.071	413.44
591.281	450.44
591.49	423.44
591.7	447.44
591.91	454.44
592.119	418.44
592.329	430.44
592.539	459.44
592.748	442.44
592.958	434.44
593.167	454.44
593.377	451.44
593.587	467.44
593.796	472.44
594.006	453.44
594.215	466.44
594.424	438.44
594.634	435.44
594.843	471.44
595.053	471.44
595.262	442.44
595.472	447.44
595.681	444.44
595.89	437.44
596.1	431.44
596.309	433.44
596.518	446.44
596.727	439.44
596.937	416.44
597.146	390.44
597.355	403.44
597.564	406.44
597.774	394.44
597.983	399.44
598.192	381.44
598.401	399.44
598.61	379.44
598.819	383.44
599.028	394.44
599.237	396.44
599.446	392.44
599.655	380.44
599.864	393.44
600.073	374.44
600.282	390.44
600.491	377.44
600.7	388.44
600.909	393.44
601.118	386.44
601.327	394.44
601.536	407.44
601.745	400.44
601.953	415.44
602.162	403.44
602.371	420.44
602.58	414.44
602.789	438.44
602.997	390.44
603.206	404.44
603.415	400.44
603.623	408.44
603.832	413.44
604.041	389.44
604.249	375.44
604.458	367.44
604.666	377.44
604.875	369.44
605.084	394.44
605.292	398.44
605.501	400.44
605.709	412.44
605.918	395.44
606.126	392.44
606.334	400.44
606.543	420.44
606.751	403.44
606.96	402.44
607.168	382.44
607.376	400.44
607.585	397.44
607.793	399.44
608.001	397.44
608.21	404.44
608.418	401.44
608.626	402.44
608.834	383.44
609.043	394.44
609.251	380.44
609.459	385.44
609.667	382.44
609.875	392.44
610.083	404.44
610.291	408.44
610.499	406.44
610.707	396.44
610.916	389.44
611.124	393.44
611.332	382.44
611.54	390.44
611.748	395.44
611.955	391.44
612.163	395.44
612.371	397.44
612.579	386.44
612.787	395.44
612.995	401.44
613.203	383.44
613.411	380.44
613.618	390.44
613.826	380.44
614.034	401.44
614.242	406.44
614.449	372.44
614.657	383.44
614.865	378.44
615.072	387.44
615.28	386.44
615.488	371.44
615.695	382.44
615.903	387.44
616.111	380.44
616.318	398.44
616.526	382.44
616.733	383.44
616.941	378.44
617.148	363.44
617.356	380.44
617.563	376.44
617.771	400.44
617.978	356.44
618.185	364.44
618.393	355.44
618.6	370.44
618.807	350.44
619.015	357.44
619.222	369.44
619.429	360.44
619.637	334.44
619.844	320.44
620.051	356.44
620.258	323.44
620.466	364.44
620.673	344.44
620.88	335.44
621.087	336.44
621.294	351.44
621.501	326.44
621.708	345.44
621.915	355.44
622.122	338.44
622.329	356.44
622.536	352.44
622.743	341.44
622.95	331.44
623.157	348.44
623.364	353.44
623.571	346.44
623.778	347.44
623.985	360.44
624.192	351.44
624.399	346.44
624.606	341.44
624.812	329.44
625.019	323.44
625.226	332.44
625.433	308.44
625.639	314.44
625.846	290.44
626.053	309.44
626.259	316.44
626.466	295.44
626.673	293.44
626.879	283.44
627.086	287.44
627.293	313.44
627.499	316.44
627.706	321.44
627.912	315.44
628.119	316.44
628.325	324.44
628.532	306.44
628.738	302.44
628.945	318.44
629.151	313.44
629.357	325.44
629.564	319.44
629.77	329.44
629.976	314.44
630.183	275.44
630.389	298.44
630.595	288.44
630.802	291.44
631.008	301.44
631.214	311.44
631.42	290.44
631.627	304.44
631.833	278.44
632.039	291.44
632.245	293.44
632.451	297.44
632.657	292.44
632.863	305.44
633.069	305.44
633.275	278.44
633.481	280.44
633.688	274.44
633.893	282.44
634.099	281.44
634.305	270.44
634.511	261.44
634.717	287.44
634.923	267.44
635.129	260.44
635.335	263.44
635.541	261.44
635.747	261.44
635.952	259.44
636.158	281.44
636.364	287.44
636.57	281.44
636.775	284.44
636.981	281.44
637.187	296.44
637.392	274.44
637.598	287.44
637.804	268.44
638.009	272.44
638.215	282.44
638.421	286.44
638.626	283.44
638.832	277.44
639.037	271.44
639.243	286.44
639.448	276.44
639.654	260.44
639.859	256.44
640.065	259.44
640.27	260.44
640.475	290.44
640.681	263.44
640.886	260.44
641.091	273.44
641.297	272.44
641.502	247.44
641.707	267.44
641.913	276.44
642.118	273.44
642.323	256.44
642.528	252.44
642.733	262.44
642.939	249.44
643.144	260.44
643.349	258.44
643.554	275.44
643.759	258.44
643.964	244.44
644.169	268.44
644.374	248.44
644.579	258.44
644.784	243.44
644.989	259.44
645.194	256.44
645.399	249.44
645.604	252.44
645.809	257.44
646.014	249.44
646.219	262.44
646.423	263.44
646.628	271.44
646.833	253.44
647.038	248.44
647.243	255.44
647.447	235.44
647.652	256.44
647.857	240.44
648.062	264.44
648.266	244.44
648.471	240.44
648.676	243.44
648.88	260.44
649.085	271.44
649.289	238.44
649.494	245.44
649.698	250.44
649.903	236.44
650.107	258.44
650.312	246.44
650.516	238.44
650.721	249.44
650.925	255.44
651.13	236.44
651.334	230.44
651.539	233.44
651.743	251.44
651.947	231.44
652.152	221.44
652.356	235.44
652.56	239.44
652.764	229.44
652.969	221.44
653.173	233.44
653.377	223.44
653.581	222.44
653.785	229.44
653.99	212.44
654.194	229.44
654.398	214.44
654.602	219.44
654.806	214.44
655.01	221.44
655.214	257.44
655.418	228.44
655.622	216.44
655.826	239.44
656.03	236.44
656.234	244.44
656.438	264.44
656.642	251.44
656.846	249.44
657.049	231.44
657.253	224.44
657.457	204.44
657.661	197.44
657.865	187.44
658.068	165.44
658.272	164.44
658.476	159.44
658.68	155.44
658.883	150.44
659.087	148.44
659.291	142.44
659.494	150.44
659.698	141.44
659.901	123.44
660.105	136.44
660.309	128.44
660.512	124.44
660.716	113.44
660.919	116.44
661.123	111.44
661.326	122.44
661.53	104.44
661.733	104.44
661.936	97.44
662.14	97.44
662.343	100.44
662.546	104.44
662.75	91.44
662.953	103.44
663.156	80.44
663.36	84.44
663.563	81.44
663.766	87.44
663.969	75.44
664.173	89.44
664.376	86.44
664.579	91.44
664.782	100.44
664.985	78.44
665.188	93.44
665.391	67.44
665.594	81.44
665.797	91.44
666	70.44
666.203	76.44
666.406	87.44
666.609	83.44
666.812	76.44
667.015	68.44
667.218	71.44
667.421	94.44
667.624	89.44
667.827	81.44
668.03	75.44
668.232	79.44
668.435	98.44
668.638	80.44
668.841	76.44
669.043	76.44
669.246	90.44
669.449	93.44
669.651	78.44
669.854	82.44
670.057	82.44
670.259	72.44
670.462	80.44
670.665	78.44
670.867	86.44
671.07	73.44
671.272	87.44
671.475	93.44
671.677	74.44
671.88	84.44
672.082	87.44
672.284	80.44
672.487	78.44
672.689	73.44
672.892	78.44
