Data from WStandard_LampEnergy8_LIBS07252019.E.O._I.C._HRD10591_15-59-40-930.txt Node
Date: Thu Jul 25 15:59:40 EDT 2019
User: cochatt
Spectrometer: HR+D1059
Trigger mode: 1
Integration Time (sec): 1.000000E-1
Scans to average: 1
Electric dark correction enabled: true
Nonlinearity correction enabled: false
Boxcar width: 0
XAxis mode: Wavelengths
Number of Pixels in Spectrum: 2048
>>>>>Begin Spectral Data<<<<<
223.165	-20.94
223.4	-20.94
223.635	-20.94
223.869	-11.94
224.104	-17.94
224.338	-24.94
224.573	-29.94
224.808	-1.94
225.042	-10.94
225.277	-3.94
225.511	8.06
225.746	1.06
225.98	2.06
226.215	8.06
226.449	21.06
226.683	13.06
226.918	29.06
227.152	40.06
227.387	33.06
227.621	39.06
227.856	31.06
228.09	47.06
228.324	53.06
228.559	42.06
228.793	87.06
229.027	202.06
229.262	194.06
229.496	212.06
229.73	221.06
229.964	254.06
230.199	253.06
230.433	254.06
230.667	278.06
230.901	276.06
231.136	255.06
231.37	252.06
231.604	253.06
231.838	258.06
232.072	234.06
232.306	237.06
232.541	264.06
232.775	287.06
233.009	310.06
233.243	312.06
233.477	281.06
233.711	296.06
233.945	291.06
234.179	282.06
234.413	319.06
234.647	348.06
234.881	308.06
235.115	282.06
235.349	278.06
235.583	319.06
235.817	295.06
236.051	293.06
236.285	265.06
236.519	323.06
236.753	341.06
236.987	353.06
237.221	348.06
237.455	375.06
237.689	368.06
237.922	339.06
238.156	340.06
238.39	352.06
238.624	350.06
238.858	368.06
239.091	406.06
239.325	421.06
239.559	441.06
239.793	476.06
240.027	531.06
240.26	492.06
240.494	384.06
240.728	386.06
240.961	400.06
241.195	400.06
241.429	417.06
241.662	428.06
241.896	393.06
242.13	392.06
242.363	405.06
242.597	445.06
242.83	429.06
243.064	445.06
243.298	464.06
243.531	443.06
243.765	446.06
243.998	462.06
244.232	386.06
244.465	375.06
244.699	436.06
244.932	448.06
245.166	508.06
245.399	482.06
245.633	447.06
245.866	449.06
246.099	464.06
246.333	455.06
246.566	497.06
246.8	520.06
247.033	572.06
247.266	518.06
247.5	529.06
247.733	504.06
247.966	544.06
248.2	587.06
248.433	590.06
248.666	593.06
248.899	640.06
249.133	729.06
249.366	781.06
249.599	678.06
249.832	597.06
250.066	615.06
250.299	615.06
250.532	556.06
250.765	532.06
250.998	549.06
251.231	553.06
251.465	607.06
251.698	554.06
251.931	565.06
252.164	590.06
252.397	596.06
252.63	590.06
252.863	556.06
253.096	540.06
253.329	578.06
253.562	585.06
253.795	617.06
254.028	582.06
254.261	548.06
254.494	561.06
254.727	564.06
254.96	558.06
255.193	640.06
255.426	708.06
255.659	749.06
255.892	754.06
256.124	661.06
256.357	636.06
256.59	666.06
256.823	684.06
257.056	703.06
257.289	809.06
257.521	847.06
257.754	782.06
257.987	769.06
258.22	828.06
258.452	788.06
258.685	668.06
258.918	660.06
259.151	641.06
259.383	620.06
259.616	565.06
259.849	621.06
260.081	695.06
260.314	746.06
260.547	772.06
260.779	798.06
261.012	742.06
261.244	694.06
261.477	661.06
261.71	678.06
261.942	694.06
262.175	686.06
262.407	697.06
262.64	650.06
262.872	640.06
263.105	585.06
263.337	628.06
263.57	628.06
263.802	609.06
264.035	593.06
264.267	572.06
264.499	545.06
264.732	611.06
264.964	619.06
265.197	642.06
265.429	686.06
265.661	767.06
265.894	806.06
266.126	850.06
266.358	763.06
266.591	784.06
266.823	810.06
267.055	783.06
267.287	778.06
267.52	760.06
267.752	749.06
267.984	766.06
268.216	759.06
268.448	756.06
268.681	772.06
268.913	718.06
269.145	676.06
269.377	690.06
269.609	748.06
269.841	876.06
270.073	954.06
270.306	1038.06
270.538	1096.06
270.77	892.06
271.002	818.06
271.234	791.06
271.466	821.06
271.698	926.06
271.93	1028.06
272.162	1028.06
272.394	917.06
272.626	852.06
272.858	785.06
273.09	694.06
273.322	689.06
273.553	650.06
273.785	654.06
274.017	698.06
274.249	754.06
274.481	745.06
274.713	696.06
274.945	677.06
275.176	668.06
275.408	718.06
275.64	670.06
275.872	698.06
276.104	716.06
276.335	792.06
276.567	876.06
276.799	892.06
277.031	829.06
277.262	768.06
277.494	833.06
277.726	882.06
277.957	861.06
278.189	786.06
278.421	738.06
278.652	751.06
278.884	716.06
279.115	731.06
279.347	723.06
279.579	720.06
279.81	729.06
280.042	793.06
280.273	878.06
280.505	855.06
280.736	861.06
280.968	826.06
281.199	744.06
281.431	698.06
281.662	708.06
281.894	701.06
282.125	716.06
282.356	754.06
282.588	733.06
282.819	782.06
283.051	826.06
283.282	871.06
283.513	838.06
283.745	745.06
283.976	681.06
284.207	705.06
284.439	724.06
284.67	754.06
284.901	756.06
285.132	744.06
285.364	761.06
285.595	760.06
285.826	716.06
286.057	735.06
286.288	733.06
286.52	786.06
286.751	854.06
286.982	852.06
287.213	790.06
287.444	744.06
287.675	722.06
287.906	768.06
288.138	814.06
288.369	777.06
288.6	752.06
288.831	739.06
289.062	746.06
289.293	761.06
289.524	761.06
289.755	775.06
289.986	781.06
290.217	717.06
290.448	753.06
290.679	780.06
290.91	777.06
291.141	807.06
291.371	828.06
291.602	818.06
291.833	785.06
292.064	829.06
292.295	863.06
292.526	810.06
292.757	845.06
292.987	810.06
293.218	778.06
293.449	858.06
293.68	928.06
293.91	1010.06
294.141	926.06
294.372	892.06
294.603	944.06
294.833	959.06
295.064	887.06
295.295	844.06
295.525	772.06
295.756	758.06
295.987	711.06
296.217	742.06
296.448	750.06
296.679	751.06
296.909	778.06
297.14	783.06
297.37	793.06
297.601	828.06
297.831	869.06
298.062	861.06
298.292	783.06
298.523	772.06
298.753	782.06
298.984	803.06
299.214	791.06
299.445	808.06
299.675	849.06
299.905	828.06
300.136	784.06
300.366	775.06
300.597	766.06
300.827	789.06
301.057	822.06
301.288	852.06
301.518	834.06
301.748	844.06
301.979	896.06
302.209	933.06
302.439	969.06
302.669	990.06
302.9	914.06
303.13	853.06
303.36	830.06
303.59	844.06
303.82	845.06
304.051	848.06
304.281	852.06
304.511	863.06
304.741	937.06
304.971	1033.06
305.201	1052.06
305.431	943.06
305.661	824.06
305.891	733.06
306.121	739.06
306.352	789.06
306.582	832.06
306.812	892.06
307.042	960.06
307.272	945.06
307.502	957.06
307.731	1048.06
307.961	1046.06
308.191	980.06
308.421	860.06
308.651	822.06
308.881	824.06
309.111	820.06
309.341	829.06
309.571	805.06
309.8	818.06
310.03	805.06
310.26	786.06
310.49	814.06
310.72	816.06
310.949	863.06
311.179	882.06
311.409	854.06
311.639	822.06
311.868	824.06
312.098	840.06
312.328	847.06
312.557	812.06
312.787	829.06
313.017	861.06
313.246	850.06
313.476	863.06
313.706	881.06
313.935	882.06
314.165	907.06
314.394	908.06
314.624	958.06
314.853	1018.06
315.083	1046.06
315.312	1009.06
315.542	979.06
315.771	912.06
316.001	888.06
316.23	915.06
316.46	923.06
316.689	882.06
316.919	850.06
317.148	837.06
317.377	878.06
317.607	959.06
317.836	1035.06
318.065	1060.06
318.295	1003.06
318.524	1002.06
318.753	952.06
318.983	932.06
319.212	906.06
319.441	908.06
319.67	921.06
319.9	927.06
320.129	965.06
320.358	993.06
320.587	1028.06
320.816	1000.06
321.046	985.06
321.275	947.06
321.504	973.06
321.733	1042.06
321.962	958.06
322.191	942.06
322.42	893.06
322.649	917.06
322.878	935.06
323.108	895.06
323.337	931.06
323.566	952.06
323.795	936.06
324.024	912.06
324.253	906.06
324.482	903.06
324.71	888.06
324.939	882.06
325.168	886.06
325.397	927.06
325.626	945.06
325.855	936.06
326.084	905.06
326.313	924.06
326.542	917.06
326.77	992.06
326.999	949.06
327.228	903.06
327.457	846.06
327.686	870.06
327.914	883.06
328.143	940.06
328.372	930.06
328.6	910.06
328.829	876.06
329.058	893.06
329.287	903.06
329.515	947.06
329.744	951.06
329.972	1000.06
330.201	1011.06
330.43	982.06
330.658	989.06
330.887	972.06
331.115	987.06
331.344	975.06
331.572	985.06
331.801	953.06
332.03	974.06
332.258	988.06
332.486	990.06
332.715	992.06
332.943	997.06
333.172	976.06
333.4	995.06
333.629	999.06
333.857	1109.06
334.085	1205.06
334.314	1359.06
334.542	1403.06
334.771	1284.06
334.999	1146.06
335.227	1078.06
335.455	1050.06
335.684	1032.06
335.912	1069.06
336.14	1087.06
336.369	1042.06
336.597	1006.06
336.825	964.06
337.053	1004.06
337.281	1084.06
337.51	1152.06
337.738	1130.06
337.966	1068.06
338.194	1020.06
338.422	965.06
338.65	953.06
338.878	942.06
339.106	950.06
339.334	915.06
339.562	901.06
339.79	937.06
340.018	1001.06
340.246	1012.06
340.474	1038.06
340.702	1048.06
340.93	1017.06
341.158	986.06
341.386	966.06
341.614	966.06
341.842	983.06
342.07	992.06
342.298	984.06
342.526	999.06
342.754	940.06
342.981	961.06
343.209	967.06
343.437	961.06
343.665	974.06
343.893	998.06
344.12	1027.06
344.348	1022.06
344.576	983.06
344.804	934.06
345.031	990.06
345.259	977.06
345.487	926.06
345.714	901.06
345.942	900.06
346.17	901.06
346.397	936.06
346.625	917.06
346.853	864.06
347.08	876.06
347.308	882.06
347.535	914.06
347.763	914.06
347.99	901.06
348.218	878.06
348.445	883.06
348.673	890.06
348.9	937.06
349.128	949.06
349.355	970.06
349.583	959.06
349.81	897.06
350.037	833.06
350.265	851.06
350.492	853.06
350.72	887.06
350.947	952.06
351.174	921.06
351.402	900.06
351.629	837.06
351.856	834.06
352.083	846.06
352.311	838.06
352.538	890.06
352.765	950.06
352.992	948.06
353.22	892.06
353.447	888.06
353.674	902.06
353.901	911.06
354.128	892.06
354.355	884.06
354.583	927.06
354.81	961.06
355.037	937.06
355.264	913.06
355.491	930.06
355.718	922.06
355.945	912.06
356.172	881.06
356.399	858.06
356.626	883.06
356.853	962.06
357.08	1014.06
357.307	1102.06
357.534	1034.06
357.761	942.06
357.988	870.06
358.215	849.06
358.441	858.06
358.668	839.06
358.895	906.06
359.122	959.06
359.349	1017.06
359.576	975.06
359.802	920.06
360.029	877.06
360.256	890.06
360.483	896.06
360.709	923.06
360.936	970.06
361.163	984.06
361.39	1080.06
361.616	1150.06
361.843	1113.06
362.07	989.06
362.296	913.06
362.523	907.06
362.749	904.06
362.976	958.06
363.203	904.06
363.429	895.06
363.656	862.06
363.882	908.06
364.109	1038.06
364.335	1091.06
364.562	996.06
364.788	962.06
365.015	902.06
365.241	883.06
365.468	914.06
365.694	956.06
365.92	967.06
366.147	947.06
366.373	894.06
366.599	905.06
366.826	859.06
367.052	886.06
367.278	926.06
367.505	926.06
367.731	925.06
367.957	898.06
368.184	1002.06
368.41	1006.06
368.636	1007.06
368.862	1039.06
369.089	1034.06
369.315	999.06
369.541	937.06
369.767	927.06
369.993	900.06
370.219	888.06
370.445	954.06
370.672	1021.06
370.898	1046.06
371.124	1014.06
371.35	983.06
371.576	1012.06
371.802	1006.06
372.028	992.06
372.254	949.06
372.48	928.06
372.706	926.06
372.932	947.06
373.158	931.06
373.384	958.06
373.61	988.06
373.835	1036.06
374.061	981.06
374.287	960.06
374.513	958.06
374.739	998.06
374.965	957.06
375.191	991.06
375.416	1031.06
375.642	1020.06
375.868	1073.06
376.094	1060.06
376.319	1046.06
376.545	992.06
376.771	1008.06
376.997	1048.06
377.222	1062.06
377.448	982.06
377.674	1011.06
377.899	1015.06
378.125	1105.06
378.35	1080.06
378.576	969.06
378.802	950.06
379.027	935.06
379.253	933.06
379.478	964.06
379.704	952.06
379.929	958.06
380.155	969.06
380.38	993.06
380.606	979.06
380.831	987.06
381.057	1057.06
381.282	1043.06
381.507	1052.06
381.733	1084.06
381.958	1123.06
382.184	1025.06
382.409	996.06
382.634	998.06
382.86	1018.06
383.085	1028.06
383.31	1038.06
383.535	1168.06
383.761	1183.06
383.986	1130.06
384.211	1092.06
384.436	1101.06
384.662	1148.06
384.887	1154.06
385.112	1100.06
385.337	1106.06
385.562	1119.06
385.787	1096.06
386.013	1162.06
386.238	1179.06
386.463	1138.06
386.688	1216.06
386.913	1253.06
387.138	1214.06
387.363	1138.06
387.588	1144.06
387.813	1133.06
388.038	1140.06
388.263	1179.06
388.488	1134.06
388.713	1052.06
388.938	1047.06
389.163	1082.06
389.387	1081.06
389.612	1082.06
389.837	1128.06
390.062	1129.06
390.287	1116.06
390.512	1086.06
390.736	1087.06
390.961	1054.06
391.186	1052.06
391.411	1073.06
391.636	1115.06
391.86	1106.06
392.085	1103.06
392.31	1105.06
392.534	1105.06
392.759	1117.06
392.984	1100.06
393.208	1158.06
393.433	1133.06
393.658	1208.06
393.882	1184.06
394.107	1130.06
394.331	1102.06
394.556	1124.06
394.78	1127.06
395.005	1183.06
395.229	1202.06
395.454	1282.06
395.678	1266.06
395.903	1220.06
396.127	1226.06
396.352	1213.06
396.576	1245.06
396.801	1232.06
397.025	1264.06
397.249	1209.06
397.474	1176.06
397.698	1186.06
397.922	1270.06
398.147	1291.06
398.371	1346.06
398.595	1370.06
398.82	1268.06
399.044	1298.06
399.268	1344.06
399.492	1407.06
399.717	1456.06
399.941	1482.06
400.165	1478.06
400.389	1388.06
400.613	1418.06
400.837	1607.06
401.062	1769.06
401.286	1502.06
401.51	1417.06
401.734	1429.06
401.958	1392.06
402.182	1344.06
402.406	1282.06
402.63	1272.06
402.854	1280.06
403.078	1282.06
403.302	1327.06
403.526	1350.06
403.75	1331.06
403.974	1333.06
404.198	1320.06
404.422	1400.06
404.645	1476.06
404.869	1416.06
405.093	1303.06
405.317	1270.06
405.541	1324.06
405.765	1368.06
405.988	1323.06
406.212	1375.06
406.436	1384.06
406.66	1433.06
406.883	1470.06
407.107	1640.06
407.331	1792.06
407.555	1865.06
407.778	1657.06
408.002	1412.06
408.226	1381.06
408.449	1390.06
408.673	1360.06
408.896	1379.06
409.12	1368.06
409.344	1389.06
409.567	1290.06
409.791	1332.06
410.014	1375.06
410.238	1464.06
410.461	1529.06
410.685	1344.06
410.908	1312.06
411.132	1333.06
411.355	1328.06
411.578	1306.06
411.802	1312.06
412.025	1316.06
412.249	1285.06
412.472	1269.06
412.695	1250.06
412.919	1294.06
413.142	1260.06
413.365	1293.06
413.589	1321.06
413.812	1417.06
414.035	1417.06
414.258	1252.06
414.482	1312.06
414.705	1300.06
414.928	1260.06
415.151	1253.06
415.374	1293.06
415.597	1336.06
415.821	1347.06
416.044	1327.06
416.267	1319.06
416.49	1254.06
416.713	1270.06
416.936	1300.06
417.159	1335.06
417.382	1325.06
417.605	1280.06
417.828	1293.06
418.051	1319.06
418.274	1320.06
418.497	1249.06
418.72	1253.06
418.943	1239.06
419.166	1332.06
419.389	1376.06
419.611	1290.06
419.834	1253.06
420.057	1294.06
420.28	1288.06
420.503	1291.06
420.726	1284.06
420.948	1311.06
421.171	1239.06
421.394	1236.06
421.617	1333.06
421.839	1307.06
422.062	1298.06
422.285	1253.06
422.507	1252.06
422.73	1255.06
422.953	1181.06
423.175	1198.06
423.398	1264.06
423.621	1248.06
423.843	1286.06
424.066	1326.06
424.288	1359.06
424.511	1402.06
424.733	1353.06
424.956	1242.06
425.178	1226.06
425.401	1224.06
425.623	1275.06
425.846	1256.06
426.068	1316.06
426.291	1318.06
426.513	1355.06
426.735	1270.06
426.958	1418.06
427.18	1483.06
427.402	1309.06
427.625	1393.06
427.847	1340.06
428.069	1245.06
428.292	1239.06
428.514	1206.06
428.736	1222.06
428.958	1188.06
429.181	1253.06
429.403	1430.06
429.625	1694.06
429.847	1426.06
430.069	1298.06
430.292	1429.06
430.514	1419.06
430.736	1326.06
430.958	1362.06
431.18	1244.06
431.402	1205.06
431.624	1176.06
431.846	1169.06
432.068	1098.06
432.29	1126.06
432.512	1188.06
432.734	1221.06
432.956	1266.06
433.178	1351.06
433.4	1295.06
433.622	1284.06
433.844	1224.06
434.066	1164.06
434.287	1185.06
434.509	1202.06
434.731	1244.06
434.953	1348.06
435.175	1314.06
435.397	1241.06
435.618	1250.06
435.84	1222.06
436.062	1239.06
436.284	1215.06
436.505	1264.06
436.727	1282.06
436.949	1271.06
437.17	1216.06
437.392	1221.06
437.614	1185.06
437.835	1140.06
438.057	1219.06
438.278	1232.06
438.5	1208.06
438.721	1190.06
438.943	1188.06
439.165	1226.06
439.386	1220.06
439.608	1251.06
439.829	1246.06
440.05	1199.06
440.272	1227.06
440.493	1226.06
440.715	1253.06
440.936	1334.06
441.158	1395.06
441.379	1365.06
441.6	1345.06
441.822	1336.06
442.043	1316.06
442.264	1290.06
442.486	1223.06
442.707	1238.06
442.928	1244.06
443.149	1277.06
443.371	1334.06
443.592	1369.06
443.813	1337.06
444.034	1326.06
444.255	1330.06
444.476	1365.06
444.698	1390.06
444.919	1344.06
445.14	1482.06
445.361	1435.06
445.582	1428.06
445.803	1367.06
446.024	1346.06
446.245	1377.06
446.466	1340.06
446.687	1332.06
446.908	1330.06
447.129	1282.06
447.35	1317.06
447.571	1290.06
447.792	1227.06
448.013	1189.06
448.234	1238.06
448.455	1291.06
448.675	1285.06
448.896	1223.06
449.117	1191.06
449.338	1198.06
449.559	1248.06
449.779	1300.06
450	1385.06
450.221	1422.06
450.442	1406.06
450.662	1249.06
450.883	1126.06
451.104	1169.06
451.324	1180.06
451.545	1193.06
451.766	1178.06
451.986	1111.06
452.207	1124.06
452.428	1094.06
452.648	1072.06
452.869	1046.06
453.089	1130.06
453.31	1146.06
453.53	1151.06
453.751	1101.06
453.971	1036.06
454.192	1055.06
454.412	1138.06
454.633	1115.06
454.853	1081.06
455.073	1029.06
455.294	1036.06
455.514	1060.06
455.734	1079.06
455.955	1088.06
456.175	1069.06
456.395	1058.06
456.616	1069.06
456.836	1099.06
457.056	1084.06
457.276	1053.06
457.497	1020.06
457.717	1008.06
457.937	1019.06
458.157	1015.06
458.377	1027.06
458.598	1029.06
458.818	1021.06
459.038	1097.06
459.258	1110.06
459.478	1116.06
459.698	1082.06
459.918	1108.06
460.138	1193.06
460.358	1252.06
460.578	1238.06
460.798	1286.06
461.018	1342.06
461.238	1254.06
461.458	1246.06
461.678	1232.06
461.898	1218.06
462.118	1178.06
462.338	1231.06
462.558	1228.06
462.777	1240.06
462.997	1272.06
463.217	1334.06
463.437	1298.06
463.657	1273.06
463.876	1221.06
464.096	1254.06
464.316	1260.06
464.536	1304.06
464.755	1262.06
464.975	1317.06
465.195	1260.06
465.414	1302.06
465.634	1286.06
465.854	1273.06
466.073	1359.06
466.293	1327.06
466.512	1202.06
466.732	1155.06
466.951	1204.06
467.171	1204.06
467.391	1172.06
467.61	1155.06
467.829	1231.06
468.049	1313.06
468.268	1430.06
468.488	1284.06
468.707	1220.06
468.927	1179.06
469.146	1192.06
469.365	1199.06
469.585	1214.06
469.804	1196.06
470.023	1229.06
470.243	1250.06
470.462	1209.06
470.681	1160.06
470.901	1202.06
471.12	1194.06
471.339	1210.06
471.558	1169.06
471.777	1159.06
471.997	1159.06
472.216	1162.06
472.435	1118.06
472.654	1092.06
472.873	1148.06
473.092	1192.06
473.311	1148.06
473.53	1124.06
473.749	1142.06
473.968	1156.06
474.187	1199.06
474.406	1216.06
474.625	1192.06
474.844	1196.06
475.063	1209.06
475.282	1175.06
475.501	1186.06
475.72	1182.06
475.939	1270.06
476.158	1225.06
476.377	1226.06
476.596	1200.06
476.814	1185.06
477.033	1202.06
477.252	1233.06
477.471	1291.06
477.69	1234.06
477.908	1259.06
478.127	1338.06
478.346	1433.06
478.564	1396.06
478.783	1370.06
479.002	1392.06
479.22	1393.06
479.439	1471.06
479.658	1521.06
479.876	1490.06
480.095	1380.06
480.313	1308.06
480.532	1280.06
480.751	1300.06
480.969	1292.06
481.188	1247.06
481.406	1214.06
481.624	1196.06
481.843	1233.06
482.061	1262.06
482.28	1274.06
482.498	1300.06
482.717	1324.06
482.935	1288.06
483.153	1309.06
483.372	1339.06
483.59	1348.06
483.808	1347.06
484.027	1328.06
484.245	1446.06
484.463	1700.06
484.681	1886.06
484.9	1453.06
485.118	1345.06
485.336	1343.06
485.554	1338.06
485.772	1347.06
485.99	1341.06
486.209	1350.06
486.427	1335.06
486.645	1354.06
486.863	1349.06
487.081	1448.06
487.299	1426.06
487.517	1425.06
487.735	1410.06
487.953	1494.06
488.171	1455.06
488.389	1429.06
488.607	1451.06
488.825	1581.06
489.043	1522.06
489.261	1391.06
489.479	1439.06
489.696	1487.06
489.914	1470.06
490.132	1395.06
490.35	1432.06
490.568	1491.06
490.786	1452.06
491.003	1464.06
491.221	1532.06
491.439	1561.06
491.657	1560.06
491.874	1583.06
492.092	1671.06
492.31	1669.06
492.527	1643.06
492.745	1555.06
492.963	1551.06
493.18	1563.06
493.398	1692.06
493.615	1699.06
493.833	1598.06
494.05	1523.06
494.268	1551.06
494.485	1526.06
494.703	1557.06
494.92	1529.06
495.138	1513.06
495.355	1508.06
495.573	1558.06
495.79	1646.06
496.008	1637.06
496.225	1566.06
496.442	1593.06
496.66	1580.06
496.877	1566.06
497.094	1661.06
497.312	1603.06
497.529	1580.06
497.746	1615.06
497.963	1811.06
498.181	1948.06
498.398	1829.06
498.615	1761.06
498.832	1710.06
499.049	1726.06
499.267	1731.06
499.484	1905.06
499.701	1985.06
499.918	2014.06
500.135	2139.06
500.352	2281.06
500.569	2313.06
500.786	2456.06
501.003	2336.06
501.22	2088.06
501.437	2007.06
501.654	2129.06
501.871	1936.06
502.088	1744.06
502.305	1784.06
502.522	1666.06
502.739	1586.06
502.956	1521.06
503.172	1524.06
503.389	1495.06
503.606	1460.06
503.823	1452.06
504.04	1475.06
504.256	1466.06
504.473	1463.06
504.69	1522.06
504.907	1422.06
505.123	1390.06
505.34	1546.06
505.557	2004.06
505.773	1637.06
505.99	1373.06
506.207	1261.06
506.423	1302.06
506.64	1286.06
506.856	1295.06
507.073	1493.06
507.289	1582.06
507.506	1472.06
507.722	1266.06
507.939	1236.06
508.155	1237.06
508.372	1226.06
508.588	1199.06
508.805	1142.06
509.021	1152.06
509.238	1144.06
509.454	1120.06
509.67	1141.06
509.887	1148.06
510.103	1144.06
510.319	1150.06
510.536	1175.06
510.752	1228.06
510.968	1183.06
511.184	1253.06
511.401	1205.06
511.617	1100.06
511.833	1082.06
512.049	1085.06
512.265	1095.06
512.481	1094.06
512.698	1116.06
512.914	1178.06
513.13	1156.06
513.346	1086.06
513.562	1096.06
513.778	1090.06
513.994	1157.06
514.21	1137.06
514.426	1186.06
514.642	1301.06
514.858	1190.06
515.074	1163.06
515.29	1106.06
515.506	1127.06
515.721	1150.06
515.937	1173.06
516.153	1284.06
516.369	1221.06
516.585	1185.06
516.801	1118.06
517.016	1135.06
517.232	1162.06
517.448	1222.06
517.664	1191.06
517.879	1185.06
518.095	1239.06
518.311	1215.06
518.527	1134.06
518.742	1132.06
518.958	1095.06
519.173	1143.06
519.389	1177.06
519.605	1157.06
519.82	1144.06
520.036	1161.06
520.251	1144.06
520.467	1128.06
520.682	1219.06
520.898	1193.06
521.113	1105.06
521.329	1113.06
521.544	1159.06
521.76	1121.06
521.975	1055.06
522.19	1072.06
522.406	1095.06
522.621	1382.06
522.836	1316.06
523.052	1086.06
523.267	1091.06
523.482	1096.06
523.698	1046.06
523.913	1058.06
524.128	1078.06
524.343	1118.06
524.559	1137.06
524.774	1106.06
524.989	1048.06
525.204	1053.06
525.419	1012.06
525.634	1038.06
525.849	1033.06
526.064	1055.06
526.28	1044.06
526.495	999.06
526.71	962.06
526.925	938.06
527.14	981.06
527.355	942.06
527.57	978.06
527.785	999.06
527.999	991.06
528.214	996.06
528.429	965.06
528.644	991.06
528.859	1064.06
529.074	1080.06
529.289	1098.06
529.503	1118.06
529.718	1053.06
529.933	1027.06
530.148	955.06
530.363	945.06
530.577	952.06
530.792	970.06
531.007	984.06
531.221	964.06
531.436	971.06
531.651	982.06
531.865	1040.06
532.08	1005.06
532.295	944.06
532.509	950.06
532.724	972.06
532.938	968.06
533.153	1020.06
533.367	992.06
533.582	1022.06
533.796	1010.06
534.011	991.06
534.225	947.06
534.44	929.06
534.654	926.06
534.868	945.06
535.083	991.06
535.297	1019.06
535.511	965.06
535.726	992.06
535.94	965.06
536.154	974.06
536.369	951.06
536.583	912.06
536.797	942.06
537.011	942.06
537.225	937.06
537.44	902.06
537.654	986.06
537.868	935.06
538.082	878.06
538.296	878.06
538.51	912.06
538.724	914.06
538.938	932.06
539.153	983.06
539.367	1011.06
539.581	972.06
539.795	975.06
540.009	947.06
540.222	964.06
540.436	942.06
540.65	1027.06
540.864	1067.06
541.078	1045.06
541.292	995.06
541.506	1044.06
541.72	1086.06
541.934	1132.06
542.147	1185.06
542.361	1128.06
542.575	1068.06
542.789	944.06
543.002	926.06
543.216	951.06
543.43	1011.06
543.644	1042.06
543.857	1098.06
544.071	1088.06
544.285	1088.06
544.498	1071.06
544.712	1053.06
544.925	1069.06
545.139	1097.06
545.352	1083.06
545.566	1050.06
545.779	1033.06
545.993	1036.06
546.206	1074.06
546.42	1091.06
546.633	1058.06
546.847	1053.06
547.06	1046.06
547.274	1068.06
547.487	1067.06
547.7	1053.06
547.914	1092.06
548.127	1085.06
548.34	1033.06
548.554	1030.06
548.767	1060.06
548.98	1043.06
549.193	1072.06
549.407	1072.06
549.62	1079.06
549.833	1040.06
550.046	1014.06
550.259	1039.06
550.473	1016.06
550.686	1002.06
550.899	979.06
551.112	953.06
551.325	972.06
551.538	1033.06
551.751	1120.06
551.964	915.06
552.177	890.06
552.39	941.06
552.603	991.06
552.816	988.06
553.029	1046.06
553.242	1054.06
553.455	1024.06
553.667	1007.06
553.88	1005.06
554.093	980.06
554.306	938.06
554.519	957.06
554.732	950.06
554.944	958.06
555.157	944.06
555.37	942.06
555.583	925.06
555.795	924.06
556.008	874.06
556.221	848.06
556.433	847.06
556.646	880.06
556.859	853.06
557.071	863.06
557.284	849.06
557.496	853.06
557.709	850.06
557.921	854.06
558.134	839.06
558.346	852.06
558.559	845.06
558.771	833.06
558.984	834.06
559.196	796.06
559.409	787.06
559.621	778.06
559.833	783.06
560.046	812.06
560.258	806.06
560.47	782.06
560.683	800.06
560.895	789.06
561.107	777.06
561.32	784.06
561.532	788.06
561.744	821.06
561.956	804.06
562.168	780.06
562.381	778.06
562.593	772.06
562.805	761.06
563.017	761.06
563.229	767.06
563.441	779.06
563.653	764.06
563.865	768.06
564.077	743.06
564.289	750.06
564.501	793.06
564.713	802.06
564.925	810.06
565.137	867.06
565.349	790.06
565.561	785.06
565.773	812.06
565.985	798.06
566.197	861.06
566.408	897.06
566.62	882.06
566.832	903.06
567.044	880.06
567.255	878.06
567.467	883.06
567.679	925.06
567.891	919.06
568.102	910.06
568.314	832.06
568.526	770.06
568.737	777.06
568.949	720.06
569.161	704.06
569.372	691.06
569.584	666.06
569.795	668.06
570.007	659.06
570.218	657.06
570.43	642.06
570.641	640.06
570.853	655.06
571.064	662.06
571.276	663.06
571.487	654.06
571.698	643.06
571.91	621.06
572.121	609.06
572.333	614.06
572.544	597.06
572.755	574.06
572.966	564.06
573.178	566.06
573.389	553.06
573.6	630.06
573.811	649.06
574.023	602.06
574.234	561.06
574.445	558.06
574.656	553.06
574.867	542.06
575.078	552.06
575.289	560.06
575.501	544.06
575.712	544.06
575.923	540.06
576.134	552.06
576.345	531.06
576.556	550.06
576.767	509.06
576.978	514.06
577.188	541.06
577.399	526.06
577.61	512.06
577.821	507.06
578.032	521.06
578.243	503.06
578.454	522.06
578.665	503.06
578.875	474.06
579.086	486.06
579.297	482.06
579.508	508.06
579.718	500.06
579.929	500.06
580.14	485.06
580.35	484.06
580.561	493.06
580.772	545.06
580.982	508.06
581.193	493.06
581.403	478.06
581.614	470.06
581.825	481.06
582.035	464.06
582.246	492.06
582.456	481.06
582.667	493.06
582.877	446.06
583.087	464.06
583.298	444.06
583.508	460.06
583.719	464.06
583.929	471.06
584.139	464.06
584.35	439.06
584.56	459.06
584.77	465.06
584.981	448.06
585.191	451.06
585.401	471.06
585.611	458.06
585.821	453.06
586.032	454.06
586.242	441.06
586.452	434.06
586.662	426.06
586.872	430.06
587.082	440.06
587.292	441.06
587.502	487.06
587.713	463.06
587.923	420.06
588.133	428.06
588.343	444.06
588.553	471.06
588.762	461.06
588.972	445.06
589.182	458.06
589.392	433.06
589.602	442.06
589.812	451.06
590.022	426.06
590.232	424.06
590.441	465.06
590.651	442.06
590.861	437.06
591.071	417.06
591.281	428.06
591.49	431.06
591.7	432.06
591.91	456.06
592.119	408.06
592.329	438.06
592.539	446.06
592.748	451.06
592.958	465.06
593.167	453.06
593.377	455.06
593.587	468.06
593.796	448.06
594.006	441.06
594.215	457.06
594.424	452.06
594.634	432.06
594.843	435.06
595.053	479.06
595.262	463.06
595.472	437.06
595.681	458.06
595.89	430.06
596.1	408.06
596.309	437.06
596.518	412.06
596.727	435.06
596.937	420.06
597.146	407.06
597.355	414.06
597.564	413.06
597.774	409.06
597.983	395.06
598.192	380.06
598.401	380.06
598.61	397.06
598.819	398.06
599.028	380.06
599.237	399.06
599.446	384.06
599.655	393.06
599.864	388.06
600.073	367.06
600.282	393.06
600.491	374.06
600.7	348.06
600.909	376.06
601.118	376.06
601.327	388.06
601.536	416.06
601.745	409.06
601.953	407.06
602.162	400.06
602.371	412.06
602.58	390.06
602.789	410.06
602.997	413.06
603.206	404.06
603.415	408.06
603.623	418.06
603.832	389.06
604.041	394.06
604.249	399.06
604.458	368.06
604.666	376.06
604.875	366.06
605.084	389.06
605.292	394.06
605.501	405.06
605.709	391.06
605.918	392.06
606.126	392.06
606.334	394.06
606.543	405.06
606.751	390.06
606.96	390.06
607.168	396.06
607.376	398.06
607.585	390.06
607.793	402.06
608.001	400.06
608.21	410.06
608.418	377.06
608.626	380.06
608.834	382.06
609.043	381.06
609.251	395.06
609.459	390.06
609.667	393.06
609.875	396.06
610.083	412.06
610.291	387.06
610.499	417.06
610.707	412.06
610.916	384.06
611.124	400.06
611.332	385.06
611.54	376.06
611.748	392.06
611.955	382.06
612.163	376.06
612.371	405.06
612.579	386.06
612.787	391.06
612.995	374.06
613.203	392.06
613.411	402.06
613.618	370.06
613.826	378.06
614.034	383.06
614.242	378.06
614.449	391.06
614.657	384.06
614.865	390.06
615.072	368.06
615.28	377.06
615.488	398.06
615.695	394.06
615.903	391.06
616.111	379.06
616.318	377.06
616.526	379.06
616.733	373.06
616.941	408.06
617.148	360.06
617.356	364.06
617.563	360.06
617.771	388.06
617.978	352.06
618.185	337.06
618.393	362.06
618.6	363.06
618.807	384.06
619.015	371.06
619.222	368.06
619.429	356.06
619.637	346.06
619.844	335.06
620.051	328.06
620.258	356.06
620.466	344.06
620.673	346.06
620.88	360.06
621.087	334.06
621.294	334.06
621.501	317.06
621.708	336.06
621.915	348.06
622.122	353.06
622.329	337.06
622.536	354.06
622.743	354.06
622.95	345.06
623.157	315.06
623.364	343.06
623.571	355.06
623.778	348.06
623.985	349.06
624.192	355.06
624.399	340.06
624.606	318.06
624.812	331.06
625.019	324.06
625.226	325.06
625.433	319.06
625.639	317.06
625.846	301.06
626.053	287.06
626.259	280.06
626.466	284.06
626.673	296.06
626.879	261.06
627.086	284.06
627.293	306.06
627.499	305.06
627.706	304.06
627.912	304.06
628.119	326.06
628.325	322.06
628.532	320.06
628.738	302.06
628.945	311.06
629.151	293.06
629.357	315.06
629.564	314.06
629.77	298.06
629.976	290.06
630.183	302.06
630.389	284.06
630.595	280.06
630.802	314.06
631.008	301.06
631.214	289.06
631.42	283.06
631.627	280.06
631.833	292.06
632.039	282.06
632.245	283.06
632.451	284.06
632.657	293.06
632.863	276.06
633.069	287.06
633.275	279.06
633.481	273.06
633.688	280.06
633.893	261.06
634.099	280.06
634.305	266.06
634.511	278.06
634.717	268.06
634.923	267.06
635.129	255.06
635.335	269.06
635.541	259.06
635.747	254.06
635.952	266.06
636.158	281.06
636.364	273.06
636.57	268.06
636.775	277.06
636.981	266.06
637.187	296.06
637.392	279.06
637.598	264.06
637.804	271.06
638.009	256.06
638.215	281.06
638.421	265.06
638.626	273.06
638.832	276.06
639.037	246.06
639.243	275.06
639.448	279.06
639.654	267.06
639.859	248.06
640.065	245.06
640.27	268.06
640.475	246.06
640.681	257.06
640.886	275.06
641.091	257.06
641.297	254.06
641.502	242.06
641.707	267.06
641.913	254.06
642.118	252.06
642.323	255.06
642.528	252.06
642.733	271.06
642.939	274.06
643.144	252.06
643.349	250.06
643.554	272.06
643.759	236.06
643.964	238.06
644.169	238.06
644.374	259.06
644.579	266.06
644.784	263.06
644.989	245.06
645.194	271.06
645.399	256.06
645.604	236.06
645.809	261.06
646.014	238.06
646.219	255.06
646.423	258.06
646.628	238.06
646.833	227.06
647.038	268.06
647.243	258.06
647.447	241.06
647.652	254.06
647.857	272.06
648.062	258.06
648.266	260.06
648.471	261.06
648.676	266.06
648.88	277.06
649.085	256.06
649.289	242.06
649.494	264.06
649.698	230.06
649.903	261.06
650.107	263.06
650.312	258.06
650.516	246.06
650.721	234.06
650.925	228.06
651.13	220.06
651.334	234.06
651.539	221.06
651.743	226.06
651.947	220.06
652.152	234.06
652.356	222.06
652.56	228.06
652.764	224.06
652.969	206.06
653.173	224.06
653.377	223.06
653.581	198.06
653.785	201.06
653.99	215.06
654.194	217.06
654.398	219.06
654.602	199.06
654.806	213.06
655.01	215.06
655.214	224.06
655.418	223.06
655.622	226.06
655.826	217.06
656.03	212.06
656.234	256.06
656.438	267.06
656.642	255.06
656.846	246.06
657.049	225.06
657.253	217.06
657.457	218.06
657.661	218.06
657.865	194.06
658.068	195.06
658.272	167.06
658.476	158.06
658.68	163.06
658.883	154.06
659.087	148.06
659.291	134.06
659.494	136.06
659.698	148.06
659.901	133.06
660.105	131.06
660.309	139.06
660.512	116.06
660.716	113.06
660.919	135.06
661.123	113.06
661.326	96.06
661.53	113.06
661.733	112.06
661.936	83.06
662.14	98.06
662.343	96.06
662.546	93.06
662.75	85.06
662.953	92.06
663.156	84.06
663.36	96.06
663.563	75.06
663.766	78.06
663.969	89.06
664.173	80.06
664.376	81.06
664.579	80.06
664.782	79.06
664.985	83.06
665.188	78.06
665.391	83.06
665.594	91.06
665.797	84.06
666	81.06
666.203	89.06
666.406	68.06
666.609	73.06
666.812	83.06
667.015	79.06
667.218	64.06
667.421	79.06
667.624	74.06
667.827	73.06
668.03	84.06
668.232	70.06
668.435	77.06
668.638	90.06
668.841	77.06
669.043	82.06
669.246	80.06
669.449	85.06
669.651	76.06
669.854	83.06
670.057	80.06
670.259	78.06
670.462	78.06
670.665	74.06
670.867	71.06
671.07	89.06
671.272	72.06
671.475	88.06
671.677	79.06
671.88	71.06
672.082	76.06
672.284	70.06
672.487	84.06
672.689	71.06
672.892	76.06
