Data from WStandard_LampEnergy10_LIBS07252019.E.O._I.C._HRD10591_15-54-02-928.txt Node
Date: Thu Jul 25 15:54:02 EDT 2019
User: cochatt
Spectrometer: HR+D1059
Trigger mode: 1
Integration Time (sec): 1.000000E-1
Scans to average: 1
Electric dark correction enabled: true
Nonlinearity correction enabled: false
Boxcar width: 0
XAxis mode: Wavelengths
Number of Pixels in Spectrum: 2048
>>>>>Begin Spectral Data<<<<<
223.165	-10.75
223.4	-10.75
223.635	-10.75
223.869	-21.75
224.104	-24.75
224.338	-8.75
224.573	-28.75
224.808	-14.75
225.042	-11.75
225.277	-4.75
225.511	-1.75
225.746	5.25
225.98	17.25
226.215	10.25
226.449	15.25
226.683	24.25
226.918	30.25
227.152	25.25
227.387	30.25
227.621	48.25
227.856	44.25
228.09	49.25
228.324	44.25
228.559	50.25
228.793	90.25
229.027	144.25
229.262	150.25
229.496	140.25
229.73	156.25
229.964	152.25
230.199	194.25
230.433	179.25
230.667	163.25
230.901	202.25
231.136	171.25
231.37	169.25
231.604	165.25
231.838	185.25
232.072	188.25
232.306	184.25
232.541	191.25
232.775	186.25
233.009	210.25
233.243	203.25
233.477	181.25
233.711	215.25
233.945	200.25
234.179	197.25
234.413	210.25
234.647	213.25
234.881	200.25
235.115	192.25
235.349	188.25
235.583	192.25
235.817	208.25
236.051	185.25
236.285	208.25
236.519	208.25
236.753	229.25
236.987	209.25
237.221	224.25
237.455	240.25
237.689	229.25
237.922	200.25
238.156	225.25
238.39	229.25
238.624	218.25
238.858	249.25
239.091	233.25
239.325	282.25
239.559	282.25
239.793	296.25
240.027	317.25
240.26	292.25
240.494	254.25
240.728	226.25
240.961	227.25
241.195	249.25
241.429	256.25
241.662	250.25
241.896	234.25
242.13	238.25
242.363	269.25
242.597	271.25
242.83	283.25
243.064	285.25
243.298	299.25
243.531	286.25
243.765	287.25
243.998	273.25
244.232	240.25
244.465	242.25
244.699	246.25
244.932	266.25
245.166	311.25
245.399	282.25
245.633	291.25
245.866	290.25
246.099	299.25
246.333	294.25
246.566	311.25
246.8	311.25
247.033	344.25
247.266	314.25
247.5	323.25
247.733	327.25
247.966	332.25
248.2	386.25
248.433	353.25
248.666	372.25
248.899	390.25
249.133	432.25
249.366	461.25
249.599	406.25
249.832	353.25
250.066	372.25
250.299	369.25
250.532	337.25
250.765	322.25
250.998	329.25
251.231	337.25
251.465	369.25
251.698	340.25
251.931	346.25
252.164	356.25
252.397	375.25
252.63	334.25
252.863	310.25
253.096	322.25
253.329	342.25
253.562	340.25
253.795	379.25
254.028	378.25
254.261	335.25
254.494	336.25
254.727	339.25
254.96	343.25
255.193	361.25
255.426	401.25
255.659	435.25
255.892	455.25
256.124	402.25
256.357	390.25
256.59	409.25
256.823	393.25
257.056	397.25
257.289	475.25
257.521	516.25
257.754	473.25
257.987	450.25
258.22	475.25
258.452	442.25
258.685	396.25
258.918	397.25
259.151	393.25
259.383	388.25
259.616	335.25
259.849	359.25
260.081	404.25
260.314	436.25
260.547	460.25
260.779	465.25
261.012	436.25
261.244	398.25
261.477	391.25
261.71	403.25
261.942	401.25
262.175	382.25
262.407	411.25
262.64	386.25
262.872	358.25
263.105	358.25
263.337	347.25
263.57	399.25
263.802	370.25
264.035	359.25
264.267	360.25
264.499	345.25
264.732	366.25
264.964	396.25
265.197	409.25
265.429	425.25
265.661	465.25
265.894	509.25
266.126	490.25
266.358	469.25
266.591	473.25
266.823	490.25
267.055	469.25
267.287	442.25
267.52	452.25
267.752	450.25
267.984	441.25
268.216	460.25
268.448	457.25
268.681	439.25
268.913	418.25
269.145	402.25
269.377	394.25
269.609	439.25
269.841	512.25
270.073	606.25
270.306	635.25
270.538	625.25
270.77	547.25
271.002	478.25
271.234	470.25
271.466	499.25
271.698	527.25
271.93	594.25
272.162	589.25
272.394	536.25
272.626	504.25
272.858	451.25
273.09	424.25
273.322	404.25
273.553	386.25
273.785	395.25
274.017	418.25
274.249	434.25
274.481	440.25
274.713	416.25
274.945	410.25
275.176	417.25
275.408	395.25
275.64	395.25
275.872	417.25
276.104	456.25
276.335	493.25
276.567	514.25
276.799	517.25
277.031	470.25
277.262	470.25
277.494	490.25
277.726	515.25
277.957	515.25
278.189	454.25
278.421	426.25
278.652	448.25
278.884	430.25
279.115	431.25
279.347	460.25
279.579	426.25
279.81	454.25
280.042	468.25
280.273	498.25
280.505	508.25
280.736	506.25
280.968	470.25
281.199	426.25
281.431	405.25
281.662	425.25
281.894	418.25
282.125	450.25
282.356	464.25
282.588	462.25
282.819	468.25
283.051	512.25
283.282	494.25
283.513	472.25
283.745	472.25
283.976	425.25
284.207	432.25
284.439	443.25
284.67	459.25
284.901	442.25
285.132	467.25
285.364	457.25
285.595	450.25
285.826	457.25
286.057	451.25
286.288	455.25
286.52	489.25
286.751	509.25
286.982	518.25
287.213	472.25
287.444	446.25
287.675	446.25
287.906	490.25
288.138	484.25
288.369	487.25
288.6	430.25
288.831	430.25
289.062	465.25
289.293	458.25
289.524	456.25
289.755	464.25
289.986	458.25
290.217	440.25
290.448	434.25
290.679	450.25
290.91	455.25
291.141	477.25
291.371	501.25
291.602	498.25
291.833	479.25
292.064	485.25
292.295	502.25
292.526	503.25
292.757	499.25
292.987	485.25
293.218	466.25
293.449	508.25
293.68	568.25
293.91	594.25
294.141	544.25
294.372	530.25
294.603	564.25
294.833	568.25
295.064	540.25
295.295	495.25
295.525	485.25
295.756	454.25
295.987	433.25
296.217	457.25
296.448	467.25
296.679	464.25
296.909	470.25
297.14	459.25
297.37	476.25
297.601	500.25
297.831	520.25
298.062	515.25
298.292	481.25
298.523	461.25
298.753	474.25
298.984	481.25
299.214	504.25
299.445	494.25
299.675	487.25
299.905	499.25
300.136	482.25
300.366	467.25
300.597	469.25
300.827	484.25
301.057	482.25
301.288	500.25
301.518	502.25
301.748	537.25
301.979	545.25
302.209	569.25
302.439	579.25
302.669	581.25
302.9	556.25
303.13	508.25
303.36	482.25
303.59	510.25
303.82	522.25
304.051	508.25
304.281	522.25
304.511	558.25
304.741	587.25
304.971	615.25
305.201	613.25
305.431	560.25
305.661	484.25
305.891	459.25
306.121	481.25
306.352	496.25
306.582	531.25
306.812	542.25
307.042	563.25
307.272	578.25
307.502	592.25
307.731	623.25
307.961	645.25
308.191	580.25
308.421	512.25
308.651	512.25
308.881	495.25
309.111	509.25
309.341	493.25
309.571	484.25
309.8	506.25
310.03	510.25
310.26	497.25
310.49	517.25
310.72	519.25
310.949	523.25
311.179	536.25
311.409	514.25
311.639	507.25
311.868	510.25
312.098	518.25
312.328	500.25
312.557	475.25
312.787	524.25
313.017	521.25
313.246	534.25
313.476	535.25
313.706	507.25
313.935	524.25
314.165	506.25
314.394	565.25
314.624	579.25
314.853	607.25
315.083	626.25
315.312	612.25
315.542	586.25
315.771	550.25
316.001	582.25
316.23	590.25
316.46	578.25
316.689	562.25
316.919	534.25
317.148	502.25
317.377	550.25
317.607	601.25
317.836	640.25
318.065	645.25
318.295	599.25
318.524	606.25
318.753	567.25
318.983	566.25
319.212	549.25
319.441	563.25
319.67	562.25
319.9	560.25
320.129	599.25
320.358	626.25
320.587	611.25
320.816	607.25
321.046	600.25
321.275	575.25
321.504	589.25
321.733	604.25
321.962	610.25
322.191	551.25
322.42	574.25
322.649	544.25
322.878	553.25
323.108	547.25
323.337	579.25
323.566	607.25
323.795	584.25
324.024	576.25
324.253	569.25
324.482	552.25
324.71	562.25
324.939	537.25
325.168	561.25
325.397	553.25
325.626	567.25
325.855	579.25
326.084	581.25
326.313	574.25
326.542	570.25
326.77	586.25
326.999	561.25
327.228	559.25
327.457	531.25
327.686	540.25
327.914	550.25
328.143	566.25
328.372	562.25
328.6	559.25
328.829	562.25
329.058	547.25
329.287	529.25
329.515	574.25
329.744	586.25
329.972	628.25
330.201	624.25
330.43	598.25
330.658	599.25
330.887	591.25
331.115	623.25
331.344	604.25
331.572	594.25
331.801	575.25
332.03	583.25
332.258	594.25
332.486	607.25
332.715	615.25
332.943	575.25
333.172	595.25
333.4	603.25
333.629	628.25
333.857	672.25
334.085	721.25
334.314	806.25
334.542	836.25
334.771	771.25
334.999	679.25
335.227	658.25
335.455	651.25
335.684	638.25
335.912	632.25
336.14	634.25
336.369	624.25
336.597	606.25
336.825	617.25
337.053	664.25
337.281	669.25
337.51	704.25
337.738	688.25
337.966	653.25
338.194	615.25
338.422	597.25
338.65	604.25
338.878	597.25
339.106	580.25
339.334	566.25
339.562	574.25
339.79	596.25
340.018	635.25
340.246	633.25
340.474	622.25
340.702	626.25
340.93	616.25
341.158	630.25
341.386	619.25
341.614	606.25
341.842	597.25
342.07	593.25
342.298	593.25
342.526	600.25
342.754	606.25
342.981	589.25
343.209	596.25
343.437	581.25
343.665	602.25
343.893	603.25
344.12	641.25
344.348	636.25
344.576	608.25
344.804	599.25
345.031	596.25
345.259	589.25
345.487	598.25
345.714	565.25
345.942	546.25
346.17	582.25
346.397	575.25
346.625	569.25
346.853	529.25
347.08	546.25
347.308	536.25
347.535	584.25
347.763	603.25
347.99	578.25
348.218	566.25
348.445	577.25
348.673	563.25
348.9	583.25
349.128	609.25
349.355	614.25
349.583	589.25
349.81	557.25
350.037	538.25
350.265	535.25
350.492	551.25
350.72	591.25
350.947	574.25
351.174	575.25
351.402	532.25
351.629	544.25
351.856	527.25
352.083	535.25
352.311	536.25
352.538	572.25
352.765	572.25
352.992	574.25
353.22	573.25
353.447	552.25
353.674	553.25
353.901	562.25
354.128	560.25
354.355	550.25
354.583	593.25
354.81	595.25
355.037	580.25
355.264	576.25
355.491	579.25
355.718	594.25
355.945	591.25
356.172	556.25
356.399	560.25
356.626	523.25
356.853	586.25
357.08	649.25
357.307	678.25
357.534	636.25
357.761	576.25
357.988	544.25
358.215	532.25
358.441	534.25
358.668	531.25
358.895	544.25
359.122	571.25
359.349	650.25
359.576	632.25
359.802	591.25
360.029	548.25
360.256	539.25
360.483	553.25
360.709	589.25
360.936	599.25
361.163	627.25
361.39	673.25
361.616	725.25
361.843	717.25
362.07	628.25
362.296	571.25
362.523	564.25
362.749	564.25
362.976	584.25
363.203	600.25
363.429	582.25
363.656	564.25
363.882	611.25
364.109	654.25
364.335	658.25
364.562	602.25
364.788	602.25
365.015	574.25
365.241	572.25
365.468	576.25
365.694	601.25
365.92	625.25
366.147	587.25
366.373	562.25
366.599	564.25
366.826	560.25
367.052	550.25
367.278	575.25
367.505	590.25
367.731	609.25
367.957	618.25
368.184	628.25
368.41	653.25
368.636	676.25
368.862	682.25
369.089	640.25
369.315	654.25
369.541	613.25
369.767	590.25
369.993	611.25
370.219	593.25
370.445	602.25
370.672	653.25
370.898	680.25
371.124	664.25
371.35	617.25
371.576	642.25
371.802	687.25
372.028	632.25
372.254	615.25
372.48	578.25
372.706	608.25
372.932	603.25
373.158	612.25
373.384	638.25
373.61	659.25
373.835	651.25
374.061	639.25
374.287	640.25
374.513	627.25
374.739	624.25
374.965	649.25
375.191	660.25
375.416	640.25
375.642	679.25
375.868	706.25
376.094	723.25
376.319	674.25
376.545	644.25
376.771	663.25
376.997	711.25
377.222	678.25
377.448	662.25
377.674	688.25
377.899	693.25
378.125	732.25
378.35	703.25
378.576	617.25
378.802	618.25
379.027	626.25
379.253	632.25
379.478	642.25
379.704	664.25
379.929	632.25
380.155	652.25
380.38	649.25
380.606	655.25
380.831	688.25
381.057	720.25
381.282	718.25
381.507	693.25
381.733	736.25
381.958	739.25
382.184	682.25
382.409	671.25
382.634	686.25
382.86	723.25
383.085	691.25
383.31	702.25
383.535	787.25
383.761	791.25
383.986	744.25
384.211	732.25
384.436	737.25
384.662	766.25
384.887	772.25
385.112	724.25
385.337	727.25
385.562	717.25
385.787	739.25
386.013	754.25
386.238	778.25
386.463	771.25
386.688	818.25
386.913	831.25
387.138	811.25
387.363	780.25
387.588	767.25
387.813	752.25
388.038	777.25
388.263	792.25
388.488	752.25
388.713	697.25
388.938	737.25
389.163	731.25
389.387	750.25
389.612	748.25
389.837	771.25
390.062	760.25
390.287	753.25
390.512	745.25
390.736	759.25
390.961	736.25
391.186	715.25
391.411	728.25
391.636	727.25
391.86	739.25
392.085	741.25
392.31	748.25
392.534	760.25
392.759	756.25
392.984	767.25
393.208	754.25
393.433	798.25
393.658	803.25
393.882	815.25
394.107	785.25
394.331	756.25
394.556	783.25
394.78	777.25
395.005	820.25
395.229	840.25
395.454	889.25
395.678	886.25
395.903	850.25
396.127	821.25
396.352	803.25
396.576	857.25
396.801	864.25
397.025	838.25
397.249	816.25
397.474	835.25
397.698	862.25
397.922	848.25
398.147	909.25
398.371	922.25
398.595	894.25
398.82	870.25
399.044	875.25
399.268	928.25
399.492	961.25
399.717	1010.25
399.941	1000.25
400.165	989.25
400.389	950.25
400.613	968.25
400.837	1125.25
401.062	1189.25
401.286	1024.25
401.51	1001.25
401.734	991.25
401.958	948.25
402.182	906.25
402.406	886.25
402.63	903.25
402.854	878.25
403.078	887.25
403.302	895.25
403.526	956.25
403.75	946.25
403.974	952.25
404.198	944.25
404.422	972.25
404.645	1025.25
404.869	964.25
405.093	904.25
405.317	906.25
405.541	946.25
405.765	939.25
405.988	950.25
406.212	975.25
406.436	972.25
406.66	992.25
406.883	1036.25
407.107	1126.25
407.331	1215.25
407.555	1265.25
407.778	1138.25
408.002	1002.25
408.226	954.25
408.449	968.25
408.673	960.25
408.896	960.25
409.12	962.25
409.344	968.25
409.567	951.25
409.791	950.25
410.014	989.25
410.238	1042.25
410.461	1059.25
410.685	970.25
410.908	933.25
411.132	937.25
411.355	947.25
411.578	945.25
411.802	934.25
412.025	921.25
412.249	933.25
412.472	934.25
412.695	939.25
412.919	906.25
413.142	895.25
413.365	928.25
413.589	946.25
413.812	1007.25
414.035	1018.25
414.258	954.25
414.482	945.25
414.705	915.25
414.928	912.25
415.151	939.25
415.374	947.25
415.597	942.25
415.821	922.25
416.044	946.25
416.267	948.25
416.49	925.25
416.713	901.25
416.936	962.25
417.159	999.25
417.382	963.25
417.605	909.25
417.828	948.25
418.051	966.25
418.274	956.25
418.497	922.25
418.72	913.25
418.943	930.25
419.166	963.25
419.389	983.25
419.611	979.25
419.834	947.25
420.057	960.25
420.28	984.25
420.503	951.25
420.726	966.25
420.948	942.25
421.171	921.25
421.394	936.25
421.617	990.25
421.839	980.25
422.062	968.25
422.285	913.25
422.507	936.25
422.73	923.25
422.953	882.25
423.175	904.25
423.398	931.25
423.621	902.25
423.843	938.25
424.066	987.25
424.288	995.25
424.511	1042.25
424.733	999.25
424.956	906.25
425.178	934.25
425.401	957.25
425.623	947.25
425.846	935.25
426.068	983.25
426.291	958.25
426.513	958.25
426.735	970.25
426.958	1042.25
427.18	1099.25
427.402	1016.25
427.625	1036.25
427.847	984.25
428.069	919.25
428.292	923.25
428.514	919.25
428.736	894.25
428.958	904.25
429.181	953.25
429.403	1072.25
429.625	1215.25
429.847	1068.25
430.069	943.25
430.292	1036.25
430.514	1049.25
430.736	993.25
430.958	987.25
431.18	934.25
431.402	887.25
431.624	833.25
431.846	803.25
432.068	740.25
432.29	749.25
432.512	804.25
432.734	871.25
432.956	938.25
433.178	952.25
433.4	968.25
433.622	939.25
433.844	914.25
434.066	857.25
434.287	822.25
434.509	782.25
434.731	856.25
434.953	921.25
435.175	948.25
435.397	896.25
435.618	919.25
435.84	827.25
436.062	860.25
436.284	899.25
436.505	944.25
436.727	971.25
436.949	909.25
437.17	899.25
437.392	883.25
437.614	845.25
437.835	799.25
438.057	810.25
438.278	850.25
438.5	870.25
438.721	849.25
438.943	910.25
439.165	950.25
439.386	960.25
439.608	960.25
439.829	937.25
440.05	958.25
440.272	991.25
440.493	961.25
440.715	976.25
440.936	1024.25
441.158	1047.25
441.379	1054.25
441.6	1029.25
441.822	1053.25
442.043	1023.25
442.264	969.25
442.486	970.25
442.707	950.25
442.928	953.25
443.149	971.25
443.371	997.25
443.592	1060.25
443.813	1045.25
444.034	1011.25
444.255	1036.25
444.476	1049.25
444.698	1049.25
444.919	1049.25
445.14	1108.25
445.361	1094.25
445.582	1083.25
445.803	1034.25
446.024	1097.25
446.245	1098.25
446.466	1031.25
446.687	1036.25
446.908	1044.25
447.129	1029.25
447.35	1010.25
447.571	1039.25
447.792	959.25
448.013	963.25
448.234	978.25
448.455	998.25
448.675	989.25
448.896	914.25
449.117	927.25
449.338	922.25
449.559	965.25
449.779	975.25
450	1006.25
450.221	1074.25
450.442	1015.25
450.662	948.25
450.883	874.25
451.104	862.25
451.324	884.25
451.545	908.25
451.766	890.25
451.986	860.25
452.207	830.25
452.428	828.25
452.648	814.25
452.869	800.25
453.089	784.25
453.31	774.25
453.53	800.25
453.751	737.25
453.971	707.25
454.192	730.25
454.412	812.25
454.633	786.25
454.853	780.25
455.073	762.25
455.294	760.25
455.514	767.25
455.734	788.25
455.955	763.25
456.175	759.25
456.395	735.25
456.616	741.25
456.836	755.25
457.056	750.25
457.276	736.25
457.497	724.25
457.717	685.25
457.937	733.25
458.157	715.25
458.377	697.25
458.598	696.25
458.818	672.25
459.038	702.25
459.258	714.25
459.478	701.25
459.698	693.25
459.918	738.25
460.138	789.25
460.358	822.25
460.578	837.25
460.798	873.25
461.018	888.25
461.238	854.25
461.458	858.25
461.678	850.25
461.898	834.25
462.118	811.25
462.338	880.25
462.558	842.25
462.777	860.25
462.997	869.25
463.217	912.25
463.437	873.25
463.657	857.25
463.876	880.25
464.096	817.25
464.316	849.25
464.536	855.25
464.755	898.25
464.975	883.25
465.195	846.25
465.414	898.25
465.634	848.25
465.854	889.25
466.073	950.25
466.293	950.25
466.512	866.25
466.732	904.25
466.951	920.25
467.171	888.25
467.391	898.25
467.61	851.25
467.829	932.25
468.049	993.25
468.268	1056.25
468.488	994.25
468.707	946.25
468.927	920.25
469.146	877.25
469.365	892.25
469.585	893.25
469.804	902.25
470.023	926.25
470.243	936.25
470.462	937.25
470.681	928.25
470.901	931.25
471.12	960.25
471.339	964.25
471.558	919.25
471.777	917.25
471.997	904.25
472.216	858.25
472.435	800.25
472.654	739.25
472.873	794.25
473.092	841.25
473.311	841.25
473.53	820.25
473.749	821.25
473.968	862.25
474.187	854.25
474.406	849.25
474.625	845.25
474.844	879.25
475.063	894.25
475.282	874.25
475.501	836.25
475.72	841.25
475.939	924.25
476.158	889.25
476.377	859.25
476.596	852.25
476.814	851.25
477.033	821.25
477.252	855.25
477.471	917.25
477.69	924.25
477.908	953.25
478.127	988.25
478.346	1029.25
478.564	1009.25
478.783	1001.25
479.002	1006.25
479.22	1013.25
479.439	1028.25
479.658	1044.25
479.876	979.25
480.095	898.25
480.313	898.25
480.532	894.25
480.751	873.25
480.969	850.25
481.188	816.25
481.406	770.25
481.624	784.25
481.843	812.25
482.061	831.25
482.28	908.25
482.498	876.25
482.717	843.25
482.935	884.25
483.153	960.25
483.372	1011.25
483.59	1009.25
483.808	976.25
484.027	918.25
484.245	993.25
484.463	1239.25
484.681	1288.25
484.9	1052.25
485.118	996.25
485.336	938.25
485.554	889.25
485.772	886.25
485.99	863.25
486.209	901.25
486.427	918.25
486.645	931.25
486.863	998.25
487.081	1034.25
487.299	1011.25
487.517	1023.25
487.735	1095.25
487.953	1219.25
488.171	1175.25
488.389	1167.25
488.607	1124.25
488.825	1146.25
489.043	1086.25
489.261	1001.25
489.479	1029.25
489.696	1048.25
489.914	1058.25
490.132	1041.25
490.35	1063.25
490.568	1178.25
490.786	1184.25
491.003	1183.25
491.221	1236.25
491.439	1306.25
491.657	1321.25
491.874	1364.25
492.092	1408.25
492.31	1496.25
492.527	1490.25
492.745	1369.25
492.963	1338.25
493.18	1315.25
493.398	1348.25
493.615	1376.25
493.833	1283.25
494.05	1258.25
494.268	1255.25
494.485	1262.25
494.703	1253.25
494.92	1243.25
495.138	1262.25
495.355	1251.25
495.573	1259.25
495.79	1305.25
496.008	1312.25
496.225	1236.25
496.442	1251.25
496.66	1240.25
496.877	1236.25
497.094	1235.25
497.312	1224.25
497.529	1209.25
497.746	1217.25
497.963	1249.25
498.181	1304.25
498.398	1277.25
498.615	1218.25
498.832	1146.25
499.049	1163.25
499.267	1180.25
499.484	1258.25
499.701	1370.25
499.918	1407.25
500.135	1447.25
500.352	1573.25
500.569	1595.25
500.786	1747.25
501.003	1554.25
501.22	1454.25
501.437	1428.25
501.654	1422.25
501.871	1353.25
502.088	1181.25
502.305	1190.25
502.522	1150.25
502.739	1104.25
502.956	1077.25
503.172	1037.25
503.389	1049.25
503.606	1018.25
503.823	1010.25
504.04	1001.25
504.256	1004.25
504.473	1010.25
504.69	1030.25
504.907	993.25
505.123	979.25
505.34	1059.25
505.557	1369.25
505.773	1106.25
505.99	958.25
506.207	904.25
506.423	911.25
506.64	912.25
506.856	916.25
507.073	1040.25
507.289	1119.25
507.506	1036.25
507.722	909.25
507.939	888.25
508.155	852.25
508.372	877.25
508.588	846.25
508.805	794.25
509.021	800.25
509.238	752.25
509.454	787.25
509.67	762.25
509.887	745.25
510.103	721.25
510.319	734.25
510.536	764.25
510.752	768.25
510.968	750.25
511.184	785.25
511.401	781.25
511.617	735.25
511.833	723.25
512.049	702.25
512.265	710.25
512.481	729.25
512.698	750.25
512.914	779.25
513.13	753.25
513.346	713.25
513.562	688.25
513.778	696.25
513.994	744.25
514.21	767.25
514.426	787.25
514.642	803.25
514.858	782.25
515.074	728.25
515.29	708.25
515.506	744.25
515.721	722.25
515.937	743.25
516.153	818.25
516.369	766.25
516.585	721.25
516.801	701.25
517.016	727.25
517.232	748.25
517.448	782.25
517.664	780.25
517.879	780.25
518.095	810.25
518.311	787.25
518.527	782.25
518.742	735.25
518.958	710.25
519.173	736.25
519.389	800.25
519.605	811.25
519.82	803.25
520.036	810.25
520.251	767.25
520.467	795.25
520.682	806.25
520.898	818.25
521.113	704.25
521.329	747.25
521.544	750.25
521.76	744.25
521.975	723.25
522.19	710.25
522.406	739.25
522.621	948.25
522.836	876.25
523.052	747.25
523.267	768.25
523.482	788.25
523.698	727.25
523.913	757.25
524.128	758.25
524.343	805.25
524.559	822.25
524.774	785.25
524.989	771.25
525.204	778.25
525.419	740.25
525.634	749.25
525.849	711.25
526.064	735.25
526.28	702.25
526.495	692.25
526.71	647.25
526.925	646.25
527.14	630.25
527.355	613.25
527.57	644.25
527.785	660.25
527.999	656.25
528.214	675.25
528.429	704.25
528.644	746.25
528.859	811.25
529.074	851.25
529.289	895.25
529.503	856.25
529.718	816.25
529.933	739.25
530.148	674.25
530.363	653.25
530.577	635.25
530.792	636.25
531.007	641.25
531.221	615.25
531.436	635.25
531.651	665.25
531.865	677.25
532.08	636.25
532.295	640.25
532.509	615.25
532.724	614.25
532.938	641.25
533.153	706.25
533.367	698.25
533.582	746.25
533.796	734.25
534.011	724.25
534.225	669.25
534.44	618.25
534.654	658.25
534.868	681.25
535.083	699.25
535.297	711.25
535.511	684.25
535.726	674.25
535.94	662.25
536.154	649.25
536.369	613.25
536.583	608.25
536.797	614.25
537.011	622.25
537.225	615.25
537.44	617.25
537.654	654.25
537.868	629.25
538.082	630.25
538.296	616.25
538.51	649.25
538.724	682.25
538.938	705.25
539.153	738.25
539.367	731.25
539.581	691.25
539.795	681.25
540.009	640.25
540.222	642.25
540.436	666.25
540.65	764.25
540.864	799.25
541.078	822.25
541.292	838.25
541.506	902.25
541.72	942.25
541.934	1014.25
542.147	1116.25
542.361	1020.25
542.575	938.25
542.789	842.25
543.002	764.25
543.216	744.25
543.43	778.25
543.644	826.25
543.857	878.25
544.071	928.25
544.285	914.25
544.498	916.25
544.712	927.25
544.925	927.25
545.139	940.25
545.352	953.25
545.566	931.25
545.779	953.25
545.993	961.25
546.206	985.25
546.42	959.25
546.633	926.25
546.847	940.25
547.06	928.25
547.274	973.25
547.487	985.25
547.7	985.25
547.914	1006.25
548.127	967.25
548.34	954.25
548.554	955.25
548.767	938.25
548.98	912.25
549.193	917.25
549.407	932.25
549.62	959.25
549.833	932.25
550.046	921.25
550.259	900.25
550.473	883.25
550.686	887.25
550.899	863.25
551.112	862.25
551.325	843.25
551.538	873.25
551.751	875.25
551.964	691.25
552.177	730.25
552.39	776.25
552.603	860.25
552.816	867.25
553.029	945.25
553.242	906.25
553.455	904.25
553.667	907.25
553.88	914.25
554.093	859.25
554.306	844.25
554.519	827.25
554.732	819.25
554.944	860.25
555.157	828.25
555.37	812.25
555.583	838.25
555.795	781.25
556.008	741.25
556.221	741.25
556.433	733.25
556.646	775.25
556.859	741.25
557.071	729.25
557.284	773.25
557.496	776.25
557.709	772.25
557.921	759.25
558.134	740.25
558.346	715.25
558.559	735.25
558.771	728.25
558.984	672.25
559.196	669.25
559.409	667.25
559.621	648.25
559.833	644.25
560.046	689.25
560.258	678.25
560.47	690.25
560.683	672.25
560.895	695.25
561.107	681.25
561.32	670.25
561.532	670.25
561.744	678.25
561.956	660.25
562.168	656.25
562.381	663.25
562.593	653.25
562.805	652.25
563.017	635.25
563.229	658.25
563.441	634.25
563.653	647.25
563.865	626.25
564.077	632.25
564.289	618.25
564.501	617.25
564.713	623.25
564.925	648.25
565.137	660.25
565.349	637.25
565.561	633.25
565.773	645.25
565.985	616.25
566.197	666.25
566.408	675.25
566.62	707.25
566.832	677.25
567.044	695.25
567.255	652.25
567.467	646.25
567.679	656.25
567.891	668.25
568.102	597.25
568.314	590.25
568.526	527.25
568.737	542.25
568.949	498.25
569.161	476.25
569.372	447.25
569.584	436.25
569.795	448.25
570.007	438.25
570.218	443.25
570.43	447.25
570.641	470.25
570.853	485.25
571.064	497.25
571.276	479.25
571.487	493.25
571.698	475.25
571.91	473.25
572.121	454.25
572.333	460.25
572.544	436.25
572.755	415.25
572.966	400.25
573.178	374.25
573.389	367.25
573.6	422.25
573.811	438.25
574.023	393.25
574.234	407.25
574.445	392.25
574.656	412.25
574.867	401.25
575.078	408.25
575.289	400.25
575.501	406.25
575.712	382.25
575.923	379.25
576.134	396.25
576.345	403.25
576.556	387.25
576.767	410.25
576.978	385.25
577.188	383.25
577.399	373.25
577.61	375.25
577.821	390.25
578.032	387.25
578.243	376.25
578.454	374.25
578.665	326.25
578.875	343.25
579.086	334.25
579.297	334.25
579.508	360.25
579.718	329.25
579.929	342.25
580.14	350.25
580.35	327.25
580.561	371.25
580.772	388.25
580.982	370.25
581.193	354.25
581.403	348.25
581.614	368.25
581.825	354.25
582.035	345.25
582.246	349.25
582.456	348.25
582.667	347.25
582.877	335.25
583.087	338.25
583.298	349.25
583.508	351.25
583.719	339.25
583.929	314.25
584.139	329.25
584.35	311.25
584.56	310.25
584.77	317.25
584.981	334.25
585.191	340.25
585.401	333.25
585.611	330.25
585.821	317.25
586.032	306.25
586.242	314.25
586.452	315.25
586.662	322.25
586.872	304.25
587.082	314.25
587.292	337.25
587.502	342.25
587.713	327.25
587.923	314.25
588.133	316.25
588.343	309.25
588.553	316.25
588.762	306.25
588.972	305.25
589.182	302.25
589.392	324.25
589.602	308.25
589.812	314.25
590.022	294.25
590.232	305.25
590.441	323.25
590.651	318.25
590.861	313.25
591.071	306.25
591.281	313.25
591.49	296.25
591.7	297.25
591.91	301.25
592.119	304.25
592.329	328.25
592.539	332.25
592.748	329.25
592.958	313.25
593.167	300.25
593.377	325.25
593.587	334.25
593.796	322.25
594.006	327.25
594.215	338.25
594.424	332.25
594.634	339.25
594.843	331.25
595.053	355.25
595.262	335.25
595.472	331.25
595.681	313.25
595.89	299.25
596.1	311.25
596.309	330.25
596.518	331.25
596.727	332.25
596.937	324.25
597.146	316.25
597.355	313.25
597.564	312.25
597.774	299.25
597.983	309.25
598.192	290.25
598.401	276.25
598.61	278.25
598.819	291.25
599.028	313.25
599.237	297.25
599.446	304.25
599.655	286.25
599.864	298.25
600.073	308.25
600.282	284.25
600.491	299.25
600.7	287.25
600.909	286.25
601.118	319.25
601.327	336.25
601.536	335.25
601.745	330.25
601.953	350.25
602.162	338.25
602.371	361.25
602.58	346.25
602.789	356.25
602.997	356.25
603.206	357.25
603.415	336.25
603.623	351.25
603.832	354.25
604.041	329.25
604.249	326.25
604.458	304.25
604.666	286.25
604.875	303.25
605.084	331.25
605.292	329.25
605.501	333.25
605.709	352.25
605.918	370.25
606.126	366.25
606.334	352.25
606.543	364.25
606.751	377.25
606.96	377.25
607.168	356.25
607.376	342.25
607.585	351.25
607.793	372.25
608.001	364.25
608.21	342.25
608.418	370.25
608.626	374.25
608.834	363.25
609.043	366.25
609.251	368.25
609.459	371.25
609.667	362.25
609.875	378.25
610.083	391.25
610.291	376.25
610.499	386.25
610.707	347.25
610.916	370.25
611.124	357.25
611.332	368.25
611.54	367.25
611.748	369.25
611.955	373.25
612.163	378.25
612.371	375.25
612.579	377.25
612.787	368.25
612.995	375.25
613.203	361.25
613.411	343.25
613.618	354.25
613.826	357.25
614.034	350.25
614.242	352.25
614.449	361.25
614.657	364.25
614.865	378.25
615.072	343.25
615.28	358.25
615.488	340.25
615.695	378.25
615.903	361.25
616.111	367.25
616.318	362.25
616.526	357.25
616.733	368.25
616.941	358.25
617.148	369.25
617.356	372.25
617.563	369.25
617.771	353.25
617.978	322.25
618.185	337.25
618.393	326.25
618.6	338.25
618.807	347.25
619.015	340.25
619.222	344.25
619.429	324.25
619.637	324.25
619.844	324.25
620.051	323.25
620.258	332.25
620.466	328.25
620.673	334.25
620.88	314.25
621.087	328.25
621.294	308.25
621.501	297.25
621.708	302.25
621.915	328.25
622.122	338.25
622.329	335.25
622.536	340.25
622.743	316.25
622.95	316.25
623.157	314.25
623.364	334.25
623.571	316.25
623.778	322.25
623.985	314.25
624.192	307.25
624.399	315.25
624.606	327.25
624.812	304.25
625.019	297.25
625.226	291.25
625.433	284.25
625.639	281.25
625.846	271.25
626.053	250.25
626.259	250.25
626.466	238.25
626.673	233.25
626.879	229.25
627.086	245.25
627.293	278.25
627.499	297.25
627.706	288.25
627.912	291.25
628.119	295.25
628.325	295.25
628.532	286.25
628.738	291.25
628.945	297.25
629.151	285.25
629.357	270.25
629.564	283.25
629.77	266.25
629.976	264.25
630.183	270.25
630.389	269.25
630.595	295.25
630.802	291.25
631.008	266.25
631.214	278.25
631.42	260.25
631.627	260.25
631.833	251.25
632.039	261.25
632.245	261.25
632.451	275.25
632.657	261.25
632.863	265.25
633.069	264.25
633.275	255.25
633.481	248.25
633.688	246.25
633.893	248.25
634.099	243.25
634.305	228.25
634.511	259.25
634.717	260.25
634.923	240.25
635.129	225.25
635.335	214.25
635.541	240.25
635.747	250.25
635.952	258.25
636.158	265.25
636.364	264.25
636.57	277.25
636.775	263.25
636.981	264.25
637.187	262.25
637.392	263.25
637.598	278.25
637.804	269.25
638.009	257.25
638.215	262.25
638.421	244.25
638.626	261.25
638.832	262.25
639.037	245.25
639.243	257.25
639.448	264.25
639.654	247.25
639.859	249.25
640.065	256.25
640.27	231.25
640.475	255.25
640.681	246.25
640.886	243.25
641.091	252.25
641.297	266.25
641.502	247.25
641.707	245.25
641.913	228.25
642.118	235.25
642.323	238.25
642.528	238.25
642.733	242.25
642.939	247.25
643.144	261.25
643.349	246.25
643.554	222.25
643.759	260.25
643.964	254.25
644.169	242.25
644.374	251.25
644.579	254.25
644.784	232.25
644.989	234.25
645.194	250.25
645.399	235.25
645.604	234.25
645.809	224.25
646.014	244.25
646.219	258.25
646.423	239.25
646.628	242.25
646.833	254.25
647.038	250.25
647.243	250.25
647.447	223.25
647.652	245.25
647.857	248.25
648.062	254.25
648.266	234.25
648.471	242.25
648.676	234.25
648.88	254.25
649.085	246.25
649.289	233.25
649.494	237.25
649.698	244.25
649.903	243.25
650.107	227.25
650.312	247.25
650.516	246.25
650.721	220.25
650.925	219.25
651.13	223.25
651.334	218.25
651.539	226.25
651.743	224.25
651.947	212.25
652.152	210.25
652.356	208.25
652.56	214.25
652.764	208.25
652.969	198.25
653.173	205.25
653.377	207.25
653.581	214.25
653.785	203.25
653.99	199.25
654.194	189.25
654.398	187.25
654.602	202.25
654.806	210.25
655.01	194.25
655.214	212.25
655.418	199.25
655.622	196.25
655.826	199.25
656.03	211.25
656.234	212.25
656.438	214.25
656.642	232.25
656.846	221.25
657.049	204.25
657.253	192.25
657.457	197.25
657.661	160.25
657.865	152.25
658.068	168.25
658.272	148.25
658.476	141.25
658.68	165.25
658.883	139.25
659.087	155.25
659.291	130.25
659.494	137.25
659.698	125.25
659.901	126.25
660.105	130.25
660.309	141.25
660.512	134.25
660.716	134.25
660.919	132.25
661.123	132.25
661.326	97.25
661.53	99.25
661.733	106.25
661.936	106.25
662.14	97.25
662.343	98.25
662.546	101.25
662.75	96.25
662.953	88.25
663.156	95.25
663.36	85.25
663.563	95.25
663.766	97.25
663.969	86.25
664.173	84.25
664.376	91.25
664.579	84.25
664.782	85.25
664.985	91.25
665.188	77.25
665.391	96.25
665.594	79.25
665.797	77.25
666	85.25
666.203	98.25
666.406	87.25
666.609	69.25
666.812	82.25
667.015	80.25
667.218	71.25
667.421	83.25
667.624	90.25
667.827	85.25
668.03	84.25
668.232	84.25
668.435	91.25
668.638	81.25
668.841	93.25
669.043	84.25
669.246	96.25
669.449	89.25
669.651	72.25
669.854	76.25
670.057	90.25
670.259	70.25
670.462	74.25
670.665	87.25
670.867	91.25
671.07	87.25
671.272	81.25
671.475	84.25
671.677	78.25
671.88	94.25
672.082	74.25
672.284	82.25
672.487	75.25
672.689	85.25
672.892	76.25
