Data from WStandard_LampEnergy8_LIBS07252019.E.O._I.C._HRD10591_15-58-01-929.txt Node
Date: Thu Jul 25 15:58:01 EDT 2019
User: cochatt
Spectrometer: HR+D1059
Trigger mode: 1
Integration Time (sec): 1.000000E-1
Scans to average: 1
Electric dark correction enabled: true
Nonlinearity correction enabled: false
Boxcar width: 0
XAxis mode: Wavelengths
Number of Pixels in Spectrum: 2048
>>>>>Begin Spectral Data<<<<<
223.165	-7.69
223.4	-7.69
223.635	-7.69
223.869	-13.69
224.104	-31.69
224.338	-30.69
224.573	-9.69
224.808	-10.69
225.042	-14.69
225.277	-1.69
225.511	12.31
225.746	6.31
225.98	8.31
226.215	11.31
226.449	18.31
226.683	18.31
226.918	22.31
227.152	23.31
227.387	49.31
227.621	25.31
227.856	49.31
228.09	50.31
228.324	46.31
228.559	51.31
228.793	100.31
229.027	199.31
229.262	209.31
229.496	234.31
229.73	241.31
229.964	258.31
230.199	264.31
230.433	251.31
230.667	287.31
230.901	295.31
231.136	272.31
231.37	271.31
231.604	268.31
231.838	266.31
232.072	252.31
232.306	244.31
232.541	274.31
232.775	312.31
233.009	330.31
233.243	336.31
233.477	308.31
233.711	315.31
233.945	320.31
234.179	298.31
234.413	334.31
234.647	354.31
234.881	322.31
235.115	319.31
235.349	305.31
235.583	316.31
235.817	304.31
236.051	288.31
236.285	304.31
236.519	346.31
236.753	366.31
236.987	367.31
237.221	356.31
237.455	370.31
237.689	370.31
237.922	359.31
238.156	354.31
238.39	373.31
238.624	384.31
238.858	412.31
239.091	406.31
239.325	418.31
239.559	478.31
239.793	503.31
240.027	520.31
240.26	495.31
240.494	390.31
240.728	371.31
240.961	398.31
241.195	405.31
241.429	439.31
241.662	433.31
241.896	397.31
242.13	416.31
242.363	468.31
242.597	477.31
242.83	452.31
243.064	460.31
243.298	506.31
243.531	478.31
243.765	462.31
243.998	480.31
244.232	431.31
244.465	411.31
244.699	421.31
244.932	479.31
245.166	534.31
245.399	496.31
245.633	479.31
245.866	474.31
246.099	491.31
246.333	498.31
246.566	514.31
246.8	556.31
247.033	596.31
247.266	549.31
247.5	568.31
247.733	553.31
247.966	598.31
248.2	642.31
248.433	610.31
248.666	640.31
248.899	705.31
249.133	785.31
249.366	838.31
249.599	719.31
249.832	639.31
250.066	669.31
250.299	659.31
250.532	593.31
250.765	544.31
250.998	604.31
251.231	619.31
251.465	628.31
251.698	572.31
251.931	600.31
252.164	624.31
252.397	623.31
252.63	639.31
252.863	567.31
253.096	556.31
253.329	594.31
253.562	623.31
253.795	616.31
254.028	638.31
254.261	598.31
254.494	597.31
254.727	580.31
254.96	578.31
255.193	643.31
255.426	741.31
255.659	786.31
255.892	838.31
256.124	694.31
256.357	690.31
256.59	710.31
256.823	736.31
257.056	746.31
257.289	867.31
257.521	926.31
257.754	849.31
257.987	809.31
258.22	869.31
258.452	820.31
258.685	719.31
258.918	675.31
259.151	707.31
259.383	668.31
259.616	617.31
259.849	635.31
260.081	706.31
260.314	795.31
260.547	854.31
260.779	864.31
261.012	780.31
261.244	716.31
261.477	712.31
261.71	715.31
261.942	699.31
262.175	695.31
262.407	740.31
262.64	695.31
262.872	641.31
263.105	648.31
263.337	642.31
263.57	660.31
263.802	673.31
264.035	626.31
264.267	624.31
264.499	584.31
264.732	631.31
264.964	652.31
265.197	694.31
265.429	744.31
265.661	811.31
265.894	882.31
266.126	905.31
266.358	811.31
266.591	845.31
266.823	898.31
267.055	818.31
267.287	784.31
267.52	778.31
267.752	794.31
267.984	787.31
268.216	810.31
268.448	843.31
268.681	807.31
268.913	745.31
269.145	734.31
269.377	732.31
269.609	791.31
269.841	886.31
270.073	1038.31
270.306	1163.31
270.538	1168.31
270.77	1019.31
271.002	855.31
271.234	830.31
271.466	864.31
271.698	942.31
271.93	1082.31
272.162	1070.31
272.394	996.31
272.626	909.31
272.858	835.31
273.09	723.31
273.322	699.31
273.553	686.31
273.785	703.31
274.017	743.31
274.249	787.31
274.481	788.31
274.713	717.31
274.945	713.31
275.176	716.31
275.408	711.31
275.64	708.31
275.872	712.31
276.104	756.31
276.335	874.31
276.567	939.31
276.799	954.31
277.031	872.31
277.262	822.31
277.494	885.31
277.726	955.31
277.957	942.31
278.189	863.31
278.421	760.31
278.652	754.31
278.884	740.31
279.115	782.31
279.347	797.31
279.579	766.31
279.81	780.31
280.042	844.31
280.273	912.31
280.505	916.31
280.736	907.31
280.968	871.31
281.199	753.31
281.431	719.31
281.662	716.31
281.894	744.31
282.125	757.31
282.356	780.31
282.588	776.31
282.819	814.31
283.051	870.31
283.282	921.31
283.513	873.31
283.745	776.31
283.976	744.31
284.207	767.31
284.439	761.31
284.67	804.31
284.901	802.31
285.132	803.31
285.364	785.31
285.595	785.31
285.826	765.31
286.057	814.31
286.288	784.31
286.52	822.31
286.751	874.31
286.982	865.31
287.213	828.31
287.444	760.31
287.675	730.31
287.906	844.31
288.138	882.31
288.369	853.31
288.6	793.31
288.831	758.31
289.062	756.31
289.293	790.31
289.524	789.31
289.755	818.31
289.986	788.31
290.217	759.31
290.448	766.31
290.679	786.31
290.91	816.31
291.141	841.31
291.371	873.31
291.602	828.31
291.833	828.31
292.064	862.31
292.295	868.31
292.526	876.31
292.757	924.31
292.987	879.31
293.218	839.31
293.449	898.31
293.68	1000.31
293.91	1067.31
294.141	962.31
294.372	906.31
294.603	965.31
294.833	990.31
295.064	944.31
295.295	850.31
295.525	816.31
295.756	780.31
295.987	765.31
296.217	756.31
296.448	788.31
296.679	781.31
296.909	805.31
297.14	775.31
297.37	839.31
297.601	873.31
297.831	933.31
298.062	912.31
298.292	852.31
298.523	790.31
298.753	807.31
298.984	828.31
299.214	796.31
299.445	844.31
299.675	865.31
299.905	837.31
300.136	853.31
300.366	812.31
300.597	786.31
300.827	774.31
301.057	818.31
301.288	871.31
301.518	896.31
301.748	874.31
301.979	932.31
302.209	986.31
302.439	1015.31
302.669	1033.31
302.9	956.31
303.13	881.31
303.36	898.31
303.59	895.31
303.82	893.31
304.051	891.31
304.281	884.31
304.511	880.31
304.741	939.31
304.971	1043.31
305.201	1107.31
305.431	978.31
305.661	843.31
305.891	779.31
306.121	777.31
306.352	844.31
306.582	856.31
306.812	924.31
307.042	972.31
307.272	1014.31
307.502	1042.31
307.731	1085.31
307.961	1112.31
308.191	1037.31
308.421	884.31
308.651	872.31
308.881	835.31
309.111	886.31
309.341	847.31
309.571	854.31
309.8	841.31
310.03	842.31
310.26	816.31
310.49	866.31
310.72	859.31
310.949	923.31
311.179	936.31
311.409	872.31
311.639	860.31
311.868	848.31
312.098	844.31
312.328	855.31
312.557	854.31
312.787	893.31
313.017	882.31
313.246	871.31
313.476	882.31
313.706	891.31
313.935	930.31
314.165	899.31
314.394	948.31
314.624	1015.31
314.853	1057.31
315.083	1082.31
315.312	1090.31
315.542	1002.31
315.771	930.31
316.001	934.31
316.23	977.31
316.46	983.31
316.689	932.31
316.919	930.31
317.148	888.31
317.377	900.31
317.607	991.31
317.836	1127.31
318.065	1136.31
318.295	1066.31
318.524	1001.31
318.753	994.31
318.983	988.31
319.212	925.31
319.441	932.31
319.67	922.31
319.9	931.31
320.129	1024.31
320.358	1069.31
320.587	1083.31
320.816	1043.31
321.046	1013.31
321.275	1010.31
321.504	1000.31
321.733	1070.31
321.962	1036.31
322.191	944.31
322.42	958.31
322.649	967.31
322.878	937.31
323.108	945.31
323.337	958.31
323.566	986.31
323.795	974.31
324.024	954.31
324.253	957.31
324.482	974.31
324.71	921.31
324.939	880.31
325.168	906.31
325.397	944.31
325.626	962.31
325.855	935.31
326.084	951.31
326.313	968.31
326.542	958.31
326.77	975.31
326.999	976.31
327.228	934.31
327.457	886.31
327.686	905.31
327.914	918.31
328.143	965.31
328.372	963.31
328.6	928.31
328.829	945.31
329.058	916.31
329.287	932.31
329.515	951.31
329.744	1014.31
329.972	1020.31
330.201	1052.31
330.43	1031.31
330.658	1005.31
330.887	1011.31
331.115	1015.31
331.344	999.31
331.572	975.31
331.801	1016.31
332.03	989.31
332.258	1008.31
332.486	1015.31
332.715	1028.31
332.943	1009.31
333.172	985.31
333.4	1026.31
333.629	1067.31
333.857	1113.31
334.085	1241.31
334.314	1413.31
334.542	1477.31
334.771	1333.31
334.999	1168.31
335.227	1136.31
335.455	1042.31
335.684	1059.31
335.912	1132.31
336.14	1132.31
336.369	1091.31
336.597	1052.31
336.825	1011.31
337.053	1065.31
337.281	1103.31
337.51	1183.31
337.738	1226.31
337.966	1119.31
338.194	1054.31
338.422	989.31
338.65	969.31
338.878	1010.31
339.106	947.31
339.334	966.31
339.562	955.31
339.79	996.31
340.018	1025.31
340.246	1048.31
340.474	1080.31
340.702	1047.31
340.93	1049.31
341.158	1009.31
341.386	1044.31
341.614	991.31
341.842	986.31
342.07	1017.31
342.298	1031.31
342.526	1022.31
342.754	996.31
342.981	997.31
343.209	998.31
343.437	988.31
343.665	1044.31
343.893	1033.31
344.12	1056.31
344.348	1046.31
344.576	1016.31
344.804	1013.31
345.031	1025.31
345.259	1019.31
345.487	959.31
345.714	942.31
345.942	899.31
346.17	941.31
346.397	970.31
346.625	959.31
346.853	902.31
347.08	875.31
347.308	882.31
347.535	925.31
347.763	980.31
347.99	917.31
348.218	924.31
348.445	946.31
348.673	932.31
348.9	962.31
349.128	1009.31
349.355	1033.31
349.583	984.31
349.81	936.31
350.037	874.31
350.265	879.31
350.492	894.31
350.72	934.31
350.947	964.31
351.174	966.31
351.402	931.31
351.629	883.31
351.856	882.31
352.083	883.31
352.311	875.31
352.538	901.31
352.765	966.31
352.992	966.31
353.22	917.31
353.447	916.31
353.674	909.31
353.901	923.31
354.128	916.31
354.355	906.31
354.583	965.31
354.81	981.31
355.037	998.31
355.264	970.31
355.491	937.31
355.718	930.31
355.945	939.31
356.172	914.31
356.399	931.31
356.626	926.31
356.853	976.31
357.08	1020.31
357.307	1172.31
357.534	1118.31
357.761	964.31
357.988	934.31
358.215	887.31
358.441	898.31
358.668	888.31
358.895	908.31
359.122	1009.31
359.349	1062.31
359.576	1014.31
359.802	930.31
360.029	884.31
360.256	897.31
360.483	942.31
360.709	962.31
360.936	1027.31
361.163	1032.31
361.39	1129.31
361.616	1188.31
361.843	1180.31
362.07	1030.31
362.296	945.31
362.523	932.31
362.749	918.31
362.976	969.31
363.203	1008.31
363.429	932.31
363.656	900.31
363.882	977.31
364.109	1055.31
364.335	1111.31
364.562	1035.31
364.788	1010.31
365.015	955.31
365.241	904.31
365.468	935.31
365.694	996.31
365.92	1030.31
366.147	960.31
366.373	912.31
366.599	920.31
366.826	929.31
367.052	938.31
367.278	914.31
367.505	923.31
367.731	967.31
367.957	958.31
368.184	1004.31
368.41	1088.31
368.636	1094.31
368.862	1078.31
369.089	1078.31
369.315	1032.31
369.541	1002.31
369.767	966.31
369.993	947.31
370.219	939.31
370.445	992.31
370.672	1027.31
370.898	1073.31
371.124	1108.31
371.35	1035.31
371.576	1027.31
371.802	1050.31
372.028	1011.31
372.254	978.31
372.48	965.31
372.706	953.31
372.932	951.31
373.158	955.31
373.384	998.31
373.61	1045.31
373.835	1054.31
374.061	1014.31
374.287	1000.31
374.513	974.31
374.739	974.31
374.965	1003.31
375.191	1022.31
375.416	1002.31
375.642	1046.31
375.868	1081.31
376.094	1126.31
376.319	1063.31
376.545	1014.31
376.771	1036.31
376.997	1109.31
377.222	1090.31
377.448	1036.31
377.674	1074.31
377.899	1086.31
378.125	1129.31
378.35	1090.31
378.576	995.31
378.802	985.31
379.027	979.31
379.253	1006.31
379.478	979.31
379.704	990.31
379.929	1009.31
380.155	1022.31
380.38	1028.31
380.606	1025.31
380.831	1037.31
381.057	1100.31
381.282	1065.31
381.507	1056.31
381.733	1130.31
381.958	1169.31
382.184	1058.31
382.409	1060.31
382.634	1067.31
382.86	1072.31
383.085	1060.31
383.31	1079.31
383.535	1170.31
383.761	1226.31
383.986	1161.31
384.211	1143.31
384.436	1158.31
384.662	1222.31
384.887	1208.31
385.112	1147.31
385.337	1162.31
385.562	1145.31
385.787	1130.31
386.013	1170.31
386.238	1204.31
386.463	1146.31
386.688	1290.31
386.913	1317.31
387.138	1266.31
387.363	1202.31
387.588	1155.31
387.813	1184.31
388.038	1195.31
388.263	1228.31
388.488	1169.31
388.713	1085.31
388.938	1118.31
389.163	1081.31
389.387	1158.31
389.612	1137.31
389.837	1153.31
390.062	1134.31
390.287	1120.31
390.512	1127.31
390.736	1132.31
390.961	1095.31
391.186	1063.31
391.411	1096.31
391.636	1113.31
391.86	1108.31
392.085	1148.31
392.31	1129.31
392.534	1128.31
392.759	1162.31
392.984	1155.31
393.208	1184.31
393.433	1190.31
393.658	1261.31
393.882	1271.31
394.107	1195.31
394.331	1138.31
394.556	1164.31
394.78	1202.31
395.005	1207.31
395.229	1258.31
395.454	1326.31
395.678	1289.31
395.903	1263.31
396.127	1210.31
396.352	1241.31
396.576	1274.31
396.801	1302.31
397.025	1247.31
397.249	1252.31
397.474	1250.31
397.698	1238.31
397.922	1287.31
398.147	1286.31
398.371	1380.31
398.595	1345.31
398.82	1303.31
399.044	1380.31
399.268	1374.31
399.492	1455.31
399.717	1515.31
399.941	1511.31
400.165	1451.31
400.389	1465.31
400.613	1496.31
400.837	1647.31
401.062	1868.31
401.286	1545.31
401.51	1466.31
401.734	1500.31
401.958	1426.31
402.182	1336.31
402.406	1294.31
402.63	1283.31
402.854	1328.31
403.078	1348.31
403.302	1346.31
403.526	1351.31
403.75	1381.31
403.974	1378.31
404.198	1397.31
404.422	1451.31
404.645	1514.31
404.869	1444.31
405.093	1336.31
405.317	1314.31
405.541	1390.31
405.765	1393.31
405.988	1352.31
406.212	1372.31
406.436	1398.31
406.66	1476.31
406.883	1502.31
407.107	1720.31
407.331	1824.31
407.555	1922.31
407.778	1739.31
408.002	1476.31
408.226	1430.31
408.449	1452.31
408.673	1387.31
408.896	1390.31
409.12	1404.31
409.344	1382.31
409.567	1338.31
409.791	1374.31
410.014	1451.31
410.238	1488.31
410.461	1564.31
410.685	1421.31
410.908	1345.31
411.132	1386.31
411.355	1361.31
411.578	1317.31
411.802	1364.31
412.025	1366.31
412.249	1326.31
412.472	1300.31
412.695	1333.31
412.919	1351.31
413.142	1284.31
413.365	1349.31
413.589	1357.31
413.812	1427.31
414.035	1475.31
414.258	1322.31
414.482	1287.31
414.705	1356.31
414.928	1324.31
415.151	1292.31
415.374	1316.31
415.597	1351.31
415.821	1350.31
416.044	1370.31
416.267	1353.31
416.49	1236.31
416.713	1261.31
416.936	1350.31
417.159	1407.31
417.382	1377.31
417.605	1320.31
417.828	1336.31
418.051	1355.31
418.274	1359.31
418.497	1292.31
418.72	1292.31
418.943	1298.31
419.166	1360.31
419.389	1387.31
419.611	1316.31
419.834	1305.31
420.057	1319.31
420.28	1292.31
420.503	1308.31
420.726	1310.31
420.948	1322.31
421.171	1256.31
421.394	1314.31
421.617	1338.31
421.839	1349.31
422.062	1338.31
422.285	1269.31
422.507	1293.31
422.73	1252.31
422.953	1240.31
423.175	1242.31
423.398	1304.31
423.621	1290.31
423.843	1314.31
424.066	1288.31
424.288	1393.31
424.511	1428.31
424.733	1375.31
424.956	1282.31
425.178	1234.31
425.401	1249.31
425.623	1257.31
425.846	1291.31
426.068	1356.31
426.291	1402.31
426.513	1347.31
426.735	1390.31
426.958	1472.31
427.18	1518.31
427.402	1401.31
427.625	1453.31
427.847	1426.31
428.069	1308.31
428.292	1269.31
428.514	1282.31
428.736	1275.31
428.958	1279.31
429.181	1273.31
429.403	1463.31
429.625	1782.31
429.847	1482.31
430.069	1291.31
430.292	1487.31
430.514	1457.31
430.736	1364.31
430.958	1370.31
431.18	1312.31
431.402	1241.31
431.624	1230.31
431.846	1244.31
432.068	1171.31
432.29	1148.31
432.512	1214.31
432.734	1233.31
432.956	1304.31
433.178	1347.31
433.4	1341.31
433.622	1323.31
433.844	1246.31
434.066	1248.31
434.287	1231.31
434.509	1230.31
434.731	1255.31
434.953	1364.31
435.175	1349.31
435.397	1285.31
435.618	1280.31
435.84	1279.31
436.062	1228.31
436.284	1300.31
436.505	1331.31
436.727	1328.31
436.949	1295.31
437.17	1243.31
437.392	1223.31
437.614	1227.31
437.835	1174.31
438.057	1259.31
438.278	1295.31
438.5	1234.31
438.721	1246.31
438.943	1233.31
439.165	1259.31
439.386	1254.31
439.608	1242.31
439.829	1271.31
440.05	1271.31
440.272	1294.31
440.493	1269.31
440.715	1281.31
440.936	1368.31
441.158	1453.31
441.379	1432.31
441.6	1382.31
441.822	1358.31
442.043	1350.31
442.264	1333.31
442.486	1275.31
442.707	1288.31
442.928	1238.31
443.149	1304.31
443.371	1351.31
443.592	1371.31
443.813	1379.31
444.034	1399.31
444.255	1390.31
444.476	1427.31
444.698	1442.31
444.919	1411.31
445.14	1520.31
445.361	1465.31
445.582	1485.31
445.803	1410.31
446.024	1416.31
446.245	1438.31
446.466	1385.31
446.687	1345.31
446.908	1338.31
447.129	1346.31
447.35	1309.31
447.571	1286.31
447.792	1223.31
448.013	1248.31
448.234	1280.31
448.455	1337.31
448.675	1302.31
448.896	1231.31
449.117	1195.31
449.338	1246.31
449.559	1282.31
449.779	1378.31
450	1450.31
450.221	1494.31
450.442	1441.31
450.662	1300.31
450.883	1195.31
451.104	1202.31
451.324	1216.31
451.545	1249.31
451.766	1229.31
451.986	1148.31
452.207	1148.31
452.428	1137.31
452.648	1115.31
452.869	1118.31
453.089	1140.31
453.31	1184.31
453.53	1168.31
453.751	1146.31
453.971	1100.31
454.192	1165.31
454.412	1176.31
454.633	1145.31
454.853	1127.31
455.073	1074.31
455.294	1085.31
455.514	1031.31
455.734	1045.31
455.955	1092.31
456.175	1050.31
456.395	1073.31
456.616	1081.31
456.836	1099.31
457.056	1088.31
457.276	1094.31
457.497	1072.31
457.717	1008.31
457.937	1045.31
458.157	1074.31
458.377	1042.31
458.598	1036.31
458.818	1042.31
459.038	1157.31
459.258	1166.31
459.478	1185.31
459.698	1152.31
459.918	1195.31
460.138	1234.31
460.358	1292.31
460.578	1246.31
460.798	1314.31
461.018	1357.31
461.238	1330.31
461.458	1300.31
461.678	1268.31
461.898	1234.31
462.118	1214.31
462.338	1262.31
462.558	1288.31
462.777	1241.31
462.997	1308.31
463.217	1386.31
463.437	1346.31
463.657	1295.31
463.876	1292.31
464.096	1236.31
464.316	1268.31
464.536	1306.31
464.755	1298.31
464.975	1307.31
465.195	1291.31
465.414	1346.31
465.634	1290.31
465.854	1341.31
466.073	1391.31
466.293	1358.31
466.512	1220.31
466.732	1234.31
466.951	1242.31
467.171	1246.31
467.391	1230.31
467.61	1184.31
467.829	1251.31
468.049	1379.31
468.268	1481.31
468.488	1372.31
468.707	1286.31
468.927	1250.31
469.146	1240.31
469.365	1231.31
469.585	1241.31
469.804	1258.31
470.023	1228.31
470.243	1283.31
470.462	1234.31
470.681	1251.31
470.901	1218.31
471.12	1248.31
471.339	1228.31
471.558	1189.31
471.777	1200.31
471.997	1230.31
472.216	1198.31
472.435	1140.31
472.654	1128.31
472.873	1187.31
473.092	1234.31
473.311	1210.31
473.53	1123.31
473.749	1094.31
473.968	1174.31
474.187	1233.31
474.406	1250.31
474.625	1218.31
474.844	1211.31
475.063	1219.31
475.282	1238.31
475.501	1220.31
475.72	1249.31
475.939	1297.31
476.158	1253.31
476.377	1252.31
476.596	1237.31
476.814	1227.31
477.033	1238.31
477.252	1251.31
477.471	1293.31
477.69	1302.31
477.908	1288.31
478.127	1379.31
478.346	1438.31
478.564	1424.31
478.783	1420.31
479.002	1454.31
479.22	1405.31
479.439	1507.31
479.658	1576.31
479.876	1534.31
480.095	1393.31
480.313	1327.31
480.532	1300.31
480.751	1319.31
480.969	1316.31
481.188	1274.31
481.406	1288.31
481.624	1241.31
481.843	1292.31
482.061	1306.31
482.28	1392.31
482.498	1364.31
482.717	1334.31
482.935	1299.31
483.153	1380.31
483.372	1371.31
483.59	1366.31
483.808	1341.31
484.027	1398.31
484.245	1478.31
484.463	1804.31
484.681	1911.31
484.9	1483.31
485.118	1406.31
485.336	1319.31
485.554	1374.31
485.772	1404.31
485.99	1362.31
486.209	1394.31
486.427	1402.31
486.645	1409.31
486.863	1407.31
487.081	1476.31
487.299	1443.31
487.517	1472.31
487.735	1495.31
487.953	1488.31
488.171	1492.31
488.389	1519.31
488.607	1446.31
488.825	1642.31
489.043	1587.31
489.261	1433.31
489.479	1526.31
489.696	1544.31
489.914	1493.31
490.132	1456.31
490.35	1454.31
490.568	1568.31
490.786	1513.31
491.003	1490.31
491.221	1553.31
491.439	1587.31
491.657	1597.31
491.874	1623.31
492.092	1682.31
492.31	1674.31
492.527	1679.31
492.745	1603.31
492.963	1609.31
493.18	1589.31
493.398	1735.31
493.615	1706.31
493.833	1569.31
494.05	1577.31
494.268	1543.31
494.485	1615.31
494.703	1567.31
494.92	1544.31
495.138	1572.31
495.355	1584.31
495.573	1642.31
495.79	1691.31
496.008	1706.31
496.225	1627.31
496.442	1620.31
496.66	1651.31
496.877	1637.31
497.094	1703.31
497.312	1671.31
497.529	1622.31
497.746	1682.31
497.963	1891.31
498.181	1996.31
498.398	1933.31
498.615	1854.31
498.832	1805.31
499.049	1773.31
499.267	1807.31
499.484	1905.31
499.701	2056.31
499.918	2052.31
500.135	2182.31
500.352	2369.31
500.569	2360.31
500.786	2588.31
501.003	2373.31
501.22	2102.31
501.437	2066.31
501.654	2118.31
501.871	2000.31
502.088	1769.31
502.305	1792.31
502.522	1718.31
502.739	1616.31
502.956	1585.31
503.172	1575.31
503.389	1508.31
503.606	1517.31
503.823	1488.31
504.04	1495.31
504.256	1474.31
504.473	1506.31
504.69	1516.31
504.907	1469.31
505.123	1425.31
505.34	1570.31
505.557	2044.31
505.773	1654.31
505.99	1406.31
506.207	1326.31
506.423	1292.31
506.64	1331.31
506.856	1382.31
507.073	1538.31
507.289	1667.31
507.506	1515.31
507.722	1286.31
507.939	1258.31
508.155	1281.31
508.372	1279.31
508.588	1222.31
508.805	1188.31
509.021	1189.31
509.238	1188.31
509.454	1160.31
509.67	1190.31
509.887	1142.31
510.103	1164.31
510.319	1142.31
510.536	1194.31
510.752	1221.31
510.968	1227.31
511.184	1296.31
511.401	1259.31
511.617	1155.31
511.833	1107.31
512.049	1128.31
512.265	1116.31
512.481	1108.31
512.698	1140.31
512.914	1232.31
513.13	1192.31
513.346	1136.31
513.562	1104.31
513.778	1131.31
513.994	1197.31
514.21	1218.31
514.426	1242.31
514.642	1307.31
514.858	1225.31
515.074	1154.31
515.29	1136.31
515.506	1183.31
515.721	1200.31
515.937	1182.31
516.153	1322.31
516.369	1254.31
516.585	1212.31
516.801	1160.31
517.016	1138.31
517.232	1166.31
517.448	1225.31
517.664	1265.31
517.879	1236.31
518.095	1298.31
518.311	1216.31
518.527	1199.31
518.742	1183.31
518.958	1156.31
519.173	1139.31
519.389	1149.31
519.605	1176.31
519.82	1203.31
520.036	1184.31
520.251	1154.31
520.467	1175.31
520.682	1247.31
520.898	1263.31
521.113	1114.31
521.329	1130.31
521.544	1251.31
521.76	1186.31
521.975	1103.31
522.19	1090.31
522.406	1102.31
522.621	1408.31
522.836	1330.31
523.052	1125.31
523.267	1141.31
523.482	1119.31
523.698	1079.31
523.913	1048.31
524.128	1093.31
524.343	1164.31
524.559	1199.31
524.774	1111.31
524.989	1061.31
525.204	1094.31
525.419	1065.31
525.634	1071.31
525.849	1081.31
526.064	1082.31
526.28	1067.31
526.495	1022.31
526.71	1016.31
526.925	990.31
527.14	1026.31
527.355	977.31
527.57	998.31
527.785	1056.31
527.999	1024.31
528.214	1014.31
528.429	1007.31
528.644	1028.31
528.859	1072.31
529.074	1082.31
529.289	1116.31
529.503	1131.31
529.718	1100.31
529.933	1027.31
530.148	978.31
530.363	985.31
530.577	1009.31
530.792	1023.31
531.007	999.31
531.221	999.31
531.436	1000.31
531.651	1043.31
531.865	1064.31
532.08	1013.31
532.295	990.31
532.509	933.31
532.724	950.31
532.938	1036.31
533.153	1077.31
533.367	1068.31
533.582	1044.31
533.796	1012.31
534.011	1013.31
534.225	1032.31
534.44	975.31
534.654	976.31
534.868	953.31
535.083	1005.31
535.297	1027.31
535.511	1035.31
535.726	1036.31
535.94	999.31
536.154	995.31
536.369	953.31
536.583	982.31
536.797	926.31
537.011	966.31
537.225	944.31
537.44	949.31
537.654	964.31
537.868	948.31
538.082	899.31
538.296	928.31
538.51	934.31
538.724	933.31
538.938	963.31
539.153	1012.31
539.367	995.31
539.581	989.31
539.795	1001.31
540.009	977.31
540.222	959.31
540.436	994.31
540.65	1082.31
540.864	1103.31
541.078	1078.31
541.292	1044.31
541.506	1072.31
541.72	1146.31
541.934	1134.31
542.147	1188.31
542.361	1124.31
542.575	1074.31
542.789	1034.31
543.002	950.31
543.216	974.31
543.43	1051.31
543.644	1098.31
543.857	1120.31
544.071	1142.31
544.285	1117.31
544.498	1117.31
544.712	1087.31
544.925	1112.31
545.139	1119.31
545.352	1089.31
545.566	1091.31
545.779	1061.31
545.993	1108.31
546.206	1095.31
546.42	1068.31
546.633	1053.31
546.847	1070.31
547.06	1083.31
547.274	1098.31
547.487	1096.31
547.7	1103.31
547.914	1106.31
548.127	1123.31
548.34	1092.31
548.554	1075.31
548.767	1049.31
548.98	1065.31
549.193	1076.31
549.407	1109.31
549.62	1115.31
549.833	1079.31
550.046	1048.31
550.259	1062.31
550.473	1028.31
550.686	1011.31
550.899	1011.31
551.112	1012.31
551.325	996.31
551.538	1071.31
551.751	1187.31
551.964	945.31
552.177	916.31
552.39	957.31
552.603	982.31
552.816	1045.31
553.029	1048.31
553.242	1107.31
553.455	1060.31
553.667	1047.31
553.88	1026.31
554.093	1020.31
554.306	992.31
554.519	988.31
554.732	971.31
554.944	951.31
555.157	964.31
555.37	970.31
555.583	971.31
555.795	920.31
556.008	922.31
556.221	872.31
556.433	885.31
556.646	882.31
556.859	876.31
557.071	886.31
557.284	897.31
557.496	875.31
557.709	857.31
557.921	863.31
558.134	865.31
558.346	860.31
558.559	855.31
558.771	836.31
558.984	829.31
559.196	823.31
559.409	832.31
559.621	798.31
559.833	812.31
560.046	839.31
560.258	855.31
560.47	834.31
560.683	827.31
560.895	838.31
561.107	863.31
561.32	845.31
561.532	809.31
561.744	831.31
561.956	830.31
562.168	798.31
562.381	785.31
562.593	771.31
562.805	798.31
563.017	787.31
563.229	788.31
563.441	793.31
563.653	801.31
563.865	794.31
564.077	784.31
564.289	788.31
564.501	796.31
564.713	815.31
564.925	810.31
565.137	876.31
565.349	830.31
565.561	792.31
565.773	809.31
565.985	825.31
566.197	876.31
566.408	903.31
566.62	902.31
566.832	906.31
567.044	901.31
567.255	871.31
567.467	889.31
567.679	934.31
567.891	939.31
568.102	895.31
568.314	818.31
568.526	792.31
568.737	786.31
568.949	736.31
569.161	712.31
569.372	686.31
569.584	694.31
569.795	704.31
570.007	675.31
570.218	644.31
570.43	665.31
570.641	664.31
570.853	663.31
571.064	689.31
571.276	641.31
571.487	637.31
571.698	631.31
571.91	626.31
572.121	636.31
572.333	641.31
572.544	623.31
572.755	576.31
572.966	598.31
573.178	569.31
573.389	569.31
573.6	585.31
573.811	661.31
574.023	596.31
574.234	579.31
574.445	576.31
574.656	561.31
574.867	546.31
575.078	546.31
575.289	588.31
575.501	568.31
575.712	540.31
575.923	560.31
576.134	556.31
576.345	558.31
576.556	568.31
576.767	553.31
576.978	546.31
577.188	544.31
577.399	522.31
577.61	516.31
577.821	539.31
578.032	531.31
578.243	522.31
578.454	511.31
578.665	511.31
578.875	489.31
579.086	499.31
579.297	482.31
579.508	540.31
579.718	537.31
579.929	498.31
580.14	464.31
580.35	482.31
580.561	499.31
580.772	572.31
580.982	523.31
581.193	499.31
581.403	497.31
581.614	487.31
581.825	497.31
582.035	462.31
582.246	500.31
582.456	527.31
582.667	486.31
582.877	484.31
583.087	472.31
583.298	458.31
583.508	473.31
583.719	468.31
583.929	475.31
584.139	458.31
584.35	458.31
584.56	479.31
584.77	471.31
584.981	467.31
585.191	477.31
585.401	466.31
585.611	467.31
585.821	457.31
586.032	460.31
586.242	432.31
586.452	460.31
586.662	470.31
586.872	466.31
587.082	453.31
587.292	456.31
587.502	458.31
587.713	470.31
587.923	457.31
588.133	454.31
588.343	463.31
588.553	432.31
588.762	434.31
588.972	427.31
589.182	438.31
589.392	464.31
589.602	457.31
589.812	430.31
590.022	437.31
590.232	439.31
590.441	452.31
590.651	440.31
590.861	455.31
591.071	441.31
591.281	443.31
591.49	451.31
591.7	448.31
591.91	444.31
592.119	464.31
592.329	444.31
592.539	460.31
592.748	444.31
592.958	475.31
593.167	464.31
593.377	466.31
593.587	478.31
593.796	482.31
594.006	468.31
594.215	456.31
594.424	453.31
594.634	459.31
594.843	458.31
595.053	488.31
595.262	467.31
595.472	452.31
595.681	439.31
595.89	444.31
596.1	428.31
596.309	429.31
596.518	414.31
596.727	443.31
596.937	446.31
597.146	419.31
597.355	427.31
597.564	421.31
597.774	393.31
597.983	406.31
598.192	385.31
598.401	390.31
598.61	399.31
598.819	384.31
599.028	394.31
599.237	403.31
599.446	390.31
599.655	400.31
599.864	382.31
600.073	391.31
600.282	380.31
600.491	392.31
600.7	395.31
600.909	395.31
601.118	395.31
601.327	386.31
601.536	408.31
601.745	407.31
601.953	412.31
602.162	410.31
602.371	453.31
602.58	420.31
602.789	396.31
602.997	424.31
603.206	415.31
603.415	423.31
603.623	398.31
603.832	410.31
604.041	415.31
604.249	387.31
604.458	380.31
604.666	402.31
604.875	370.31
605.084	390.31
605.292	390.31
605.501	404.31
605.709	409.31
605.918	406.31
606.126	405.31
606.334	407.31
606.543	398.31
606.751	414.31
606.96	409.31
607.168	398.31
607.376	394.31
607.585	394.31
607.793	404.31
608.001	407.31
608.21	390.31
608.418	417.31
608.626	413.31
608.834	396.31
609.043	409.31
609.251	396.31
609.459	404.31
609.667	420.31
609.875	403.31
610.083	412.31
610.291	414.31
610.499	403.31
610.707	414.31
610.916	412.31
611.124	383.31
611.332	372.31
611.54	403.31
611.748	406.31
611.955	376.31
612.163	392.31
612.371	379.31
612.579	394.31
612.787	398.31
612.995	393.31
613.203	398.31
613.411	397.31
613.618	393.31
613.826	384.31
614.034	393.31
614.242	400.31
614.449	367.31
614.657	379.31
614.865	387.31
615.072	394.31
615.28	388.31
615.488	396.31
615.695	414.31
615.903	402.31
616.111	383.31
616.318	385.31
616.526	387.31
616.733	385.31
616.941	377.31
617.148	378.31
617.356	390.31
617.563	394.31
617.771	375.31
617.978	359.31
618.185	372.31
618.393	394.31
618.6	364.31
618.807	369.31
619.015	393.31
619.222	361.31
619.429	374.31
619.637	368.31
619.844	352.31
620.051	344.31
620.258	354.31
620.466	352.31
620.673	341.31
620.88	342.31
621.087	344.31
621.294	340.31
621.501	346.31
621.708	349.31
621.915	363.31
622.122	347.31
622.329	356.31
622.536	356.31
622.743	342.31
622.95	324.31
623.157	335.31
623.364	352.31
623.571	353.31
623.778	351.31
623.985	370.31
624.192	356.31
624.399	335.31
624.606	337.31
624.812	338.31
625.019	319.31
625.226	339.31
625.433	312.31
625.639	306.31
625.846	326.31
626.053	296.31
626.259	299.31
626.466	314.31
626.673	286.31
626.879	287.31
627.086	306.31
627.293	327.31
627.499	326.31
627.706	319.31
627.912	320.31
628.119	333.31
628.325	329.31
628.532	332.31
628.738	298.31
628.945	316.31
629.151	308.31
629.357	309.31
629.564	338.31
629.77	310.31
629.976	313.31
630.183	303.31
630.389	282.31
630.595	308.31
630.802	316.31
631.008	303.31
631.214	296.31
631.42	322.31
631.627	293.31
631.833	275.31
632.039	294.31
632.245	302.31
632.451	288.31
632.657	309.31
632.863	305.31
633.069	279.31
633.275	302.31
633.481	282.31
633.688	292.31
633.893	296.31
634.099	273.31
634.305	275.31
634.511	269.31
634.717	279.31
634.923	278.31
635.129	244.31
635.335	256.31
635.541	265.31
635.747	264.31
635.952	280.31
636.158	276.31
636.364	284.31
636.57	291.31
636.775	267.31
636.981	275.31
637.187	279.31
637.392	283.31
637.598	302.31
637.804	291.31
638.009	291.31
638.215	268.31
638.421	280.31
638.626	299.31
638.832	284.31
639.037	278.31
639.243	264.31
639.448	264.31
639.654	257.31
639.859	278.31
640.065	238.31
640.27	281.31
640.475	274.31
640.681	287.31
640.886	271.31
641.091	250.31
641.297	272.31
641.502	275.31
641.707	262.31
641.913	257.31
642.118	252.31
642.323	273.31
642.528	263.31
642.733	266.31
642.939	255.31
643.144	257.31
643.349	259.31
643.554	284.31
643.759	266.31
643.964	261.31
644.169	256.31
644.374	263.31
644.579	270.31
644.784	248.31
644.989	256.31
645.194	258.31
645.399	246.31
645.604	236.31
645.809	249.31
646.014	262.31
646.219	244.31
646.423	254.31
646.628	267.31
646.833	259.31
647.038	248.31
647.243	239.31
647.447	260.31
647.652	242.31
647.857	250.31
648.062	254.31
648.266	269.31
648.471	255.31
648.676	262.31
648.88	257.31
649.085	262.31
649.289	258.31
649.494	257.31
649.698	262.31
649.903	246.31
650.107	256.31
650.312	258.31
650.516	239.31
650.721	247.31
650.925	245.31
651.13	247.31
651.334	259.31
651.539	222.31
651.743	228.31
651.947	236.31
652.152	231.31
652.356	233.31
652.56	234.31
652.764	226.31
652.969	230.31
653.173	228.31
653.377	233.31
653.581	221.31
653.785	242.31
653.99	226.31
654.194	215.31
654.398	216.31
654.602	205.31
654.806	202.31
655.01	230.31
655.214	230.31
655.418	212.31
655.622	222.31
655.826	199.31
656.03	233.31
656.234	228.31
656.438	235.31
656.642	248.31
656.846	232.31
657.049	223.31
657.253	216.31
657.457	213.31
657.661	184.31
657.865	180.31
658.068	182.31
658.272	157.31
658.476	161.31
658.68	153.31
658.883	168.31
659.087	158.31
659.291	137.31
659.494	133.31
659.698	147.31
659.901	160.31
660.105	128.31
660.309	139.31
660.512	124.31
660.716	127.31
660.919	122.31
661.123	121.31
661.326	113.31
661.53	110.31
661.733	106.31
661.936	96.31
662.14	102.31
662.343	94.31
662.546	95.31
662.75	114.31
662.953	98.31
663.156	84.31
663.36	75.31
663.563	91.31
663.766	96.31
663.969	84.31
664.173	92.31
664.376	99.31
664.579	84.31
664.782	85.31
664.985	85.31
665.188	88.31
665.391	80.31
665.594	80.31
665.797	77.31
666	70.31
666.203	78.31
666.406	93.31
666.609	81.31
666.812	87.31
667.015	68.31
667.218	84.31
667.421	75.31
667.624	82.31
667.827	86.31
668.03	80.31
668.232	75.31
668.435	91.31
668.638	83.31
668.841	69.31
669.043	85.31
669.246	86.31
669.449	74.31
669.651	98.31
669.854	83.31
670.057	76.31
670.259	73.31
670.462	84.31
670.665	83.31
670.867	87.31
671.07	100.31
671.272	77.31
671.475	80.31
671.677	81.31
671.88	82.31
672.082	78.31
672.284	68.31
672.487	67.31
672.689	69.31
672.892	74.31
