Data from WStandard_LampEnergy8_LIBS07252019.E.O._I.C._HRD10591_16-00-23-929.txt Node
Date: Thu Jul 25 16:00:23 EDT 2019
User: cochatt
Spectrometer: HR+D1059
Trigger mode: 1
Integration Time (sec): 1.000000E-1
Scans to average: 1
Electric dark correction enabled: true
Nonlinearity correction enabled: false
Boxcar width: 0
XAxis mode: Wavelengths
Number of Pixels in Spectrum: 2048
>>>>>Begin Spectral Data<<<<<
223.165	-11.88
223.4	-11.88
223.635	-11.88
223.869	-28.88
224.104	-17.88
224.338	-4.88
224.573	-6.88
224.808	-10.88
225.042	-8.88
225.277	-9.88
225.511	4.12
225.746	13.12
225.98	13.12
226.215	-2.88
226.449	8.12
226.683	7.12
226.918	29.12
227.152	28.12
227.387	39.12
227.621	36.12
227.856	49.12
228.09	36.12
228.324	49.12
228.559	71.12
228.793	99.12
229.027	226.12
229.262	216.12
229.496	219.12
229.73	216.12
229.964	256.12
230.199	238.12
230.433	262.12
230.667	260.12
230.901	285.12
231.136	268.12
231.37	250.12
231.604	269.12
231.838	269.12
232.072	262.12
232.306	265.12
232.541	269.12
232.775	302.12
233.009	313.12
233.243	298.12
233.477	285.12
233.711	291.12
233.945	295.12
234.179	286.12
234.413	310.12
234.647	338.12
234.881	312.12
235.115	312.12
235.349	284.12
235.583	309.12
235.817	318.12
236.051	284.12
236.285	294.12
236.519	332.12
236.753	347.12
236.987	362.12
237.221	337.12
237.455	378.12
237.689	349.12
237.922	349.12
238.156	338.12
238.39	343.12
238.624	379.12
238.858	377.12
239.091	389.12
239.325	418.12
239.559	476.12
239.793	491.12
240.027	509.12
240.26	483.12
240.494	383.12
240.728	366.12
240.961	384.12
241.195	371.12
241.429	392.12
241.662	378.12
241.896	401.12
242.13	397.12
242.363	425.12
242.597	463.12
242.83	451.12
243.064	455.12
243.298	484.12
243.531	477.12
243.765	447.12
243.998	470.12
244.232	419.12
244.465	398.12
244.699	405.12
244.932	457.12
245.166	490.12
245.399	484.12
245.633	451.12
245.866	438.12
246.099	480.12
246.333	493.12
246.566	466.12
246.8	513.12
247.033	567.12
247.266	508.12
247.5	519.12
247.733	542.12
247.966	551.12
248.2	610.12
248.433	589.12
248.666	595.12
248.899	655.12
249.133	732.12
249.366	793.12
249.599	651.12
249.832	594.12
250.066	610.12
250.299	613.12
250.532	573.12
250.765	519.12
250.998	550.12
251.231	585.12
251.465	581.12
251.698	567.12
251.931	565.12
252.164	577.12
252.397	599.12
252.63	620.12
252.863	545.12
253.096	523.12
253.329	565.12
253.562	569.12
253.795	601.12
254.028	598.12
254.261	583.12
254.494	540.12
254.727	532.12
254.96	585.12
255.193	627.12
255.426	684.12
255.659	785.12
255.892	769.12
256.124	647.12
256.357	629.12
256.59	692.12
256.823	651.12
257.056	670.12
257.289	818.12
257.521	886.12
257.754	805.12
257.987	749.12
258.22	833.12
258.452	782.12
258.685	664.12
258.918	627.12
259.151	630.12
259.383	646.12
259.616	559.12
259.849	640.12
260.081	679.12
260.314	745.12
260.547	795.12
260.779	804.12
261.012	744.12
261.244	673.12
261.477	655.12
261.71	706.12
261.942	665.12
262.175	648.12
262.407	664.12
262.64	645.12
262.872	636.12
263.105	591.12
263.337	620.12
263.57	645.12
263.802	629.12
264.035	578.12
264.267	577.12
264.499	556.12
264.732	589.12
264.964	635.12
265.197	647.12
265.429	719.12
265.661	748.12
265.894	850.12
266.126	857.12
266.358	767.12
266.591	796.12
266.823	815.12
267.055	777.12
267.287	754.12
267.52	734.12
267.752	749.12
267.984	758.12
268.216	789.12
268.448	819.12
268.681	772.12
268.913	727.12
269.145	680.12
269.377	673.12
269.609	748.12
269.841	872.12
270.073	1009.12
270.306	1085.12
270.538	1103.12
270.77	920.12
271.002	838.12
271.234	797.12
271.466	809.12
271.698	916.12
271.93	1036.12
272.162	992.12
272.394	933.12
272.626	871.12
272.858	761.12
273.09	697.12
273.322	702.12
273.553	683.12
273.785	680.12
274.017	712.12
274.249	737.12
274.481	741.12
274.713	686.12
274.945	684.12
275.176	673.12
275.408	674.12
275.64	680.12
275.872	678.12
276.104	738.12
276.335	826.12
276.567	885.12
276.799	907.12
277.031	806.12
277.262	767.12
277.494	836.12
277.726	903.12
277.957	857.12
278.189	781.12
278.421	761.12
278.652	707.12
278.884	722.12
279.115	756.12
279.347	755.12
279.579	705.12
279.81	744.12
280.042	783.12
280.273	870.12
280.505	876.12
280.736	838.12
280.968	811.12
281.199	748.12
281.431	689.12
281.662	717.12
281.894	713.12
282.125	728.12
282.356	758.12
282.588	771.12
282.819	768.12
283.051	812.12
283.282	858.12
283.513	860.12
283.745	738.12
283.976	710.12
284.207	703.12
284.439	713.12
284.67	747.12
284.901	781.12
285.132	769.12
285.364	770.12
285.595	771.12
285.826	766.12
286.057	732.12
286.288	758.12
286.52	775.12
286.751	842.12
286.982	838.12
287.213	767.12
287.444	730.12
287.675	730.12
287.906	773.12
288.138	792.12
288.369	799.12
288.6	734.12
288.831	735.12
289.062	712.12
289.293	753.12
289.524	777.12
289.755	801.12
289.986	786.12
290.217	712.12
290.448	733.12
290.679	781.12
290.91	754.12
291.141	791.12
291.371	786.12
291.602	827.12
291.833	812.12
292.064	817.12
292.295	773.12
292.526	815.12
292.757	865.12
292.987	826.12
293.218	802.12
293.449	850.12
293.68	954.12
293.91	955.12
294.141	929.12
294.372	905.12
294.603	937.12
294.833	945.12
295.064	904.12
295.295	831.12
295.525	817.12
295.756	744.12
295.987	702.12
296.217	749.12
296.448	771.12
296.679	772.12
296.909	763.12
297.14	749.12
297.37	777.12
297.601	834.12
297.831	865.12
298.062	851.12
298.292	776.12
298.523	741.12
298.753	756.12
298.984	786.12
299.214	776.12
299.445	801.12
299.675	858.12
299.905	815.12
300.136	771.12
300.366	758.12
300.597	731.12
300.827	767.12
301.057	808.12
301.288	829.12
301.518	829.12
301.748	878.12
301.979	912.12
302.209	916.12
302.439	991.12
302.669	984.12
302.9	919.12
303.13	843.12
303.36	835.12
303.59	852.12
303.82	846.12
304.051	844.12
304.281	891.12
304.511	867.12
304.741	945.12
304.971	1002.12
305.201	1015.12
305.431	950.12
305.661	796.12
305.891	746.12
306.121	747.12
306.352	803.12
306.582	857.12
306.812	891.12
307.042	947.12
307.272	936.12
307.502	967.12
307.731	1024.12
307.961	1070.12
308.191	1003.12
308.421	847.12
308.651	833.12
308.881	822.12
309.111	854.12
309.341	806.12
309.571	797.12
309.8	831.12
310.03	817.12
310.26	831.12
310.49	822.12
310.72	851.12
310.949	892.12
311.179	876.12
311.409	846.12
311.639	828.12
311.868	846.12
312.098	840.12
312.328	810.12
312.557	823.12
312.787	878.12
313.017	864.12
313.246	862.12
313.476	869.12
313.706	893.12
313.935	866.12
314.165	905.12
314.394	917.12
314.624	975.12
314.853	1018.12
315.083	1036.12
315.312	1022.12
315.542	967.12
315.771	885.12
316.001	914.12
316.23	947.12
316.46	932.12
316.689	928.12
316.919	883.12
317.148	835.12
317.377	860.12
317.607	979.12
317.836	1063.12
318.065	1075.12
318.295	990.12
318.524	973.12
318.753	934.12
318.983	951.12
319.212	900.12
319.441	906.12
319.67	915.12
319.9	951.12
320.129	979.12
320.358	1010.12
320.587	990.12
320.816	978.12
321.046	991.12
321.275	933.12
321.504	988.12
321.733	1023.12
321.962	980.12
322.191	937.12
322.42	922.12
322.649	933.12
322.878	913.12
323.108	925.12
323.337	967.12
323.566	982.12
323.795	945.12
324.024	916.12
324.253	929.12
324.482	918.12
324.71	910.12
324.939	877.12
325.168	893.12
325.397	925.12
325.626	925.12
325.855	954.12
326.084	918.12
326.313	940.12
326.542	921.12
326.77	953.12
326.999	938.12
327.228	889.12
327.457	893.12
327.686	875.12
327.914	915.12
328.143	912.12
328.372	924.12
328.6	925.12
328.829	941.12
329.058	868.12
329.287	902.12
329.515	925.12
329.744	962.12
329.972	1010.12
330.201	1017.12
330.43	1013.12
330.658	961.12
330.887	961.12
331.115	968.12
331.344	986.12
331.572	965.12
331.801	960.12
332.03	962.12
332.258	994.12
332.486	999.12
332.715	1001.12
332.943	1019.12
333.172	998.12
333.4	989.12
333.629	1009.12
333.857	1091.12
334.085	1206.12
334.314	1346.12
334.542	1402.12
334.771	1301.12
334.999	1137.12
335.227	1079.12
335.455	1045.12
335.684	1058.12
335.912	1077.12
336.14	1080.12
336.369	1036.12
336.597	985.12
336.825	1001.12
337.053	1058.12
337.281	1106.12
337.51	1146.12
337.738	1166.12
337.966	1074.12
338.194	994.12
338.422	971.12
338.65	927.12
338.878	951.12
339.106	929.12
339.334	919.12
339.562	901.12
339.79	972.12
340.018	990.12
340.246	1018.12
340.474	1023.12
340.702	1000.12
340.93	1017.12
341.158	993.12
341.386	989.12
341.614	969.12
341.842	957.12
342.07	974.12
342.298	990.12
342.526	969.12
342.754	974.12
342.981	925.12
343.209	976.12
343.437	952.12
343.665	970.12
343.893	1015.12
344.12	1028.12
344.348	1045.12
344.576	1021.12
344.804	960.12
345.031	953.12
345.259	971.12
345.487	960.12
345.714	923.12
345.942	928.12
346.17	948.12
346.397	943.12
346.625	945.12
346.853	895.12
347.08	882.12
347.308	910.12
347.535	902.12
347.763	949.12
347.99	938.12
348.218	879.12
348.445	926.12
348.673	923.12
348.9	940.12
349.128	973.12
349.355	1008.12
349.583	951.12
349.81	915.12
350.037	858.12
350.265	843.12
350.492	852.12
350.72	901.12
350.947	921.12
351.174	964.12
351.402	881.12
351.629	859.12
351.856	859.12
352.083	883.12
352.311	903.12
352.538	909.12
352.765	956.12
352.992	933.12
353.22	889.12
353.447	904.12
353.674	887.12
353.901	919.12
354.128	915.12
354.355	900.12
354.583	917.12
354.81	945.12
355.037	963.12
355.264	933.12
355.491	895.12
355.718	911.12
355.945	914.12
356.172	903.12
356.399	894.12
356.626	887.12
356.853	957.12
357.08	1035.12
357.307	1089.12
357.534	1053.12
357.761	945.12
357.988	864.12
358.215	855.12
358.441	883.12
358.668	881.12
358.895	885.12
359.122	978.12
359.349	1023.12
359.576	997.12
359.802	915.12
360.029	875.12
360.256	873.12
360.483	923.12
360.709	951.12
360.936	929.12
361.163	1007.12
361.39	1103.12
361.616	1139.12
361.843	1100.12
362.07	1029.12
362.296	938.12
362.523	910.12
362.749	908.12
362.976	957.12
363.203	943.12
363.429	895.12
363.656	873.12
363.882	942.12
364.109	1037.12
364.335	1062.12
364.562	1014.12
364.788	948.12
365.015	945.12
365.241	899.12
365.468	907.12
365.694	963.12
365.92	958.12
366.147	950.12
366.373	903.12
366.599	915.12
366.826	897.12
367.052	862.12
367.278	912.12
367.505	921.12
367.731	954.12
367.957	995.12
368.184	1017.12
368.41	1055.12
368.636	1070.12
368.862	1039.12
369.089	1046.12
369.315	1005.12
369.541	951.12
369.767	911.12
369.993	902.12
370.219	917.12
370.445	938.12
370.672	1031.12
370.898	1064.12
371.124	1043.12
371.35	997.12
371.576	1009.12
371.802	1029.12
372.028	1001.12
372.254	961.12
372.48	946.12
372.706	945.12
372.932	955.12
373.158	948.12
373.384	970.12
373.61	1017.12
373.835	1018.12
374.061	984.12
374.287	967.12
374.513	967.12
374.739	972.12
374.965	992.12
375.191	1014.12
375.416	1017.12
375.642	1031.12
375.868	1067.12
376.094	1086.12
376.319	1023.12
376.545	990.12
376.771	1015.12
376.997	1040.12
377.222	1064.12
377.448	1022.12
377.674	1017.12
377.899	1062.12
378.125	1097.12
378.35	1104.12
378.576	978.12
378.802	957.12
379.027	965.12
379.253	975.12
379.478	947.12
379.704	960.12
379.929	933.12
380.155	1005.12
380.38	975.12
380.606	987.12
380.831	985.12
381.057	1073.12
381.282	1071.12
381.507	1031.12
381.733	1105.12
381.958	1120.12
382.184	1011.12
382.409	1009.12
382.634	1063.12
382.86	1042.12
383.085	1031.12
383.31	1077.12
383.535	1178.12
383.761	1207.12
383.986	1159.12
384.211	1105.12
384.436	1141.12
384.662	1154.12
384.887	1170.12
385.112	1112.12
385.337	1134.12
385.562	1098.12
385.787	1091.12
386.013	1134.12
386.238	1157.12
386.463	1177.12
386.688	1243.12
386.913	1304.12
387.138	1243.12
387.363	1147.12
387.588	1177.12
387.813	1144.12
388.038	1180.12
388.263	1225.12
388.488	1153.12
388.713	1079.12
388.938	1075.12
389.163	1067.12
389.387	1102.12
389.612	1128.12
389.837	1123.12
390.062	1136.12
390.287	1139.12
390.512	1126.12
390.736	1098.12
390.961	1068.12
391.186	1056.12
391.411	1093.12
391.636	1121.12
391.86	1116.12
392.085	1138.12
392.31	1099.12
392.534	1124.12
392.759	1125.12
392.984	1137.12
393.208	1133.12
393.433	1159.12
393.658	1223.12
393.882	1195.12
394.107	1138.12
394.331	1153.12
394.556	1115.12
394.78	1112.12
395.005	1194.12
395.229	1250.12
395.454	1316.12
395.678	1289.12
395.903	1237.12
396.127	1177.12
396.352	1198.12
396.576	1216.12
396.801	1210.12
397.025	1221.12
397.249	1233.12
397.474	1138.12
397.698	1215.12
397.922	1266.12
398.147	1273.12
398.371	1313.12
398.595	1338.12
398.82	1304.12
399.044	1341.12
399.268	1348.12
399.492	1421.12
399.717	1457.12
399.941	1469.12
400.165	1477.12
400.389	1413.12
400.613	1460.12
400.837	1657.12
401.062	1813.12
401.286	1531.12
401.51	1461.12
401.734	1417.12
401.958	1403.12
402.182	1332.12
402.406	1305.12
402.63	1277.12
402.854	1265.12
403.078	1276.12
403.302	1271.12
403.526	1359.12
403.75	1337.12
403.974	1393.12
404.198	1341.12
404.422	1385.12
404.645	1480.12
404.869	1395.12
405.093	1350.12
405.317	1306.12
405.541	1353.12
405.765	1341.12
405.988	1309.12
406.212	1348.12
406.436	1409.12
406.66	1449.12
406.883	1443.12
407.107	1658.12
407.331	1808.12
407.555	1860.12
407.778	1673.12
408.002	1402.12
408.226	1397.12
408.449	1405.12
408.673	1350.12
408.896	1363.12
409.12	1377.12
409.344	1340.12
409.567	1325.12
409.791	1329.12
410.014	1363.12
410.238	1505.12
410.461	1512.12
410.685	1325.12
410.908	1322.12
411.132	1382.12
411.355	1354.12
411.578	1315.12
411.802	1316.12
412.025	1353.12
412.249	1317.12
412.472	1287.12
412.695	1268.12
412.919	1275.12
413.142	1281.12
413.365	1283.12
413.589	1355.12
413.812	1396.12
414.035	1405.12
414.258	1337.12
414.482	1286.12
414.705	1296.12
414.928	1283.12
415.151	1281.12
415.374	1307.12
415.597	1327.12
415.821	1298.12
416.044	1349.12
416.267	1344.12
416.49	1253.12
416.713	1274.12
416.936	1307.12
417.159	1382.12
417.382	1325.12
417.605	1269.12
417.828	1306.12
418.051	1289.12
418.274	1333.12
418.497	1281.12
418.72	1285.12
418.943	1223.12
419.166	1314.12
419.389	1336.12
419.611	1306.12
419.834	1310.12
420.057	1307.12
420.28	1265.12
420.503	1275.12
420.726	1303.12
420.948	1260.12
421.171	1263.12
421.394	1276.12
421.617	1320.12
421.839	1331.12
422.062	1315.12
422.285	1270.12
422.507	1256.12
422.73	1227.12
422.953	1212.12
423.175	1195.12
423.398	1233.12
423.621	1245.12
423.843	1266.12
424.066	1311.12
424.288	1366.12
424.511	1401.12
424.733	1345.12
424.956	1243.12
425.178	1241.12
425.401	1242.12
425.623	1255.12
425.846	1283.12
426.068	1320.12
426.291	1333.12
426.513	1320.12
426.735	1292.12
426.958	1446.12
427.18	1463.12
427.402	1355.12
427.625	1385.12
427.847	1338.12
428.069	1267.12
428.292	1226.12
428.514	1206.12
428.736	1235.12
428.958	1218.12
429.181	1273.12
429.403	1462.12
429.625	1749.12
429.847	1437.12
430.069	1286.12
430.292	1434.12
430.514	1420.12
430.736	1350.12
430.958	1387.12
431.18	1264.12
431.402	1237.12
431.624	1163.12
431.846	1179.12
432.068	1129.12
432.29	1114.12
432.512	1172.12
432.734	1250.12
432.956	1274.12
433.178	1333.12
433.4	1279.12
433.622	1280.12
433.844	1213.12
434.066	1189.12
434.287	1153.12
434.509	1180.12
434.731	1252.12
434.953	1329.12
435.175	1330.12
435.397	1281.12
435.618	1251.12
435.84	1223.12
436.062	1197.12
436.284	1270.12
436.505	1305.12
436.727	1291.12
436.949	1273.12
437.17	1239.12
437.392	1212.12
437.614	1164.12
437.835	1178.12
438.057	1206.12
438.278	1250.12
438.5	1203.12
438.721	1211.12
438.943	1236.12
439.165	1205.12
439.386	1203.12
439.608	1216.12
439.829	1205.12
440.05	1232.12
440.272	1254.12
440.493	1245.12
440.715	1255.12
440.936	1342.12
441.158	1383.12
441.379	1354.12
441.6	1365.12
441.822	1331.12
442.043	1310.12
442.264	1310.12
442.486	1257.12
442.707	1259.12
442.928	1227.12
443.149	1285.12
443.371	1348.12
443.592	1363.12
443.813	1342.12
444.034	1359.12
444.255	1364.12
444.476	1384.12
444.698	1390.12
444.919	1376.12
445.14	1487.12
445.361	1439.12
445.582	1468.12
445.803	1390.12
446.024	1335.12
446.245	1409.12
446.466	1374.12
446.687	1315.12
446.908	1339.12
447.129	1308.12
447.35	1291.12
447.571	1281.12
447.792	1225.12
448.013	1213.12
448.234	1304.12
448.455	1268.12
448.675	1272.12
448.896	1218.12
449.117	1151.12
449.338	1192.12
449.559	1257.12
449.779	1306.12
450	1425.12
450.221	1444.12
450.442	1441.12
450.662	1254.12
450.883	1135.12
451.104	1171.12
451.324	1165.12
451.545	1187.12
451.766	1169.12
451.986	1130.12
452.207	1141.12
452.428	1083.12
452.648	1075.12
452.869	1084.12
453.089	1124.12
453.31	1143.12
453.53	1157.12
453.751	1074.12
453.971	1033.12
454.192	1072.12
454.412	1132.12
454.633	1126.12
454.853	1140.12
455.073	1052.12
455.294	1047.12
455.514	1063.12
455.734	1075.12
455.955	1059.12
456.175	1037.12
456.395	1049.12
456.616	1109.12
456.836	1079.12
457.056	1041.12
457.276	1083.12
457.497	1058.12
457.717	1044.12
457.937	1067.12
458.157	1070.12
458.377	974.12
458.598	1016.12
458.818	1017.12
459.038	1100.12
459.258	1142.12
459.478	1149.12
459.698	1089.12
459.918	1145.12
460.138	1178.12
460.358	1231.12
460.578	1234.12
460.798	1272.12
461.018	1303.12
461.238	1266.12
461.458	1240.12
461.678	1239.12
461.898	1203.12
462.118	1187.12
462.338	1231.12
462.558	1254.12
462.777	1232.12
462.997	1274.12
463.217	1341.12
463.437	1291.12
463.657	1259.12
463.876	1246.12
464.096	1241.12
464.316	1220.12
464.536	1281.12
464.755	1277.12
464.975	1283.12
465.195	1226.12
465.414	1274.12
465.634	1308.12
465.854	1294.12
466.073	1370.12
466.293	1355.12
466.512	1168.12
466.732	1186.12
466.951	1220.12
467.171	1218.12
467.391	1207.12
467.61	1213.12
467.829	1203.12
468.049	1303.12
468.268	1435.12
468.488	1337.12
468.707	1221.12
468.927	1197.12
469.146	1173.12
469.365	1172.12
469.585	1192.12
469.804	1187.12
470.023	1242.12
470.243	1220.12
470.462	1206.12
470.681	1232.12
470.901	1199.12
471.12	1225.12
471.339	1206.12
471.558	1193.12
471.777	1186.12
471.997	1233.12
472.216	1152.12
472.435	1098.12
472.654	1110.12
472.873	1165.12
473.092	1189.12
473.311	1169.12
473.53	1159.12
473.749	1119.12
473.968	1148.12
474.187	1198.12
474.406	1254.12
474.625	1203.12
474.844	1210.12
475.063	1189.12
475.282	1193.12
475.501	1179.12
475.72	1191.12
475.939	1287.12
476.158	1225.12
476.377	1230.12
476.596	1162.12
476.814	1218.12
477.033	1193.12
477.252	1267.12
477.471	1271.12
477.69	1235.12
477.908	1291.12
478.127	1302.12
478.346	1373.12
478.564	1405.12
478.783	1374.12
479.002	1407.12
479.22	1392.12
479.439	1436.12
479.658	1548.12
479.876	1489.12
480.095	1353.12
480.313	1318.12
480.532	1276.12
480.751	1263.12
480.969	1323.12
481.188	1265.12
481.406	1230.12
481.624	1219.12
481.843	1251.12
482.061	1308.12
482.28	1311.12
482.498	1316.12
482.717	1304.12
482.935	1308.12
483.153	1370.12
483.372	1333.12
483.59	1315.12
483.808	1354.12
484.027	1384.12
484.245	1422.12
484.463	1734.12
484.681	1878.12
484.9	1465.12
485.118	1364.12
485.336	1321.12
485.554	1365.12
485.772	1361.12
485.99	1360.12
486.209	1377.12
486.427	1343.12
486.645	1389.12
486.863	1403.12
487.081	1423.12
487.299	1447.12
487.517	1455.12
487.735	1460.12
487.953	1500.12
488.171	1458.12
488.389	1447.12
488.607	1432.12
488.825	1564.12
489.043	1587.12
489.261	1409.12
489.479	1459.12
489.696	1464.12
489.914	1443.12
490.132	1420.12
490.35	1481.12
490.568	1523.12
490.786	1503.12
491.003	1450.12
491.221	1523.12
491.439	1541.12
491.657	1531.12
491.874	1559.12
492.092	1685.12
492.31	1701.12
492.527	1666.12
492.745	1591.12
492.963	1559.12
493.18	1597.12
493.398	1663.12
493.615	1652.12
493.833	1575.12
494.05	1542.12
494.268	1534.12
494.485	1558.12
494.703	1547.12
494.92	1548.12
495.138	1549.12
495.355	1563.12
495.573	1599.12
495.79	1634.12
496.008	1641.12
496.225	1547.12
496.442	1579.12
496.66	1563.12
496.877	1579.12
497.094	1617.12
497.312	1624.12
497.529	1605.12
497.746	1635.12
497.963	1801.12
498.181	1953.12
498.398	1866.12
498.615	1802.12
498.832	1770.12
499.049	1745.12
499.267	1745.12
499.484	1901.12
499.701	2010.12
499.918	2026.12
500.135	2184.12
500.352	2274.12
500.569	2296.12
500.786	2469.12
501.003	2315.12
501.22	2117.12
501.437	2049.12
501.654	2048.12
501.871	1993.12
502.088	1741.12
502.305	1744.12
502.522	1662.12
502.739	1583.12
502.956	1525.12
503.172	1539.12
503.389	1483.12
503.606	1458.12
503.823	1476.12
504.04	1482.12
504.256	1491.12
504.473	1486.12
504.69	1521.12
504.907	1453.12
505.123	1382.12
505.34	1567.12
505.557	1999.12
505.773	1635.12
505.99	1370.12
506.207	1323.12
506.423	1316.12
506.64	1281.12
506.856	1329.12
507.073	1494.12
507.289	1550.12
507.506	1487.12
507.722	1298.12
507.939	1239.12
508.155	1230.12
508.372	1226.12
508.588	1172.12
508.805	1170.12
509.021	1153.12
509.238	1148.12
509.454	1153.12
509.67	1122.12
509.887	1149.12
510.103	1134.12
510.319	1118.12
510.536	1203.12
510.752	1217.12
510.968	1201.12
511.184	1286.12
511.401	1191.12
511.617	1121.12
511.833	1102.12
512.049	1083.12
512.265	1098.12
512.481	1082.12
512.698	1147.12
512.914	1199.12
513.13	1176.12
513.346	1133.12
513.562	1094.12
513.778	1138.12
513.994	1169.12
514.21	1222.12
514.426	1207.12
514.642	1262.12
514.858	1209.12
515.074	1112.12
515.29	1089.12
515.506	1132.12
515.721	1163.12
515.937	1201.12
516.153	1292.12
516.369	1225.12
516.585	1153.12
516.801	1134.12
517.016	1134.12
517.232	1180.12
517.448	1193.12
517.664	1189.12
517.879	1209.12
518.095	1265.12
518.311	1197.12
518.527	1165.12
518.742	1152.12
518.958	1138.12
519.173	1147.12
519.389	1173.12
519.605	1167.12
519.82	1178.12
520.036	1186.12
520.251	1123.12
520.467	1195.12
520.682	1205.12
520.898	1233.12
521.113	1137.12
521.329	1142.12
521.544	1158.12
521.76	1149.12
521.975	1084.12
522.19	1079.12
522.406	1094.12
522.621	1337.12
522.836	1323.12
523.052	1126.12
523.267	1112.12
523.482	1081.12
523.698	1058.12
523.913	1049.12
524.128	1095.12
524.343	1145.12
524.559	1175.12
524.774	1091.12
524.989	1049.12
525.204	1077.12
525.419	1046.12
525.634	1057.12
525.849	1048.12
526.064	1048.12
526.28	1061.12
526.495	1018.12
526.71	979.12
526.925	977.12
527.14	961.12
527.355	967.12
527.57	966.12
527.785	995.12
527.999	991.12
528.214	988.12
528.429	1005.12
528.644	1033.12
528.859	1063.12
529.074	1099.12
529.289	1086.12
529.503	1113.12
529.718	1089.12
529.933	1021.12
530.148	963.12
530.363	957.12
530.577	956.12
530.792	978.12
531.007	970.12
531.221	951.12
531.436	980.12
531.651	1011.12
531.865	1029.12
532.08	1006.12
532.295	968.12
532.509	903.12
532.724	965.12
532.938	998.12
533.153	1039.12
533.367	1017.12
533.582	1013.12
533.796	1020.12
534.011	1035.12
534.225	1002.12
534.44	969.12
534.654	959.12
534.868	972.12
535.083	1014.12
535.297	1034.12
535.511	955.12
535.726	998.12
535.94	968.12
536.154	965.12
536.369	951.12
536.583	918.12
536.797	923.12
537.011	958.12
537.225	917.12
537.44	925.12
537.654	979.12
537.868	933.12
538.082	884.12
538.296	891.12
538.51	918.12
538.724	927.12
538.938	945.12
539.153	956.12
539.367	972.12
539.581	966.12
539.795	1005.12
540.009	938.12
540.222	934.12
540.436	972.12
540.65	1052.12
540.864	1070.12
541.078	1060.12
541.292	1039.12
541.506	1058.12
541.72	1070.12
541.934	1149.12
542.147	1163.12
542.361	1122.12
542.575	1052.12
542.789	1008.12
543.002	956.12
543.216	920.12
543.43	990.12
543.644	1032.12
543.857	1108.12
544.071	1097.12
544.285	1105.12
544.498	1083.12
544.712	1101.12
544.925	1087.12
545.139	1135.12
545.352	1053.12
545.566	1055.12
545.779	1052.12
545.993	1070.12
546.206	1122.12
546.42	1046.12
546.633	1060.12
546.847	1062.12
547.06	1061.12
547.274	1075.12
547.487	1069.12
547.7	1075.12
547.914	1063.12
548.127	1058.12
548.34	1075.12
548.554	1057.12
548.767	1047.12
548.98	1034.12
549.193	1044.12
549.407	1087.12
549.62	1084.12
549.833	1035.12
550.046	1041.12
550.259	1054.12
550.473	986.12
550.686	1027.12
550.899	1014.12
551.112	978.12
551.325	988.12
551.538	1020.12
551.751	1138.12
551.964	917.12
552.177	917.12
552.39	949.12
552.603	990.12
552.816	1018.12
553.029	1043.12
553.242	1060.12
553.455	1039.12
553.667	1041.12
553.88	1047.12
554.093	1001.12
554.306	984.12
554.519	954.12
554.732	946.12
554.944	978.12
555.157	928.12
555.37	952.12
555.583	962.12
555.795	889.12
556.008	893.12
556.221	860.12
556.433	878.12
556.646	871.12
556.859	890.12
557.071	869.12
557.284	862.12
557.496	853.12
557.709	862.12
557.921	827.12
558.134	854.12
558.346	851.12
558.559	852.12
558.771	831.12
558.984	825.12
559.196	793.12
559.409	782.12
559.621	810.12
559.833	801.12
560.046	815.12
560.258	835.12
560.47	819.12
560.683	819.12
560.895	784.12
561.107	805.12
561.32	824.12
561.532	852.12
561.744	805.12
561.956	811.12
562.168	788.12
562.381	785.12
562.593	797.12
562.805	785.12
563.017	785.12
563.229	756.12
563.441	776.12
563.653	781.12
563.865	760.12
564.077	803.12
564.289	789.12
564.501	791.12
564.713	789.12
564.925	822.12
565.137	855.12
565.349	829.12
565.561	810.12
565.773	817.12
565.985	806.12
566.197	855.12
566.408	901.12
566.62	895.12
566.832	894.12
567.044	892.12
567.255	851.12
567.467	869.12
567.679	920.12
567.891	914.12
568.102	877.12
568.314	827.12
568.526	797.12
568.737	777.12
568.949	726.12
569.161	708.12
569.372	679.12
569.584	674.12
569.795	683.12
570.007	679.12
570.218	611.12
570.43	625.12
570.641	670.12
570.853	646.12
571.064	652.12
571.276	666.12
571.487	639.12
571.698	630.12
571.91	626.12
572.121	614.12
572.333	635.12
572.544	599.12
572.755	600.12
572.966	574.12
573.178	573.12
573.389	573.12
573.6	605.12
573.811	622.12
574.023	592.12
574.234	560.12
574.445	551.12
574.656	551.12
574.867	580.12
575.078	558.12
575.289	580.12
575.501	548.12
575.712	540.12
575.923	565.12
576.134	575.12
576.345	550.12
576.556	546.12
576.767	525.12
576.978	552.12
577.188	524.12
577.399	502.12
577.61	511.12
577.821	512.12
578.032	509.12
578.243	520.12
578.454	534.12
578.665	524.12
578.875	493.12
579.086	472.12
579.297	513.12
579.508	515.12
579.718	517.12
579.929	500.12
580.14	472.12
580.35	488.12
580.561	493.12
580.772	543.12
580.982	527.12
581.193	480.12
581.403	501.12
581.614	483.12
581.825	456.12
582.035	498.12
582.246	491.12
582.456	491.12
582.667	494.12
582.877	502.12
583.087	473.12
583.298	461.12
583.508	474.12
583.719	459.12
583.929	474.12
584.139	479.12
584.35	446.12
584.56	450.12
584.77	453.12
584.981	467.12
585.191	468.12
585.401	464.12
585.611	454.12
585.821	446.12
586.032	459.12
586.242	455.12
586.452	439.12
586.662	470.12
586.872	433.12
587.082	451.12
587.292	456.12
587.502	466.12
587.713	452.12
587.923	451.12
588.133	448.12
588.343	435.12
588.553	429.12
588.762	461.12
588.972	442.12
589.182	459.12
589.392	438.12
589.602	453.12
589.812	455.12
590.022	455.12
590.232	441.12
590.441	460.12
590.651	449.12
590.861	451.12
591.071	443.12
591.281	454.12
591.49	434.12
591.7	446.12
591.91	440.12
592.119	443.12
592.329	446.12
592.539	458.12
592.748	486.12
592.958	428.12
593.167	454.12
593.377	426.12
593.587	449.12
593.796	480.12
594.006	461.12
594.215	474.12
594.424	474.12
594.634	450.12
594.843	455.12
595.053	476.12
595.262	444.12
595.472	453.12
595.681	434.12
595.89	435.12
596.1	411.12
596.309	423.12
596.518	434.12
596.727	421.12
596.937	436.12
597.146	391.12
597.355	413.12
597.564	395.12
597.774	387.12
597.983	385.12
598.192	404.12
598.401	378.12
598.61	380.12
598.819	390.12
599.028	399.12
599.237	403.12
599.446	394.12
599.655	381.12
599.864	379.12
600.073	402.12
600.282	392.12
600.491	381.12
600.7	362.12
600.909	379.12
601.118	378.12
601.327	399.12
601.536	422.12
601.745	422.12
601.953	412.12
602.162	407.12
602.371	423.12
602.58	414.12
602.789	402.12
602.997	382.12
603.206	408.12
603.415	411.12
603.623	402.12
603.832	392.12
604.041	396.12
604.249	378.12
604.458	382.12
604.666	381.12
604.875	384.12
605.084	377.12
605.292	388.12
605.501	399.12
605.709	390.12
605.918	374.12
606.126	405.12
606.334	391.12
606.543	409.12
606.751	428.12
606.96	404.12
607.168	405.12
607.376	405.12
607.585	378.12
607.793	393.12
608.001	385.12
608.21	397.12
608.418	410.12
608.626	410.12
608.834	402.12
609.043	417.12
609.251	388.12
609.459	397.12
609.667	398.12
609.875	400.12
610.083	408.12
610.291	394.12
610.499	406.12
610.707	399.12
610.916	411.12
611.124	396.12
611.332	379.12
611.54	392.12
611.748	387.12
611.955	390.12
612.163	390.12
612.371	390.12
612.579	396.12
612.787	387.12
612.995	410.12
613.203	394.12
613.411	376.12
613.618	371.12
613.826	382.12
614.034	359.12
614.242	363.12
614.449	389.12
614.657	390.12
614.865	392.12
615.072	403.12
615.28	371.12
615.488	393.12
615.695	417.12
615.903	385.12
616.111	378.12
616.318	367.12
616.526	389.12
616.733	393.12
616.941	354.12
617.148	379.12
617.356	381.12
617.563	369.12
617.771	364.12
617.978	361.12
618.185	350.12
618.393	387.12
618.6	361.12
618.807	381.12
619.015	382.12
619.222	372.12
619.429	349.12
619.637	354.12
619.844	354.12
620.051	364.12
620.258	354.12
620.466	345.12
620.673	352.12
620.88	326.12
621.087	333.12
621.294	334.12
621.501	332.12
621.708	328.12
621.915	343.12
622.122	356.12
622.329	352.12
622.536	344.12
622.743	350.12
622.95	354.12
623.157	350.12
623.364	347.12
623.571	347.12
623.778	348.12
623.985	353.12
624.192	346.12
624.399	349.12
624.606	351.12
624.812	341.12
625.019	324.12
625.226	325.12
625.433	323.12
625.639	315.12
625.846	291.12
626.053	286.12
626.259	298.12
626.466	302.12
626.673	279.12
626.879	294.12
627.086	299.12
627.293	293.12
627.499	311.12
627.706	317.12
627.912	311.12
628.119	320.12
628.325	321.12
628.532	335.12
628.738	315.12
628.945	325.12
629.151	310.12
629.357	328.12
629.564	313.12
629.77	292.12
629.976	289.12
630.183	289.12
630.389	291.12
630.595	299.12
630.802	296.12
631.008	328.12
631.214	315.12
631.42	298.12
631.627	307.12
631.833	284.12
632.039	292.12
632.245	298.12
632.451	300.12
632.657	281.12
632.863	299.12
633.069	276.12
633.275	284.12
633.481	277.12
633.688	280.12
633.893	285.12
634.099	291.12
634.305	286.12
634.511	285.12
634.717	270.12
634.923	265.12
635.129	251.12
635.335	271.12
635.541	284.12
635.747	265.12
635.952	250.12
636.158	276.12
636.364	266.12
636.57	290.12
636.775	274.12
636.981	259.12
637.187	284.12
637.392	293.12
637.598	251.12
637.804	268.12
638.009	271.12
638.215	283.12
638.421	279.12
638.626	281.12
638.832	280.12
639.037	279.12
639.243	264.12
639.448	264.12
639.654	266.12
639.859	270.12
640.065	276.12
640.27	267.12
640.475	259.12
640.681	263.12
640.886	272.12
641.091	267.12
641.297	257.12
641.502	267.12
641.707	245.12
641.913	269.12
642.118	264.12
642.323	262.12
642.528	279.12
642.733	270.12
642.939	266.12
643.144	245.12
643.349	265.12
643.554	263.12
643.759	259.12
643.964	244.12
644.169	250.12
644.374	238.12
644.579	254.12
644.784	266.12
644.989	246.12
645.194	282.12
645.399	267.12
645.604	241.12
645.809	258.12
646.014	261.12
646.219	255.12
646.423	271.12
646.628	273.12
646.833	250.12
647.038	249.12
647.243	236.12
647.447	266.12
647.652	274.12
647.857	262.12
648.062	277.12
648.266	258.12
648.471	252.12
648.676	275.12
648.88	269.12
649.085	267.12
649.289	267.12
649.494	260.12
649.698	243.12
649.903	259.12
650.107	238.12
650.312	237.12
650.516	236.12
650.721	234.12
650.925	234.12
651.13	229.12
651.334	233.12
651.539	231.12
651.743	225.12
651.947	226.12
652.152	238.12
652.356	235.12
652.56	217.12
652.764	234.12
652.969	233.12
653.173	234.12
653.377	220.12
653.581	215.12
653.785	219.12
653.99	217.12
654.194	219.12
654.398	229.12
654.602	234.12
654.806	228.12
655.01	206.12
655.214	211.12
655.418	218.12
655.622	228.12
655.826	230.12
656.03	244.12
656.234	250.12
656.438	257.12
656.642	276.12
656.846	230.12
657.049	221.12
657.253	214.12
657.457	212.12
657.661	204.12
657.865	184.12
658.068	190.12
658.272	169.12
658.476	164.12
658.68	157.12
658.883	155.12
659.087	150.12
659.291	139.12
659.494	139.12
659.698	133.12
659.901	138.12
660.105	124.12
660.309	125.12
660.512	127.12
660.716	130.12
660.919	125.12
661.123	129.12
661.326	123.12
661.53	103.12
661.733	101.12
661.936	101.12
662.14	107.12
662.343	96.12
662.546	90.12
662.75	92.12
662.953	79.12
663.156	92.12
663.36	88.12
663.563	90.12
663.766	95.12
663.969	93.12
664.173	88.12
664.376	88.12
664.579	90.12
664.782	94.12
664.985	77.12
665.188	77.12
665.391	93.12
665.594	82.12
665.797	83.12
666	77.12
666.203	87.12
666.406	92.12
666.609	62.12
666.812	80.12
667.015	73.12
667.218	91.12
667.421	85.12
667.624	75.12
667.827	96.12
668.03	87.12
668.232	80.12
668.435	83.12
668.638	100.12
668.841	77.12
669.043	85.12
669.246	75.12
669.449	81.12
669.651	84.12
669.854	84.12
670.057	87.12
670.259	86.12
670.462	93.12
670.665	79.12
670.867	88.12
671.07	74.12
671.272	77.12
671.475	79.12
671.677	97.12
671.88	80.12
672.082	86.12
672.284	87.12
672.487	100.12
672.689	87.12
672.892	83.12
