Data from WStandard_LampEnergy5.5LIBS07252019.E.O._I.C._HRD10591_16-07-21-920.txt Node
Date: Thu Jul 25 16:07:21 EDT 2019
User: cochatt
Spectrometer: HR+D1059
Trigger mode: 1
Integration Time (sec): 1.000000E-1
Scans to average: 1
Electric dark correction enabled: true
Nonlinearity correction enabled: false
Boxcar width: 0
XAxis mode: Wavelengths
Number of Pixels in Spectrum: 2048
>>>>>Begin Spectral Data<<<<<
223.165	-16.56
223.4	-16.56
223.635	-16.56
223.869	-22.56
224.104	-18.56
224.338	-15.56
224.573	3.44
224.808	-14.56
225.042	11.44
225.277	-15.56
225.511	-3.56
225.746	-1.56
225.98	11.44
226.215	14.44
226.449	5.44
226.683	22.44
226.918	18.44
227.152	21.44
227.387	30.44
227.621	20.44
227.856	52.44
228.09	54.44
228.324	58.44
228.559	49.44
228.793	148.44
229.027	378.44
229.262	382.44
229.496	404.44
229.73	393.44
229.964	460.44
230.199	476.44
230.433	478.44
230.667	513.44
230.901	575.44
231.136	499.44
231.37	496.44
231.604	476.44
231.838	480.44
232.072	477.44
232.306	462.44
232.541	477.44
232.775	569.44
233.009	638.44
233.243	589.44
233.477	541.44
233.711	567.44
233.945	575.44
234.179	573.44
234.413	606.44
234.647	664.44
234.881	626.44
235.115	582.44
235.349	591.44
235.583	578.44
235.817	586.44
236.051	558.44
236.285	571.44
236.519	632.44
236.753	678.44
236.987	753.44
237.221	708.44
237.455	778.44
237.689	745.44
237.922	688.44
238.156	691.44
238.39	688.44
238.624	736.44
238.858	800.44
239.091	765.44
239.325	832.44
239.559	958.44
239.793	1006.44
240.027	1123.44
240.26	1087.44
240.494	792.44
240.728	731.44
240.961	778.44
241.195	779.44
241.429	856.44
241.662	867.44
241.896	797.44
242.13	778.44
242.363	902.44
242.597	990.44
242.83	897.44
243.064	921.44
243.298	999.44
243.531	964.44
243.765	988.44
243.998	963.44
244.232	831.44
244.465	817.44
244.699	815.44
244.932	944.44
245.166	1065.44
245.399	1037.44
245.633	944.44
245.866	944.44
246.099	969.44
246.333	992.44
246.566	990.44
246.8	1090.44
247.033	1250.44
247.266	1101.44
247.5	1106.44
247.733	1134.44
247.966	1183.44
248.2	1297.44
248.433	1237.44
248.666	1258.44
248.899	1390.44
249.133	1611.44
249.366	1802.44
249.599	1456.44
249.832	1300.44
250.066	1332.44
250.299	1359.44
250.532	1290.44
250.765	1102.44
250.998	1193.44
251.231	1276.44
251.465	1296.44
251.698	1201.44
251.931	1232.44
252.164	1272.44
252.397	1300.44
252.63	1328.44
252.863	1142.44
253.096	1146.44
253.329	1186.44
253.562	1214.44
253.795	1332.44
254.028	1328.44
254.261	1245.44
254.494	1215.44
254.727	1158.44
254.96	1187.44
255.193	1299.44
255.426	1477.44
255.659	1704.44
255.892	1763.44
256.124	1437.44
256.357	1387.44
256.59	1486.44
256.823	1489.44
257.056	1467.44
257.289	1771.44
257.521	2018.44
257.754	1773.44
257.987	1634.44
258.22	1857.44
258.452	1831.44
258.685	1445.44
258.918	1460.44
259.151	1458.44
259.383	1384.44
259.616	1217.44
259.849	1273.44
260.081	1438.44
260.314	1633.44
260.547	1805.44
260.779	1800.44
261.012	1678.44
261.244	1509.44
261.477	1412.44
261.71	1489.44
261.942	1468.44
262.175	1448.44
262.407	1511.44
262.64	1388.44
262.872	1315.44
263.105	1265.44
263.337	1344.44
263.57	1320.44
263.802	1341.44
264.035	1253.44
264.267	1184.44
264.499	1132.44
264.732	1255.44
264.964	1349.44
265.197	1392.44
265.429	1466.44
265.661	1642.44
265.894	1752.44
266.126	1894.44
266.358	1635.44
266.591	1730.44
266.823	1858.44
267.055	1644.44
267.287	1671.44
267.52	1670.44
267.752	1593.44
267.984	1594.44
268.216	1692.44
268.448	1764.44
268.681	1724.44
268.913	1588.44
269.145	1435.44
269.377	1450.44
269.609	1558.44
269.841	1824.44
270.073	2111.44
270.306	2385.44
270.538	2579.44
270.77	2152.44
271.002	1800.44
271.234	1693.44
271.466	1716.44
271.698	1881.44
271.93	2279.44
272.162	2305.44
272.394	2040.44
272.626	2010.44
272.858	1773.44
273.09	1516.44
273.322	1522.44
273.553	1426.44
273.785	1463.44
274.017	1501.44
274.249	1603.44
274.481	1667.44
274.713	1462.44
274.945	1444.44
275.176	1483.44
275.408	1456.44
275.64	1450.44
275.872	1368.44
276.104	1499.44
276.335	1708.44
276.567	1974.44
276.799	1964.44
277.031	1777.44
277.262	1670.44
277.494	1700.44
277.726	1913.44
277.957	1921.44
278.189	1735.44
278.421	1590.44
278.652	1538.44
278.884	1536.44
279.115	1507.44
279.347	1586.44
279.579	1510.44
279.81	1507.44
280.042	1683.44
280.273	1863.44
280.505	1878.44
280.736	1901.44
280.968	1779.44
281.199	1580.44
281.431	1498.44
281.662	1478.44
281.894	1478.44
282.125	1564.44
282.356	1572.44
282.588	1603.44
282.819	1552.44
283.051	1722.44
283.282	1890.44
283.513	1824.44
283.745	1572.44
283.976	1464.44
284.207	1473.44
284.439	1511.44
284.67	1579.44
284.901	1557.44
285.132	1627.44
285.364	1590.44
285.595	1595.44
285.826	1557.44
286.057	1585.44
286.288	1537.44
286.52	1610.44
286.751	1734.44
286.982	1814.44
287.213	1669.44
287.444	1540.44
287.675	1490.44
287.906	1555.44
288.138	1738.44
288.369	1678.44
288.6	1596.44
288.831	1516.44
289.062	1533.44
289.293	1545.44
289.524	1576.44
289.755	1636.44
289.986	1626.44
290.217	1476.44
290.448	1534.44
290.679	1574.44
290.91	1590.44
291.141	1641.44
291.371	1704.44
291.602	1670.44
291.833	1690.44
292.064	1704.44
292.295	1658.44
292.526	1719.44
292.757	1812.44
292.987	1695.44
293.218	1593.44
293.449	1733.44
293.68	1950.44
293.91	2086.44
294.141	1946.44
294.372	1825.44
294.603	1896.44
294.833	1991.44
295.064	1856.44
295.295	1705.44
295.525	1662.44
295.756	1518.44
295.987	1439.44
296.217	1493.44
296.448	1518.44
296.679	1562.44
296.909	1555.44
297.14	1546.44
297.37	1569.44
297.601	1623.44
297.831	1774.44
298.062	1805.44
298.292	1637.44
298.523	1570.44
298.753	1602.44
298.984	1562.44
299.214	1592.44
299.445	1626.44
299.675	1712.44
299.905	1650.44
300.136	1664.44
300.366	1578.44
300.597	1543.44
300.827	1513.44
301.057	1599.44
301.288	1663.44
301.518	1650.44
301.748	1681.44
301.979	1780.44
302.209	1840.44
302.439	1970.44
302.669	2020.44
302.9	1905.44
303.13	1700.44
303.36	1695.44
303.59	1744.44
303.82	1694.44
304.051	1692.44
304.281	1722.44
304.511	1702.44
304.741	1780.44
304.971	1990.44
305.201	2176.44
305.431	2027.44
305.661	1645.44
305.891	1482.44
306.121	1508.44
306.352	1510.44
306.582	1615.44
306.812	1713.44
307.042	1903.44
307.272	1885.44
307.502	1915.44
307.731	2113.44
307.961	2254.44
308.191	2084.44
308.421	1756.44
308.651	1659.44
308.881	1652.44
309.111	1613.44
309.341	1612.44
309.571	1604.44
309.8	1657.44
310.03	1630.44
310.26	1628.44
310.49	1592.44
310.72	1678.44
310.949	1708.44
311.179	1795.44
311.409	1735.44
311.639	1672.44
311.868	1634.44
312.098	1716.44
312.328	1688.44
312.557	1637.44
312.787	1674.44
313.017	1714.44
313.246	1709.44
313.476	1724.44
313.706	1747.44
313.935	1729.44
314.165	1742.44
314.394	1788.44
314.624	1879.44
314.853	1968.44
315.083	2058.44
315.312	2153.44
315.542	1978.44
315.771	1751.44
316.001	1751.44
316.23	1843.44
316.46	1810.44
316.689	1797.44
316.919	1692.44
317.148	1671.44
317.377	1678.44
317.607	1801.44
317.836	2060.44
318.065	2125.44
318.295	2076.44
318.524	1919.44
318.753	1866.44
318.983	1844.44
319.212	1823.44
319.441	1782.44
319.67	1732.44
319.9	1840.44
320.129	1871.44
320.358	1978.44
320.587	1991.44
320.816	2000.44
321.046	1955.44
321.275	1874.44
321.504	1848.44
321.733	1984.44
321.962	1990.44
322.191	1797.44
322.42	1788.44
322.649	1778.44
322.878	1734.44
323.108	1822.44
323.337	1859.44
323.566	1873.44
323.795	1836.44
324.024	1870.44
324.253	1788.44
324.482	1790.44
324.71	1754.44
324.939	1696.44
325.168	1724.44
325.397	1770.44
325.626	1852.44
325.855	1846.44
326.084	1736.44
326.313	1764.44
326.542	1784.44
326.77	1837.44
326.999	1856.44
327.228	1828.44
327.457	1680.44
327.686	1634.44
327.914	1723.44
328.143	1792.44
328.372	1775.44
328.6	1770.44
328.829	1761.44
329.058	1770.44
329.287	1750.44
329.515	1798.44
329.744	1825.44
329.972	1886.44
330.201	1990.44
330.43	1942.44
330.658	1877.44
330.887	1892.44
331.115	1845.44
331.344	1873.44
331.572	1849.44
331.801	1872.44
332.03	1866.44
332.258	1864.44
332.486	1902.44
332.715	1889.44
332.943	1901.44
333.172	1875.44
333.4	1884.44
333.629	1989.44
333.857	2081.44
334.085	2262.44
334.314	2612.44
334.542	2866.44
334.771	2570.44
334.999	2299.44
335.227	2152.44
335.455	2024.44
335.684	1986.44
335.912	2064.44
336.14	2172.44
336.369	2093.44
336.597	1942.44
336.825	1889.44
337.053	1967.44
337.281	2094.44
337.51	2172.44
337.738	2279.44
337.966	2138.44
338.194	1947.44
338.422	1896.44
338.65	1851.44
338.878	1849.44
339.106	1841.44
339.334	1800.44
339.562	1766.44
339.79	1789.44
340.018	1891.44
340.246	2003.44
340.474	1998.44
340.702	1934.44
340.93	1950.44
341.158	1886.44
341.386	1887.44
341.614	1886.44
341.842	1881.44
342.07	1876.44
342.298	1877.44
342.526	1909.44
342.754	1837.44
342.981	1862.44
343.209	1849.44
343.437	1833.44
343.665	1842.44
343.893	1896.44
344.12	1989.44
344.348	2022.44
344.576	1891.44
344.804	1866.44
345.031	1849.44
345.259	1907.44
345.487	1777.44
345.714	1736.44
345.942	1708.44
346.17	1730.44
346.397	1752.44
346.625	1796.44
346.853	1704.44
347.08	1672.44
347.308	1625.44
347.535	1754.44
347.763	1791.44
347.99	1731.44
348.218	1680.44
348.445	1700.44
348.673	1710.44
348.9	1734.44
349.128	1824.44
349.355	1920.44
349.583	1858.44
349.81	1757.44
350.037	1658.44
350.265	1623.44
350.492	1623.44
350.72	1673.44
350.947	1728.44
351.174	1774.44
351.402	1701.44
351.629	1650.44
351.856	1580.44
352.083	1584.44
352.311	1609.44
352.538	1666.44
352.765	1745.44
352.992	1769.44
353.22	1740.44
353.447	1664.44
353.674	1677.44
353.901	1718.44
354.128	1666.44
354.355	1641.44
354.583	1724.44
354.81	1806.44
355.037	1773.44
355.264	1793.44
355.491	1747.44
355.718	1732.44
355.945	1712.44
356.172	1679.44
356.399	1648.44
356.626	1639.44
356.853	1709.44
357.08	1820.44
357.307	2036.44
357.534	2056.44
357.761	1759.44
357.988	1636.44
358.215	1615.44
358.441	1622.44
358.668	1638.44
358.895	1659.44
359.122	1745.44
359.349	1892.44
359.576	1896.44
359.802	1742.44
360.029	1656.44
360.256	1622.44
360.483	1649.44
360.709	1684.44
360.936	1768.44
361.163	1821.44
361.39	2021.44
361.616	2146.44
361.843	2109.44
362.07	1983.44
362.296	1746.44
362.523	1659.44
362.749	1692.44
362.976	1725.44
363.203	1741.44
363.429	1712.44
363.656	1634.44
363.882	1672.44
364.109	1876.44
364.335	2033.44
364.562	1903.44
364.788	1805.44
365.015	1712.44
365.241	1625.44
365.468	1696.44
365.694	1742.44
365.92	1854.44
366.147	1756.44
366.373	1682.44
366.599	1620.44
366.826	1620.44
367.052	1657.44
367.278	1648.44
367.505	1673.44
367.731	1729.44
367.957	1763.44
368.184	1760.44
368.41	1898.44
368.636	1938.44
368.862	1901.44
369.089	1930.44
369.315	1878.44
369.541	1818.44
369.767	1742.44
369.993	1675.44
370.219	1655.44
370.445	1754.44
370.672	1829.44
370.898	1904.44
371.124	1900.44
371.35	1781.44
371.576	1825.44
371.802	1928.44
372.028	1822.44
372.254	1774.44
372.48	1694.44
372.706	1719.44
372.932	1694.44
373.158	1712.44
373.384	1761.44
373.61	1792.44
373.835	1911.44
374.061	1802.44
374.287	1779.44
374.513	1790.44
374.739	1794.44
374.965	1804.44
375.191	1813.44
375.416	1840.44
375.642	1814.44
375.868	1912.44
376.094	2008.44
376.319	1924.44
376.545	1760.44
376.771	1799.44
376.997	1878.44
377.222	1848.44
377.448	1848.44
377.674	1878.44
377.899	1833.44
378.125	1933.44
378.35	1982.44
378.576	1770.44
378.802	1711.44
379.027	1738.44
379.253	1756.44
379.478	1761.44
379.704	1729.44
379.929	1756.44
380.155	1724.44
380.38	1773.44
380.606	1780.44
380.831	1792.44
381.057	1878.44
381.282	1900.44
381.507	1846.44
381.733	1933.44
381.958	2028.44
382.184	1895.44
382.409	1807.44
382.634	1888.44
382.86	1874.44
383.085	1897.44
383.31	1872.44
383.535	2000.44
383.761	2154.44
383.986	2124.44
384.211	1994.44
384.436	1997.44
384.662	2081.44
384.887	2183.44
385.112	2035.44
385.337	2050.44
385.562	2070.44
385.787	2036.44
386.013	2070.44
386.238	2123.44
386.463	2119.44
386.688	2161.44
386.913	2337.44
387.138	2304.44
387.363	2116.44
387.588	2095.44
387.813	2072.44
388.038	2106.44
388.263	2184.44
388.488	2128.44
388.713	1976.44
388.938	1957.44
389.163	1926.44
389.387	1983.44
389.612	1973.44
389.837	2056.44
390.062	2095.44
390.287	2031.44
390.512	2054.44
390.736	1933.44
390.961	1931.44
391.186	1910.44
391.411	1936.44
391.636	2006.44
391.86	2072.44
392.085	2060.44
392.31	2022.44
392.534	2023.44
392.759	2069.44
392.984	2014.44
393.208	2072.44
393.433	2070.44
393.658	2175.44
393.882	2224.44
394.107	2057.44
394.331	2004.44
394.556	2002.44
394.78	2022.44
395.005	2106.44
395.229	2152.44
395.454	2322.44
395.678	2305.44
395.903	2238.44
396.127	2133.44
396.352	2165.44
396.576	2212.44
396.801	2258.44
397.025	2281.44
397.249	2247.44
397.474	2208.44
397.698	2134.44
397.922	2249.44
398.147	2324.44
398.371	2393.44
398.595	2445.44
398.82	2341.44
399.044	2350.44
399.268	2456.44
399.492	2703.44
399.717	2679.44
399.941	2801.44
400.165	2729.44
400.389	2625.44
400.613	2582.44
400.837	2833.44
401.062	3253.44
401.286	2818.44
401.51	2524.44
401.734	2718.44
401.958	2578.44
402.182	2425.44
402.406	2312.44
402.63	2298.44
402.854	2296.44
403.078	2332.44
403.302	2368.44
403.526	2480.44
403.75	2418.44
403.974	2484.44
404.198	2439.44
404.422	2481.44
404.645	2584.44
404.869	2604.44
405.093	2397.44
405.317	2328.44
405.541	2468.44
405.765	2436.44
405.988	2402.44
406.212	2459.44
406.436	2576.44
406.66	2578.44
406.883	2604.44
407.107	2903.44
407.331	3178.44
407.555	3404.44
407.778	3200.44
408.002	2601.44
408.226	2547.44
408.449	2528.44
408.673	2470.44
408.896	2496.44
409.12	2544.44
409.344	2476.44
409.567	2376.44
409.791	2482.44
410.014	2472.44
410.238	2592.44
410.461	2727.44
410.685	2515.44
410.908	2360.44
411.132	2440.44
411.355	2417.44
411.578	2303.44
411.802	2378.44
412.025	2442.44
412.249	2403.44
412.472	2319.44
412.695	2297.44
412.919	2263.44
413.142	2277.44
413.365	2306.44
413.589	2348.44
413.812	2455.44
414.035	2597.44
414.258	2334.44
414.482	2307.44
414.705	2337.44
414.928	2308.44
415.151	2278.44
415.374	2330.44
415.597	2321.44
415.821	2394.44
416.044	2444.44
416.267	2472.44
416.49	2249.44
416.713	2212.44
416.936	2295.44
417.159	2365.44
417.382	2454.44
417.605	2257.44
417.828	2338.44
418.051	2419.44
418.274	2298.44
418.497	2196.44
418.72	2243.44
418.943	2210.44
419.166	2362.44
419.389	2504.44
419.611	2348.44
419.834	2268.44
420.057	2300.44
420.28	2234.44
420.503	2247.44
420.726	2280.44
420.948	2260.44
421.171	2190.44
421.394	2222.44
421.617	2263.44
421.839	2269.44
422.062	2280.44
422.285	2160.44
422.507	2204.44
422.73	2157.44
422.953	2132.44
423.175	2134.44
423.398	2253.44
423.621	2215.44
423.843	2231.44
424.066	2298.44
424.288	2345.44
424.511	2400.44
424.733	2367.44
424.956	2110.44
425.178	2126.44
425.401	2198.44
425.623	2185.44
425.846	2142.44
426.068	2263.44
426.291	2321.44
426.513	2266.44
426.735	2250.44
426.958	2397.44
427.18	2614.44
427.402	2351.44
427.625	2427.44
427.847	2446.44
428.069	2287.44
428.292	2158.44
428.514	2108.44
428.736	2137.44
428.958	2176.44
429.181	2158.44
429.403	2424.44
429.625	3027.44
429.847	2667.44
430.069	2224.44
430.292	2432.44
430.514	2548.44
430.736	2308.44
430.958	2470.44
431.18	2298.44
431.402	2168.44
431.624	2173.44
431.846	2118.44
432.068	2128.44
432.29	2150.44
432.512	2156.44
432.734	2215.44
432.956	2277.44
433.178	2360.44
433.4	2270.44
433.622	2332.44
433.844	2196.44
434.066	2147.44
434.287	2129.44
434.509	2202.44
434.731	2341.44
434.953	2540.44
435.175	2467.44
435.397	2259.44
435.618	2299.44
435.84	2289.44
436.062	2223.44
436.284	2247.44
436.505	2304.44
436.727	2285.44
436.949	2203.44
437.17	2173.44
437.392	2166.44
437.614	2169.44
437.835	2128.44
438.057	2279.44
438.278	2339.44
438.5	2182.44
438.721	2129.44
438.943	2154.44
439.165	2169.44
439.386	2064.44
439.608	2128.44
439.829	2156.44
440.05	2140.44
440.272	2151.44
440.493	2070.44
440.715	2143.44
440.936	2303.44
441.158	2526.44
441.379	2452.44
441.6	2360.44
441.822	2357.44
442.043	2333.44
442.264	2298.44
442.486	2161.44
442.707	2081.44
442.928	2132.44
443.149	2204.44
443.371	2394.44
443.592	2439.44
443.813	2412.44
444.034	2380.44
444.255	2359.44
444.476	2432.44
444.698	2413.44
444.919	2382.44
445.14	2462.44
445.361	2519.44
445.582	2589.44
445.803	2448.44
446.024	2396.44
446.245	2509.44
446.466	2380.44
446.687	2258.44
446.908	2259.44
447.129	2221.44
447.35	2213.44
447.571	2223.44
447.792	2089.44
448.013	2085.44
448.234	2120.44
448.455	2284.44
448.675	2313.44
448.896	2079.44
449.117	2062.44
449.338	2129.44
449.559	2243.44
449.779	2336.44
450	2528.44
450.221	2764.44
450.442	2676.44
450.662	2356.44
450.883	2060.44
451.104	2015.44
451.324	2059.44
451.545	2143.44
451.766	2109.44
451.986	1990.44
452.207	2008.44
452.428	1943.44
452.648	1854.44
452.869	1958.44
453.089	2084.44
453.31	2113.44
453.53	2159.44
453.751	2064.44
453.971	1974.44
454.192	2008.44
454.412	2153.44
454.633	2109.44
454.853	2007.44
455.073	1842.44
455.294	1867.44
455.514	1864.44
455.734	1862.44
455.955	1904.44
456.175	1924.44
456.395	1942.44
456.616	1975.44
456.836	2012.44
457.056	1978.44
457.276	2022.44
457.497	1940.44
457.717	1877.44
457.937	1899.44
458.157	1983.44
458.377	1959.44
458.598	1911.44
458.818	1937.44
459.038	2101.44
459.258	2180.44
459.478	2176.44
459.698	2077.44
459.918	2154.44
460.138	2253.44
460.358	2304.44
460.578	2274.44
460.798	2401.44
461.018	2526.44
461.238	2429.44
461.458	2291.44
461.678	2308.44
461.898	2282.44
462.118	2207.44
462.338	2294.44
462.558	2295.44
462.777	2295.44
462.997	2371.44
463.217	2570.44
463.437	2584.44
463.657	2338.44
463.876	2359.44
464.096	2319.44
464.316	2277.44
464.536	2396.44
464.755	2370.44
464.975	2436.44
465.195	2325.44
465.414	2391.44
465.634	2464.44
465.854	2280.44
466.073	2419.44
466.293	2456.44
466.512	2142.44
466.732	2132.44
466.951	2156.44
467.171	2216.44
467.391	2105.44
467.61	2022.44
467.829	2119.44
468.049	2261.44
468.268	2535.44
468.488	2370.44
468.707	2190.44
468.927	2159.44
469.146	2120.44
469.365	2068.44
469.585	2123.44
469.804	2103.44
470.023	2092.44
470.243	2146.44
470.462	2133.44
470.681	2017.44
470.901	2116.44
471.12	2113.44
471.339	2076.44
471.558	2018.44
471.777	2008.44
471.997	2084.44
472.216	2062.44
472.435	2006.44
472.654	2042.44
472.873	2135.44
473.092	2284.44
473.311	2156.44
473.53	2009.44
473.749	1978.44
473.968	2067.44
474.187	2183.44
474.406	2298.44
474.625	2196.44
474.844	2103.44
475.063	2108.44
475.282	2193.44
475.501	2098.44
475.72	2115.44
475.939	2255.44
476.158	2198.44
476.377	2102.44
476.596	2134.44
476.814	2179.44
477.033	2181.44
477.252	2335.44
477.471	2337.44
477.69	2238.44
477.908	2208.44
478.127	2324.44
478.346	2529.44
478.564	2580.44
478.783	2506.44
479.002	2608.44
479.22	2517.44
479.439	2612.44
479.658	2954.44
479.876	2960.44
480.095	2521.44
480.313	2454.44
480.532	2350.44
480.751	2436.44
480.969	2426.44
481.188	2391.44
481.406	2362.44
481.624	2307.44
481.843	2309.44
482.061	2375.44
482.28	2438.44
482.498	2463.44
482.717	2409.44
482.935	2332.44
483.153	2327.44
483.372	2388.44
483.59	2326.44
483.808	2352.44
484.027	2394.44
484.245	2538.44
484.463	2938.44
484.681	3413.44
484.9	2610.44
485.118	2425.44
485.336	2388.44
485.554	2462.44
485.772	2589.44
485.99	2547.44
486.209	2481.44
486.427	2488.44
486.645	2544.44
486.863	2517.44
487.081	2540.44
487.299	2599.44
487.517	2545.44
487.735	2446.44
487.953	2378.44
488.171	2382.44
488.389	2437.44
488.607	2415.44
488.825	2661.44
489.043	2808.44
489.261	2450.44
489.479	2618.44
489.696	2638.44
489.914	2585.44
490.132	2550.44
490.35	2517.44
490.568	2574.44
490.786	2473.44
491.003	2400.44
491.221	2428.44
491.439	2580.44
491.657	2544.44
491.874	2531.44
492.092	2595.44
492.31	2526.44
492.527	2560.44
492.745	2509.44
492.963	2486.44
493.18	2631.44
493.398	2824.44
493.615	2884.44
493.833	2585.44
494.05	2532.44
494.268	2566.44
494.485	2654.44
494.703	2591.44
494.92	2511.44
495.138	2496.44
495.355	2547.44
495.573	2702.44
495.79	2815.44
496.008	2890.44
496.225	2726.44
496.442	2672.44
496.66	2734.44
496.877	2709.44
497.094	2798.44
497.312	2835.44
497.529	2770.44
497.746	2816.44
497.963	3337.44
498.181	3807.44
498.398	3520.44
498.615	3404.44
498.832	3334.44
499.049	3285.44
499.267	3319.44
499.484	3520.44
499.701	3724.44
499.918	3795.44
500.135	4098.44
500.352	4460.44
500.569	4387.44
500.786	4673.44
501.003	4300.44
501.22	3897.44
501.437	3780.44
501.654	3800.44
501.871	3664.44
502.088	3306.44
502.305	3284.44
502.522	3169.44
502.739	2934.44
502.956	2855.44
503.172	2854.44
503.389	2750.44
503.606	2690.44
503.823	2740.44
504.04	2787.44
504.256	2704.44
504.473	2712.44
504.69	2860.44
504.907	2678.44
505.123	2560.44
505.34	2699.44
505.557	3526.44
505.773	2976.44
505.99	2439.44
506.207	2355.44
506.423	2337.44
506.64	2280.44
506.856	2306.44
507.073	2643.44
507.289	2853.44
507.506	2710.44
507.722	2341.44
507.939	2215.44
508.155	2264.44
508.372	2276.44
508.588	2177.44
508.805	2125.44
509.021	2086.44
509.238	2123.44
509.454	2086.44
509.67	2140.44
509.887	2084.44
510.103	2112.44
510.319	2105.44
510.536	2224.44
510.752	2320.44
510.968	2248.44
511.184	2388.44
511.401	2424.44
511.617	2087.44
511.833	2049.44
512.049	2071.44
512.265	2065.44
512.481	2007.44
512.698	2118.44
512.914	2260.44
513.13	2188.44
513.346	2061.44
513.562	1983.44
513.778	2020.44
513.994	2138.44
514.21	2233.44
514.426	2201.44
514.642	2513.44
514.858	2358.44
515.074	2153.44
515.29	2003.44
515.506	2156.44
515.721	2205.44
515.937	2174.44
516.153	2493.44
516.369	2392.44
516.585	2244.44
516.801	2158.44
517.016	2165.44
517.232	2172.44
517.448	2270.44
517.664	2256.44
517.879	2261.44
518.095	2404.44
518.311	2290.44
518.527	2165.44
518.742	2100.44
518.958	2053.44
519.173	2086.44
519.389	2082.44
519.605	2160.44
519.82	2102.44
520.036	2116.44
520.251	2072.44
520.467	2106.44
520.682	2300.44
520.898	2403.44
521.113	2102.44
521.329	2020.44
521.544	2229.44
521.76	2118.44
521.975	2026.44
522.19	1994.44
522.406	1987.44
522.621	2376.44
522.836	2384.44
523.052	1935.44
523.267	1975.44
523.482	2018.44
523.698	1915.44
523.913	1832.44
524.128	1910.44
524.343	2004.44
524.559	2052.44
524.774	1918.44
524.989	1865.44
525.204	1869.44
525.419	1839.44
525.634	1826.44
525.849	1894.44
526.064	1910.44
526.28	1930.44
526.495	1802.44
526.71	1852.44
526.925	1824.44
527.14	1840.44
527.355	1803.44
527.57	1766.44
527.785	1861.44
527.999	1798.44
528.214	1759.44
528.429	1717.44
528.644	1742.44
528.859	1799.44
529.074	1784.44
529.289	1792.44
529.503	1776.44
529.718	1824.44
529.933	1770.44
530.148	1728.44
530.363	1714.44
530.577	1716.44
530.792	1822.44
531.007	1800.44
531.221	1760.44
531.436	1824.44
531.651	1853.44
531.865	1934.44
532.08	1856.44
532.295	1753.44
532.509	1666.44
532.724	1702.44
532.938	1816.44
533.153	1917.44
533.367	1834.44
533.582	1778.44
533.796	1734.44
534.011	1774.44
534.225	1781.44
534.44	1744.44
534.654	1745.44
534.868	1713.44
535.083	1787.44
535.297	1805.44
535.511	1805.44
535.726	1777.44
535.94	1724.44
536.154	1725.44
536.369	1721.44
536.583	1690.44
536.797	1646.44
537.011	1743.44
537.225	1713.44
537.44	1638.44
537.654	1765.44
537.868	1671.44
538.082	1611.44
538.296	1575.44
538.51	1601.44
538.724	1585.44
538.938	1618.44
539.153	1687.44
539.367	1667.44
539.581	1647.44
539.795	1735.44
540.009	1724.44
540.222	1694.44
540.436	1680.44
540.65	1850.44
540.864	1884.44
541.078	1758.44
541.292	1621.44
541.506	1660.44
541.72	1648.44
541.934	1637.44
542.147	1724.44
542.361	1651.44
542.575	1611.44
542.789	1584.44
543.002	1549.44
543.216	1587.44
543.43	1704.44
543.644	1731.44
543.857	1766.44
544.071	1740.44
544.285	1712.44
544.498	1637.44
544.712	1674.44
544.925	1670.44
545.139	1716.44
545.352	1611.44
545.566	1542.44
545.779	1547.44
545.993	1612.44
546.206	1636.44
546.42	1581.44
546.633	1534.44
546.847	1512.44
547.06	1535.44
547.274	1555.44
547.487	1525.44
547.7	1556.44
547.914	1555.44
548.127	1583.44
548.34	1614.44
548.554	1551.44
548.767	1600.44
548.98	1536.44
549.193	1592.44
549.407	1650.44
549.62	1657.44
549.833	1586.44
550.046	1577.44
550.259	1563.44
550.473	1538.44
550.686	1559.44
550.899	1496.44
551.112	1479.44
551.325	1495.44
551.538	1573.44
551.751	1855.44
551.964	1490.44
552.177	1444.44
552.39	1530.44
552.603	1536.44
552.816	1584.44
553.029	1613.44
553.242	1626.44
553.455	1591.44
553.667	1557.44
553.88	1543.44
554.093	1503.44
554.306	1446.44
554.519	1450.44
554.732	1454.44
554.944	1470.44
555.157	1498.44
555.37	1436.44
555.583	1453.44
555.795	1409.44
556.008	1376.44
556.221	1382.44
556.433	1318.44
556.646	1320.44
556.859	1296.44
557.071	1298.44
557.284	1331.44
557.496	1323.44
557.709	1317.44
557.921	1307.44
558.134	1269.44
558.346	1298.44
558.559	1305.44
558.771	1323.44
558.984	1256.44
559.196	1225.44
559.409	1245.44
559.621	1263.44
559.833	1262.44
560.046	1290.44
560.258	1306.44
560.47	1280.44
560.683	1274.44
560.895	1244.44
561.107	1260.44
561.32	1283.44
561.532	1312.44
561.744	1300.44
561.956	1321.44
562.168	1263.44
562.381	1212.44
562.593	1219.44
562.805	1261.44
563.017	1212.44
563.229	1237.44
563.441	1267.44
563.653	1235.44
563.865	1242.44
564.077	1226.44
564.289	1257.44
564.501	1255.44
564.713	1283.44
564.925	1326.44
565.137	1426.44
565.349	1326.44
565.561	1306.44
565.773	1316.44
565.985	1344.44
566.197	1429.44
566.408	1516.44
566.62	1532.44
566.832	1531.44
567.044	1549.44
567.255	1534.44
567.467	1520.44
567.679	1581.44
567.891	1626.44
568.102	1594.44
568.314	1501.44
568.526	1448.44
568.737	1379.44
568.949	1337.44
569.161	1303.44
569.372	1235.44
569.584	1210.44
569.795	1214.44
570.007	1212.44
570.218	1139.44
570.43	1134.44
570.641	1143.44
570.853	1154.44
571.064	1120.44
571.276	1105.44
571.487	1093.44
571.698	1073.44
571.91	1053.44
572.121	1024.44
572.333	1034.44
572.544	1042.44
572.755	989.44
572.966	1001.44
573.178	987.44
573.389	997.44
573.6	1054.44
573.811	1134.44
574.023	1026.44
574.234	983.44
574.445	972.44
574.656	940.44
574.867	944.44
575.078	979.44
575.289	950.44
575.501	950.44
575.712	934.44
575.923	938.44
576.134	963.44
576.345	959.44
576.556	937.44
576.767	906.44
576.978	885.44
577.188	890.44
577.399	887.44
577.61	890.44
577.821	865.44
578.032	872.44
578.243	874.44
578.454	857.44
578.665	877.44
578.875	862.44
579.086	877.44
579.297	842.44
579.508	901.44
579.718	855.44
579.929	854.44
580.14	866.44
580.35	839.44
580.561	889.44
580.772	936.44
580.982	879.44
581.193	838.44
581.403	824.44
581.614	809.44
581.825	802.44
582.035	829.44
582.246	797.44
582.456	817.44
582.667	837.44
582.877	815.44
583.087	795.44
583.298	772.44
583.508	816.44
583.719	787.44
583.929	779.44
584.139	812.44
584.35	791.44
584.56	799.44
584.77	787.44
584.981	771.44
585.191	788.44
585.401	829.44
585.611	784.44
585.821	779.44
586.032	781.44
586.242	764.44
586.452	766.44
586.662	781.44
586.872	784.44
587.082	784.44
587.292	817.44
587.502	826.44
587.713	790.44
587.923	767.44
588.133	787.44
588.343	770.44
588.553	782.44
588.762	785.44
588.972	798.44
589.182	798.44
589.392	776.44
589.602	778.44
589.812	781.44
590.022	753.44
590.232	724.44
590.441	774.44
590.651	767.44
590.861	752.44
591.071	727.44
591.281	742.44
591.49	737.44
591.7	767.44
591.91	744.44
592.119	764.44
592.329	754.44
592.539	776.44
592.748	786.44
592.958	792.44
593.167	790.44
593.377	776.44
593.587	834.44
593.796	792.44
594.006	782.44
594.215	807.44
594.424	778.44
594.634	779.44
594.843	784.44
595.053	798.44
595.262	768.44
595.472	745.44
595.681	757.44
595.89	729.44
596.1	705.44
596.309	694.44
596.518	702.44
596.727	697.44
596.937	696.44
597.146	692.44
597.355	656.44
597.564	674.44
597.774	660.44
597.983	647.44
598.192	650.44
598.401	648.44
598.61	679.44
598.819	653.44
599.028	647.44
599.237	648.44
599.446	640.44
599.655	641.44
599.864	612.44
600.073	601.44
600.282	621.44
600.491	616.44
600.7	608.44
600.909	605.44
601.118	620.44
601.327	618.44
601.536	638.44
601.745	606.44
601.953	589.44
602.162	623.44
602.371	638.44
602.58	625.44
602.789	612.44
602.997	589.44
603.206	605.44
603.415	590.44
603.623	582.44
603.832	612.44
604.041	610.44
604.249	594.44
604.458	605.44
604.666	625.44
604.875	577.44
605.084	594.44
605.292	599.44
605.501	562.44
605.709	590.44
605.918	562.44
606.126	574.44
606.334	589.44
606.543	570.44
606.751	572.44
606.96	567.44
607.168	570.44
607.376	559.44
607.585	566.44
607.793	553.44
608.001	578.44
608.21	573.44
608.418	548.44
608.626	568.44
608.834	554.44
609.043	536.44
609.251	558.44
609.459	576.44
609.667	580.44
609.875	571.44
610.083	563.44
610.291	570.44
610.499	569.44
610.707	542.44
610.916	535.44
611.124	540.44
611.332	547.44
611.54	552.44
611.748	541.44
611.955	523.44
612.163	533.44
612.371	521.44
612.579	547.44
612.787	530.44
612.995	529.44
613.203	537.44
613.411	526.44
613.618	557.44
613.826	517.44
614.034	536.44
614.242	509.44
614.449	529.44
614.657	524.44
614.865	521.44
615.072	532.44
615.28	526.44
615.488	532.44
615.695	547.44
615.903	545.44
616.111	533.44
616.318	528.44
616.526	523.44
616.733	505.44
616.941	497.44
617.148	533.44
617.356	528.44
617.563	520.44
617.771	538.44
617.978	533.44
618.185	528.44
618.393	502.44
618.6	508.44
618.807	518.44
619.015	513.44
619.222	498.44
619.429	479.44
619.637	491.44
619.844	489.44
620.051	484.44
620.258	501.44
620.466	474.44
620.673	468.44
620.88	440.44
621.087	472.44
621.294	471.44
621.501	470.44
621.708	476.44
621.915	464.44
622.122	473.44
622.329	496.44
622.536	472.44
622.743	455.44
622.95	471.44
623.157	495.44
623.364	458.44
623.571	468.44
623.778	467.44
623.985	469.44
624.192	470.44
624.399	486.44
624.606	462.44
624.812	444.44
625.019	434.44
625.226	458.44
625.433	458.44
625.639	454.44
625.846	423.44
626.053	422.44
626.259	444.44
626.466	417.44
626.673	418.44
626.879	421.44
627.086	417.44
627.293	400.44
627.499	437.44
627.706	434.44
627.912	433.44
628.119	404.44
628.325	425.44
628.532	409.44
628.738	415.44
628.945	434.44
629.151	392.44
629.357	418.44
629.564	412.44
629.77	411.44
629.976	415.44
630.183	393.44
630.389	404.44
630.595	407.44
630.802	402.44
631.008	416.44
631.214	362.44
631.42	367.44
631.627	374.44
631.833	376.44
632.039	364.44
632.245	397.44
632.451	378.44
632.657	369.44
632.863	365.44
633.069	377.44
633.275	390.44
633.481	358.44
633.688	372.44
633.893	374.44
634.099	345.44
634.305	361.44
634.511	369.44
634.717	362.44
634.923	366.44
635.129	364.44
635.335	339.44
635.541	342.44
635.747	366.44
635.952	352.44
636.158	364.44
636.364	370.44
636.57	349.44
636.775	369.44
636.981	351.44
637.187	351.44
637.392	347.44
637.598	368.44
637.804	354.44
638.009	362.44
638.215	348.44
638.421	343.44
638.626	350.44
638.832	360.44
639.037	357.44
639.243	342.44
639.448	330.44
639.654	327.44
639.859	330.44
640.065	342.44
640.27	340.44
640.475	346.44
640.681	334.44
640.886	346.44
641.091	341.44
641.297	348.44
641.502	342.44
641.707	333.44
641.913	354.44
642.118	333.44
642.323	328.44
642.528	328.44
642.733	320.44
642.939	315.44
643.144	327.44
643.349	334.44
643.554	334.44
643.759	310.44
643.964	330.44
644.169	312.44
644.374	300.44
644.579	321.44
644.784	322.44
644.989	295.44
645.194	315.44
645.399	318.44
645.604	314.44
645.809	320.44
646.014	340.44
646.219	322.44
646.423	309.44
646.628	316.44
646.833	326.44
647.038	316.44
647.243	320.44
647.447	324.44
647.652	321.44
647.857	320.44
648.062	312.44
648.266	305.44
648.471	319.44
648.676	327.44
648.88	320.44
649.085	319.44
649.289	321.44
649.494	308.44
649.698	311.44
649.903	300.44
650.107	316.44
650.312	304.44
650.516	309.44
650.721	281.44
650.925	276.44
651.13	284.44
651.334	278.44
651.539	300.44
651.743	276.44
651.947	277.44
652.152	282.44
652.356	281.44
652.56	261.44
652.764	262.44
652.969	264.44
653.173	261.44
653.377	256.44
653.581	246.44
653.785	246.44
653.99	249.44
654.194	274.44
654.398	258.44
654.602	240.44
654.806	240.44
655.01	254.44
655.214	248.44
655.418	254.44
655.622	257.44
655.826	246.44
656.03	264.44
656.234	266.44
656.438	275.44
656.642	272.44
656.846	262.44
657.049	238.44
657.253	224.44
657.457	201.44
657.661	201.44
657.865	194.44
658.068	184.44
658.272	169.44
658.476	148.44
658.68	170.44
658.883	137.44
659.087	137.44
659.291	157.44
659.494	126.44
659.698	135.44
659.901	131.44
660.105	112.44
660.309	134.44
660.512	126.44
660.716	108.44
660.919	119.44
661.123	120.44
661.326	120.44
661.53	119.44
661.733	102.44
661.936	101.44
662.14	87.44
662.343	97.44
662.546	103.44
662.75	82.44
662.953	102.44
663.156	84.44
663.36	84.44
663.563	88.44
663.766	82.44
663.969	81.44
664.173	84.44
664.376	88.44
664.579	67.44
664.782	97.44
664.985	82.44
665.188	88.44
665.391	86.44
665.594	87.44
665.797	67.44
666	77.44
666.203	79.44
666.406	80.44
666.609	94.44
666.812	75.44
667.015	78.44
667.218	80.44
667.421	83.44
667.624	84.44
667.827	83.44
668.03	82.44
668.232	87.44
668.435	82.44
668.638	81.44
668.841	98.44
669.043	86.44
669.246	77.44
669.449	77.44
669.651	83.44
669.854	77.44
670.057	77.44
670.259	78.44
670.462	93.44
670.665	73.44
670.867	89.44
671.07	77.44
671.272	85.44
671.475	77.44
671.677	71.44
671.88	70.44
672.082	68.44
672.284	78.44
672.487	69.44
672.689	75.44
672.892	76.44
