Data from WStandard_LampEnergy8_LIBS07252019.E.O._I.C._HRD10591_16-00-20-929.txt Node
Date: Thu Jul 25 16:00:20 EDT 2019
User: cochatt
Spectrometer: HR+D1059
Trigger mode: 1
Integration Time (sec): 1.000000E-1
Scans to average: 1
Electric dark correction enabled: true
Nonlinearity correction enabled: false
Boxcar width: 0
XAxis mode: Wavelengths
Number of Pixels in Spectrum: 2048
>>>>>Begin Spectral Data<<<<<
223.165	-13.56
223.4	-13.56
223.635	-13.56
223.869	-17.56
224.104	-19.56
224.338	-14.56
224.573	-3.56
224.808	-11.56
225.042	-11.56
225.277	-18.56
225.511	6.44
225.746	14.44
225.98	5.44
226.215	8.44
226.449	20.44
226.683	6.44
226.918	18.44
227.152	30.44
227.387	35.44
227.621	20.44
227.856	40.44
228.09	60.44
228.324	46.44
228.559	43.44
228.793	94.44
229.027	197.44
229.262	211.44
229.496	199.44
229.73	210.44
229.964	242.44
230.199	260.44
230.433	242.44
230.667	266.44
230.901	279.44
231.136	270.44
231.37	267.44
231.604	270.44
231.838	251.44
232.072	259.44
232.306	256.44
232.541	265.44
232.775	286.44
233.009	310.44
233.243	290.44
233.477	284.44
233.711	284.44
233.945	294.44
234.179	293.44
234.413	322.44
234.647	331.44
234.881	322.44
235.115	281.44
235.349	298.44
235.583	297.44
235.817	291.44
236.051	283.44
236.285	297.44
236.519	324.44
236.753	343.44
236.987	353.44
237.221	343.44
237.455	366.44
237.689	349.44
237.922	335.44
238.156	332.44
238.39	339.44
238.624	364.44
238.858	350.44
239.091	388.44
239.325	396.44
239.559	445.44
239.793	477.44
240.027	512.44
240.26	472.44
240.494	366.44
240.728	360.44
240.961	382.44
241.195	379.44
241.429	403.44
241.662	401.44
241.896	380.44
242.13	392.44
242.363	421.44
242.597	440.44
242.83	453.44
243.064	454.44
243.298	466.44
243.531	442.44
243.765	458.44
243.998	449.44
244.232	405.44
244.465	379.44
244.699	406.44
244.932	456.44
245.166	517.44
245.399	479.44
245.633	444.44
245.866	441.44
246.099	455.44
246.333	470.44
246.566	473.44
246.8	523.44
247.033	560.44
247.266	530.44
247.5	517.44
247.733	526.44
247.966	554.44
248.2	577.44
248.433	583.44
248.666	598.44
248.899	648.44
249.133	725.44
249.366	796.44
249.599	658.44
249.832	592.44
250.066	613.44
250.299	605.44
250.532	535.44
250.765	523.44
250.998	570.44
251.231	580.44
251.465	588.44
251.698	564.44
251.931	546.44
252.164	564.44
252.397	621.44
252.63	600.44
252.863	520.44
253.096	544.44
253.329	567.44
253.562	571.44
253.795	592.44
254.028	575.44
254.261	570.44
254.494	571.44
254.727	534.44
254.96	549.44
255.193	628.44
255.426	702.44
255.659	767.44
255.892	780.44
256.124	669.44
256.357	624.44
256.59	665.44
256.823	686.44
257.056	690.44
257.289	790.44
257.521	871.44
257.754	790.44
257.987	744.44
258.22	804.44
258.452	781.44
258.685	650.44
258.918	665.44
259.151	648.44
259.383	616.44
259.616	572.44
259.849	603.44
260.081	673.44
260.314	730.44
260.547	788.44
260.779	785.44
261.012	754.44
261.244	679.44
261.477	640.44
261.71	665.44
261.942	661.44
262.175	642.44
262.407	663.44
262.64	634.44
262.872	618.44
263.105	605.44
263.337	613.44
263.57	612.44
263.802	624.44
264.035	572.44
264.267	562.44
264.499	546.44
264.732	589.44
264.964	661.44
265.197	649.44
265.429	711.44
265.661	776.44
265.894	821.44
266.126	830.44
266.358	744.44
266.591	778.44
266.823	813.44
267.055	761.44
267.287	761.44
267.52	756.44
267.752	743.44
267.984	738.44
268.216	782.44
268.448	787.44
268.681	771.44
268.913	688.44
269.145	682.44
269.377	682.44
269.609	734.44
269.841	885.44
270.073	957.44
270.306	1068.44
270.538	1074.44
270.77	936.44
271.002	788.44
271.234	770.44
271.466	808.44
271.698	887.44
271.93	1011.44
272.162	997.44
272.394	908.44
272.626	840.44
272.858	760.44
273.09	692.44
273.322	688.44
273.553	661.44
273.785	670.44
274.017	690.44
274.249	741.44
274.481	734.44
274.713	688.44
274.945	680.44
275.176	695.44
275.408	677.44
275.64	681.44
275.872	660.44
276.104	724.44
276.335	827.44
276.567	878.44
276.799	876.44
277.031	825.44
277.262	790.44
277.494	810.44
277.726	875.44
277.957	851.44
278.189	768.44
278.421	723.44
278.652	722.44
278.884	722.44
279.115	726.44
279.347	724.44
279.579	705.44
279.81	737.44
280.042	787.44
280.273	835.44
280.505	840.44
280.736	818.44
280.968	810.44
281.199	717.44
281.431	706.44
281.662	729.44
281.894	696.44
282.125	706.44
282.356	756.44
282.588	737.44
282.819	754.44
283.051	816.44
283.282	845.44
283.513	835.44
283.745	732.44
283.976	710.44
284.207	708.44
284.439	728.44
284.67	729.44
284.901	756.44
285.132	775.44
285.364	773.44
285.595	755.44
285.826	734.44
286.057	725.44
286.288	736.44
286.52	792.44
286.751	814.44
286.982	853.44
287.213	757.44
287.444	721.44
287.675	723.44
287.906	780.44
288.138	822.44
288.369	774.44
288.6	768.44
288.831	720.44
289.062	734.44
289.293	750.44
289.524	757.44
289.755	759.44
289.986	774.44
290.217	693.44
290.448	734.44
290.679	757.44
290.91	769.44
291.141	789.44
291.371	818.44
291.602	794.44
291.833	803.44
292.064	801.44
292.295	797.44
292.526	810.44
292.757	820.44
292.987	817.44
293.218	796.44
293.449	857.44
293.68	932.44
293.91	972.44
294.141	924.44
294.372	918.44
294.603	950.44
294.833	948.44
295.064	889.44
295.295	792.44
295.525	778.44
295.756	744.44
295.987	723.44
296.217	732.44
296.448	743.44
296.679	756.44
296.909	778.44
297.14	754.44
297.37	767.44
297.601	819.44
297.831	855.44
298.062	854.44
298.292	775.44
298.523	770.44
298.753	769.44
298.984	762.44
299.214	736.44
299.445	772.44
299.675	825.44
299.905	816.44
300.136	799.44
300.366	758.44
300.597	752.44
300.827	782.44
301.057	813.44
301.288	828.44
301.518	845.44
301.748	837.44
301.979	889.44
302.209	891.44
302.439	940.44
302.669	953.44
302.9	926.44
303.13	804.44
303.36	844.44
303.59	819.44
303.82	810.44
304.051	820.44
304.281	842.44
304.511	906.44
304.741	898.44
304.971	1021.44
305.201	1044.44
305.431	966.44
305.661	800.44
305.891	722.44
306.121	759.44
306.352	796.44
306.582	818.44
306.812	901.44
307.042	940.44
307.272	939.44
307.502	963.44
307.731	1023.44
307.961	1047.44
308.191	986.44
308.421	861.44
308.651	849.44
308.881	811.44
309.111	808.44
309.341	809.44
309.571	820.44
309.8	824.44
310.03	749.44
310.26	770.44
310.49	829.44
310.72	850.44
310.949	871.44
311.179	860.44
311.409	854.44
311.639	846.44
311.868	832.44
312.098	808.44
312.328	808.44
312.557	826.44
312.787	863.44
313.017	873.44
313.246	828.44
313.476	882.44
313.706	877.44
313.935	864.44
314.165	900.44
314.394	903.44
314.624	942.44
314.853	994.44
315.083	1026.44
315.312	1018.44
315.542	960.44
315.771	871.44
316.001	891.44
316.23	938.44
316.46	920.44
316.689	903.44
316.919	850.44
317.148	840.44
317.377	900.44
317.607	953.44
317.836	1028.44
318.065	1054.44
318.295	1012.44
318.524	970.44
318.753	922.44
318.983	922.44
319.212	888.44
319.441	893.44
319.67	872.44
319.9	914.44
320.129	968.44
320.358	1005.44
320.587	1009.44
320.816	1034.44
321.046	1001.44
321.275	954.44
321.504	951.44
321.733	1005.44
321.962	998.44
322.191	923.44
322.42	908.44
322.649	909.44
322.878	893.44
323.108	916.44
323.337	919.44
323.566	935.44
323.795	918.44
324.024	940.44
324.253	900.44
324.482	916.44
324.71	886.44
324.939	849.44
325.168	883.44
325.397	896.44
325.626	934.44
325.855	914.44
326.084	922.44
326.313	924.44
326.542	946.44
326.77	920.44
326.999	927.44
327.228	912.44
327.457	868.44
327.686	883.44
327.914	882.44
328.143	964.44
328.372	925.44
328.6	918.44
328.829	920.44
329.058	880.44
329.287	923.44
329.515	902.44
329.744	946.44
329.972	982.44
330.201	966.44
330.43	985.44
330.658	977.44
330.887	962.44
331.115	971.44
331.344	1001.44
331.572	930.44
331.801	956.44
332.03	960.44
332.258	963.44
332.486	963.44
332.715	990.44
332.943	990.44
333.172	970.44
333.4	1013.44
333.629	1013.44
333.857	1096.44
334.085	1213.44
334.314	1322.44
334.542	1368.44
334.771	1276.44
334.999	1105.44
335.227	1073.44
335.455	1034.44
335.684	1043.44
335.912	1056.44
336.14	1098.44
336.369	1054.44
336.597	983.44
336.825	980.44
337.053	1015.44
337.281	1109.44
337.51	1124.44
337.738	1152.44
337.966	1056.44
338.194	971.44
338.422	988.44
338.65	953.44
338.878	960.44
339.106	902.44
339.334	924.44
339.562	900.44
339.79	924.44
340.018	986.44
340.246	1010.44
340.474	1053.44
340.702	1020.44
340.93	1038.44
341.158	981.44
341.386	977.44
341.614	984.44
341.842	958.44
342.07	969.44
342.298	967.44
342.526	995.44
342.754	962.44
342.981	950.44
343.209	949.44
343.437	946.44
343.665	957.44
343.893	988.44
344.12	1011.44
344.348	1012.44
344.576	974.44
344.804	962.44
345.031	926.44
345.259	920.44
345.487	942.44
345.714	893.44
345.942	873.44
346.17	911.44
346.397	906.44
346.625	945.44
346.853	882.44
347.08	856.44
347.308	890.44
347.535	904.44
347.763	929.44
347.99	886.44
348.218	861.44
348.445	910.44
348.673	908.44
348.9	931.44
349.128	973.44
349.355	991.44
349.583	949.44
349.81	888.44
350.037	857.44
350.265	830.44
350.492	857.44
350.72	900.44
350.947	930.44
351.174	922.44
351.402	889.44
351.629	838.44
351.856	832.44
352.083	860.44
352.311	873.44
352.538	900.44
352.765	926.44
352.992	890.44
353.22	880.44
353.447	873.44
353.674	902.44
353.901	896.44
354.128	864.44
354.355	892.44
354.583	916.44
354.81	977.44
355.037	944.44
355.264	926.44
355.491	920.44
355.718	904.44
355.945	907.44
356.172	869.44
356.399	870.44
356.626	874.44
356.853	950.44
357.08	998.44
357.307	1075.44
357.534	1008.44
357.761	921.44
357.988	873.44
358.215	874.44
358.441	853.44
358.668	864.44
358.895	894.44
359.122	967.44
359.349	1037.44
359.576	1000.44
359.802	912.44
360.029	883.44
360.256	875.44
360.483	898.44
360.709	908.44
360.936	943.44
361.163	976.44
361.39	1088.44
361.616	1129.44
361.843	1122.44
362.07	1052.44
362.296	917.44
362.523	902.44
362.749	925.44
362.976	925.44
363.203	916.44
363.429	901.44
363.656	881.44
363.882	937.44
364.109	1028.44
364.335	1072.44
364.562	987.44
364.788	937.44
365.015	893.44
365.241	875.44
365.468	946.44
365.694	944.44
365.92	971.44
366.147	907.44
366.373	874.44
366.599	862.44
366.826	869.44
367.052	904.44
367.278	888.44
367.505	923.44
367.731	931.44
367.957	958.44
368.184	988.44
368.41	1032.44
368.636	1003.44
368.862	1042.44
369.089	1044.44
369.315	999.44
369.541	944.44
369.767	928.44
369.993	906.44
370.219	905.44
370.445	929.44
370.672	1031.44
370.898	1034.44
371.124	1022.44
371.35	953.44
371.576	1000.44
371.802	1024.44
372.028	985.44
372.254	953.44
372.48	934.44
372.706	924.44
372.932	917.44
373.158	984.44
373.384	969.44
373.61	982.44
373.835	1024.44
374.061	997.44
374.287	962.44
374.513	1007.44
374.739	986.44
374.965	985.44
375.191	998.44
375.416	997.44
375.642	1038.44
375.868	1070.44
376.094	1094.44
376.319	1033.44
376.545	991.44
376.771	989.44
376.997	1062.44
377.222	1027.44
377.448	1023.44
377.674	1006.44
377.899	1000.44
378.125	1079.44
378.35	1093.44
378.576	974.44
378.802	929.44
379.027	958.44
379.253	958.44
379.478	970.44
379.704	967.44
379.929	953.44
380.155	957.44
380.38	998.44
380.606	989.44
380.831	1005.44
381.057	1067.44
381.282	1034.44
381.507	1033.44
381.733	1106.44
381.958	1132.44
382.184	1035.44
382.409	1004.44
382.634	1001.44
382.86	1025.44
383.085	1030.44
383.31	1058.44
383.535	1158.44
383.761	1227.44
383.986	1114.44
384.211	1099.44
384.436	1101.44
384.662	1145.44
384.887	1173.44
385.112	1104.44
385.337	1131.44
385.562	1115.44
385.787	1109.44
386.013	1113.44
386.238	1121.44
386.463	1117.44
386.688	1190.44
386.913	1269.44
387.138	1238.44
387.363	1154.44
387.588	1145.44
387.813	1152.44
388.038	1161.44
388.263	1170.44
388.488	1146.44
388.713	1049.44
388.938	1059.44
389.163	1050.44
389.387	1099.44
389.612	1117.44
389.837	1123.44
390.062	1102.44
390.287	1111.44
390.512	1095.44
390.736	1126.44
390.961	1054.44
391.186	1064.44
391.411	1069.44
391.636	1072.44
391.86	1114.44
392.085	1120.44
392.31	1107.44
392.534	1088.44
392.759	1128.44
392.984	1131.44
393.208	1115.44
393.433	1158.44
393.658	1192.44
393.882	1193.44
394.107	1126.44
394.331	1098.44
394.556	1113.44
394.78	1172.44
395.005	1178.44
395.229	1213.44
395.454	1250.44
395.678	1259.44
395.903	1225.44
396.127	1156.44
396.352	1197.44
396.576	1285.44
396.801	1237.44
397.025	1247.44
397.249	1181.44
397.474	1230.44
397.698	1197.44
397.922	1251.44
398.147	1283.44
398.371	1355.44
398.595	1293.44
398.82	1270.44
399.044	1277.44
399.268	1334.44
399.492	1451.44
399.717	1468.44
399.941	1472.44
400.165	1461.44
400.389	1421.44
400.613	1416.44
400.837	1622.44
401.062	1749.44
401.286	1466.44
401.51	1406.44
401.734	1428.44
401.958	1348.44
402.182	1302.44
402.406	1254.44
402.63	1273.44
402.854	1218.44
403.078	1265.44
403.302	1296.44
403.526	1320.44
403.75	1320.44
403.974	1320.44
404.198	1321.44
404.422	1400.44
404.645	1426.44
404.869	1419.44
405.093	1296.44
405.317	1266.44
405.541	1311.44
405.765	1357.44
405.988	1370.44
406.212	1363.44
406.436	1373.44
406.66	1432.44
406.883	1474.44
407.107	1644.44
407.331	1760.44
407.555	1874.44
407.778	1657.44
408.002	1426.44
408.226	1375.44
408.449	1400.44
408.673	1350.44
408.896	1337.44
409.12	1394.44
409.344	1352.44
409.567	1302.44
409.791	1347.44
410.014	1381.44
410.238	1416.44
410.461	1540.44
410.685	1352.44
410.908	1311.44
411.132	1317.44
411.355	1344.44
411.578	1260.44
411.802	1308.44
412.025	1349.44
412.249	1315.44
412.472	1259.44
412.695	1257.44
412.919	1270.44
413.142	1279.44
413.365	1252.44
413.589	1332.44
413.812	1349.44
414.035	1422.44
414.258	1330.44
414.482	1256.44
414.705	1265.44
414.928	1282.44
415.151	1271.44
415.374	1257.44
415.597	1317.44
415.821	1308.44
416.044	1347.44
416.267	1316.44
416.49	1245.44
416.713	1254.44
416.936	1321.44
417.159	1366.44
417.382	1319.44
417.605	1274.44
417.828	1334.44
418.051	1313.44
418.274	1273.44
418.497	1262.44
418.72	1268.44
418.943	1279.44
419.166	1311.44
419.389	1352.44
419.611	1269.44
419.834	1299.44
420.057	1270.44
420.28	1246.44
420.503	1258.44
420.726	1312.44
420.948	1279.44
421.171	1230.44
421.394	1264.44
421.617	1298.44
421.839	1275.44
422.062	1303.44
422.285	1249.44
422.507	1258.44
422.73	1246.44
422.953	1198.44
423.175	1198.44
423.398	1268.44
423.621	1247.44
423.843	1277.44
424.066	1286.44
424.288	1336.44
424.511	1369.44
424.733	1344.44
424.956	1237.44
425.178	1234.44
425.401	1230.44
425.623	1261.44
425.846	1269.44
426.068	1292.44
426.291	1305.44
426.513	1264.44
426.735	1314.44
426.958	1419.44
427.18	1438.44
427.402	1348.44
427.625	1383.44
427.847	1357.44
428.069	1255.44
428.292	1223.44
428.514	1225.44
428.736	1200.44
428.958	1256.44
429.181	1268.44
429.403	1437.44
429.625	1705.44
429.847	1427.44
430.069	1299.44
430.292	1429.44
430.514	1419.44
430.736	1309.44
430.958	1341.44
431.18	1268.44
431.402	1213.44
431.624	1165.44
431.846	1181.44
432.068	1144.44
432.29	1127.44
432.512	1158.44
432.734	1226.44
432.956	1242.44
433.178	1289.44
433.4	1290.44
433.622	1290.44
433.844	1229.44
434.066	1186.44
434.287	1164.44
434.509	1152.44
434.731	1276.44
434.953	1313.44
435.175	1319.44
435.397	1213.44
435.618	1234.44
435.84	1214.44
436.062	1181.44
436.284	1227.44
436.505	1260.44
436.727	1266.44
436.949	1259.44
437.17	1217.44
437.392	1217.44
437.614	1201.44
437.835	1158.44
438.057	1223.44
438.278	1238.44
438.5	1209.44
438.721	1189.44
438.943	1227.44
439.165	1200.44
439.386	1183.44
439.608	1201.44
439.829	1212.44
440.05	1250.44
440.272	1218.44
440.493	1248.44
440.715	1268.44
440.936	1351.44
441.158	1424.44
441.379	1378.44
441.6	1324.44
441.822	1324.44
442.043	1301.44
442.264	1312.44
442.486	1228.44
442.707	1213.44
442.928	1241.44
443.149	1293.44
443.371	1344.44
443.592	1351.44
443.813	1333.44
444.034	1321.44
444.255	1332.44
444.476	1345.44
444.698	1371.44
444.919	1384.44
445.14	1465.44
445.361	1405.44
445.582	1436.44
445.803	1387.44
446.024	1321.44
446.245	1367.44
446.466	1368.44
446.687	1315.44
446.908	1334.44
447.129	1302.44
447.35	1269.44
447.571	1260.44
447.792	1202.44
448.013	1224.44
448.234	1225.44
448.455	1309.44
448.675	1302.44
448.896	1180.44
449.117	1173.44
449.338	1200.44
449.559	1264.44
449.779	1286.44
450	1404.44
450.221	1460.44
450.442	1376.44
450.662	1234.44
450.883	1142.44
451.104	1120.44
451.324	1152.44
451.545	1187.44
451.766	1164.44
451.986	1142.44
452.207	1090.44
452.428	1075.44
452.648	1109.44
452.869	1085.44
453.089	1122.44
453.31	1120.44
453.53	1134.44
453.751	1078.44
453.971	1028.44
454.192	1074.44
454.412	1150.44
454.633	1115.44
454.853	1084.44
455.073	1066.44
455.294	1035.44
455.514	1070.44
455.734	1061.44
455.955	1069.44
456.175	1053.44
456.395	1081.44
456.616	1074.44
456.836	1109.44
457.056	1029.44
457.276	1041.44
457.497	1012.44
457.717	1001.44
457.937	1034.44
458.157	1066.44
458.377	1032.44
458.598	996.44
458.818	1028.44
459.038	1059.44
459.258	1116.44
459.478	1101.44
459.698	1108.44
459.918	1103.44
460.138	1189.44
460.358	1220.44
460.578	1205.44
460.798	1260.44
461.018	1330.44
461.238	1272.44
461.458	1228.44
461.678	1229.44
461.898	1220.44
462.118	1179.44
462.338	1236.44
462.558	1214.44
462.777	1229.44
462.997	1277.44
463.217	1321.44
463.437	1308.44
463.657	1269.44
463.876	1243.44
464.096	1260.44
464.316	1222.44
464.536	1272.44
464.755	1309.44
464.975	1250.44
465.195	1253.44
465.414	1286.44
465.634	1269.44
465.854	1267.44
466.073	1349.44
466.293	1323.44
466.512	1217.44
466.732	1187.44
466.951	1226.44
467.171	1211.44
467.391	1158.44
467.61	1153.44
467.829	1217.44
468.049	1318.44
468.268	1404.44
468.488	1274.44
468.707	1202.44
468.927	1200.44
469.146	1163.44
469.365	1165.44
469.585	1209.44
469.804	1190.44
470.023	1225.44
470.243	1186.44
470.462	1179.44
470.681	1208.44
470.901	1175.44
471.12	1227.44
471.339	1212.44
471.558	1161.44
471.777	1169.44
471.997	1192.44
472.216	1166.44
472.435	1088.44
472.654	1095.44
472.873	1140.44
473.092	1262.44
473.311	1162.44
473.53	1114.44
473.749	1108.44
473.968	1161.44
474.187	1192.44
474.406	1235.44
474.625	1184.44
474.844	1202.44
475.063	1191.44
475.282	1214.44
475.501	1163.44
475.72	1170.44
475.939	1246.44
476.158	1204.44
476.377	1147.44
476.596	1182.44
476.814	1176.44
477.033	1199.44
477.252	1244.44
477.471	1300.44
477.69	1266.44
477.908	1244.44
478.127	1321.44
478.346	1389.44
478.564	1389.44
478.783	1386.44
479.002	1409.44
479.22	1384.44
479.439	1460.44
479.658	1527.44
479.876	1473.44
480.095	1366.44
480.313	1300.44
480.532	1252.44
480.751	1257.44
480.969	1283.44
481.188	1248.44
481.406	1193.44
481.624	1209.44
481.843	1214.44
482.061	1258.44
482.28	1288.44
482.498	1309.44
482.717	1290.44
482.935	1280.44
483.153	1355.44
483.372	1340.44
483.59	1336.44
483.808	1337.44
484.027	1353.44
484.245	1420.44
484.463	1703.44
484.681	1817.44
484.9	1432.44
485.118	1385.44
485.336	1312.44
485.554	1337.44
485.772	1348.44
485.99	1351.44
486.209	1341.44
486.427	1316.44
486.645	1382.44
486.863	1433.44
487.081	1414.44
487.299	1436.44
487.517	1428.44
487.735	1421.44
487.953	1488.44
488.171	1466.44
488.389	1442.44
488.607	1417.44
488.825	1586.44
489.043	1491.44
489.261	1361.44
489.479	1438.44
489.696	1440.44
489.914	1408.44
490.132	1433.44
490.35	1408.44
490.568	1490.44
490.786	1449.44
491.003	1425.44
491.221	1505.44
491.439	1560.44
491.657	1548.44
491.874	1609.44
492.092	1640.44
492.31	1671.44
492.527	1624.44
492.745	1572.44
492.963	1544.44
493.18	1601.44
493.398	1663.44
493.615	1641.44
493.833	1580.44
494.05	1515.44
494.268	1548.44
494.485	1572.44
494.703	1553.44
494.92	1517.44
495.138	1508.44
495.355	1545.44
495.573	1589.44
495.79	1645.44
496.008	1643.44
496.225	1589.44
496.442	1577.44
496.66	1580.44
496.877	1545.44
497.094	1628.44
497.312	1606.44
497.529	1572.44
497.746	1613.44
497.963	1828.44
498.181	1950.44
498.398	1846.44
498.615	1762.44
498.832	1700.44
499.049	1692.44
499.267	1703.44
499.484	1859.44
499.701	1982.44
499.918	1998.44
500.135	2161.44
500.352	2289.44
500.569	2284.44
500.786	2445.44
501.003	2228.44
501.22	2088.44
501.437	2011.44
501.654	2061.44
501.871	1949.44
502.088	1687.44
502.305	1717.44
502.522	1658.44
502.739	1571.44
502.956	1579.44
503.172	1493.44
503.389	1460.44
503.606	1442.44
503.823	1450.44
504.04	1441.44
504.256	1450.44
504.473	1469.44
504.69	1509.44
504.907	1449.44
505.123	1369.44
505.34	1540.44
505.557	1968.44
505.773	1578.44
505.99	1357.44
506.207	1256.44
506.423	1254.44
506.64	1271.44
506.856	1265.44
507.073	1475.44
507.289	1572.44
507.506	1494.44
507.722	1266.44
507.939	1196.44
508.155	1256.44
508.372	1230.44
508.588	1201.44
508.805	1156.44
509.021	1158.44
509.238	1128.44
509.454	1104.44
509.67	1125.44
509.887	1103.44
510.103	1102.44
510.319	1122.44
510.536	1194.44
510.752	1213.44
510.968	1186.44
511.184	1253.44
511.401	1221.44
511.617	1121.44
511.833	1050.44
512.049	1091.44
512.265	1060.44
512.481	1098.44
512.698	1144.44
512.914	1174.44
513.13	1136.44
513.346	1102.44
513.562	1082.44
513.778	1073.44
513.994	1133.44
514.21	1171.44
514.426	1209.44
514.642	1289.44
514.858	1210.44
515.074	1122.44
515.29	1089.44
515.506	1145.44
515.721	1141.44
515.937	1166.44
516.153	1278.44
516.369	1224.44
516.585	1164.44
516.801	1123.44
517.016	1156.44
517.232	1167.44
517.448	1177.44
517.664	1193.44
517.879	1176.44
518.095	1218.44
518.311	1180.44
518.527	1157.44
518.742	1143.44
518.958	1114.44
519.173	1122.44
519.389	1139.44
519.605	1150.44
519.82	1151.44
520.036	1157.44
520.251	1117.44
520.467	1140.44
520.682	1227.44
520.898	1224.44
521.113	1089.44
521.329	1096.44
521.544	1170.44
521.76	1102.44
521.975	1040.44
522.19	1064.44
522.406	1099.44
522.621	1357.44
522.836	1298.44
523.052	1082.44
523.267	1103.44
523.482	1088.44
523.698	1060.44
523.913	1029.44
524.128	1049.44
524.343	1100.44
524.559	1126.44
524.774	1097.44
524.989	1022.44
525.204	1048.44
525.419	1016.44
525.634	1032.44
525.849	1059.44
526.064	1070.44
526.28	1044.44
526.495	974.44
526.71	956.44
526.925	1021.44
527.14	970.44
527.355	980.44
527.57	967.44
527.785	992.44
527.999	981.44
528.214	985.44
528.429	970.44
528.644	1022.44
528.859	1022.44
529.074	1060.44
529.289	1111.44
529.503	1107.44
529.718	1050.44
529.933	998.44
530.148	958.44
530.363	950.44
530.577	976.44
530.792	958.44
531.007	955.44
531.221	962.44
531.436	966.44
531.651	1011.44
531.865	1042.44
532.08	989.44
532.295	971.44
532.509	908.44
532.724	955.44
532.938	968.44
533.153	1017.44
533.367	1018.44
533.582	1033.44
533.796	994.44
534.011	977.44
534.225	953.44
534.44	972.44
534.654	957.44
534.868	984.44
535.083	1013.44
535.297	1022.44
535.511	981.44
535.726	973.44
535.94	979.44
536.154	965.44
536.369	935.44
536.583	928.44
536.797	912.44
537.011	912.44
537.225	898.44
537.44	921.44
537.654	954.44
537.868	936.44
538.082	884.44
538.296	905.44
538.51	924.44
538.724	925.44
538.938	938.44
539.153	969.44
539.367	946.44
539.581	938.44
539.795	976.44
540.009	918.44
540.222	920.44
540.436	962.44
540.65	1039.44
540.864	1053.44
541.078	1038.44
541.292	1028.44
541.506	1052.44
541.72	1082.44
541.934	1115.44
542.147	1156.44
542.361	1114.44
542.575	1034.44
542.789	985.44
543.002	955.44
543.216	970.44
543.43	982.44
543.644	1053.44
543.857	1137.44
544.071	1080.44
544.285	1097.44
544.498	1056.44
544.712	1078.44
544.925	1100.44
545.139	1085.44
545.352	1070.44
545.566	1030.44
545.779	1022.44
545.993	1041.44
546.206	1087.44
546.42	1028.44
546.633	1051.44
546.847	1049.44
547.06	1063.44
547.274	1028.44
547.487	1037.44
547.7	1096.44
547.914	1076.44
548.127	1059.44
548.34	1050.44
548.554	1036.44
548.767	1062.44
548.98	1044.44
549.193	1028.44
549.407	1128.44
549.62	1093.44
549.833	1029.44
550.046	1041.44
550.259	1020.44
550.473	1013.44
550.686	1009.44
550.899	1016.44
551.112	970.44
551.325	932.44
551.538	1018.44
551.751	1098.44
551.964	910.44
552.177	892.44
552.39	921.44
552.603	970.44
552.816	1002.44
553.029	1044.44
553.242	1048.44
553.455	1012.44
553.667	999.44
553.88	1035.44
554.093	972.44
554.306	950.44
554.519	941.44
554.732	936.44
554.944	949.44
555.157	956.44
555.37	940.44
555.583	911.44
555.795	913.44
556.008	894.44
556.221	861.44
556.433	829.44
556.646	868.44
556.859	852.44
557.071	866.44
557.284	890.44
557.496	886.44
557.709	843.44
557.921	850.44
558.134	836.44
558.346	840.44
558.559	834.44
558.771	817.44
558.984	805.44
559.196	778.44
559.409	791.44
559.621	803.44
559.833	773.44
560.046	804.44
560.258	834.44
560.47	809.44
560.683	806.44
560.895	813.44
561.107	801.44
561.32	797.44
561.532	824.44
561.744	790.44
561.956	814.44
562.168	764.44
562.381	777.44
562.593	740.44
562.805	741.44
563.017	762.44
563.229	774.44
563.441	790.44
563.653	780.44
563.865	756.44
564.077	790.44
564.289	760.44
564.501	753.44
564.713	792.44
564.925	827.44
565.137	865.44
565.349	786.44
565.561	781.44
565.773	754.44
565.985	798.44
566.197	824.44
566.408	867.44
566.62	885.44
566.832	902.44
567.044	864.44
567.255	859.44
567.467	882.44
567.679	906.44
567.891	885.44
568.102	883.44
568.314	831.44
568.526	818.44
568.737	767.44
568.949	731.44
569.161	717.44
569.372	670.44
569.584	680.44
569.795	677.44
570.007	657.44
570.218	635.44
570.43	634.44
570.641	643.44
570.853	630.44
571.064	665.44
571.276	622.44
571.487	647.44
571.698	633.44
571.91	624.44
572.121	619.44
572.333	622.44
572.544	601.44
572.755	549.44
572.966	568.44
573.178	589.44
573.389	585.44
573.6	591.44
573.811	634.44
574.023	591.44
574.234	578.44
574.445	580.44
574.656	557.44
574.867	548.44
575.078	549.44
575.289	533.44
575.501	539.44
575.712	517.44
575.923	520.44
576.134	555.44
576.345	550.44
576.556	549.44
576.767	544.44
576.978	545.44
577.188	532.44
577.399	518.44
577.61	511.44
577.821	506.44
578.032	509.44
578.243	513.44
578.454	516.44
578.665	476.44
578.875	474.44
579.086	489.44
579.297	491.44
579.508	529.44
579.718	501.44
579.929	491.44
580.14	472.44
580.35	470.44
580.561	511.44
580.772	548.44
580.982	510.44
581.193	499.44
581.403	486.44
581.614	474.44
581.825	466.44
582.035	461.44
582.246	467.44
582.456	479.44
582.667	492.44
582.877	466.44
583.087	486.44
583.298	468.44
583.508	460.44
583.719	463.44
583.929	474.44
584.139	457.44
584.35	453.44
584.56	453.44
584.77	464.44
584.981	463.44
585.191	470.44
585.401	478.44
585.611	459.44
585.821	452.44
586.032	451.44
586.242	452.44
586.452	436.44
586.662	445.44
586.872	441.44
587.082	445.44
587.292	462.44
587.502	497.44
587.713	464.44
587.923	444.44
588.133	441.44
588.343	429.44
588.553	437.44
588.762	438.44
588.972	442.44
589.182	451.44
589.392	426.44
589.602	451.44
589.812	441.44
590.022	417.44
590.232	428.44
590.441	445.44
590.651	451.44
590.861	460.44
591.071	413.44
591.281	434.44
591.49	433.44
591.7	439.44
591.91	461.44
592.119	432.44
592.329	450.44
592.539	455.44
592.748	473.44
592.958	445.44
593.167	466.44
593.377	448.44
593.587	483.44
593.796	460.44
594.006	464.44
594.215	447.44
594.424	473.44
594.634	464.44
594.843	465.44
595.053	455.44
595.262	454.44
595.472	441.44
595.681	443.44
595.89	433.44
596.1	419.44
596.309	436.44
596.518	436.44
596.727	445.44
596.937	444.44
597.146	416.44
597.355	410.44
597.564	398.44
597.774	391.44
597.983	402.44
598.192	399.44
598.401	395.44
598.61	391.44
598.819	392.44
599.028	392.44
599.237	392.44
599.446	397.44
599.655	402.44
599.864	388.44
600.073	359.44
600.282	382.44
600.491	351.44
600.7	388.44
600.909	376.44
601.118	377.44
601.327	394.44
601.536	382.44
601.745	378.44
601.953	399.44
602.162	413.44
602.371	412.44
602.58	414.44
602.789	411.44
602.997	416.44
603.206	410.44
603.415	405.44
603.623	402.44
603.832	400.44
604.041	392.44
604.249	378.44
604.458	376.44
604.666	386.44
604.875	373.44
605.084	381.44
605.292	397.44
605.501	392.44
605.709	394.44
605.918	392.44
606.126	399.44
606.334	388.44
606.543	379.44
606.751	405.44
606.96	397.44
607.168	407.44
607.376	386.44
607.585	396.44
607.793	388.44
608.001	391.44
608.21	392.44
608.418	408.44
608.626	397.44
608.834	373.44
609.043	390.44
609.251	389.44
609.459	384.44
609.667	408.44
609.875	391.44
610.083	417.44
610.291	396.44
610.499	393.44
610.707	406.44
610.916	402.44
611.124	397.44
611.332	388.44
611.54	389.44
611.748	408.44
611.955	388.44
612.163	386.44
612.371	402.44
612.579	397.44
612.787	388.44
612.995	392.44
613.203	375.44
613.411	365.44
613.618	377.44
613.826	388.44
614.034	386.44
614.242	376.44
614.449	385.44
614.657	385.44
614.865	389.44
615.072	402.44
615.28	390.44
615.488	378.44
615.695	406.44
615.903	376.44
616.111	378.44
616.318	377.44
616.526	391.44
616.733	375.44
616.941	374.44
617.148	365.44
617.356	381.44
617.563	382.44
617.771	384.44
617.978	363.44
618.185	369.44
618.393	378.44
618.6	368.44
618.807	391.44
619.015	362.44
619.222	379.44
619.429	352.44
619.637	360.44
619.844	332.44
620.051	338.44
620.258	351.44
620.466	344.44
620.673	352.44
620.88	337.44
621.087	329.44
621.294	330.44
621.501	321.44
621.708	342.44
621.915	338.44
622.122	353.44
622.329	372.44
622.536	353.44
622.743	353.44
622.95	361.44
623.157	346.44
623.364	357.44
623.571	347.44
623.778	338.44
623.985	349.44
624.192	347.44
624.399	348.44
624.606	326.44
624.812	320.44
625.019	318.44
625.226	324.44
625.433	328.44
625.639	323.44
625.846	297.44
626.053	277.44
626.259	298.44
626.466	297.44
626.673	286.44
626.879	284.44
627.086	278.44
627.293	308.44
627.499	325.44
627.706	314.44
627.912	315.44
628.119	316.44
628.325	329.44
628.532	315.44
628.738	320.44
628.945	323.44
629.151	306.44
629.357	304.44
629.564	302.44
629.77	320.44
629.976	301.44
630.183	296.44
630.389	314.44
630.595	318.44
630.802	287.44
631.008	278.44
631.214	308.44
631.42	299.44
631.627	284.44
631.833	285.44
632.039	277.44
632.245	287.44
632.451	292.44
632.657	286.44
632.863	282.44
633.069	293.44
633.275	292.44
633.481	279.44
633.688	269.44
633.893	283.44
634.099	288.44
634.305	269.44
634.511	285.44
634.717	258.44
634.923	264.44
635.129	262.44
635.335	277.44
635.541	266.44
635.747	278.44
635.952	266.44
636.158	275.44
636.364	288.44
636.57	277.44
636.775	279.44
636.981	271.44
637.187	270.44
637.392	274.44
637.598	291.44
637.804	286.44
638.009	284.44
638.215	273.44
638.421	281.44
638.626	271.44
638.832	254.44
639.037	278.44
639.243	273.44
639.448	253.44
639.654	261.44
639.859	258.44
640.065	258.44
640.27	259.44
640.475	271.44
640.681	287.44
640.886	267.44
641.091	276.44
641.297	258.44
641.502	254.44
641.707	279.44
641.913	236.44
642.118	257.44
642.323	247.44
642.528	270.44
642.733	267.44
642.939	272.44
643.144	267.44
643.349	276.44
643.554	266.44
643.759	262.44
643.964	262.44
644.169	269.44
644.374	276.44
644.579	233.44
644.784	247.44
644.989	268.44
645.194	249.44
645.399	240.44
645.604	248.44
645.809	250.44
646.014	256.44
646.219	250.44
646.423	270.44
646.628	271.44
646.833	257.44
647.038	247.44
647.243	262.44
647.447	266.44
647.652	268.44
647.857	265.44
648.062	260.44
648.266	245.44
648.471	271.44
648.676	269.44
648.88	275.44
649.085	254.44
649.289	256.44
649.494	263.44
649.698	250.44
649.903	243.44
650.107	260.44
650.312	260.44
650.516	232.44
650.721	237.44
650.925	261.44
651.13	225.44
651.334	241.44
651.539	249.44
651.743	224.44
651.947	237.44
652.152	223.44
652.356	216.44
652.56	227.44
652.764	237.44
652.969	209.44
653.173	215.44
653.377	216.44
653.581	221.44
653.785	226.44
653.99	220.44
654.194	233.44
654.398	219.44
654.602	215.44
654.806	210.44
655.01	224.44
655.214	232.44
655.418	229.44
655.622	214.44
655.826	225.44
656.03	234.44
656.234	245.44
656.438	254.44
656.642	242.44
656.846	259.44
657.049	241.44
657.253	212.44
657.457	199.44
657.661	191.44
657.865	189.44
658.068	168.44
658.272	156.44
658.476	165.44
658.68	156.44
658.883	137.44
659.087	146.44
659.291	122.44
659.494	132.44
659.698	124.44
659.901	129.44
660.105	121.44
660.309	123.44
660.512	124.44
660.716	124.44
660.919	117.44
661.123	116.44
661.326	113.44
661.53	112.44
661.733	102.44
661.936	102.44
662.14	106.44
662.343	93.44
662.546	118.44
662.75	86.44
662.953	103.44
663.156	86.44
663.36	96.44
663.563	97.44
663.766	89.44
663.969	85.44
664.173	87.44
664.376	80.44
664.579	94.44
664.782	99.44
664.985	85.44
665.188	98.44
665.391	82.44
665.594	95.44
665.797	90.44
666	89.44
666.203	94.44
666.406	89.44
666.609	81.44
666.812	82.44
667.015	82.44
667.218	88.44
667.421	87.44
667.624	86.44
667.827	83.44
668.03	81.44
668.232	72.44
668.435	89.44
668.638	86.44
668.841	76.44
669.043	83.44
669.246	87.44
669.449	84.44
669.651	85.44
669.854	89.44
670.057	76.44
670.259	75.44
670.462	82.44
670.665	87.44
670.867	79.44
671.07	69.44
671.272	89.44
671.475	78.44
671.677	81.44
671.88	78.44
672.082	84.44
672.284	73.44
672.487	81.44
672.689	78.44
672.892	93.44
