Data from WStandard_LampEnergy8_LIBS07252019.E.O._I.C._HRD10591_16-00-28-930.txt Node
Date: Thu Jul 25 16:00:28 EDT 2019
User: cochatt
Spectrometer: HR+D1059
Trigger mode: 1
Integration Time (sec): 1.000000E-1
Scans to average: 1
Electric dark correction enabled: true
Nonlinearity correction enabled: false
Boxcar width: 0
XAxis mode: Wavelengths
Number of Pixels in Spectrum: 2048
>>>>>Begin Spectral Data<<<<<
223.165	-9.38
223.4	-9.38
223.635	-9.38
223.869	-27.38
224.104	-22.38
224.338	-10.38
224.573	-9.38
224.808	-10.38
225.042	0.62
225.277	-14.38
225.511	-2.38
225.746	0.62
225.98	23.62
226.215	2.62
226.449	12.62
226.683	23.62
226.918	13.62
227.152	28.62
227.387	26.62
227.621	47.62
227.856	58.62
228.09	54.62
228.324	60.62
228.559	64.62
228.793	97.62
229.027	213.62
229.262	209.62
229.496	213.62
229.73	215.62
229.964	244.62
230.199	264.62
230.433	251.62
230.667	271.62
230.901	280.62
231.136	261.62
231.37	264.62
231.604	263.62
231.838	249.62
232.072	261.62
232.306	258.62
232.541	258.62
232.775	293.62
233.009	322.62
233.243	310.62
233.477	294.62
233.711	296.62
233.945	298.62
234.179	302.62
234.413	333.62
234.647	324.62
234.881	319.62
235.115	312.62
235.349	306.62
235.583	309.62
235.817	315.62
236.051	297.62
236.285	311.62
236.519	308.62
236.753	361.62
236.987	366.62
237.221	343.62
237.455	385.62
237.689	366.62
237.922	330.62
238.156	337.62
238.39	347.62
238.624	346.62
238.858	375.62
239.091	390.62
239.325	414.62
239.559	477.62
239.793	498.62
240.027	495.62
240.26	498.62
240.494	380.62
240.728	368.62
240.961	374.62
241.195	376.62
241.429	407.62
241.662	404.62
241.896	380.62
242.13	400.62
242.363	409.62
242.597	453.62
242.83	431.62
243.064	454.62
243.298	476.62
243.531	478.62
243.765	464.62
243.998	437.62
244.232	383.62
244.465	408.62
244.699	419.62
244.932	461.62
245.166	502.62
245.399	475.62
245.633	446.62
245.866	435.62
246.099	483.62
246.333	500.62
246.566	488.62
246.8	521.62
247.033	585.62
247.266	519.62
247.5	511.62
247.733	536.62
247.966	566.62
248.2	592.62
248.433	589.62
248.666	616.62
248.899	654.62
249.133	743.62
249.366	816.62
249.599	666.62
249.832	620.62
250.066	600.62
250.299	613.62
250.532	578.62
250.765	549.62
250.998	551.62
251.231	561.62
251.465	593.62
251.698	569.62
251.931	573.62
252.164	594.62
252.397	600.62
252.63	599.62
252.863	541.62
253.096	546.62
253.329	554.62
253.562	585.62
253.795	594.62
254.028	596.62
254.261	570.62
254.494	565.62
254.727	544.62
254.96	573.62
255.193	638.62
255.426	699.62
255.659	773.62
255.892	783.62
256.124	667.62
256.357	659.62
256.59	671.62
256.823	670.62
257.056	698.62
257.289	847.62
257.521	880.62
257.754	794.62
257.987	762.62
258.22	815.62
258.452	788.62
258.685	674.62
258.918	674.62
259.151	663.62
259.383	635.62
259.616	586.62
259.849	601.62
260.081	695.62
260.314	760.62
260.547	794.62
260.779	798.62
261.012	762.62
261.244	695.62
261.477	658.62
261.71	691.62
261.942	654.62
262.175	670.62
262.407	695.62
262.64	654.62
262.872	621.62
263.105	595.62
263.337	613.62
263.57	638.62
263.802	627.62
264.035	615.62
264.267	584.62
264.499	578.62
264.732	615.62
264.964	639.62
265.197	703.62
265.429	722.62
265.661	768.62
265.894	838.62
266.126	848.62
266.358	788.62
266.591	802.62
266.823	840.62
267.055	769.62
267.287	769.62
267.52	770.62
267.752	744.62
267.984	781.62
268.216	791.62
268.448	802.62
268.681	774.62
268.913	734.62
269.145	698.62
269.377	718.62
269.609	770.62
269.841	875.62
270.073	974.62
270.306	1070.62
270.538	1104.62
270.77	919.62
271.002	802.62
271.234	797.62
271.466	808.62
271.698	899.62
271.93	1038.62
272.162	1000.62
272.394	934.62
272.626	870.62
272.858	796.62
273.09	693.62
273.322	694.62
273.553	659.62
273.785	673.62
274.017	703.62
274.249	754.62
274.481	748.62
274.713	687.62
274.945	692.62
275.176	676.62
275.408	684.62
275.64	681.62
275.872	699.62
276.104	746.62
276.335	785.62
276.567	894.62
276.799	882.62
277.031	786.62
277.262	778.62
277.494	846.62
277.726	893.62
277.957	857.62
278.189	778.62
278.421	745.62
278.652	739.62
278.884	716.62
279.115	725.62
279.347	758.62
279.579	738.62
279.81	698.62
280.042	789.62
280.273	856.62
280.505	870.62
280.736	856.62
280.968	795.62
281.199	730.62
281.431	700.62
281.662	706.62
281.894	723.62
282.125	764.62
282.356	749.62
282.588	773.62
282.819	792.62
283.051	838.62
283.282	877.62
283.513	868.62
283.745	758.62
283.976	706.62
284.207	730.62
284.439	743.62
284.67	748.62
284.901	772.62
285.132	764.62
285.364	768.62
285.595	778.62
285.826	745.62
286.057	754.62
286.288	760.62
286.52	782.62
286.751	838.62
286.982	815.62
287.213	780.62
287.444	740.62
287.675	734.62
287.906	786.62
288.138	822.62
288.369	787.62
288.6	760.62
288.831	717.62
289.062	756.62
289.293	728.62
289.524	774.62
289.755	816.62
289.986	807.62
290.217	757.62
290.448	763.62
290.679	751.62
290.91	766.62
291.141	788.62
291.371	803.62
291.602	808.62
291.833	809.62
292.064	808.62
292.295	783.62
292.526	802.62
292.757	862.62
292.987	832.62
293.218	808.62
293.449	875.62
293.68	948.62
293.91	986.62
294.141	943.62
294.372	906.62
294.603	956.62
294.833	947.62
295.064	907.62
295.295	847.62
295.525	778.62
295.756	762.62
295.987	718.62
296.217	771.62
296.448	780.62
296.679	805.62
296.909	775.62
297.14	756.62
297.37	783.62
297.601	815.62
297.831	885.62
298.062	875.62
298.292	828.62
298.523	784.62
298.753	775.62
298.984	808.62
299.214	803.62
299.445	847.62
299.675	844.62
299.905	824.62
300.136	808.62
300.366	778.62
300.597	761.62
300.827	777.62
301.057	812.62
301.288	834.62
301.518	856.62
301.748	852.62
301.979	893.62
302.209	916.62
302.439	954.62
302.669	990.62
302.9	938.62
303.13	852.62
303.36	867.62
303.59	821.62
303.82	857.62
304.051	836.62
304.281	861.62
304.511	864.62
304.741	926.62
304.971	1026.62
305.201	1040.62
305.431	972.62
305.661	814.62
305.891	756.62
306.121	756.62
306.352	778.62
306.582	854.62
306.812	860.62
307.042	934.62
307.272	923.62
307.502	1001.62
307.731	1028.62
307.961	1062.62
308.191	976.62
308.421	875.62
308.651	843.62
308.881	833.62
309.111	822.62
309.341	822.62
309.571	854.62
309.8	819.62
310.03	830.62
310.26	823.62
310.49	820.62
310.72	858.62
310.949	907.62
311.179	878.62
311.409	861.62
311.639	834.62
311.868	822.62
312.098	856.62
312.328	854.62
312.557	830.62
312.787	851.62
313.017	866.62
313.246	852.62
313.476	866.62
313.706	895.62
313.935	874.62
314.165	873.62
314.394	921.62
314.624	955.62
314.853	1019.62
315.083	1068.62
315.312	1044.62
315.542	979.62
315.771	913.62
316.001	891.62
316.23	952.62
316.46	952.62
316.689	930.62
316.919	854.62
317.148	858.62
317.377	899.62
317.607	971.62
317.836	1052.62
318.065	1092.62
318.295	1027.62
318.524	982.62
318.753	943.62
318.983	934.62
319.212	940.62
319.441	915.62
319.67	906.62
319.9	959.62
320.129	989.62
320.358	1006.62
320.587	1028.62
320.816	1014.62
321.046	967.62
321.275	977.62
321.504	991.62
321.733	1048.62
321.962	1003.62
322.191	923.62
322.42	904.62
322.649	917.62
322.878	925.62
323.108	939.62
323.337	954.62
323.566	958.62
323.795	949.62
324.024	934.62
324.253	930.62
324.482	936.62
324.71	902.62
324.939	882.62
325.168	886.62
325.397	946.62
325.626	956.62
325.855	942.62
326.084	939.62
326.313	904.62
326.542	948.62
326.77	969.62
326.999	965.62
327.228	934.62
327.457	878.62
327.686	876.62
327.914	904.62
328.143	914.62
328.372	934.62
328.6	947.62
328.829	922.62
329.058	916.62
329.287	906.62
329.515	946.62
329.744	986.62
329.972	988.62
330.201	1025.62
330.43	988.62
330.658	981.62
330.887	960.62
331.115	976.62
331.344	984.62
331.572	963.62
331.801	996.62
332.03	975.62
332.258	1017.62
332.486	1027.62
332.715	1015.62
332.943	1001.62
333.172	1003.62
333.4	1016.62
333.629	1030.62
333.857	1090.62
334.085	1231.62
334.314	1340.62
334.542	1394.62
334.771	1260.62
334.999	1174.62
335.227	1100.62
335.455	1062.62
335.684	1069.62
335.912	1069.62
336.14	1094.62
336.369	1046.62
336.597	993.62
336.825	995.62
337.053	1058.62
337.281	1114.62
337.51	1155.62
337.738	1166.62
337.966	1107.62
338.194	1019.62
338.422	990.62
338.65	989.62
338.878	981.62
339.106	963.62
339.334	949.62
339.562	923.62
339.79	942.62
340.018	995.62
340.246	1038.62
340.474	1038.62
340.702	1021.62
340.93	1006.62
341.158	1018.62
341.386	1008.62
341.614	989.62
341.842	976.62
342.07	1010.62
342.298	988.62
342.526	994.62
342.754	979.62
342.981	964.62
343.209	960.62
343.437	954.62
343.665	984.62
343.893	1010.62
344.12	1031.62
344.348	1034.62
344.576	1000.62
344.804	989.62
345.031	990.62
345.259	978.62
345.487	934.62
345.714	899.62
345.942	894.62
346.17	912.62
346.397	938.62
346.625	932.62
346.853	895.62
347.08	884.62
347.308	921.62
347.535	902.62
347.763	963.62
347.99	920.62
348.218	903.62
348.445	900.62
348.673	934.62
348.9	966.62
349.128	983.62
349.355	996.62
349.583	958.62
349.81	925.62
350.037	875.62
350.265	852.62
350.492	864.62
350.72	909.62
350.947	948.62
351.174	964.62
351.402	881.62
351.629	856.62
351.856	839.62
352.083	869.62
352.311	892.62
352.538	896.62
352.765	931.62
352.992	936.62
353.22	908.62
353.447	894.62
353.674	908.62
353.901	917.62
354.128	883.62
354.355	917.62
354.583	952.62
354.81	964.62
355.037	967.62
355.264	942.62
355.491	947.62
355.718	919.62
355.945	876.62
356.172	887.62
356.399	889.62
356.626	886.62
356.853	948.62
357.08	1044.62
357.307	1076.62
357.534	1058.62
357.761	966.62
357.988	891.62
358.215	884.62
358.441	882.62
358.668	896.62
358.895	918.62
359.122	974.62
359.349	1023.62
359.576	1007.62
359.802	918.62
360.029	898.62
360.256	887.62
360.483	899.62
360.709	933.62
360.936	990.62
361.163	1000.62
361.39	1099.62
361.616	1128.62
361.843	1102.62
362.07	1056.62
362.296	940.62
362.523	911.62
362.749	908.62
362.976	944.62
363.203	947.62
363.429	927.62
363.656	901.62
363.882	936.62
364.109	1038.62
364.335	1086.62
364.562	1029.62
364.788	960.62
365.015	905.62
365.241	895.62
365.468	958.62
365.694	967.62
365.92	983.62
366.147	965.62
366.373	899.62
366.599	904.62
366.826	881.62
367.052	895.62
367.278	944.62
367.505	940.62
367.731	930.62
367.957	968.62
368.184	999.62
368.41	1041.62
368.636	1023.62
368.862	1028.62
369.089	1035.62
369.315	1028.62
369.541	963.62
369.767	948.62
369.993	950.62
370.219	932.62
370.445	982.62
370.672	1010.62
370.898	1078.62
371.124	1025.62
371.35	988.62
371.576	1025.62
371.802	1032.62
372.028	991.62
372.254	975.62
372.48	924.62
372.706	948.62
372.932	956.62
373.158	946.62
373.384	943.62
373.61	1026.62
373.835	1003.62
374.061	988.62
374.287	981.62
374.513	958.62
374.739	982.62
374.965	998.62
375.191	1016.62
375.416	1009.62
375.642	1028.62
375.868	1103.62
376.094	1117.62
376.319	1028.62
376.545	996.62
376.771	1054.62
376.997	1081.62
377.222	1066.62
377.448	1040.62
377.674	1037.62
377.899	1033.62
378.125	1071.62
378.35	1058.62
378.576	973.62
378.802	972.62
379.027	962.62
379.253	987.62
379.478	991.62
379.704	996.62
379.929	994.62
380.155	984.62
380.38	970.62
380.606	987.62
380.831	1039.62
381.057	1061.62
381.282	1043.62
381.507	1070.62
381.733	1122.62
381.958	1147.62
382.184	1050.62
382.409	1023.62
382.634	1062.62
382.86	1026.62
383.085	1010.62
383.31	1104.62
383.535	1196.62
383.761	1231.62
383.986	1167.62
384.211	1107.62
384.436	1115.62
384.662	1182.62
384.887	1213.62
385.112	1125.62
385.337	1135.62
385.562	1138.62
385.787	1129.62
386.013	1164.62
386.238	1159.62
386.463	1179.62
386.688	1242.62
386.913	1288.62
387.138	1256.62
387.363	1197.62
387.588	1147.62
387.813	1154.62
388.038	1182.62
388.263	1209.62
388.488	1145.62
388.713	1063.62
388.938	1086.62
389.163	1080.62
389.387	1126.62
389.612	1136.62
389.837	1145.62
390.062	1119.62
390.287	1107.62
390.512	1155.62
390.736	1092.62
390.961	1090.62
391.186	1078.62
391.411	1104.62
391.636	1103.62
391.86	1110.62
392.085	1143.62
392.31	1129.62
392.534	1146.62
392.759	1166.62
392.984	1123.62
393.208	1168.62
393.433	1204.62
393.658	1231.62
393.882	1198.62
394.107	1178.62
394.331	1141.62
394.556	1119.62
394.78	1163.62
395.005	1167.62
395.229	1209.62
395.454	1280.62
395.678	1250.62
395.903	1238.62
396.127	1193.62
396.352	1197.62
396.576	1248.62
396.801	1238.62
397.025	1226.62
397.249	1229.62
397.474	1242.62
397.698	1227.62
397.922	1266.62
398.147	1354.62
398.371	1356.62
398.595	1334.62
398.82	1252.62
399.044	1334.62
399.268	1369.62
399.492	1432.62
399.717	1488.62
399.941	1476.62
400.165	1449.62
400.389	1419.62
400.613	1434.62
400.837	1656.62
401.062	1806.62
401.286	1516.62
401.51	1416.62
401.734	1470.62
401.958	1395.62
402.182	1336.62
402.406	1291.62
402.63	1238.62
402.854	1299.62
403.078	1315.62
403.302	1316.62
403.526	1335.62
403.75	1334.62
403.974	1395.62
404.198	1339.62
404.422	1422.62
404.645	1496.62
404.869	1437.62
405.093	1323.62
405.317	1311.62
405.541	1321.62
405.765	1357.62
405.988	1362.62
406.212	1380.62
406.436	1384.62
406.66	1407.62
406.883	1487.62
407.107	1685.62
407.331	1773.62
407.555	1893.62
407.778	1686.62
408.002	1444.62
408.226	1430.62
408.449	1390.62
408.673	1359.62
408.896	1333.62
409.12	1404.62
409.344	1364.62
409.567	1350.62
409.791	1336.62
410.014	1414.62
410.238	1468.62
410.461	1532.62
410.685	1389.62
410.908	1351.62
411.132	1388.62
411.355	1335.62
411.578	1339.62
411.802	1344.62
412.025	1381.62
412.249	1333.62
412.472	1318.62
412.695	1297.62
412.919	1335.62
413.142	1298.62
413.365	1323.62
413.589	1363.62
413.812	1408.62
414.035	1424.62
414.258	1353.62
414.482	1310.62
414.705	1312.62
414.928	1272.62
415.151	1289.62
415.374	1298.62
415.597	1330.62
415.821	1314.62
416.044	1375.62
416.267	1343.62
416.49	1250.62
416.713	1283.62
416.936	1332.62
417.159	1355.62
417.382	1326.62
417.605	1314.62
417.828	1313.62
418.051	1344.62
418.274	1300.62
418.497	1302.62
418.72	1260.62
418.943	1242.62
419.166	1361.62
419.389	1374.62
419.611	1311.62
419.834	1300.62
420.057	1302.62
420.28	1279.62
420.503	1272.62
420.726	1287.62
420.948	1338.62
421.171	1263.62
421.394	1286.62
421.617	1328.62
421.839	1357.62
422.062	1308.62
422.285	1299.62
422.507	1300.62
422.73	1236.62
422.953	1224.62
423.175	1222.62
423.398	1258.62
423.621	1289.62
423.843	1278.62
424.066	1307.62
424.288	1373.62
424.511	1372.62
424.733	1370.62
424.956	1250.62
425.178	1254.62
425.401	1235.62
425.623	1259.62
425.846	1245.62
426.068	1312.62
426.291	1333.62
426.513	1300.62
426.735	1328.62
426.958	1434.62
427.18	1471.62
427.402	1359.62
427.625	1417.62
427.847	1379.62
428.069	1294.62
428.292	1259.62
428.514	1237.62
428.736	1234.62
428.958	1247.62
429.181	1271.62
429.403	1498.62
429.625	1734.62
429.847	1475.62
430.069	1318.62
430.292	1432.62
430.514	1441.62
430.736	1363.62
430.958	1396.62
431.18	1297.62
431.402	1228.62
431.624	1174.62
431.846	1194.62
432.068	1111.62
432.29	1128.62
432.512	1177.62
432.734	1236.62
432.956	1284.62
433.178	1327.62
433.4	1291.62
433.622	1318.62
433.844	1228.62
434.066	1197.62
434.287	1154.62
434.509	1199.62
434.731	1277.62
434.953	1366.62
435.175	1334.62
435.397	1316.62
435.618	1277.62
435.84	1253.62
436.062	1232.62
436.284	1246.62
436.505	1286.62
436.727	1340.62
436.949	1259.62
437.17	1243.62
437.392	1269.62
437.614	1214.62
437.835	1168.62
438.057	1220.62
438.278	1232.62
438.5	1212.62
438.721	1227.62
438.943	1228.62
439.165	1235.62
439.386	1193.62
439.608	1211.62
439.829	1238.62
440.05	1244.62
440.272	1229.62
440.493	1235.62
440.715	1271.62
440.936	1348.62
441.158	1420.62
441.379	1398.62
441.6	1344.62
441.822	1333.62
442.043	1365.62
442.264	1333.62
442.486	1263.62
442.707	1266.62
442.928	1242.62
443.149	1284.62
443.371	1330.62
443.592	1375.62
443.813	1359.62
444.034	1357.62
444.255	1353.62
444.476	1377.62
444.698	1401.62
444.919	1396.62
445.14	1459.62
445.361	1480.62
445.582	1432.62
445.803	1434.62
446.024	1392.62
446.245	1416.62
446.466	1368.62
446.687	1382.62
446.908	1345.62
447.129	1277.62
447.35	1310.62
447.571	1299.62
447.792	1229.62
448.013	1251.62
448.234	1266.62
448.455	1330.62
448.675	1277.62
448.896	1210.62
449.117	1182.62
449.338	1206.62
449.559	1241.62
449.779	1331.62
450	1425.62
450.221	1499.62
450.442	1420.62
450.662	1282.62
450.883	1162.62
451.104	1166.62
451.324	1187.62
451.545	1235.62
451.766	1166.62
451.986	1154.62
452.207	1104.62
452.428	1116.62
452.648	1090.62
452.869	1084.62
453.089	1119.62
453.31	1147.62
453.53	1130.62
453.751	1101.62
453.971	1044.62
454.192	1076.62
454.412	1144.62
454.633	1127.62
454.853	1104.62
455.073	1063.62
455.294	1039.62
455.514	1089.62
455.734	1072.62
455.955	1050.62
456.175	1078.62
456.395	1078.62
456.616	1085.62
456.836	1093.62
457.056	1093.62
457.276	1086.62
457.497	1056.62
457.717	1001.62
457.937	1030.62
458.157	1071.62
458.377	1040.62
458.598	1035.62
458.818	1026.62
459.038	1116.62
459.258	1120.62
459.478	1132.62
459.698	1103.62
459.918	1152.62
460.138	1212.62
460.358	1223.62
460.578	1267.62
460.798	1286.62
461.018	1337.62
461.238	1308.62
461.458	1273.62
461.678	1235.62
461.898	1204.62
462.118	1208.62
462.338	1264.62
462.558	1267.62
462.777	1270.62
462.997	1289.62
463.217	1334.62
463.437	1339.62
463.657	1259.62
463.876	1272.62
464.096	1239.62
464.316	1255.62
464.536	1336.62
464.755	1278.62
464.975	1324.62
465.195	1256.62
465.414	1323.62
465.634	1293.62
465.854	1269.62
466.073	1360.62
466.293	1336.62
466.512	1203.62
466.732	1200.62
466.951	1218.62
467.171	1204.62
467.391	1179.62
467.61	1176.62
467.829	1236.62
468.049	1334.62
468.268	1422.62
468.488	1316.62
468.707	1260.62
468.927	1252.62
469.146	1210.62
469.365	1157.62
469.585	1207.62
469.804	1252.62
470.023	1230.62
470.243	1236.62
470.462	1240.62
470.681	1196.62
470.901	1256.62
471.12	1233.62
471.339	1233.62
471.558	1168.62
471.777	1182.62
471.997	1221.62
472.216	1157.62
472.435	1124.62
472.654	1132.62
472.873	1197.62
473.092	1236.62
473.311	1176.62
473.53	1142.62
473.749	1127.62
473.968	1184.62
474.187	1196.62
474.406	1218.62
474.625	1185.62
474.844	1231.62
475.063	1208.62
475.282	1221.62
475.501	1197.62
475.72	1219.62
475.939	1260.62
476.158	1217.62
476.377	1203.62
476.596	1186.62
476.814	1179.62
477.033	1220.62
477.252	1269.62
477.471	1314.62
477.69	1299.62
477.908	1312.62
478.127	1347.62
478.346	1421.62
478.564	1445.62
478.783	1390.62
479.002	1442.62
479.22	1396.62
479.439	1470.62
479.658	1575.62
479.876	1506.62
480.095	1350.62
480.313	1346.62
480.532	1303.62
480.751	1304.62
480.969	1336.62
481.188	1253.62
481.406	1240.62
481.624	1248.62
481.843	1244.62
482.061	1285.62
482.28	1348.62
482.498	1342.62
482.717	1318.62
482.935	1292.62
483.153	1332.62
483.372	1344.62
483.59	1350.62
483.808	1372.62
484.027	1357.62
484.245	1438.62
484.463	1707.62
484.681	1859.62
484.9	1436.62
485.118	1387.62
485.336	1334.62
485.554	1358.62
485.772	1373.62
485.99	1380.62
486.209	1379.62
486.427	1398.62
486.645	1402.62
486.863	1375.62
487.081	1454.62
487.299	1487.62
487.517	1415.62
487.735	1458.62
487.953	1490.62
488.171	1451.62
488.389	1470.62
488.607	1466.62
488.825	1603.62
489.043	1526.62
489.261	1390.62
489.479	1489.62
489.696	1458.62
489.914	1451.62
490.132	1412.62
490.35	1433.62
490.568	1558.62
490.786	1493.62
491.003	1467.62
491.221	1556.62
491.439	1600.62
491.657	1564.62
491.874	1644.62
492.092	1666.62
492.31	1691.62
492.527	1678.62
492.745	1620.62
492.963	1586.62
493.18	1644.62
493.398	1701.62
493.615	1718.62
493.833	1590.62
494.05	1538.62
494.268	1565.62
494.485	1590.62
494.703	1536.62
494.92	1538.62
495.138	1563.62
495.355	1512.62
495.573	1621.62
495.79	1695.62
496.008	1705.62
496.225	1596.62
496.442	1593.62
496.66	1606.62
496.877	1581.62
497.094	1610.62
497.312	1642.62
497.529	1595.62
497.746	1642.62
497.963	1874.62
498.181	1970.62
498.398	1898.62
498.615	1836.62
498.832	1786.62
499.049	1768.62
499.267	1808.62
499.484	1847.62
499.701	2022.62
499.918	2059.62
500.135	2223.62
500.352	2319.62
500.569	2324.62
500.786	2491.62
501.003	2322.62
501.22	2062.62
501.437	2096.62
501.654	2095.62
501.871	1948.62
502.088	1750.62
502.305	1792.62
502.522	1676.62
502.739	1621.62
502.956	1590.62
503.172	1562.62
503.389	1517.62
503.606	1482.62
503.823	1488.62
504.04	1499.62
504.256	1495.62
504.473	1458.62
504.69	1528.62
504.907	1463.62
505.123	1417.62
505.34	1530.62
505.557	1976.62
505.773	1590.62
505.99	1389.62
506.207	1312.62
506.423	1309.62
506.64	1294.62
506.856	1289.62
507.073	1515.62
507.289	1558.62
507.506	1482.62
507.722	1286.62
507.939	1240.62
508.155	1230.62
508.372	1247.62
508.588	1213.62
508.805	1200.62
509.021	1184.62
509.238	1171.62
509.454	1144.62
509.67	1159.62
509.887	1114.62
510.103	1114.62
510.319	1140.62
510.536	1223.62
510.752	1213.62
510.968	1194.62
511.184	1246.62
511.401	1226.62
511.617	1116.62
511.833	1113.62
512.049	1071.62
512.265	1085.62
512.481	1105.62
512.698	1142.62
512.914	1196.62
513.13	1186.62
513.346	1154.62
513.562	1101.62
513.778	1141.62
513.994	1194.62
514.21	1180.62
514.426	1221.62
514.642	1295.62
514.858	1203.62
515.074	1127.62
515.29	1131.62
515.506	1154.62
515.721	1158.62
515.937	1163.62
516.153	1300.62
516.369	1237.62
516.585	1184.62
516.801	1137.62
517.016	1131.62
517.232	1169.62
517.448	1232.62
517.664	1215.62
517.879	1205.62
518.095	1261.62
518.311	1249.62
518.527	1165.62
518.742	1115.62
518.958	1126.62
519.173	1142.62
519.389	1166.62
519.605	1166.62
519.82	1199.62
520.036	1166.62
520.251	1133.62
520.467	1151.62
520.682	1219.62
520.898	1267.62
521.113	1153.62
521.329	1098.62
521.544	1167.62
521.76	1133.62
521.975	1070.62
522.19	1085.62
522.406	1145.62
522.621	1369.62
522.836	1296.62
523.052	1106.62
523.267	1106.62
523.482	1102.62
523.698	1080.62
523.913	1048.62
524.128	1098.62
524.343	1142.62
524.559	1178.62
524.774	1112.62
524.989	1116.62
525.204	1035.62
525.419	1062.62
525.634	1053.62
525.849	1032.62
526.064	1061.62
526.28	1050.62
526.495	1016.62
526.71	998.62
526.925	990.62
527.14	975.62
527.355	965.62
527.57	968.62
527.785	1015.62
527.999	1000.62
528.214	1018.62
528.429	1006.62
528.644	1026.62
528.859	1059.62
529.074	1080.62
529.289	1098.62
529.503	1102.62
529.718	1091.62
529.933	1055.62
530.148	975.62
530.363	947.62
530.577	990.62
530.792	962.62
531.007	960.62
531.221	958.62
531.436	1025.62
531.651	1030.62
531.865	1085.62
532.08	1017.62
532.295	964.62
532.509	938.62
532.724	967.62
532.938	986.62
533.153	1058.62
533.367	1028.62
533.582	1001.62
533.796	1007.62
534.011	1020.62
534.225	1006.62
534.44	972.62
534.654	971.62
534.868	982.62
535.083	1040.62
535.297	1038.62
535.511	967.62
535.726	1007.62
535.94	997.62
536.154	969.62
536.369	921.62
536.583	928.62
536.797	941.62
537.011	965.62
537.225	920.62
537.44	932.62
537.654	945.62
537.868	920.62
538.082	892.62
538.296	906.62
538.51	912.62
538.724	935.62
538.938	970.62
539.153	1007.62
539.367	985.62
539.581	973.62
539.795	993.62
540.009	952.62
540.222	951.62
540.436	986.62
540.65	1049.62
540.864	1078.62
541.078	1032.62
541.292	991.62
541.506	1084.62
541.72	1113.62
541.934	1140.62
542.147	1180.62
542.361	1117.62
542.575	1088.62
542.789	1030.62
543.002	951.62
543.216	973.62
543.43	1032.62
543.644	1044.62
543.857	1103.62
544.071	1102.62
544.285	1103.62
544.498	1078.62
544.712	1078.62
544.925	1105.62
545.139	1094.62
545.352	1078.62
545.566	1060.62
545.779	1058.62
545.993	1074.62
546.206	1058.62
546.42	1057.62
546.633	1055.62
546.847	1053.62
547.06	1087.62
547.274	1081.62
547.487	1080.62
547.7	1097.62
547.914	1078.62
548.127	1101.62
548.34	1094.62
548.554	1060.62
548.767	1052.62
548.98	1028.62
549.193	1056.62
549.407	1097.62
549.62	1080.62
549.833	1075.62
550.046	1044.62
550.259	1051.62
550.473	1011.62
550.686	1020.62
550.899	998.62
551.112	994.62
551.325	977.62
551.538	1028.62
551.751	1109.62
551.964	904.62
552.177	931.62
552.39	1002.62
552.603	994.62
552.816	1008.62
553.029	1061.62
553.242	1084.62
553.455	1039.62
553.667	1076.62
553.88	1047.62
554.093	1001.62
554.306	966.62
554.519	966.62
554.732	927.62
554.944	968.62
555.157	963.62
555.37	958.62
555.583	945.62
555.795	930.62
556.008	888.62
556.221	864.62
556.433	867.62
556.646	894.62
556.859	884.62
557.071	870.62
557.284	856.62
557.496	901.62
557.709	873.62
557.921	865.62
558.134	879.62
558.346	848.62
558.559	865.62
558.771	851.62
558.984	822.62
559.196	827.62
559.409	804.62
559.621	808.62
559.833	800.62
560.046	800.62
560.258	832.62
560.47	806.62
560.683	814.62
560.895	816.62
561.107	812.62
561.32	851.62
561.532	852.62
561.744	814.62
561.956	813.62
562.168	808.62
562.381	772.62
562.593	780.62
562.805	792.62
563.017	791.62
563.229	803.62
563.441	814.62
563.653	798.62
563.865	791.62
564.077	774.62
564.289	786.62
564.501	782.62
564.713	787.62
564.925	816.62
565.137	891.62
565.349	820.62
565.561	808.62
565.773	805.62
565.985	816.62
566.197	855.62
566.408	882.62
566.62	911.62
566.832	872.62
567.044	896.62
567.255	893.62
567.467	878.62
567.679	902.62
567.891	909.62
568.102	896.62
568.314	847.62
568.526	820.62
568.737	763.62
568.949	755.62
569.161	712.62
569.372	696.62
569.584	681.62
569.795	689.62
570.007	674.62
570.218	656.62
570.43	655.62
570.641	653.62
570.853	674.62
571.064	666.62
571.276	653.62
571.487	674.62
571.698	650.62
571.91	654.62
572.121	628.62
572.333	617.62
572.544	623.62
572.755	600.62
572.966	586.62
573.178	607.62
573.389	599.62
573.6	592.62
573.811	655.62
574.023	600.62
574.234	578.62
574.445	576.62
574.656	562.62
574.867	551.62
575.078	584.62
575.289	562.62
575.501	562.62
575.712	545.62
575.923	562.62
576.134	572.62
576.345	542.62
576.556	547.62
576.767	536.62
576.978	529.62
577.188	516.62
577.399	513.62
577.61	513.62
577.821	519.62
578.032	543.62
578.243	526.62
578.454	511.62
578.665	493.62
578.875	476.62
579.086	515.62
579.297	484.62
579.508	508.62
579.718	524.62
579.929	498.62
580.14	482.62
580.35	491.62
580.561	488.62
580.772	560.62
580.982	525.62
581.193	506.62
581.403	491.62
581.614	490.62
581.825	482.62
582.035	483.62
582.246	482.62
582.456	505.62
582.667	475.62
582.877	517.62
583.087	481.62
583.298	480.62
583.508	479.62
583.719	483.62
583.929	485.62
584.139	460.62
584.35	438.62
584.56	445.62
584.77	463.62
584.981	463.62
585.191	484.62
585.401	469.62
585.611	471.62
585.821	458.62
586.032	457.62
586.242	452.62
586.452	464.62
586.662	467.62
586.872	446.62
587.082	431.62
587.292	465.62
587.502	475.62
587.713	484.62
587.923	441.62
588.133	463.62
588.343	472.62
588.553	462.62
588.762	431.62
588.972	436.62
589.182	451.62
589.392	470.62
589.602	458.62
589.812	436.62
590.022	458.62
590.232	429.62
590.441	448.62
590.651	455.62
590.861	452.62
591.071	455.62
591.281	434.62
591.49	419.62
591.7	443.62
591.91	448.62
592.119	451.62
592.329	446.62
592.539	475.62
592.748	455.62
592.958	470.62
593.167	473.62
593.377	485.62
593.587	466.62
593.796	460.62
594.006	456.62
594.215	474.62
594.424	468.62
594.634	461.62
594.843	478.62
595.053	496.62
595.262	459.62
595.472	422.62
595.681	438.62
595.89	432.62
596.1	398.62
596.309	451.62
596.518	456.62
596.727	443.62
596.937	429.62
597.146	417.62
597.355	424.62
597.564	405.62
597.774	424.62
597.983	400.62
598.192	404.62
598.401	403.62
598.61	393.62
598.819	424.62
599.028	396.62
599.237	402.62
599.446	384.62
599.655	372.62
599.864	400.62
600.073	386.62
600.282	388.62
600.491	390.62
600.7	382.62
600.909	377.62
601.118	375.62
601.327	400.62
601.536	407.62
601.745	396.62
601.953	415.62
602.162	409.62
602.371	435.62
602.58	423.62
602.789	414.62
602.997	416.62
603.206	403.62
603.415	404.62
603.623	410.62
603.832	414.62
604.041	407.62
604.249	386.62
604.458	377.62
604.666	371.62
604.875	389.62
605.084	394.62
605.292	395.62
605.501	406.62
605.709	404.62
605.918	432.62
606.126	404.62
606.334	411.62
606.543	412.62
606.751	415.62
606.96	412.62
607.168	420.62
607.376	377.62
607.585	378.62
607.793	400.62
608.001	392.62
608.21	418.62
608.418	432.62
608.626	421.62
608.834	407.62
609.043	416.62
609.251	399.62
609.459	414.62
609.667	412.62
609.875	422.62
610.083	419.62
610.291	406.62
610.499	390.62
610.707	393.62
610.916	387.62
611.124	397.62
611.332	414.62
611.54	411.62
611.748	391.62
611.955	398.62
612.163	398.62
612.371	405.62
612.579	386.62
612.787	397.62
612.995	390.62
613.203	414.62
613.411	406.62
613.618	381.62
613.826	374.62
614.034	376.62
614.242	388.62
614.449	363.62
614.657	391.62
614.865	399.62
615.072	365.62
615.28	382.62
615.488	400.62
615.695	409.62
615.903	392.62
616.111	384.62
616.318	390.62
616.526	403.62
616.733	388.62
616.941	397.62
617.148	391.62
617.356	374.62
617.563	380.62
617.771	376.62
617.978	363.62
618.185	388.62
618.393	378.62
618.6	380.62
618.807	382.62
619.015	381.62
619.222	373.62
619.429	374.62
619.637	362.62
619.844	331.62
620.051	345.62
620.258	375.62
620.466	349.62
620.673	353.62
620.88	343.62
621.087	346.62
621.294	359.62
621.501	343.62
621.708	356.62
621.915	350.62
622.122	353.62
622.329	364.62
622.536	346.62
622.743	357.62
622.95	359.62
623.157	341.62
623.364	354.62
623.571	365.62
623.778	364.62
623.985	331.62
624.192	320.62
624.399	345.62
624.606	327.62
624.812	328.62
625.019	329.62
625.226	315.62
625.433	323.62
625.639	314.62
625.846	319.62
626.053	314.62
626.259	284.62
626.466	293.62
626.673	308.62
626.879	286.62
627.086	298.62
627.293	309.62
627.499	325.62
627.706	328.62
627.912	318.62
628.119	328.62
628.325	320.62
628.532	322.62
628.738	338.62
628.945	307.62
629.151	316.62
629.357	322.62
629.564	298.62
629.77	278.62
629.976	278.62
630.183	302.62
630.389	312.62
630.595	313.62
630.802	312.62
631.008	312.62
631.214	313.62
631.42	299.62
631.627	306.62
631.833	281.62
632.039	308.62
632.245	289.62
632.451	286.62
632.657	301.62
632.863	303.62
633.069	292.62
633.275	286.62
633.481	295.62
633.688	286.62
633.893	283.62
634.099	251.62
634.305	271.62
634.511	273.62
634.717	278.62
634.923	282.62
635.129	253.62
635.335	268.62
635.541	259.62
635.747	290.62
635.952	290.62
636.158	276.62
636.364	276.62
636.57	282.62
636.775	296.62
636.981	279.62
637.187	283.62
637.392	286.62
637.598	300.62
637.804	268.62
638.009	277.62
638.215	276.62
638.421	271.62
638.626	288.62
638.832	287.62
639.037	285.62
639.243	259.62
639.448	273.62
639.654	276.62
639.859	258.62
640.065	260.62
640.27	265.62
640.475	276.62
640.681	277.62
640.886	270.62
641.091	244.62
641.297	274.62
641.502	256.62
641.707	262.62
641.913	263.62
642.118	280.62
642.323	249.62
642.528	280.62
642.733	243.62
642.939	262.62
643.144	272.62
643.349	278.62
643.554	265.62
643.759	276.62
643.964	259.62
644.169	243.62
644.374	271.62
644.579	248.62
644.784	260.62
644.989	252.62
645.194	261.62
645.399	260.62
645.604	253.62
645.809	264.62
646.014	258.62
646.219	261.62
646.423	259.62
646.628	254.62
646.833	258.62
647.038	262.62
647.243	238.62
647.447	274.62
647.652	270.62
647.857	258.62
648.062	265.62
648.266	247.62
648.471	262.62
648.676	247.62
648.88	269.62
649.085	248.62
649.289	272.62
649.494	250.62
649.698	266.62
649.903	253.62
650.107	252.62
650.312	258.62
650.516	240.62
650.721	253.62
650.925	247.62
651.13	257.62
651.334	240.62
651.539	235.62
651.743	269.62
651.947	243.62
652.152	235.62
652.356	242.62
652.56	248.62
652.764	227.62
652.969	213.62
653.173	230.62
653.377	211.62
653.581	202.62
653.785	222.62
653.99	215.62
654.194	218.62
654.398	227.62
654.602	206.62
654.806	219.62
655.01	222.62
655.214	221.62
655.418	217.62
655.622	218.62
655.826	252.62
656.03	245.62
656.234	277.62
656.438	245.62
656.642	263.62
656.846	236.62
657.049	242.62
657.253	222.62
657.457	221.62
657.661	189.62
657.865	190.62
658.068	178.62
658.272	179.62
658.476	175.62
658.68	158.62
658.883	159.62
659.087	145.62
659.291	160.62
659.494	156.62
659.698	128.62
659.901	134.62
660.105	139.62
660.309	127.62
660.512	128.62
660.716	118.62
660.919	120.62
661.123	126.62
661.326	105.62
661.53	120.62
661.733	108.62
661.936	115.62
662.14	103.62
662.343	111.62
662.546	107.62
662.75	100.62
662.953	92.62
663.156	95.62
663.36	83.62
663.563	88.62
663.766	85.62
663.969	92.62
664.173	88.62
664.376	84.62
664.579	98.62
664.782	82.62
664.985	78.62
665.188	106.62
665.391	91.62
665.594	74.62
665.797	88.62
666	75.62
666.203	86.62
666.406	88.62
666.609	99.62
666.812	76.62
667.015	86.62
667.218	89.62
667.421	95.62
667.624	102.62
667.827	76.62
668.03	83.62
668.232	90.62
668.435	80.62
668.638	88.62
668.841	89.62
669.043	95.62
669.246	90.62
669.449	80.62
669.651	80.62
669.854	84.62
670.057	91.62
670.259	82.62
670.462	83.62
670.665	92.62
670.867	90.62
671.07	82.62
671.272	84.62
671.475	101.62
671.677	90.62
671.88	84.62
672.082	86.62
672.284	85.62
672.487	88.62
672.689	81.62
672.892	84.62
