Data from WStandard_LampEnergy5.5LIBS07252019.E.O._I.C._HRD10591_16-08-53-920.txt Node
Date: Thu Jul 25 16:08:53 EDT 2019
User: cochatt
Spectrometer: HR+D1059
Trigger mode: 1
Integration Time (sec): 1.000000E-1
Scans to average: 1
Electric dark correction enabled: true
Nonlinearity correction enabled: false
Boxcar width: 0
XAxis mode: Wavelengths
Number of Pixels in Spectrum: 2048
>>>>>Begin Spectral Data<<<<<
223.165	-10.44
223.4	-10.44
223.635	-10.44
223.869	-24.44
224.104	-24.44
224.338	-14.44
224.573	-22.44
224.808	10.56
225.042	-13.44
225.277	-11.44
225.511	10.56
225.746	7.56
225.98	5.56
226.215	7.56
226.449	16.56
226.683	21.56
226.918	13.56
227.152	27.56
227.387	36.56
227.621	33.56
227.856	51.56
228.09	47.56
228.324	55.56
228.559	59.56
228.793	149.56
229.027	352.56
229.262	356.56
229.496	380.56
229.73	381.56
229.964	426.56
230.199	416.56
230.433	459.56
230.667	482.56
230.901	533.56
231.136	487.56
231.37	449.56
231.604	440.56
231.838	442.56
232.072	465.56
232.306	451.56
232.541	463.56
232.775	532.56
233.009	606.56
233.243	563.56
233.477	525.56
233.711	541.56
233.945	562.56
234.179	557.56
234.413	574.56
234.647	621.56
234.881	576.56
235.115	534.56
235.349	568.56
235.583	550.56
235.817	556.56
236.051	531.56
236.285	545.56
236.519	571.56
236.753	634.56
236.987	655.56
237.221	657.56
237.455	730.56
237.689	698.56
237.922	688.56
238.156	634.56
238.39	651.56
238.624	686.56
238.858	718.56
239.091	724.56
239.325	783.56
239.559	913.56
239.793	925.56
240.027	1039.56
240.26	1036.56
240.494	768.56
240.728	695.56
240.961	708.56
241.195	732.56
241.429	819.56
241.662	809.56
241.896	732.56
242.13	747.56
242.363	843.56
242.597	893.56
242.83	842.56
243.064	868.56
243.298	917.56
243.531	906.56
243.765	909.56
243.998	899.56
244.232	786.56
244.465	750.56
244.699	792.56
244.932	883.56
245.166	1050.56
245.399	948.56
245.633	878.56
245.866	872.56
246.099	903.56
246.333	917.56
246.566	946.56
246.8	1013.56
247.033	1164.56
247.266	1044.56
247.5	1064.56
247.733	1049.56
247.966	1106.56
248.2	1242.56
248.433	1176.56
248.666	1188.56
248.899	1316.56
249.133	1514.56
249.366	1732.56
249.599	1407.56
249.832	1228.56
250.066	1245.56
250.299	1244.56
250.532	1205.56
250.765	1037.56
250.998	1147.56
251.231	1177.56
251.465	1192.56
251.698	1149.56
251.931	1132.56
252.164	1182.56
252.397	1249.56
252.63	1236.56
252.863	1101.56
253.096	1067.56
253.329	1126.56
253.562	1136.56
253.795	1276.56
254.028	1248.56
254.261	1132.56
254.494	1174.56
254.727	1120.56
254.96	1112.56
255.193	1235.56
255.426	1412.56
255.659	1616.56
255.892	1657.56
256.124	1364.56
256.357	1299.56
256.59	1389.56
256.823	1388.56
257.056	1401.56
257.289	1635.56
257.521	1885.56
257.754	1653.56
257.987	1564.56
258.22	1773.56
258.452	1698.56
258.685	1381.56
258.918	1359.56
259.151	1358.56
259.383	1272.56
259.616	1145.56
259.849	1209.56
260.081	1349.56
260.314	1555.56
260.547	1682.56
260.779	1677.56
261.012	1554.56
261.244	1438.56
261.477	1344.56
261.71	1410.56
261.942	1382.56
262.175	1331.56
262.407	1418.56
262.64	1350.56
262.872	1276.56
263.105	1220.56
263.337	1243.56
263.57	1272.56
263.802	1272.56
264.035	1193.56
264.267	1126.56
264.499	1121.56
264.732	1192.56
264.964	1288.56
265.197	1346.56
265.429	1357.56
265.661	1545.56
265.894	1713.56
266.126	1809.56
266.358	1594.56
266.591	1633.56
266.823	1751.56
267.055	1590.56
267.287	1560.56
267.52	1538.56
267.752	1536.56
267.984	1539.56
268.216	1608.56
268.448	1633.56
268.681	1631.56
268.913	1495.56
269.145	1394.56
269.377	1401.56
269.609	1496.56
269.841	1751.56
270.073	1996.56
270.306	2211.56
270.538	2379.56
270.77	1998.56
271.002	1671.56
271.234	1623.56
271.466	1596.56
271.698	1796.56
271.93	2160.56
272.162	2182.56
272.394	1935.56
272.626	1879.56
272.858	1648.56
273.09	1439.56
273.322	1441.56
273.553	1358.56
273.785	1357.56
274.017	1410.56
274.249	1566.56
274.481	1563.56
274.713	1408.56
274.945	1368.56
275.176	1387.56
275.408	1393.56
275.64	1350.56
275.872	1318.56
276.104	1402.56
276.335	1618.56
276.567	1851.56
276.799	1849.56
277.031	1671.56
277.262	1606.56
277.494	1664.56
277.726	1815.56
277.957	1764.56
278.189	1654.56
278.421	1506.56
278.652	1492.56
278.884	1468.56
279.115	1445.56
279.347	1514.56
279.579	1453.56
279.81	1440.56
280.042	1620.56
280.273	1743.56
280.505	1745.56
280.736	1801.56
280.968	1728.56
281.199	1483.56
281.431	1437.56
281.662	1451.56
281.894	1408.56
282.125	1462.56
282.356	1538.56
282.588	1527.56
282.819	1508.56
283.051	1638.56
283.282	1747.56
283.513	1768.56
283.745	1540.56
283.976	1385.56
284.207	1426.56
284.439	1456.56
284.67	1490.56
284.901	1505.56
285.132	1540.56
285.364	1497.56
285.595	1522.56
285.826	1492.56
286.057	1485.56
286.288	1464.56
286.52	1556.56
286.751	1677.56
286.982	1709.56
287.213	1586.56
287.444	1435.56
287.675	1438.56
287.906	1517.56
288.138	1626.56
288.369	1605.56
288.6	1461.56
288.831	1452.56
289.062	1452.56
289.293	1468.56
289.524	1491.56
289.755	1546.56
289.986	1550.56
290.217	1450.56
290.448	1432.56
290.679	1512.56
290.91	1528.56
291.141	1565.56
291.371	1600.56
291.602	1587.56
291.833	1613.56
292.064	1620.56
292.295	1565.56
292.526	1638.56
292.757	1754.56
292.987	1604.56
293.218	1536.56
293.449	1635.56
293.68	1868.56
293.91	1996.56
294.141	1872.56
294.372	1748.56
294.603	1793.56
294.833	1918.56
295.064	1800.56
295.295	1638.56
295.525	1619.56
295.756	1484.56
295.987	1392.56
296.217	1437.56
296.448	1468.56
296.679	1495.56
296.909	1503.56
297.14	1476.56
297.37	1482.56
297.601	1538.56
297.831	1690.56
298.062	1726.56
298.292	1594.56
298.523	1506.56
298.753	1498.56
298.984	1554.56
299.214	1511.56
299.445	1576.56
299.675	1619.56
299.905	1629.56
300.136	1582.56
300.366	1528.56
300.597	1488.56
300.827	1467.56
301.057	1535.56
301.288	1643.56
301.518	1593.56
301.748	1606.56
301.979	1699.56
302.209	1720.56
302.439	1804.56
302.669	1916.56
302.9	1807.56
303.13	1627.56
303.36	1621.56
303.59	1649.56
303.82	1622.56
304.051	1622.56
304.281	1628.56
304.511	1638.56
304.741	1712.56
304.971	1901.56
305.201	2038.56
305.431	1910.56
305.661	1592.56
305.891	1468.56
306.121	1463.56
306.352	1469.56
306.582	1596.56
306.812	1665.56
307.042	1800.56
307.272	1777.56
307.502	1805.56
307.731	1922.56
307.961	2156.56
308.191	1968.56
308.421	1726.56
308.651	1582.56
308.881	1566.56
309.111	1559.56
309.341	1520.56
309.571	1556.56
309.8	1624.56
310.03	1568.56
310.26	1547.56
310.49	1556.56
310.72	1550.56
310.949	1651.56
311.179	1688.56
311.409	1643.56
311.639	1641.56
311.868	1595.56
312.098	1587.56
312.328	1584.56
312.557	1549.56
312.787	1617.56
313.017	1649.56
313.246	1629.56
313.476	1622.56
313.706	1691.56
313.935	1685.56
314.165	1669.56
314.394	1750.56
314.624	1856.56
314.853	1900.56
315.083	1938.56
315.312	2034.56
315.542	1898.56
315.771	1692.56
316.001	1692.56
316.23	1798.56
316.46	1787.56
316.689	1714.56
316.919	1660.56
317.148	1626.56
317.377	1662.56
317.607	1742.56
317.836	1926.56
318.065	2024.56
318.295	1910.56
318.524	1833.56
318.753	1765.56
318.983	1789.56
319.212	1745.56
319.441	1693.56
319.67	1660.56
319.9	1714.56
320.129	1802.56
320.358	1911.56
320.587	1924.56
320.816	1906.56
321.046	1832.56
321.275	1752.56
321.504	1777.56
321.733	1936.56
321.962	1909.56
322.191	1724.56
322.42	1720.56
322.649	1753.56
322.878	1682.56
323.108	1717.56
323.337	1748.56
323.566	1770.56
323.795	1794.56
324.024	1759.56
324.253	1732.56
324.482	1770.56
324.71	1693.56
324.939	1629.56
325.168	1644.56
325.397	1683.56
325.626	1761.56
325.855	1806.56
326.084	1705.56
326.313	1686.56
326.542	1706.56
326.77	1784.56
326.999	1831.56
327.228	1762.56
327.457	1641.56
327.686	1597.56
327.914	1671.56
328.143	1727.56
328.372	1741.56
328.6	1731.56
328.829	1701.56
329.058	1678.56
329.287	1692.56
329.515	1696.56
329.744	1714.56
329.972	1842.56
330.201	1884.56
330.43	1853.56
330.658	1854.56
330.887	1821.56
331.115	1794.56
331.344	1863.56
331.572	1814.56
331.801	1840.56
332.03	1788.56
332.258	1800.56
332.486	1817.56
332.715	1846.56
332.943	1872.56
333.172	1808.56
333.4	1836.56
333.629	1889.56
333.857	1978.56
334.085	2144.56
334.314	2373.56
334.542	2651.56
334.771	2436.56
334.999	2186.56
335.227	2110.56
335.455	1953.56
335.684	1957.56
335.912	1979.56
336.14	2033.56
336.369	2000.56
336.597	1896.56
336.825	1880.56
337.053	1923.56
337.281	1968.56
337.51	2078.56
337.738	2136.56
337.966	2096.56
338.194	1897.56
338.422	1826.56
338.65	1784.56
338.878	1780.56
339.106	1755.56
339.334	1752.56
339.562	1691.56
339.79	1732.56
340.018	1844.56
340.246	1880.56
340.474	1914.56
340.702	1847.56
340.93	1875.56
341.158	1849.56
341.386	1821.56
341.614	1835.56
341.842	1781.56
342.07	1770.56
342.298	1838.56
342.526	1820.56
342.754	1783.56
342.981	1756.56
343.209	1764.56
343.437	1748.56
343.665	1801.56
343.893	1827.56
344.12	1897.56
344.348	1917.56
344.576	1853.56
344.804	1803.56
345.031	1794.56
345.259	1817.56
345.487	1755.56
345.714	1718.56
345.942	1606.56
346.17	1632.56
346.397	1667.56
346.625	1712.56
346.853	1636.56
347.08	1588.56
347.308	1581.56
347.535	1651.56
347.763	1713.56
347.99	1635.56
348.218	1648.56
348.445	1610.56
348.673	1648.56
348.9	1708.56
349.128	1729.56
349.355	1830.56
349.583	1772.56
349.81	1669.56
350.037	1564.56
350.265	1559.56
350.492	1588.56
350.72	1635.56
350.947	1683.56
351.174	1692.56
351.402	1627.56
351.629	1577.56
351.856	1537.56
352.083	1521.56
352.311	1541.56
352.538	1588.56
352.765	1664.56
352.992	1740.56
353.22	1634.56
353.447	1610.56
353.674	1620.56
353.901	1649.56
354.128	1613.56
354.355	1602.56
354.583	1641.56
354.81	1689.56
355.037	1678.56
355.264	1681.56
355.491	1676.56
355.718	1666.56
355.945	1648.56
356.172	1609.56
356.399	1608.56
356.626	1601.56
356.853	1659.56
357.08	1771.56
357.307	1977.56
357.534	1959.56
357.761	1748.56
357.988	1603.56
358.215	1569.56
358.441	1585.56
358.668	1599.56
358.895	1592.56
359.122	1722.56
359.349	1846.56
359.576	1821.56
359.802	1666.56
360.029	1578.56
360.256	1577.56
360.483	1595.56
360.709	1624.56
360.936	1702.56
361.163	1766.56
361.39	1885.56
361.616	2088.56
361.843	2021.56
362.07	1894.56
362.296	1686.56
362.523	1596.56
362.749	1612.56
362.976	1662.56
363.203	1669.56
363.429	1632.56
363.656	1534.56
363.882	1645.56
364.109	1784.56
364.335	1928.56
364.562	1826.56
364.788	1752.56
365.015	1716.56
365.241	1594.56
365.468	1652.56
365.694	1739.56
365.92	1770.56
366.147	1727.56
366.373	1676.56
366.599	1575.56
366.826	1612.56
367.052	1573.56
367.278	1649.56
367.505	1644.56
367.731	1701.56
367.957	1688.56
368.184	1740.56
368.41	1829.56
368.636	1829.56
368.862	1844.56
369.089	1877.56
369.315	1796.56
369.541	1735.56
369.767	1662.56
369.993	1573.56
370.219	1632.56
370.445	1649.56
370.672	1750.56
370.898	1858.56
371.124	1844.56
371.35	1715.56
371.576	1793.56
371.802	1849.56
372.028	1799.56
372.254	1725.56
372.48	1673.56
372.706	1673.56
372.932	1685.56
373.158	1652.56
373.384	1690.56
373.61	1737.56
373.835	1826.56
374.061	1722.56
374.287	1710.56
374.513	1750.56
374.739	1751.56
374.965	1757.56
375.191	1747.56
375.416	1819.56
375.642	1773.56
375.868	1872.56
376.094	1929.56
376.319	1861.56
376.545	1747.56
376.771	1763.56
376.997	1859.56
377.222	1810.56
377.448	1764.56
377.674	1824.56
377.899	1797.56
378.125	1873.56
378.35	1884.56
378.576	1740.56
378.802	1684.56
379.027	1715.56
379.253	1694.56
379.478	1704.56
379.704	1709.56
379.929	1715.56
380.155	1722.56
380.38	1738.56
380.606	1741.56
380.831	1708.56
381.057	1792.56
381.282	1840.56
381.507	1794.56
381.733	1879.56
381.958	2013.56
382.184	1836.56
382.409	1768.56
382.634	1835.56
382.86	1792.56
383.085	1769.56
383.31	1829.56
383.535	1970.56
383.761	2139.56
383.986	1985.56
384.211	1950.56
384.436	1937.56
384.662	2024.56
384.887	2076.56
385.112	1990.56
385.337	1994.56
385.562	1965.56
385.787	1973.56
386.013	2030.56
386.238	2049.56
386.463	1965.56
386.688	2109.56
386.913	2210.56
387.138	2211.56
387.363	2025.56
387.588	1985.56
387.813	1977.56
388.038	2019.56
388.263	2091.56
388.488	2071.56
388.713	1913.56
388.938	1870.56
389.163	1873.56
389.387	1919.56
389.612	1938.56
389.837	1979.56
390.062	2034.56
390.287	1956.56
390.512	1989.56
390.736	1956.56
390.961	1865.56
391.186	1898.56
391.411	1866.56
391.636	1912.56
391.86	2003.56
392.085	1981.56
392.31	1927.56
392.534	1964.56
392.759	1978.56
392.984	1968.56
393.208	1992.56
393.433	2049.56
393.658	2087.56
393.882	2126.56
394.107	2002.56
394.331	1984.56
394.556	1984.56
394.78	2002.56
395.005	2060.56
395.229	2172.56
395.454	2288.56
395.678	2258.56
395.903	2160.56
396.127	2100.56
396.352	2098.56
396.576	2191.56
396.801	2130.56
397.025	2096.56
397.249	2144.56
397.474	2134.56
397.698	2128.56
397.922	2227.56
398.147	2247.56
398.371	2335.56
398.595	2316.56
398.82	2290.56
399.044	2298.56
399.268	2362.56
399.492	2535.56
399.717	2657.56
399.941	2687.56
400.165	2620.56
400.389	2574.56
400.613	2510.56
400.837	2729.56
401.062	3188.56
401.286	2708.56
401.51	2484.56
401.734	2572.56
401.958	2499.56
402.182	2316.56
402.406	2274.56
402.63	2244.56
402.854	2264.56
403.078	2281.56
403.302	2364.56
403.526	2398.56
403.75	2372.56
403.974	2370.56
404.198	2348.56
404.422	2388.56
404.645	2531.56
404.869	2528.56
405.093	2304.56
405.317	2294.56
405.541	2357.56
405.765	2376.56
405.988	2319.56
406.212	2438.56
406.436	2498.56
406.66	2492.56
406.883	2554.56
407.107	2824.56
407.331	3066.56
407.555	3294.56
407.778	3101.56
408.002	2552.56
408.226	2473.56
408.449	2520.56
408.673	2393.56
408.896	2412.56
409.12	2441.56
409.344	2402.56
409.567	2332.56
409.791	2408.56
410.014	2437.56
410.238	2525.56
410.461	2696.56
410.685	2404.56
410.908	2269.56
411.132	2326.56
411.355	2317.56
411.578	2304.56
411.802	2297.56
412.025	2341.56
412.249	2331.56
412.472	2193.56
412.695	2213.56
412.919	2226.56
413.142	2196.56
413.365	2256.56
413.589	2324.56
413.812	2385.56
414.035	2484.56
414.258	2296.56
414.482	2284.56
414.705	2248.56
414.928	2216.56
415.151	2252.56
415.374	2268.56
415.597	2254.56
415.821	2289.56
416.044	2376.56
416.267	2403.56
416.49	2152.56
416.713	2149.56
416.936	2220.56
417.159	2324.56
417.382	2356.56
417.605	2188.56
417.828	2297.56
418.051	2300.56
418.274	2249.56
418.497	2176.56
418.72	2184.56
418.943	2166.56
419.166	2326.56
419.389	2412.56
419.611	2249.56
419.834	2213.56
420.057	2256.56
420.28	2164.56
420.503	2174.56
420.726	2232.56
420.948	2209.56
421.171	2099.56
421.394	2165.56
421.617	2214.56
421.839	2163.56
422.062	2198.56
422.285	2103.56
422.507	2156.56
422.73	2135.56
422.953	2056.56
423.175	2048.56
423.398	2146.56
423.621	2155.56
423.843	2157.56
424.066	2210.56
424.288	2241.56
424.511	2330.56
424.733	2274.56
424.956	2039.56
425.178	2018.56
425.401	2068.56
425.623	2111.56
425.846	2084.56
426.068	2196.56
426.291	2279.56
426.513	2161.56
426.735	2206.56
426.958	2290.56
427.18	2463.56
427.402	2246.56
427.625	2360.56
427.847	2330.56
428.069	2180.56
428.292	2120.56
428.514	2085.56
428.736	2027.56
428.958	2098.56
429.181	2110.56
429.403	2342.56
429.625	2897.56
429.847	2574.56
430.069	2172.56
430.292	2339.56
430.514	2491.56
430.736	2256.56
430.958	2345.56
431.18	2254.56
431.402	2135.56
431.624	2086.56
431.846	2121.56
432.068	2074.56
432.29	2100.56
432.512	2108.56
432.734	2136.56
432.956	2171.56
433.178	2263.56
433.4	2277.56
433.622	2209.56
433.844	2109.56
434.066	2029.56
434.287	2077.56
434.509	2184.56
434.731	2260.56
434.953	2387.56
435.175	2396.56
435.397	2217.56
435.618	2216.56
435.84	2234.56
436.062	2215.56
436.284	2181.56
436.505	2196.56
436.727	2284.56
436.949	2174.56
437.17	2118.56
437.392	2114.56
437.614	2140.56
437.835	2041.56
438.057	2195.56
438.278	2248.56
438.5	2114.56
438.721	2058.56
438.943	2090.56
439.165	2102.56
439.386	2004.56
439.608	2036.56
439.829	2105.56
440.05	2096.56
440.272	2043.56
440.493	2022.56
440.715	2089.56
440.936	2205.56
441.158	2445.56
441.379	2382.56
441.6	2337.56
441.822	2235.56
442.043	2248.56
442.264	2221.56
442.486	2050.56
442.707	2043.56
442.928	2084.56
443.149	2167.56
443.371	2232.56
443.592	2339.56
443.813	2300.56
444.034	2281.56
444.255	2286.56
444.476	2298.56
444.698	2368.56
444.919	2397.56
445.14	2423.56
445.361	2427.56
445.582	2488.56
445.803	2353.56
446.024	2292.56
446.245	2376.56
446.466	2317.56
446.687	2162.56
446.908	2189.56
447.129	2104.56
447.35	2166.56
447.571	2142.56
447.792	2087.56
448.013	2011.56
448.234	2070.56
448.455	2166.56
448.675	2149.56
448.896	1998.56
449.117	1962.56
449.338	2050.56
449.559	2114.56
449.779	2240.56
450	2440.56
450.221	2668.56
450.442	2538.56
450.662	2274.56
450.883	1986.56
451.104	1952.56
451.324	1971.56
451.545	2073.56
451.766	2040.56
451.986	1946.56
452.207	1950.56
452.428	1888.56
452.648	1838.56
452.869	1909.56
453.089	2018.56
453.31	2044.56
453.53	2131.56
453.751	1978.56
453.971	1900.56
454.192	1952.56
454.412	2067.56
454.633	1989.56
454.853	1936.56
455.073	1820.56
455.294	1800.56
455.514	1778.56
455.734	1821.56
455.955	1857.56
456.175	1863.56
456.395	1882.56
456.616	1898.56
456.836	1960.56
457.056	1896.56
457.276	1965.56
457.497	1860.56
457.717	1811.56
457.937	1861.56
458.157	1898.56
458.377	1877.56
458.598	1870.56
458.818	1877.56
459.038	1992.56
459.258	2102.56
459.478	2107.56
459.698	2092.56
459.918	2090.56
460.138	2148.56
460.358	2201.56
460.578	2245.56
460.798	2341.56
461.018	2448.56
461.238	2334.56
461.458	2206.56
461.678	2219.56
461.898	2211.56
462.118	2128.56
462.338	2205.56
462.558	2240.56
462.777	2240.56
462.997	2362.56
463.217	2498.56
463.437	2483.56
463.657	2272.56
463.876	2252.56
464.096	2251.56
464.316	2218.56
464.536	2328.56
464.755	2352.56
464.975	2364.56
465.195	2284.56
465.414	2355.56
465.634	2384.56
465.854	2202.56
466.073	2303.56
466.293	2316.56
466.512	2040.56
466.732	2020.56
466.951	2107.56
467.171	2080.56
467.391	2011.56
467.61	1995.56
467.829	2014.56
468.049	2121.56
468.268	2409.56
468.488	2269.56
468.707	2133.56
468.927	2067.56
469.146	2018.56
469.365	2018.56
469.585	2064.56
469.804	1985.56
470.023	2007.56
470.243	2056.56
470.462	2015.56
470.681	2032.56
470.901	2007.56
471.12	2044.56
471.339	2025.56
471.558	1989.56
471.777	1913.56
471.997	2021.56
472.216	2000.56
472.435	1904.56
472.654	1996.56
472.873	2089.56
473.092	2168.56
473.311	2089.56
473.53	1965.56
473.749	1956.56
473.968	2001.56
474.187	2120.56
474.406	2213.56
474.625	2096.56
474.844	2032.56
475.063	2050.56
475.282	2120.56
475.501	2082.56
475.72	2041.56
475.939	2202.56
476.158	2144.56
476.377	2052.56
476.596	2066.56
476.814	2102.56
477.033	2188.56
477.252	2264.56
477.471	2272.56
477.69	2162.56
477.908	2122.56
478.127	2251.56
478.346	2420.56
478.564	2492.56
478.783	2442.56
479.002	2500.56
479.22	2496.56
479.439	2497.56
479.658	2830.56
479.876	2854.56
480.095	2489.56
480.313	2368.56
480.532	2260.56
480.751	2340.56
480.969	2397.56
481.188	2333.56
481.406	2288.56
481.624	2256.56
481.843	2274.56
482.061	2313.56
482.28	2361.56
482.498	2412.56
482.717	2324.56
482.935	2283.56
483.153	2277.56
483.372	2256.56
483.59	2294.56
483.808	2317.56
484.027	2368.56
484.245	2458.56
484.463	2814.56
484.681	3282.56
484.9	2526.56
485.118	2343.56
485.336	2295.56
485.554	2376.56
485.772	2486.56
485.99	2474.56
486.209	2433.56
486.427	2472.56
486.645	2497.56
486.863	2442.56
487.081	2461.56
487.299	2556.56
487.517	2482.56
487.735	2428.56
487.953	2351.56
488.171	2332.56
488.389	2348.56
488.607	2366.56
488.825	2634.56
489.043	2694.56
489.261	2366.56
489.479	2513.56
489.696	2561.56
489.914	2504.56
490.132	2482.56
490.35	2424.56
490.568	2530.56
490.786	2421.56
491.003	2332.56
491.221	2381.56
491.439	2530.56
491.657	2452.56
491.874	2486.56
492.092	2499.56
492.31	2481.56
492.527	2460.56
492.745	2428.56
492.963	2438.56
493.18	2491.56
493.398	2684.56
493.615	2761.56
493.833	2511.56
494.05	2440.56
494.268	2504.56
494.485	2589.56
494.703	2486.56
494.92	2422.56
495.138	2486.56
495.355	2485.56
495.573	2557.56
495.79	2692.56
496.008	2796.56
496.225	2587.56
496.442	2603.56
496.66	2659.56
496.877	2571.56
497.094	2713.56
497.312	2722.56
497.529	2674.56
497.746	2763.56
497.963	3171.56
498.181	3589.56
498.398	3413.56
498.615	3270.56
498.832	3164.56
499.049	3170.56
499.267	3193.56
499.484	3409.56
499.701	3703.56
499.918	3723.56
500.135	3964.56
500.352	4329.56
500.569	4215.56
500.786	4378.56
501.003	4210.56
501.22	3775.56
501.437	3703.56
501.654	3667.56
501.871	3581.56
502.088	3154.56
502.305	3111.56
502.522	3011.56
502.739	2817.56
502.956	2787.56
503.172	2733.56
503.389	2647.56
503.606	2653.56
503.823	2596.56
504.04	2604.56
504.256	2648.56
504.473	2656.56
504.69	2718.56
504.907	2592.56
505.123	2493.56
505.34	2599.56
505.557	3293.56
505.773	2857.56
505.99	2416.56
506.207	2296.56
506.423	2239.56
506.64	2203.56
506.856	2249.56
507.073	2519.56
507.289	2754.56
507.506	2620.56
507.722	2274.56
507.939	2168.56
508.155	2146.56
508.372	2196.56
508.588	2101.56
508.805	2060.56
509.021	2024.56
509.238	2048.56
509.454	2018.56
509.67	2038.56
509.887	2000.56
510.103	2026.56
510.319	2072.56
510.536	2167.56
510.752	2195.56
510.968	2176.56
511.184	2328.56
511.401	2288.56
511.617	2063.56
511.833	1960.56
512.049	1943.56
512.265	1988.56
512.481	1942.56
512.698	2030.56
512.914	2218.56
513.13	2104.56
513.346	1981.56
513.562	1933.56
513.778	2010.56
513.994	2123.56
514.21	2173.56
514.426	2158.56
514.642	2395.56
514.858	2292.56
515.074	2099.56
515.29	2010.56
515.506	2117.56
515.721	2129.56
515.937	2089.56
516.153	2419.56
516.369	2308.56
516.585	2200.56
516.801	2062.56
517.016	2060.56
517.232	2158.56
517.448	2179.56
517.664	2192.56
517.879	2172.56
518.095	2294.56
518.311	2213.56
518.527	2121.56
518.742	2098.56
518.958	2019.56
519.173	2007.56
519.389	2016.56
519.605	2013.56
519.82	2037.56
520.036	2096.56
520.251	2014.56
520.467	2057.56
520.682	2186.56
520.898	2266.56
521.113	2004.56
521.329	1980.56
521.544	2126.56
521.76	2029.56
521.975	1956.56
522.19	1895.56
522.406	1895.56
522.621	2268.56
522.836	2262.56
523.052	1869.56
523.267	1882.56
523.482	1931.56
523.698	1836.56
523.913	1796.56
524.128	1810.56
524.343	1947.56
524.559	1969.56
524.774	1827.56
524.989	1815.56
525.204	1824.56
525.419	1773.56
525.634	1796.56
525.849	1844.56
526.064	1848.56
526.28	1862.56
526.495	1800.56
526.71	1758.56
526.925	1783.56
527.14	1761.56
527.355	1712.56
527.57	1737.56
527.785	1813.56
527.999	1733.56
528.214	1706.56
528.429	1701.56
528.644	1716.56
528.859	1736.56
529.074	1726.56
529.289	1730.56
529.503	1760.56
529.718	1787.56
529.933	1732.56
530.148	1677.56
530.363	1669.56
530.577	1687.56
530.792	1735.56
531.007	1781.56
531.221	1724.56
531.436	1795.56
531.651	1819.56
531.865	1900.56
532.08	1801.56
532.295	1656.56
532.509	1629.56
532.724	1684.56
532.938	1772.56
533.153	1873.56
533.367	1785.56
533.582	1751.56
533.796	1689.56
534.011	1722.56
534.225	1752.56
534.44	1727.56
534.654	1687.56
534.868	1684.56
535.083	1740.56
535.297	1752.56
535.511	1701.56
535.726	1696.56
535.94	1651.56
536.154	1670.56
536.369	1681.56
536.583	1679.56
536.797	1652.56
537.011	1706.56
537.225	1594.56
537.44	1612.56
537.654	1692.56
537.868	1613.56
538.082	1524.56
538.296	1529.56
538.51	1559.56
538.724	1596.56
538.938	1576.56
539.153	1620.56
539.367	1643.56
539.581	1625.56
539.795	1727.56
540.009	1642.56
540.222	1624.56
540.436	1629.56
540.65	1776.56
540.864	1800.56
541.078	1658.56
541.292	1598.56
541.506	1587.56
541.72	1632.56
541.934	1635.56
542.147	1660.56
542.361	1627.56
542.575	1579.56
542.789	1507.56
543.002	1501.56
543.216	1551.56
543.43	1656.56
543.644	1664.56
543.857	1724.56
544.071	1692.56
544.285	1642.56
544.498	1586.56
544.712	1596.56
544.925	1632.56
545.139	1634.56
545.352	1586.56
545.566	1525.56
545.779	1514.56
545.993	1543.56
546.206	1627.56
546.42	1520.56
546.633	1516.56
546.847	1534.56
547.06	1518.56
547.274	1503.56
547.487	1489.56
547.7	1508.56
547.914	1563.56
548.127	1516.56
548.34	1565.56
548.554	1538.56
548.767	1541.56
548.98	1553.56
549.193	1499.56
549.407	1590.56
549.62	1597.56
549.833	1504.56
550.046	1505.56
550.259	1497.56
550.473	1508.56
550.686	1493.56
550.899	1493.56
551.112	1444.56
551.325	1455.56
551.538	1526.56
551.751	1756.56
551.964	1477.56
552.177	1459.56
552.39	1474.56
552.603	1497.56
552.816	1506.56
553.029	1552.56
553.242	1577.56
553.455	1530.56
553.667	1501.56
553.88	1501.56
554.093	1512.56
554.306	1416.56
554.519	1379.56
554.732	1360.56
554.944	1431.56
555.157	1458.56
555.37	1418.56
555.583	1432.56
555.795	1398.56
556.008	1337.56
556.221	1365.56
556.433	1296.56
556.646	1282.56
556.859	1316.56
557.071	1300.56
557.284	1283.56
557.496	1300.56
557.709	1279.56
557.921	1268.56
558.134	1286.56
558.346	1291.56
558.559	1278.56
558.771	1249.56
558.984	1209.56
559.196	1217.56
559.409	1219.56
559.621	1228.56
559.833	1245.56
560.046	1268.56
560.258	1261.56
560.47	1259.56
560.683	1246.56
560.895	1223.56
561.107	1271.56
561.32	1243.56
561.532	1268.56
561.744	1217.56
561.956	1253.56
562.168	1235.56
562.381	1193.56
562.593	1204.56
562.805	1207.56
563.017	1196.56
563.229	1209.56
563.441	1285.56
563.653	1214.56
563.865	1203.56
564.077	1195.56
564.289	1191.56
564.501	1223.56
564.713	1270.56
564.925	1286.56
565.137	1406.56
565.349	1304.56
565.561	1316.56
565.773	1306.56
565.985	1276.56
566.197	1382.56
566.408	1468.56
566.62	1491.56
566.832	1494.56
567.044	1497.56
567.255	1517.56
567.467	1469.56
567.679	1549.56
567.891	1608.56
568.102	1554.56
568.314	1461.56
568.526	1442.56
568.737	1323.56
568.949	1284.56
569.161	1280.56
569.372	1210.56
569.584	1146.56
569.795	1164.56
570.007	1159.56
570.218	1138.56
570.43	1108.56
570.641	1128.56
570.853	1106.56
571.064	1123.56
571.276	1090.56
571.487	1112.56
571.698	1076.56
571.91	1036.56
572.121	1018.56
572.333	1010.56
572.544	1008.56
572.755	974.56
572.966	954.56
573.178	995.56
573.389	1006.56
573.6	1011.56
573.811	1063.56
574.023	1003.56
574.234	982.56
574.445	950.56
574.656	937.56
574.867	918.56
575.078	932.56
575.289	946.56
575.501	911.56
575.712	915.56
575.923	908.56
576.134	946.56
576.345	918.56
576.556	896.56
576.767	926.56
576.978	899.56
577.188	890.56
577.399	881.56
577.61	876.56
577.821	856.56
578.032	851.56
578.243	883.56
578.454	864.56
578.665	842.56
578.875	838.56
579.086	826.56
579.297	835.56
579.508	876.56
579.718	850.56
579.929	828.56
580.14	816.56
580.35	812.56
580.561	836.56
580.772	905.56
580.982	852.56
581.193	788.56
581.403	812.56
581.614	793.56
581.825	799.56
582.035	800.56
582.246	787.56
582.456	807.56
582.667	796.56
582.877	769.56
583.087	800.56
583.298	774.56
583.508	788.56
583.719	791.56
583.929	803.56
584.139	803.56
584.35	769.56
584.56	797.56
584.77	788.56
584.981	782.56
585.191	770.56
585.401	799.56
585.611	780.56
585.821	769.56
586.032	766.56
586.242	742.56
586.452	744.56
586.662	761.56
586.872	744.56
587.082	772.56
587.292	806.56
587.502	793.56
587.713	780.56
587.923	754.56
588.133	753.56
588.343	760.56
588.553	741.56
588.762	760.56
588.972	737.56
589.182	766.56
589.392	768.56
589.602	752.56
589.812	749.56
590.022	713.56
590.232	721.56
590.441	746.56
590.651	754.56
590.861	762.56
591.071	727.56
591.281	755.56
591.49	724.56
591.7	721.56
591.91	734.56
592.119	699.56
592.329	754.56
592.539	768.56
592.748	748.56
592.958	766.56
593.167	788.56
593.377	801.56
593.587	755.56
593.796	770.56
594.006	810.56
594.215	786.56
594.424	788.56
594.634	778.56
594.843	730.56
595.053	788.56
595.262	729.56
595.472	699.56
595.681	729.56
595.89	731.56
596.1	711.56
596.309	710.56
596.518	678.56
596.727	708.56
596.937	694.56
597.146	645.56
597.355	653.56
597.564	669.56
597.774	643.56
597.983	643.56
598.192	646.56
598.401	636.56
598.61	627.56
598.819	623.56
599.028	602.56
599.237	623.56
599.446	620.56
599.655	609.56
599.864	613.56
600.073	613.56
600.282	601.56
600.491	600.56
600.7	613.56
600.909	602.56
601.118	617.56
601.327	601.56
601.536	624.56
601.745	579.56
601.953	596.56
602.162	586.56
602.371	597.56
602.58	598.56
602.789	613.56
602.997	596.56
603.206	596.56
603.415	589.56
603.623	616.56
603.832	578.56
604.041	579.56
604.249	558.56
604.458	572.56
604.666	584.56
604.875	545.56
605.084	593.56
605.292	559.56
605.501	586.56
605.709	586.56
605.918	574.56
606.126	556.56
606.334	558.56
606.543	565.56
606.751	560.56
606.96	561.56
607.168	565.56
607.376	552.56
607.585	554.56
607.793	557.56
608.001	550.56
608.21	527.56
608.418	536.56
608.626	568.56
608.834	552.56
609.043	544.56
609.251	538.56
609.459	549.56
609.667	535.56
609.875	577.56
610.083	552.56
610.291	582.56
610.499	571.56
610.707	564.56
610.916	546.56
611.124	524.56
611.332	531.56
611.54	532.56
611.748	527.56
611.955	520.56
612.163	515.56
612.371	513.56
612.579	512.56
612.787	506.56
612.995	537.56
613.203	541.56
613.411	520.56
613.618	521.56
613.826	527.56
614.034	534.56
614.242	531.56
614.449	549.56
614.657	534.56
614.865	530.56
615.072	511.56
615.28	512.56
615.488	521.56
615.695	572.56
615.903	554.56
616.111	516.56
616.318	516.56
616.526	508.56
616.733	498.56
616.941	489.56
617.148	500.56
617.356	512.56
617.563	504.56
617.771	497.56
617.978	500.56
618.185	512.56
618.393	509.56
618.6	487.56
618.807	487.56
619.015	514.56
619.222	492.56
619.429	487.56
619.637	500.56
619.844	483.56
620.051	473.56
620.258	480.56
620.466	446.56
620.673	467.56
620.88	458.56
621.087	467.56
621.294	467.56
621.501	444.56
621.708	452.56
621.915	471.56
622.122	472.56
622.329	477.56
622.536	447.56
622.743	467.56
622.95	444.56
623.157	450.56
623.364	447.56
623.571	445.56
623.778	465.56
623.985	442.56
624.192	447.56
624.399	451.56
624.606	426.56
624.812	439.56
625.019	439.56
625.226	447.56
625.433	448.56
625.639	427.56
625.846	443.56
626.053	430.56
626.259	422.56
626.466	432.56
626.673	434.56
626.879	418.56
627.086	391.56
627.293	412.56
627.499	404.56
627.706	420.56
627.912	398.56
628.119	407.56
628.325	406.56
628.532	411.56
628.738	413.56
628.945	403.56
629.151	404.56
629.357	401.56
629.564	423.56
629.77	412.56
629.976	389.56
630.183	397.56
630.389	404.56
630.595	412.56
630.802	423.56
631.008	391.56
631.214	382.56
631.42	368.56
631.627	385.56
631.833	379.56
632.039	376.56
632.245	375.56
632.451	369.56
632.657	377.56
632.863	373.56
633.069	378.56
633.275	362.56
633.481	375.56
633.688	368.56
633.893	370.56
634.099	359.56
634.305	364.56
634.511	360.56
634.717	340.56
634.923	346.56
635.129	357.56
635.335	376.56
635.541	348.56
635.747	362.56
635.952	358.56
636.158	346.56
636.364	364.56
636.57	361.56
636.775	337.56
636.981	345.56
637.187	342.56
637.392	334.56
637.598	357.56
637.804	365.56
638.009	350.56
638.215	331.56
638.421	352.56
638.626	330.56
638.832	324.56
639.037	334.56
639.243	323.56
639.448	340.56
639.654	352.56
639.859	334.56
640.065	328.56
640.27	348.56
640.475	328.56
640.681	336.56
640.886	322.56
641.091	327.56
641.297	316.56
641.502	342.56
641.707	336.56
641.913	330.56
642.118	340.56
642.323	328.56
642.528	327.56
642.733	331.56
642.939	337.56
643.144	323.56
643.349	335.56
643.554	319.56
643.759	317.56
643.964	311.56
644.169	302.56
644.374	311.56
644.579	322.56
644.784	313.56
644.989	311.56
645.194	300.56
645.399	300.56
645.604	315.56
645.809	322.56
646.014	327.56
646.219	321.56
646.423	322.56
646.628	324.56
646.833	315.56
647.038	304.56
647.243	308.56
647.447	312.56
647.652	316.56
647.857	314.56
648.062	306.56
648.266	314.56
648.471	332.56
648.676	322.56
648.88	320.56
649.085	325.56
649.289	313.56
649.494	306.56
649.698	301.56
649.903	293.56
650.107	309.56
650.312	332.56
650.516	293.56
650.721	296.56
650.925	291.56
651.13	295.56
651.334	262.56
651.539	274.56
651.743	268.56
651.947	276.56
652.152	288.56
652.356	286.56
652.56	263.56
652.764	267.56
652.969	261.56
653.173	253.56
653.377	274.56
653.581	245.56
653.785	243.56
653.99	259.56
654.194	246.56
654.398	253.56
654.602	245.56
654.806	249.56
655.01	253.56
655.214	247.56
655.418	237.56
655.622	249.56
655.826	260.56
656.03	273.56
656.234	264.56
656.438	283.56
656.642	275.56
656.846	261.56
657.049	246.56
657.253	223.56
657.457	207.56
657.661	210.56
657.865	189.56
658.068	187.56
658.272	168.56
658.476	160.56
658.68	165.56
658.883	145.56
659.087	146.56
659.291	151.56
659.494	126.56
659.698	149.56
659.901	127.56
660.105	132.56
660.309	117.56
660.512	121.56
660.716	116.56
660.919	112.56
661.123	105.56
661.326	118.56
661.53	103.56
661.733	106.56
661.936	104.56
662.14	105.56
662.343	102.56
662.546	91.56
662.75	109.56
662.953	84.56
663.156	84.56
663.36	84.56
663.563	94.56
663.766	87.56
663.969	89.56
664.173	77.56
664.376	89.56
664.579	114.56
664.782	89.56
664.985	79.56
665.188	78.56
665.391	89.56
665.594	81.56
665.797	78.56
666	81.56
666.203	81.56
666.406	71.56
666.609	70.56
666.812	81.56
667.015	90.56
667.218	88.56
667.421	94.56
667.624	77.56
667.827	80.56
668.03	80.56
668.232	93.56
668.435	82.56
668.638	83.56
668.841	97.56
669.043	93.56
669.246	99.56
669.449	86.56
669.651	75.56
669.854	85.56
670.057	78.56
670.259	78.56
670.462	84.56
670.665	77.56
670.867	82.56
671.07	101.56
671.272	71.56
671.475	91.56
671.677	85.56
671.88	87.56
672.082	73.56
672.284	69.56
672.487	87.56
672.689	90.56
672.892	70.56
