Data from WStandard_LampEnergy5.5LIBS07252019.E.O._I.C._HRD10591_16-08-18-920.txt Node
Date: Thu Jul 25 16:08:18 EDT 2019
User: cochatt
Spectrometer: HR+D1059
Trigger mode: 1
Integration Time (sec): 1.000000E-1
Scans to average: 1
Electric dark correction enabled: true
Nonlinearity correction enabled: false
Boxcar width: 0
XAxis mode: Wavelengths
Number of Pixels in Spectrum: 2048
>>>>>Begin Spectral Data<<<<<
223.165	-12.44
223.4	-12.44
223.635	-12.44
223.869	-10.44
224.104	-13.44
224.338	-15.44
224.573	-6.44
224.808	-16.44
225.042	-24.44
225.277	-5.44
225.511	-3.44
225.746	3.56
225.98	6.56
226.215	18.56
226.449	18.56
226.683	24.56
226.918	20.56
227.152	15.56
227.387	42.56
227.621	36.56
227.856	58.56
228.09	60.56
228.324	66.56
228.559	57.56
228.793	138.56
229.027	354.56
229.262	377.56
229.496	371.56
229.73	391.56
229.964	422.56
230.199	446.56
230.433	480.56
230.667	499.56
230.901	532.56
231.136	485.56
231.37	479.56
231.604	472.56
231.838	456.56
232.072	458.56
232.306	437.56
232.541	464.56
232.775	530.56
233.009	624.56
233.243	579.56
233.477	532.56
233.711	533.56
233.945	560.56
234.179	556.56
234.413	586.56
234.647	641.56
234.881	590.56
235.115	522.56
235.349	567.56
235.583	564.56
235.817	553.56
236.051	545.56
236.285	557.56
236.519	603.56
236.753	680.56
236.987	674.56
237.221	655.56
237.455	722.56
237.689	738.56
237.922	677.56
238.156	665.56
238.39	666.56
238.624	707.56
238.858	747.56
239.091	775.56
239.325	801.56
239.559	904.56
239.793	956.56
240.027	1046.56
240.26	1027.56
240.494	772.56
240.728	721.56
240.961	734.56
241.195	735.56
241.429	819.56
241.662	842.56
241.896	775.56
242.13	762.56
242.363	833.56
242.597	934.56
242.83	896.56
243.064	879.56
243.298	942.56
243.531	928.56
243.765	915.56
243.998	920.56
244.232	817.56
244.465	774.56
244.699	787.56
244.932	900.56
245.166	1052.56
245.399	962.56
245.633	880.56
245.866	854.56
246.099	945.56
246.333	983.56
246.566	984.56
246.8	1049.56
247.033	1150.56
247.266	1075.56
247.5	1064.56
247.733	1057.56
247.966	1137.56
248.2	1239.56
248.433	1176.56
248.666	1220.56
248.899	1326.56
249.133	1476.56
249.366	1728.56
249.599	1398.56
249.832	1245.56
250.066	1260.56
250.299	1298.56
250.532	1193.56
250.765	1059.56
250.998	1139.56
251.231	1238.56
251.465	1244.56
251.698	1154.56
251.931	1153.56
252.164	1202.56
252.397	1261.56
252.63	1206.56
252.863	1082.56
253.096	1113.56
253.329	1138.56
253.562	1135.56
253.795	1267.56
254.028	1251.56
254.261	1186.56
254.494	1172.56
254.727	1080.56
254.96	1143.56
255.193	1255.56
255.426	1392.56
255.659	1624.56
255.892	1692.56
256.124	1376.56
256.357	1265.56
256.59	1400.56
256.823	1419.56
257.056	1371.56
257.289	1679.56
257.521	1840.56
257.754	1676.56
257.987	1592.56
258.22	1746.56
258.452	1691.56
258.685	1418.56
258.918	1326.56
259.151	1388.56
259.383	1290.56
259.616	1142.56
259.849	1259.56
260.081	1380.56
260.314	1499.56
260.547	1661.56
260.779	1720.56
261.012	1576.56
261.244	1406.56
261.477	1324.56
261.71	1414.56
261.942	1402.56
262.175	1342.56
262.407	1425.56
262.64	1350.56
262.872	1272.56
263.105	1264.56
263.337	1264.56
263.57	1319.56
263.802	1298.56
264.035	1238.56
264.267	1123.56
264.499	1086.56
264.732	1184.56
264.964	1276.56
265.197	1341.56
265.429	1363.56
265.661	1544.56
265.894	1694.56
266.126	1777.56
266.358	1592.56
266.591	1641.56
266.823	1792.56
267.055	1600.56
267.287	1569.56
267.52	1542.56
267.752	1553.56
267.984	1511.56
268.216	1624.56
268.448	1629.56
268.681	1632.56
268.913	1495.56
269.145	1414.56
269.377	1389.56
269.609	1517.56
269.841	1696.56
270.073	1971.56
270.306	2246.56
270.538	2349.56
270.77	2018.56
271.002	1679.56
271.234	1648.56
271.466	1625.56
271.698	1836.56
271.93	2160.56
272.162	2215.56
272.394	1955.56
272.626	1862.56
272.858	1662.56
273.09	1457.56
273.322	1449.56
273.553	1390.56
273.785	1356.56
274.017	1443.56
274.249	1528.56
274.481	1584.56
274.713	1402.56
274.945	1392.56
275.176	1394.56
275.408	1400.56
275.64	1387.56
275.872	1330.56
276.104	1435.56
276.335	1630.56
276.567	1853.56
276.799	1881.56
277.031	1716.56
277.262	1602.56
277.494	1656.56
277.726	1846.56
277.957	1806.56
278.189	1674.56
278.421	1504.56
278.652	1476.56
278.884	1434.56
279.115	1455.56
279.347	1500.56
279.579	1432.56
279.81	1442.56
280.042	1564.56
280.273	1769.56
280.505	1731.56
280.736	1782.56
280.968	1709.56
281.199	1464.56
281.431	1443.56
281.662	1430.56
281.894	1399.56
282.125	1466.56
282.356	1519.56
282.588	1579.56
282.819	1509.56
283.051	1641.56
283.282	1789.56
283.513	1715.56
283.745	1538.56
283.976	1416.56
284.207	1390.56
284.439	1420.56
284.67	1476.56
284.901	1506.56
285.132	1543.56
285.364	1507.56
285.595	1510.56
285.826	1488.56
286.057	1495.56
286.288	1495.56
286.52	1527.56
286.751	1680.56
286.982	1698.56
287.213	1585.56
287.444	1448.56
287.675	1416.56
287.906	1521.56
288.138	1618.56
288.369	1574.56
288.6	1468.56
288.831	1456.56
289.062	1460.56
289.293	1517.56
289.524	1487.56
289.755	1547.56
289.986	1548.56
290.217	1463.56
290.448	1498.56
290.679	1545.56
290.91	1503.56
291.141	1558.56
291.371	1635.56
291.602	1576.56
291.833	1555.56
292.064	1605.56
292.295	1556.56
292.526	1629.56
292.757	1702.56
292.987	1632.56
293.218	1544.56
293.449	1609.56
293.68	1889.56
293.91	2028.56
294.141	1889.56
294.372	1754.56
294.603	1796.56
294.833	1920.56
295.064	1803.56
295.295	1614.56
295.525	1600.56
295.756	1457.56
295.987	1400.56
296.217	1437.56
296.448	1446.56
296.679	1488.56
296.909	1512.56
297.14	1492.56
297.37	1497.56
297.601	1568.56
297.831	1711.56
298.062	1706.56
298.292	1602.56
298.523	1513.56
298.753	1503.56
298.984	1504.56
299.214	1519.56
299.445	1547.56
299.675	1623.56
299.905	1630.56
300.136	1550.56
300.366	1537.56
300.597	1459.56
300.827	1448.56
301.057	1496.56
301.288	1659.56
301.518	1592.56
301.748	1657.56
301.979	1698.56
302.209	1699.56
302.439	1866.56
302.669	1953.56
302.9	1806.56
303.13	1621.56
303.36	1625.56
303.59	1652.56
303.82	1666.56
304.051	1629.56
304.281	1642.56
304.511	1631.56
304.741	1703.56
304.971	1876.56
305.201	2066.56
305.431	1896.56
305.661	1596.56
305.891	1425.56
306.121	1427.56
306.352	1457.56
306.582	1537.56
306.812	1656.56
307.042	1768.56
307.272	1774.56
307.502	1811.56
307.731	1974.56
307.961	2128.56
308.191	1976.56
308.421	1676.56
308.651	1596.56
308.881	1554.56
309.111	1592.56
309.341	1528.56
309.571	1587.56
309.8	1590.56
310.03	1570.56
310.26	1521.56
310.49	1565.56
310.72	1580.56
310.949	1632.56
311.179	1646.56
311.409	1675.56
311.639	1646.56
311.868	1560.56
312.098	1633.56
312.328	1566.56
312.557	1568.56
312.787	1599.56
313.017	1606.56
313.246	1619.56
313.476	1603.56
313.706	1663.56
313.935	1669.56
314.165	1655.56
314.394	1690.56
314.624	1802.56
314.853	1908.56
315.083	1937.56
315.312	2020.56
315.542	1909.56
315.771	1713.56
316.001	1642.56
316.23	1757.56
316.46	1746.56
316.689	1742.56
316.919	1681.56
317.148	1622.56
317.377	1606.56
317.607	1751.56
317.836	1896.56
318.065	2010.56
318.295	1955.56
318.524	1863.56
318.753	1743.56
318.983	1761.56
319.212	1738.56
319.441	1743.56
319.67	1670.56
319.9	1722.56
320.129	1840.56
320.358	1841.56
320.587	1916.56
320.816	1879.56
321.046	1874.56
321.275	1706.56
321.504	1774.56
321.733	1935.56
321.962	1869.56
322.191	1735.56
322.42	1704.56
322.649	1726.56
322.878	1700.56
323.108	1717.56
323.337	1788.56
323.566	1791.56
323.795	1735.56
324.024	1758.56
324.253	1736.56
324.482	1726.56
324.71	1656.56
324.939	1593.56
325.168	1616.56
325.397	1733.56
325.626	1759.56
325.855	1830.56
326.084	1691.56
326.313	1690.56
326.542	1726.56
326.77	1774.56
326.999	1776.56
327.228	1720.56
327.457	1630.56
327.686	1606.56
327.914	1660.56
328.143	1747.56
328.372	1697.56
328.6	1701.56
328.829	1711.56
329.058	1672.56
329.287	1624.56
329.515	1708.56
329.744	1734.56
329.972	1810.56
330.201	1871.56
330.43	1873.56
330.658	1770.56
330.887	1810.56
331.115	1822.56
331.344	1816.56
331.572	1786.56
331.801	1823.56
332.03	1775.56
332.258	1804.56
332.486	1822.56
332.715	1810.56
332.943	1811.56
333.172	1816.56
333.4	1813.56
333.629	1875.56
333.857	1976.56
334.085	2126.56
334.314	2402.56
334.542	2707.56
334.771	2431.56
334.999	2154.56
335.227	2018.56
335.455	1946.56
335.684	1979.56
335.912	1958.56
336.14	2041.56
336.369	1944.56
336.597	1872.56
336.825	1812.56
337.053	1912.56
337.281	1978.56
337.51	2080.56
337.738	2148.56
337.966	2062.56
338.194	1842.56
338.422	1790.56
338.65	1807.56
338.878	1741.56
339.106	1739.56
339.334	1710.56
339.562	1685.56
339.79	1744.56
340.018	1819.56
340.246	1889.56
340.474	1916.56
340.702	1860.56
340.93	1877.56
341.158	1852.56
341.386	1812.56
341.614	1826.56
341.842	1779.56
342.07	1738.56
342.298	1804.56
342.526	1814.56
342.754	1787.56
342.981	1768.56
343.209	1771.56
343.437	1761.56
343.665	1773.56
343.893	1811.56
344.12	1889.56
344.348	1942.56
344.576	1885.56
344.804	1823.56
345.031	1750.56
345.259	1768.56
345.487	1748.56
345.714	1682.56
345.942	1652.56
346.17	1641.56
346.397	1710.56
346.625	1712.56
346.853	1642.56
347.08	1550.56
347.308	1624.56
347.535	1647.56
347.763	1703.56
347.99	1721.56
348.218	1636.56
348.445	1633.56
348.673	1640.56
348.9	1698.56
349.128	1731.56
349.355	1816.56
349.583	1752.56
349.81	1723.56
350.037	1571.56
350.265	1533.56
350.492	1544.56
350.72	1583.56
350.947	1658.56
351.174	1718.56
351.402	1609.56
351.629	1552.56
351.856	1517.56
352.083	1528.56
352.311	1513.56
352.538	1598.56
352.765	1665.56
352.992	1748.56
353.22	1649.56
353.447	1577.56
353.674	1639.56
353.901	1645.56
354.128	1607.56
354.355	1582.56
354.583	1645.56
354.81	1694.56
355.037	1743.56
355.264	1697.56
355.491	1611.56
355.718	1646.56
355.945	1644.56
356.172	1633.56
356.399	1588.56
356.626	1616.56
356.853	1660.56
357.08	1724.56
357.307	1921.56
357.534	1972.56
357.761	1734.56
357.988	1590.56
358.215	1530.56
358.441	1598.56
358.668	1563.56
358.895	1594.56
359.122	1671.56
359.349	1820.56
359.576	1887.56
359.802	1666.56
360.029	1601.56
360.256	1583.56
360.483	1610.56
360.709	1634.56
360.936	1671.56
361.163	1757.56
361.39	1893.56
361.616	2062.56
361.843	1969.56
362.07	1894.56
362.296	1653.56
362.523	1614.56
362.749	1620.56
362.976	1648.56
363.203	1665.56
363.429	1603.56
363.656	1564.56
363.882	1617.56
364.109	1811.56
364.335	1986.56
364.562	1801.56
364.788	1752.56
365.015	1669.56
365.241	1612.56
365.468	1654.56
365.694	1685.56
365.92	1766.56
366.147	1710.56
366.373	1601.56
366.599	1586.56
366.826	1573.56
367.052	1574.56
367.278	1624.56
367.505	1635.56
367.731	1671.56
367.957	1682.56
368.184	1723.56
368.41	1790.56
368.636	1875.56
368.862	1843.56
369.089	1885.56
369.315	1811.56
369.541	1716.56
369.767	1666.56
369.993	1628.56
370.219	1598.56
370.445	1656.56
370.672	1761.56
370.898	1828.56
371.124	1841.56
371.35	1747.56
371.576	1765.56
371.802	1833.56
372.028	1733.56
372.254	1692.56
372.48	1666.56
372.706	1674.56
372.932	1629.56
373.158	1654.56
373.384	1666.56
373.61	1707.56
373.835	1837.56
374.061	1735.56
374.287	1710.56
374.513	1711.56
374.739	1700.56
374.965	1738.56
375.191	1772.56
375.416	1817.56
375.642	1770.56
375.868	1860.56
376.094	1907.56
376.319	1862.56
376.545	1707.56
376.771	1736.56
376.997	1846.56
377.222	1791.56
377.448	1763.56
377.674	1831.56
377.899	1804.56
378.125	1914.56
378.35	1865.56
378.576	1737.56
378.802	1705.56
379.027	1663.56
379.253	1682.56
379.478	1730.56
379.704	1683.56
379.929	1687.56
380.155	1703.56
380.38	1724.56
380.606	1698.56
380.831	1742.56
381.057	1807.56
381.282	1843.56
381.507	1762.56
381.733	1878.56
381.958	1999.56
382.184	1830.56
382.409	1777.56
382.634	1753.56
382.86	1783.56
383.085	1808.56
383.31	1830.56
383.535	1956.56
383.761	2058.56
383.986	2007.56
384.211	1938.56
384.436	1905.56
384.662	2074.56
384.887	2094.56
385.112	2001.56
385.337	1991.56
385.562	1935.56
385.787	1969.56
386.013	2031.56
386.238	1990.56
386.463	1998.56
386.688	2082.56
386.913	2266.56
387.138	2219.56
387.363	2044.56
387.588	2039.56
387.813	1997.56
388.038	2019.56
388.263	2091.56
388.488	2100.56
388.713	1902.56
388.938	1916.56
389.163	1913.56
389.387	1945.56
389.612	1911.56
389.837	1980.56
390.062	2016.56
390.287	2009.56
390.512	1976.56
390.736	1947.56
390.961	1898.56
391.186	1874.56
391.411	1914.56
391.636	1953.56
391.86	1982.56
392.085	1970.56
392.31	1930.56
392.534	1974.56
392.759	2004.56
392.984	1948.56
393.208	1986.56
393.433	2018.56
393.658	2115.56
393.882	2079.56
394.107	1995.56
394.331	1932.56
394.556	1923.56
394.78	1982.56
395.005	2049.56
395.229	2067.56
395.454	2232.56
395.678	2276.56
395.903	2179.56
396.127	2087.56
396.352	2054.56
396.576	2119.56
396.801	2161.56
397.025	2158.56
397.249	2120.56
397.474	2138.56
397.698	2086.56
397.922	2164.56
398.147	2263.56
398.371	2363.56
398.595	2316.56
398.82	2241.56
399.044	2279.56
399.268	2368.56
399.492	2541.56
399.717	2625.56
399.941	2631.56
400.165	2576.56
400.389	2527.56
400.613	2475.56
400.837	2712.56
401.062	3122.56
401.286	2717.56
401.51	2412.56
401.734	2547.56
401.958	2462.56
402.182	2270.56
402.406	2225.56
402.63	2160.56
402.854	2206.56
403.078	2239.56
403.302	2320.56
403.526	2344.56
403.75	2305.56
403.974	2328.56
404.198	2345.56
404.422	2415.56
404.645	2519.56
404.869	2506.56
405.093	2262.56
405.317	2283.56
405.541	2340.56
405.765	2314.56
405.988	2350.56
406.212	2412.56
406.436	2451.56
406.66	2545.56
406.883	2511.56
407.107	2802.56
407.331	3034.56
407.555	3194.56
407.778	3032.56
408.002	2543.56
408.226	2434.56
408.449	2434.56
408.673	2374.56
408.896	2416.56
409.12	2383.56
409.344	2411.56
409.567	2364.56
409.791	2357.56
410.014	2389.56
410.238	2435.56
410.461	2630.56
410.685	2406.56
410.908	2281.56
411.132	2349.56
411.355	2320.56
411.578	2264.56
411.802	2274.56
412.025	2367.56
412.249	2277.56
412.472	2251.56
412.695	2198.56
412.919	2243.56
413.142	2186.56
413.365	2235.56
413.589	2280.56
413.812	2364.56
414.035	2469.56
414.258	2278.56
414.482	2255.56
414.705	2208.56
414.928	2242.56
415.151	2230.56
415.374	2206.56
415.597	2228.56
415.821	2270.56
416.044	2349.56
416.267	2331.56
416.49	2135.56
416.713	2127.56
416.936	2197.56
417.159	2314.56
417.382	2314.56
417.605	2175.56
417.828	2238.56
418.051	2272.56
418.274	2228.56
418.497	2152.56
418.72	2145.56
418.943	2158.56
419.166	2309.56
419.389	2391.56
419.611	2271.56
419.834	2203.56
420.057	2190.56
420.28	2143.56
420.503	2132.56
420.726	2135.56
420.948	2187.56
421.171	2148.56
421.394	2148.56
421.617	2200.56
421.839	2184.56
422.062	2131.56
422.285	2103.56
422.507	2141.56
422.73	2088.56
422.953	2028.56
423.175	2088.56
423.398	2152.56
423.621	2115.56
423.843	2114.56
424.066	2211.56
424.288	2246.56
424.511	2310.56
424.733	2236.56
424.956	2014.56
425.178	2077.56
425.401	2102.56
425.623	2091.56
425.846	2020.56
426.068	2142.56
426.291	2214.56
426.513	2194.56
426.735	2176.56
426.958	2289.56
427.18	2462.56
427.402	2202.56
427.625	2343.56
427.847	2321.56
428.069	2184.56
428.292	2129.56
428.514	2033.56
428.736	2023.56
428.958	2054.56
429.181	2041.56
429.403	2329.56
429.625	2867.56
429.847	2554.56
430.069	2140.56
430.292	2358.56
430.514	2441.56
430.736	2293.56
430.958	2355.56
431.18	2265.56
431.402	2079.56
431.624	2085.56
431.846	2056.56
432.068	2053.56
432.29	2080.56
432.512	2106.56
432.734	2139.56
432.956	2141.56
433.178	2237.56
433.4	2219.56
433.622	2250.56
433.844	2095.56
434.066	2060.56
434.287	2046.56
434.509	2140.56
434.731	2236.56
434.953	2359.56
435.175	2340.56
435.397	2192.56
435.618	2198.56
435.84	2196.56
436.062	2134.56
436.284	2159.56
436.505	2189.56
436.727	2248.56
436.949	2167.56
437.17	2057.56
437.392	2082.56
437.614	2110.56
437.835	2050.56
438.057	2167.56
438.278	2277.56
438.5	2098.56
438.721	2076.56
438.943	2018.56
439.165	2082.56
439.386	2016.56
439.608	2062.56
439.829	2025.56
440.05	2080.56
440.272	2059.56
440.493	1986.56
440.715	2082.56
440.936	2184.56
441.158	2395.56
441.379	2335.56
441.6	2221.56
441.822	2237.56
442.043	2210.56
442.264	2204.56
442.486	2065.56
442.707	2022.56
442.928	2032.56
443.149	2147.56
443.371	2295.56
443.592	2296.56
443.813	2244.56
444.034	2269.56
444.255	2254.56
444.476	2350.56
444.698	2344.56
444.919	2351.56
445.14	2447.56
445.361	2382.56
445.582	2504.56
445.803	2354.56
446.024	2224.56
446.245	2399.56
446.466	2245.56
446.687	2160.56
446.908	2186.56
447.129	2066.56
447.35	2153.56
447.571	2110.56
447.792	2064.56
448.013	1999.56
448.234	2091.56
448.455	2168.56
448.675	2195.56
448.896	2003.56
449.117	1942.56
449.338	2003.56
449.559	2102.56
449.779	2200.56
450	2418.56
450.221	2663.56
450.442	2562.56
450.662	2240.56
450.883	1977.56
451.104	1961.56
451.324	1971.56
451.545	2041.56
451.766	2016.56
451.986	1958.56
452.207	1896.56
452.428	1874.56
452.648	1840.56
452.869	1897.56
453.089	2019.56
453.31	2016.56
453.53	2116.56
453.751	2042.56
453.971	1905.56
454.192	1900.56
454.412	2042.56
454.633	1976.56
454.853	1939.56
455.073	1820.56
455.294	1793.56
455.514	1799.56
455.734	1824.56
455.955	1857.56
456.175	1857.56
456.395	1890.56
456.616	1922.56
456.836	1936.56
457.056	1885.56
457.276	1928.56
457.497	1854.56
457.717	1782.56
457.937	1804.56
458.157	1802.56
458.377	1830.56
458.598	1801.56
458.818	1862.56
459.038	1940.56
459.258	2086.56
459.478	2093.56
459.698	2014.56
459.918	2094.56
460.138	2174.56
460.358	2194.56
460.578	2187.56
460.798	2258.56
461.018	2429.56
461.238	2290.56
461.458	2210.56
461.678	2292.56
461.898	2189.56
462.118	2074.56
462.338	2196.56
462.558	2204.56
462.777	2208.56
462.997	2325.56
463.217	2443.56
463.437	2402.56
463.657	2272.56
463.876	2230.56
464.096	2235.56
464.316	2214.56
464.536	2266.56
464.755	2312.56
464.975	2366.56
465.195	2240.56
465.414	2332.56
465.634	2283.56
465.854	2243.56
466.073	2376.56
466.293	2316.56
466.512	2030.56
466.732	2017.56
466.951	2084.56
467.171	2132.56
467.391	2043.56
467.61	1937.56
467.829	1965.56
468.049	2137.56
468.268	2380.56
468.488	2231.56
468.707	2092.56
468.927	2070.56
469.146	2045.56
469.365	1989.56
469.585	2022.56
469.804	2023.56
470.023	1995.56
470.243	2068.56
470.462	2049.56
470.681	1965.56
470.901	2044.56
471.12	2031.56
471.339	2022.56
471.558	1949.56
471.777	1895.56
471.997	2005.56
472.216	1976.56
472.435	1938.56
472.654	1964.56
472.873	2044.56
473.092	2163.56
473.311	2071.56
473.53	1952.56
473.749	1951.56
473.968	2000.56
474.187	2101.56
474.406	2221.56
474.625	2078.56
474.844	2083.56
475.063	1997.56
475.282	2097.56
475.501	2059.56
475.72	2041.56
475.939	2168.56
476.158	2104.56
476.377	2078.56
476.596	2098.56
476.814	2152.56
477.033	2148.56
477.252	2223.56
477.471	2250.56
477.69	2145.56
477.908	2095.56
478.127	2277.56
478.346	2436.56
478.564	2466.56
478.783	2437.56
479.002	2525.56
479.22	2397.56
479.439	2499.56
479.658	2798.56
479.876	2829.56
480.095	2475.56
480.313	2346.56
480.532	2247.56
480.751	2254.56
480.969	2369.56
481.188	2299.56
481.406	2278.56
481.624	2212.56
481.843	2226.56
482.061	2305.56
482.28	2340.56
482.498	2385.56
482.717	2343.56
482.935	2270.56
483.153	2225.56
483.372	2279.56
483.59	2262.56
483.808	2272.56
484.027	2328.56
484.245	2452.56
484.463	2817.56
484.681	3234.56
484.9	2499.56
485.118	2362.56
485.336	2328.56
485.554	2403.56
485.772	2491.56
485.99	2400.56
486.209	2432.56
486.427	2433.56
486.645	2472.56
486.863	2401.56
487.081	2478.56
487.299	2522.56
487.517	2442.56
487.735	2374.56
487.953	2339.56
488.171	2366.56
488.389	2361.56
488.607	2367.56
488.825	2601.56
489.043	2623.56
489.261	2306.56
489.479	2474.56
489.696	2542.56
489.914	2488.56
490.132	2435.56
490.35	2387.56
490.568	2488.56
490.786	2436.56
491.003	2320.56
491.221	2330.56
491.439	2454.56
491.657	2431.56
491.874	2422.56
492.092	2455.56
492.31	2446.56
492.527	2452.56
492.745	2419.56
492.963	2382.56
493.18	2474.56
493.398	2682.56
493.615	2744.56
493.833	2518.56
494.05	2475.56
494.268	2461.56
494.485	2510.56
494.703	2440.56
494.92	2424.56
495.138	2468.56
495.355	2445.56
495.573	2571.56
495.79	2744.56
496.008	2748.56
496.225	2538.56
496.442	2555.56
496.66	2681.56
496.877	2558.56
497.094	2690.56
497.312	2681.56
497.529	2627.56
497.746	2760.56
497.963	3230.56
498.181	3573.56
498.398	3336.56
498.615	3246.56
498.832	3192.56
499.049	3155.56
499.267	3166.56
499.484	3308.56
499.701	3541.56
499.918	3618.56
500.135	3897.56
500.352	4218.56
500.569	4152.56
500.786	4372.56
501.003	4134.56
501.22	3723.56
501.437	3657.56
501.654	3642.56
501.871	3534.56
502.088	3060.56
502.305	3161.56
502.522	3008.56
502.739	2786.56
502.956	2743.56
503.172	2694.56
503.389	2641.56
503.606	2601.56
503.823	2609.56
504.04	2608.56
504.256	2621.56
504.473	2617.56
504.69	2705.56
504.907	2580.56
505.123	2422.56
505.34	2491.56
505.557	3250.56
505.773	2816.56
505.99	2363.56
506.207	2236.56
506.423	2222.56
506.64	2257.56
506.856	2279.56
507.073	2536.56
507.289	2739.56
507.506	2631.56
507.722	2218.56
507.939	2093.56
508.155	2151.56
508.372	2202.56
508.588	2129.56
508.805	2061.56
509.021	2067.56
509.238	2066.56
509.454	2009.56
509.67	2070.56
509.887	2024.56
510.103	2021.56
510.319	1993.56
510.536	2140.56
510.752	2229.56
510.968	2194.56
511.184	2339.56
511.401	2302.56
511.617	2021.56
511.833	1960.56
512.049	1927.56
512.265	1940.56
512.481	1917.56
512.698	2046.56
512.914	2168.56
513.13	2093.56
513.346	1966.56
513.562	1962.56
513.778	1970.56
513.994	2109.56
514.21	2129.56
514.426	2142.56
514.642	2389.56
514.858	2255.56
515.074	2033.56
515.29	2033.56
515.506	2043.56
515.721	2064.56
515.937	2058.56
516.153	2374.56
516.369	2272.56
516.585	2138.56
516.801	2041.56
517.016	2064.56
517.232	2087.56
517.448	2175.56
517.664	2166.56
517.879	2173.56
518.095	2325.56
518.311	2212.56
518.527	2149.56
518.742	2034.56
518.958	1986.56
519.173	1970.56
519.389	2006.56
519.605	2015.56
519.82	2007.56
520.036	2041.56
520.251	1979.56
520.467	2058.56
520.682	2124.56
520.898	2231.56
521.113	1970.56
521.329	1977.56
521.544	2116.56
521.76	2018.56
521.975	1950.56
522.19	1875.56
522.406	1907.56
522.621	2204.56
522.836	2284.56
523.052	1917.56
523.267	1940.56
523.482	1882.56
523.698	1822.56
523.913	1771.56
524.128	1835.56
524.343	1943.56
524.559	1945.56
524.774	1855.56
524.989	1824.56
525.204	1786.56
525.419	1760.56
525.634	1734.56
525.849	1823.56
526.064	1855.56
526.28	1837.56
526.495	1753.56
526.71	1723.56
526.925	1789.56
527.14	1722.56
527.355	1715.56
527.57	1703.56
527.785	1776.56
527.999	1710.56
528.214	1709.56
528.429	1702.56
528.644	1663.56
528.859	1736.56
529.074	1697.56
529.289	1718.56
529.503	1737.56
529.718	1761.56
529.933	1711.56
530.148	1642.56
530.363	1666.56
530.577	1700.56
530.792	1716.56
531.007	1735.56
531.221	1707.56
531.436	1740.56
531.651	1808.56
531.865	1845.56
532.08	1802.56
532.295	1687.56
532.509	1638.56
532.724	1685.56
532.938	1728.56
533.153	1872.56
533.367	1784.56
533.582	1755.56
533.796	1664.56
534.011	1693.56
534.225	1744.56
534.44	1660.56
534.654	1667.56
534.868	1642.56
535.083	1723.56
535.297	1771.56
535.511	1711.56
535.726	1687.56
535.94	1680.56
536.154	1633.56
536.369	1649.56
536.583	1623.56
536.797	1650.56
537.011	1722.56
537.225	1633.56
537.44	1603.56
537.654	1663.56
537.868	1612.56
538.082	1523.56
538.296	1538.56
538.51	1513.56
538.724	1526.56
538.938	1562.56
539.153	1619.56
539.367	1626.56
539.581	1579.56
539.795	1714.56
540.009	1642.56
540.222	1591.56
540.436	1656.56
540.65	1763.56
540.864	1820.56
541.078	1696.56
541.292	1615.56
541.506	1575.56
541.72	1630.56
541.934	1643.56
542.147	1675.56
542.361	1638.56
542.575	1549.56
542.789	1528.56
543.002	1502.56
543.216	1518.56
543.43	1620.56
543.644	1683.56
543.857	1748.56
544.071	1694.56
544.285	1602.56
544.498	1581.56
544.712	1604.56
544.925	1594.56
545.139	1644.56
545.352	1595.56
545.566	1492.56
545.779	1492.56
545.993	1518.56
546.206	1579.56
546.42	1509.56
546.633	1507.56
546.847	1469.56
547.06	1513.56
547.274	1464.56
547.487	1483.56
547.7	1506.56
547.914	1548.56
548.127	1551.56
548.34	1522.56
548.554	1496.56
548.767	1510.56
548.98	1508.56
549.193	1516.56
549.407	1592.56
549.62	1572.56
549.833	1499.56
550.046	1522.56
550.259	1531.56
550.473	1475.56
550.686	1491.56
550.899	1456.56
551.112	1436.56
551.325	1399.56
551.538	1504.56
551.751	1768.56
551.964	1419.56
552.177	1398.56
552.39	1453.56
552.603	1466.56
552.816	1442.56
553.029	1562.56
553.242	1582.56
553.455	1489.56
553.667	1494.56
553.88	1526.56
554.093	1468.56
554.306	1428.56
554.519	1407.56
554.732	1362.56
554.944	1399.56
555.157	1456.56
555.37	1411.56
555.583	1411.56
555.795	1343.56
556.008	1345.56
556.221	1323.56
556.433	1277.56
556.646	1288.56
556.859	1284.56
557.071	1299.56
557.284	1290.56
557.496	1294.56
557.709	1262.56
557.921	1226.56
558.134	1251.56
558.346	1257.56
558.559	1243.56
558.771	1256.56
558.984	1235.56
559.196	1220.56
559.409	1216.56
559.621	1214.56
559.833	1226.56
560.046	1286.56
560.258	1269.56
560.47	1226.56
560.683	1257.56
560.895	1251.56
561.107	1287.56
561.32	1230.56
561.532	1273.56
561.744	1230.56
561.956	1239.56
562.168	1229.56
562.381	1147.56
562.593	1192.56
562.805	1176.56
563.017	1210.56
563.229	1235.56
563.441	1242.56
563.653	1210.56
563.865	1198.56
564.077	1174.56
564.289	1182.56
564.501	1207.56
564.713	1245.56
564.925	1238.56
565.137	1396.56
565.349	1274.56
565.561	1302.56
565.773	1288.56
565.985	1297.56
566.197	1369.56
566.408	1478.56
566.62	1474.56
566.832	1453.56
567.044	1521.56
567.255	1472.56
567.467	1442.56
567.679	1515.56
567.891	1538.56
568.102	1496.56
568.314	1446.56
568.526	1407.56
568.737	1325.56
568.949	1306.56
569.161	1246.56
569.372	1194.56
569.584	1160.56
569.795	1171.56
570.007	1151.56
570.218	1114.56
570.43	1092.56
570.641	1071.56
570.853	1094.56
571.064	1108.56
571.276	1085.56
571.487	1055.56
571.698	1060.56
571.91	1029.56
572.121	1013.56
572.333	1024.56
572.544	988.56
572.755	968.56
572.966	939.56
573.178	1000.56
573.389	978.56
573.6	1036.56
573.811	1090.56
574.023	975.56
574.234	981.56
574.445	952.56
574.656	904.56
574.867	915.56
575.078	930.56
575.289	926.56
575.501	908.56
575.712	932.56
575.923	913.56
576.134	910.56
576.345	905.56
576.556	918.56
576.767	894.56
576.978	875.56
577.188	882.56
577.399	877.56
577.61	854.56
577.821	835.56
578.032	860.56
578.243	849.56
578.454	862.56
578.665	856.56
578.875	842.56
579.086	836.56
579.297	827.56
579.508	886.56
579.718	847.56
579.929	811.56
580.14	819.56
580.35	819.56
580.561	828.56
580.772	864.56
580.982	874.56
581.193	789.56
581.403	786.56
581.614	787.56
581.825	818.56
582.035	777.56
582.246	762.56
582.456	803.56
582.667	803.56
582.877	788.56
583.087	763.56
583.298	798.56
583.508	793.56
583.719	799.56
583.929	772.56
584.139	746.56
584.35	737.56
584.56	789.56
584.77	760.56
584.981	780.56
585.191	772.56
585.401	788.56
585.611	774.56
585.821	768.56
586.032	774.56
586.242	776.56
586.452	732.56
586.662	771.56
586.872	752.56
587.082	732.56
587.292	780.56
587.502	789.56
587.713	778.56
587.923	758.56
588.133	755.56
588.343	747.56
588.553	743.56
588.762	736.56
588.972	740.56
589.182	761.56
589.392	746.56
589.602	754.56
589.812	737.56
590.022	719.56
590.232	706.56
590.441	755.56
590.651	749.56
590.861	714.56
591.071	704.56
591.281	730.56
591.49	749.56
591.7	728.56
591.91	728.56
592.119	739.56
592.329	737.56
592.539	760.56
592.748	748.56
592.958	763.56
593.167	777.56
593.377	783.56
593.587	829.56
593.796	797.56
594.006	755.56
594.215	809.56
594.424	740.56
594.634	762.56
594.843	766.56
595.053	787.56
595.262	737.56
595.472	724.56
595.681	731.56
595.89	706.56
596.1	706.56
596.309	698.56
596.518	679.56
596.727	676.56
596.937	690.56
597.146	654.56
597.355	623.56
597.564	668.56
597.774	639.56
597.983	623.56
598.192	622.56
598.401	635.56
598.61	627.56
598.819	618.56
599.028	622.56
599.237	619.56
599.446	615.56
599.655	591.56
599.864	597.56
600.073	617.56
600.282	612.56
600.491	574.56
600.7	605.56
600.909	587.56
601.118	622.56
601.327	602.56
601.536	625.56
601.745	603.56
601.953	596.56
602.162	580.56
602.371	599.56
602.58	591.56
602.789	585.56
602.997	590.56
603.206	566.56
603.415	585.56
603.623	583.56
603.832	596.56
604.041	571.56
604.249	589.56
604.458	578.56
604.666	582.56
604.875	590.56
605.084	577.56
605.292	599.56
605.501	570.56
605.709	572.56
605.918	556.56
606.126	542.56
606.334	536.56
606.543	558.56
606.751	545.56
606.96	576.56
607.168	562.56
607.376	547.56
607.585	557.56
607.793	531.56
608.001	543.56
608.21	542.56
608.418	530.56
608.626	541.56
608.834	547.56
609.043	537.56
609.251	537.56
609.459	536.56
609.667	559.56
609.875	546.56
610.083	547.56
610.291	553.56
610.499	550.56
610.707	538.56
610.916	523.56
611.124	524.56
611.332	539.56
611.54	548.56
611.748	521.56
611.955	520.56
612.163	499.56
612.371	512.56
612.579	524.56
612.787	510.56
612.995	514.56
613.203	531.56
613.411	520.56
613.618	522.56
613.826	534.56
614.034	528.56
614.242	515.56
614.449	525.56
614.657	522.56
614.865	526.56
615.072	516.56
615.28	509.56
615.488	514.56
615.695	546.56
615.903	549.56
616.111	540.56
616.318	500.56
616.526	498.56
616.733	496.56
616.941	503.56
617.148	495.56
617.356	494.56
617.563	504.56
617.771	502.56
617.978	484.56
618.185	499.56
618.393	492.56
618.6	493.56
618.807	503.56
619.015	507.56
619.222	514.56
619.429	504.56
619.637	499.56
619.844	487.56
620.051	474.56
620.258	487.56
620.466	460.56
620.673	479.56
620.88	466.56
621.087	448.56
621.294	446.56
621.501	458.56
621.708	460.56
621.915	474.56
622.122	489.56
622.329	460.56
622.536	440.56
622.743	452.56
622.95	449.56
623.157	462.56
623.364	454.56
623.571	453.56
623.778	463.56
623.985	460.56
624.192	454.56
624.399	442.56
624.606	435.56
624.812	445.56
625.019	438.56
625.226	423.56
625.433	417.56
625.639	460.56
625.846	446.56
626.053	430.56
626.259	426.56
626.466	404.56
626.673	401.56
626.879	420.56
627.086	403.56
627.293	408.56
627.499	415.56
627.706	406.56
627.912	403.56
628.119	404.56
628.325	407.56
628.532	438.56
628.738	426.56
628.945	426.56
629.151	408.56
629.357	410.56
629.564	423.56
629.77	398.56
629.976	379.56
630.183	384.56
630.389	390.56
630.595	414.56
630.802	401.56
631.008	373.56
631.214	367.56
631.42	386.56
631.627	376.56
631.833	387.56
632.039	370.56
632.245	385.56
632.451	376.56
632.657	356.56
632.863	367.56
633.069	380.56
633.275	370.56
633.481	366.56
633.688	371.56
633.893	370.56
634.099	355.56
634.305	368.56
634.511	371.56
634.717	363.56
634.923	362.56
635.129	347.56
635.335	355.56
635.541	377.56
635.747	357.56
635.952	352.56
636.158	346.56
636.364	358.56
636.57	375.56
636.775	363.56
636.981	359.56
637.187	351.56
637.392	338.56
637.598	346.56
637.804	320.56
638.009	346.56
638.215	350.56
638.421	322.56
638.626	358.56
638.832	334.56
639.037	341.56
639.243	344.56
639.448	336.56
639.654	328.56
639.859	330.56
640.065	325.56
640.27	347.56
640.475	341.56
640.681	320.56
640.886	322.56
641.091	336.56
641.297	329.56
641.502	319.56
641.707	342.56
641.913	333.56
642.118	325.56
642.323	317.56
642.528	311.56
642.733	320.56
642.939	319.56
643.144	323.56
643.349	335.56
643.554	319.56
643.759	312.56
643.964	328.56
644.169	318.56
644.374	311.56
644.579	340.56
644.784	319.56
644.989	320.56
645.194	303.56
645.399	315.56
645.604	295.56
645.809	304.56
646.014	325.56
646.219	318.56
646.423	304.56
646.628	316.56
646.833	325.56
647.038	324.56
647.243	327.56
647.447	308.56
647.652	325.56
647.857	305.56
648.062	302.56
648.266	310.56
648.471	312.56
648.676	314.56
648.88	314.56
649.085	320.56
649.289	329.56
649.494	307.56
649.698	295.56
649.903	294.56
650.107	313.56
650.312	303.56
650.516	305.56
650.721	298.56
650.925	300.56
651.13	298.56
651.334	281.56
651.539	278.56
651.743	261.56
651.947	274.56
652.152	265.56
652.356	272.56
652.56	258.56
652.764	268.56
652.969	274.56
653.173	266.56
653.377	261.56
653.581	252.56
653.785	255.56
653.99	258.56
654.194	247.56
654.398	249.56
654.602	239.56
654.806	241.56
655.01	239.56
655.214	236.56
655.418	243.56
655.622	273.56
655.826	269.56
656.03	230.56
656.234	262.56
656.438	272.56
656.642	262.56
656.846	270.56
657.049	248.56
657.253	219.56
657.457	210.56
657.661	199.56
657.865	187.56
658.068	184.56
658.272	168.56
658.476	155.56
658.68	154.56
658.883	150.56
659.087	132.56
659.291	153.56
659.494	176.56
659.698	140.56
659.901	130.56
660.105	132.56
660.309	135.56
660.512	128.56
660.716	129.56
660.919	111.56
661.123	118.56
661.326	112.56
661.53	122.56
661.733	126.56
661.936	95.56
662.14	105.56
662.343	93.56
662.546	86.56
662.75	106.56
662.953	107.56
663.156	90.56
663.36	99.56
663.563	107.56
663.766	92.56
663.969	99.56
664.173	108.56
664.376	82.56
664.579	93.56
664.782	101.56
664.985	86.56
665.188	94.56
665.391	88.56
665.594	102.56
665.797	80.56
666	87.56
666.203	86.56
666.406	96.56
666.609	90.56
666.812	88.56
667.015	94.56
667.218	98.56
667.421	87.56
667.624	100.56
667.827	95.56
668.03	99.56
668.232	87.56
668.435	83.56
668.638	90.56
668.841	94.56
669.043	84.56
669.246	84.56
669.449	94.56
669.651	98.56
669.854	84.56
670.057	91.56
670.259	79.56
670.462	83.56
670.665	72.56
670.867	93.56
671.07	87.56
671.272	98.56
671.475	84.56
671.677	94.56
671.88	83.56
672.082	94.56
672.284	99.56
672.487	104.56
672.689	83.56
672.892	88.56
