Data from WStandard_LampEnergy8_LIBS07252019.E.O._I.C._HRD10591_15-59-36-929.txt Node
Date: Thu Jul 25 15:59:36 EDT 2019
User: cochatt
Spectrometer: HR+D1059
Trigger mode: 1
Integration Time (sec): 1.000000E-1
Scans to average: 1
Electric dark correction enabled: true
Nonlinearity correction enabled: false
Boxcar width: 0
XAxis mode: Wavelengths
Number of Pixels in Spectrum: 2048
>>>>>Begin Spectral Data<<<<<
223.165	-14.19
223.4	-14.19
223.635	-14.19
223.869	-16.19
224.104	-33.19
224.338	-27.19
224.573	-15.19
224.808	-11.19
225.042	3.81
225.277	-7.19
225.511	7.81
225.746	0.81
225.98	9.81
226.215	18.81
226.449	5.81
226.683	25.81
226.918	23.81
227.152	27.81
227.387	21.81
227.621	31.81
227.856	38.81
228.09	34.81
228.324	45.81
228.559	53.81
228.793	98.81
229.027	203.81
229.262	216.81
229.496	213.81
229.73	223.81
229.964	259.81
230.199	252.81
230.433	248.81
230.667	274.81
230.901	290.81
231.136	258.81
231.37	270.81
231.604	243.81
231.838	266.81
232.072	256.81
232.306	245.81
232.541	274.81
232.775	306.81
233.009	323.81
233.243	298.81
233.477	292.81
233.711	297.81
233.945	312.81
234.179	302.81
234.413	320.81
234.647	350.81
234.881	311.81
235.115	303.81
235.349	305.81
235.583	306.81
235.817	307.81
236.051	288.81
236.285	310.81
236.519	322.81
236.753	345.81
236.987	356.81
237.221	349.81
237.455	384.81
237.689	352.81
237.922	340.81
238.156	340.81
238.39	355.81
238.624	357.81
238.858	410.81
239.091	396.81
239.325	406.81
239.559	460.81
239.793	475.81
240.027	527.81
240.26	462.81
240.494	362.81
240.728	366.81
240.961	389.81
241.195	365.81
241.429	423.81
241.662	415.81
241.896	395.81
242.13	386.81
242.363	434.81
242.597	440.81
242.83	449.81
243.064	420.81
243.298	466.81
243.531	471.81
243.765	446.81
243.998	470.81
244.232	393.81
244.465	390.81
244.699	393.81
244.932	465.81
245.166	482.81
245.399	499.81
245.633	460.81
245.866	455.81
246.099	466.81
246.333	478.81
246.566	490.81
246.8	522.81
247.033	574.81
247.266	541.81
247.5	532.81
247.733	533.81
247.966	552.81
248.2	588.81
248.433	593.81
248.666	610.81
248.899	647.81
249.133	727.81
249.366	790.81
249.599	660.81
249.832	590.81
250.066	609.81
250.299	616.81
250.532	575.81
250.765	557.81
250.998	558.81
251.231	598.81
251.465	583.81
251.698	577.81
251.931	584.81
252.164	582.81
252.397	617.81
252.63	614.81
252.863	566.81
253.096	551.81
253.329	560.81
253.562	582.81
253.795	625.81
254.028	630.81
254.261	582.81
254.494	556.81
254.727	552.81
254.96	554.81
255.193	648.81
255.426	711.81
255.659	790.81
255.892	786.81
256.124	670.81
256.357	636.81
256.59	661.81
256.823	713.81
257.056	715.81
257.289	821.81
257.521	894.81
257.754	805.81
257.987	770.81
258.22	825.81
258.452	790.81
258.685	660.81
258.918	668.81
259.151	669.81
259.383	645.81
259.616	576.81
259.849	612.81
260.081	710.81
260.314	747.81
260.547	823.81
260.779	818.81
261.012	753.81
261.244	700.81
261.477	668.81
261.71	689.81
261.942	680.81
262.175	664.81
262.407	688.81
262.64	661.81
262.872	631.81
263.105	588.81
263.337	620.81
263.57	641.81
263.802	642.81
264.035	595.81
264.267	577.81
264.499	584.81
264.732	624.81
264.964	646.81
265.197	666.81
265.429	706.81
265.661	774.81
265.894	855.81
266.126	856.81
266.358	766.81
266.591	799.81
266.823	864.81
267.055	791.81
267.287	790.81
267.52	780.81
267.752	775.81
267.984	767.81
268.216	774.81
268.448	818.81
268.681	787.81
268.913	727.81
269.145	705.81
269.377	688.81
269.609	774.81
269.841	892.81
270.073	1000.81
270.306	1072.81
270.538	1089.81
270.77	967.81
271.002	839.81
271.234	815.81
271.466	839.81
271.698	927.81
271.93	1040.81
272.162	1026.81
272.394	949.81
272.626	888.81
272.858	803.81
273.09	723.81
273.322	684.81
273.553	671.81
273.785	703.81
274.017	711.81
274.249	759.81
274.481	734.81
274.713	700.81
274.945	680.81
275.176	690.81
275.408	688.81
275.64	667.81
275.872	679.81
276.104	748.81
276.335	839.81
276.567	928.81
276.799	896.81
277.031	815.81
277.262	776.81
277.494	830.81
277.726	912.81
277.957	898.81
278.189	812.81
278.421	756.81
278.652	720.81
278.884	723.81
279.115	722.81
279.347	757.81
279.579	730.81
279.81	750.81
280.042	805.81
280.273	855.81
280.505	863.81
280.736	879.81
280.968	818.81
281.199	734.81
281.431	686.81
281.662	688.81
281.894	721.81
282.125	737.81
282.356	746.81
282.588	736.81
282.819	741.81
283.051	836.81
283.282	875.81
283.513	854.81
283.745	759.81
283.976	714.81
284.207	737.81
284.439	729.81
284.67	780.81
284.901	769.81
285.132	774.81
285.364	775.81
285.595	751.81
285.826	764.81
286.057	750.81
286.288	750.81
286.52	831.81
286.751	861.81
286.982	856.81
287.213	766.81
287.444	723.81
287.675	737.81
287.906	784.81
288.138	792.81
288.369	770.81
288.6	739.81
288.831	731.81
289.062	751.81
289.293	745.81
289.524	790.81
289.755	794.81
289.986	781.81
290.217	718.81
290.448	763.81
290.679	771.81
290.91	792.81
291.141	796.81
291.371	832.81
291.602	812.81
291.833	812.81
292.064	852.81
292.295	809.81
292.526	834.81
292.757	872.81
292.987	816.81
293.218	832.81
293.449	857.81
293.68	983.81
293.91	1002.81
294.141	969.81
294.372	935.81
294.603	933.81
294.833	966.81
295.064	919.81
295.295	832.81
295.525	772.81
295.756	741.81
295.987	736.81
296.217	732.81
296.448	790.81
296.679	790.81
296.909	792.81
297.14	744.81
297.37	816.81
297.601	834.81
297.831	880.81
298.062	877.81
298.292	825.81
298.523	796.81
298.753	766.81
298.984	787.81
299.214	799.81
299.445	836.81
299.675	829.81
299.905	828.81
300.136	803.81
300.366	784.81
300.597	755.81
300.827	786.81
301.057	828.81
301.288	846.81
301.518	850.81
301.748	849.81
301.979	902.81
302.209	936.81
302.439	975.81
302.669	1012.81
302.9	926.81
303.13	857.81
303.36	852.81
303.59	875.81
303.82	852.81
304.051	846.81
304.281	865.81
304.511	913.81
304.741	934.81
304.971	1029.81
305.201	1057.81
305.431	975.81
305.661	849.81
305.891	762.81
306.121	768.81
306.352	775.81
306.582	837.81
306.812	890.81
307.042	946.81
307.272	951.81
307.502	1020.81
307.731	1050.81
307.961	1074.81
308.191	972.81
308.421	909.81
308.651	859.81
308.881	860.81
309.111	809.81
309.341	802.81
309.571	831.81
309.8	841.81
310.03	820.81
310.26	818.81
310.49	797.81
310.72	854.81
310.949	850.81
311.179	892.81
311.409	880.81
311.639	858.81
311.868	818.81
312.098	830.81
312.328	838.81
312.557	857.81
312.787	835.81
313.017	858.81
313.246	885.81
313.476	862.81
313.706	883.81
313.935	888.81
314.165	882.81
314.394	921.81
314.624	960.81
314.853	1008.81
315.083	1036.81
315.312	1052.81
315.542	998.81
315.771	871.81
316.001	932.81
316.23	948.81
316.46	973.81
316.689	942.81
316.919	883.81
317.148	853.81
317.377	896.81
317.607	946.81
317.836	1037.81
318.065	1049.81
318.295	1047.81
318.524	976.81
318.753	944.81
318.983	939.81
319.212	908.81
319.441	890.81
319.67	914.81
319.9	939.81
320.129	999.81
320.358	1013.81
320.587	1026.81
320.816	1047.81
321.046	990.81
321.275	977.81
321.504	976.81
321.733	1020.81
321.962	984.81
322.191	910.81
322.42	907.81
322.649	915.81
322.878	907.81
323.108	933.81
323.337	970.81
323.566	958.81
323.795	970.81
324.024	933.81
324.253	939.81
324.482	930.81
324.71	908.81
324.939	862.81
325.168	906.81
325.397	927.81
325.626	952.81
325.855	953.81
326.084	938.81
326.313	923.81
326.542	950.81
326.77	969.81
326.999	955.81
327.228	905.81
327.457	874.81
327.686	854.81
327.914	909.81
328.143	916.81
328.372	945.81
328.6	933.81
328.829	898.81
329.058	882.81
329.287	913.81
329.515	940.81
329.744	977.81
329.972	1008.81
330.201	1036.81
330.43	1010.81
330.658	976.81
330.887	969.81
331.115	987.81
331.344	996.81
331.572	976.81
331.801	964.81
332.03	1001.81
332.258	978.81
332.486	1009.81
332.715	1015.81
332.943	996.81
333.172	1014.81
333.4	999.81
333.629	1030.81
333.857	1094.81
334.085	1245.81
334.314	1340.81
334.542	1412.81
334.771	1260.81
334.999	1160.81
335.227	1083.81
335.455	1064.81
335.684	1088.81
335.912	1076.81
336.14	1104.81
336.369	1061.81
336.597	979.81
336.825	1009.81
337.053	1019.81
337.281	1105.81
337.51	1130.81
337.738	1171.81
337.966	1082.81
338.194	1019.81
338.422	995.81
338.65	978.81
338.878	980.81
339.106	933.81
339.334	935.81
339.562	935.81
339.79	973.81
340.018	1035.81
340.246	1048.81
340.474	1061.81
340.702	999.81
340.93	1001.81
341.158	1015.81
341.386	1007.81
341.614	983.81
341.842	971.81
342.07	1002.81
342.298	990.81
342.526	990.81
342.754	997.81
342.981	997.81
343.209	972.81
343.437	967.81
343.665	989.81
343.893	1030.81
344.12	1063.81
344.348	1048.81
344.576	1013.81
344.804	969.81
345.031	977.81
345.259	970.81
345.487	959.81
345.714	908.81
345.942	905.81
346.17	952.81
346.397	929.81
346.625	945.81
346.853	908.81
347.08	882.81
347.308	887.81
347.535	936.81
347.763	948.81
347.99	923.81
348.218	893.81
348.445	907.81
348.673	898.81
348.9	971.81
349.128	987.81
349.355	1005.81
349.583	964.81
349.81	921.81
350.037	875.81
350.265	863.81
350.492	881.81
350.72	923.81
350.947	960.81
351.174	933.81
351.402	866.81
351.629	834.81
351.856	823.81
352.083	852.81
352.311	852.81
352.538	901.81
352.765	923.81
352.992	959.81
353.22	928.81
353.447	884.81
353.674	892.81
353.901	947.81
354.128	886.81
354.355	894.81
354.583	975.81
354.81	1008.81
355.037	971.81
355.264	942.81
355.491	942.81
355.718	939.81
355.945	890.81
356.172	909.81
356.399	894.81
356.626	909.81
356.853	939.81
357.08	1034.81
357.307	1080.81
357.534	1077.81
357.761	948.81
357.988	911.81
358.215	863.81
358.441	899.81
358.668	878.81
358.895	914.81
359.122	959.81
359.349	1040.81
359.576	970.81
359.802	920.81
360.029	888.81
360.256	898.81
360.483	882.81
360.709	917.81
360.936	983.81
361.163	1010.81
361.39	1126.81
361.616	1163.81
361.843	1175.81
362.07	1019.81
362.296	917.81
362.523	942.81
362.749	901.81
362.976	950.81
363.203	946.81
363.429	924.81
363.656	876.81
363.882	978.81
364.109	1046.81
364.335	1096.81
364.562	1022.81
364.788	966.81
365.015	926.81
365.241	892.81
365.468	960.81
365.694	964.81
365.92	1024.81
366.147	928.81
366.373	896.81
366.599	899.81
366.826	890.81
367.052	913.81
367.278	936.81
367.505	951.81
367.731	928.81
367.957	937.81
368.184	987.81
368.41	1051.81
368.636	1045.81
368.862	1062.81
369.089	1055.81
369.315	1035.81
369.541	993.81
369.767	952.81
369.993	934.81
370.219	945.81
370.445	955.81
370.672	1020.81
370.898	1056.81
371.124	1034.81
371.35	989.81
371.576	1003.81
371.802	1042.81
372.028	984.81
372.254	950.81
372.48	912.81
372.706	940.81
372.932	962.81
373.158	948.81
373.384	971.81
373.61	1019.81
373.835	1044.81
374.061	989.81
374.287	990.81
374.513	991.81
374.739	975.81
374.965	990.81
375.191	1022.81
375.416	1032.81
375.642	1025.81
375.868	1084.81
376.094	1114.81
376.319	1051.81
376.545	993.81
376.771	1035.81
376.997	1090.81
377.222	1074.81
377.448	1055.81
377.674	1050.81
377.899	1050.81
378.125	1114.81
378.35	1066.81
378.576	979.81
378.802	976.81
379.027	959.81
379.253	985.81
379.478	996.81
379.704	1007.81
379.929	972.81
380.155	999.81
380.38	1000.81
380.606	987.81
380.831	999.81
381.057	1069.81
381.282	1049.81
381.507	1064.81
381.733	1120.81
381.958	1144.81
382.184	1080.81
382.409	1068.81
382.634	1054.81
382.86	1026.81
383.085	1057.81
383.31	1068.81
383.535	1178.81
383.761	1217.81
383.986	1164.81
384.211	1122.81
384.436	1122.81
384.662	1164.81
384.887	1216.81
385.112	1144.81
385.337	1148.81
385.562	1140.81
385.787	1148.81
386.013	1169.81
386.238	1157.81
386.463	1153.81
386.688	1257.81
386.913	1323.81
387.138	1262.81
387.363	1156.81
387.588	1192.81
387.813	1148.81
388.038	1200.81
388.263	1198.81
388.488	1151.81
388.713	1069.81
388.938	1108.81
389.163	1094.81
389.387	1111.81
389.612	1114.81
389.837	1154.81
390.062	1145.81
390.287	1142.81
390.512	1136.81
390.736	1124.81
390.961	1107.81
391.186	1106.81
391.411	1100.81
391.636	1137.81
391.86	1147.81
392.085	1129.81
392.31	1112.81
392.534	1121.81
392.759	1145.81
392.984	1124.81
393.208	1152.81
393.433	1158.81
393.658	1208.81
393.882	1238.81
394.107	1179.81
394.331	1136.81
394.556	1109.81
394.78	1134.81
395.005	1206.81
395.229	1264.81
395.454	1313.81
395.678	1265.81
395.903	1225.81
396.127	1186.81
396.352	1196.81
396.576	1264.81
396.801	1263.81
397.025	1268.81
397.249	1228.81
397.474	1225.81
397.698	1206.81
397.922	1296.81
398.147	1336.81
398.371	1351.81
398.595	1342.81
398.82	1306.81
399.044	1347.81
399.268	1388.81
399.492	1468.81
399.717	1532.81
399.941	1475.81
400.165	1438.81
400.389	1427.81
400.613	1444.81
400.837	1683.81
401.062	1867.81
401.286	1526.81
401.51	1464.81
401.734	1488.81
401.958	1436.81
402.182	1342.81
402.406	1305.81
402.63	1283.81
402.854	1283.81
403.078	1301.81
403.302	1324.81
403.526	1351.81
403.75	1360.81
403.974	1351.81
404.198	1371.81
404.422	1444.81
404.645	1484.81
404.869	1454.81
405.093	1330.81
405.317	1326.81
405.541	1360.81
405.765	1384.81
405.988	1333.81
406.212	1400.81
406.436	1389.81
406.66	1474.81
406.883	1448.81
407.107	1672.81
407.331	1816.81
407.555	1891.81
407.778	1698.81
408.002	1444.81
408.226	1439.81
408.449	1380.81
408.673	1388.81
408.896	1407.81
409.12	1390.81
409.344	1376.81
409.567	1334.81
409.791	1351.81
410.014	1408.81
410.238	1488.81
410.461	1547.81
410.685	1394.81
410.908	1361.81
411.132	1364.81
411.355	1362.81
411.578	1289.81
411.802	1362.81
412.025	1331.81
412.249	1316.81
412.472	1321.81
412.695	1284.81
412.919	1326.81
413.142	1316.81
413.365	1316.81
413.589	1344.81
413.812	1435.81
414.035	1440.81
414.258	1338.81
414.482	1294.81
414.705	1324.81
414.928	1291.81
415.151	1311.81
415.374	1321.81
415.597	1363.81
415.821	1334.81
416.044	1352.81
416.267	1347.81
416.49	1257.81
416.713	1258.81
416.936	1322.81
417.159	1386.81
417.382	1362.81
417.605	1320.81
417.828	1305.81
418.051	1315.81
418.274	1319.81
418.497	1302.81
418.72	1267.81
418.943	1260.81
419.166	1335.81
419.389	1357.81
419.611	1308.81
419.834	1286.81
420.057	1319.81
420.28	1298.81
420.503	1291.81
420.726	1328.81
420.948	1288.81
421.171	1311.81
421.394	1302.81
421.617	1340.81
421.839	1351.81
422.062	1343.81
422.285	1286.81
422.507	1282.81
422.73	1243.81
422.953	1193.81
423.175	1236.81
423.398	1292.81
423.621	1271.81
423.843	1286.81
424.066	1328.81
424.288	1419.81
424.511	1419.81
424.733	1330.81
424.956	1234.81
425.178	1223.81
425.401	1243.81
425.623	1294.81
425.846	1251.81
426.068	1339.81
426.291	1368.81
426.513	1339.81
426.735	1342.81
426.958	1463.81
427.18	1486.81
427.402	1398.81
427.625	1441.81
427.847	1367.81
428.069	1260.81
428.292	1276.81
428.514	1229.81
428.736	1214.81
428.958	1238.81
429.181	1251.81
429.403	1463.81
429.625	1778.81
429.847	1462.81
430.069	1291.81
430.292	1448.81
430.514	1433.81
430.736	1316.81
430.958	1378.81
431.18	1321.81
431.402	1228.81
431.624	1220.81
431.846	1156.81
432.068	1143.81
432.29	1181.81
432.512	1210.81
432.734	1216.81
432.956	1262.81
433.178	1344.81
433.4	1315.81
433.622	1278.81
433.844	1227.81
434.066	1185.81
434.287	1183.81
434.509	1222.81
434.731	1264.81
434.953	1384.81
435.175	1303.81
435.397	1299.81
435.618	1269.81
435.84	1235.81
436.062	1215.81
436.284	1292.81
436.505	1313.81
436.727	1315.81
436.949	1302.81
437.17	1258.81
437.392	1232.81
437.614	1214.81
437.835	1172.81
438.057	1224.81
438.278	1280.81
438.5	1229.81
438.721	1237.81
438.943	1217.81
439.165	1232.81
439.386	1234.81
439.608	1238.81
439.829	1249.81
440.05	1254.81
440.272	1227.81
440.493	1245.81
440.715	1278.81
440.936	1332.81
441.158	1410.81
441.379	1398.81
441.6	1394.81
441.822	1389.81
442.043	1326.81
442.264	1292.81
442.486	1262.81
442.707	1255.81
442.928	1278.81
443.149	1298.81
443.371	1360.81
443.592	1399.81
443.813	1379.81
444.034	1360.81
444.255	1368.81
444.476	1399.81
444.698	1403.81
444.919	1395.81
445.14	1518.81
445.361	1457.81
445.582	1446.81
445.803	1416.81
446.024	1355.81
446.245	1396.81
446.466	1353.81
446.687	1356.81
446.908	1365.81
447.129	1302.81
447.35	1283.81
447.571	1270.81
447.792	1249.81
448.013	1262.81
448.234	1282.81
448.455	1306.81
448.675	1299.81
448.896	1217.81
449.117	1188.81
449.338	1214.81
449.559	1279.81
449.779	1323.81
450	1410.81
450.221	1474.81
450.442	1436.81
450.662	1312.81
450.883	1192.81
451.104	1172.81
451.324	1191.81
451.545	1202.81
451.766	1186.81
451.986	1150.81
452.207	1127.81
452.428	1121.81
452.648	1101.81
452.869	1103.81
453.089	1173.81
453.31	1147.81
453.53	1146.81
453.751	1123.81
453.971	1076.81
454.192	1087.81
454.412	1168.81
454.633	1138.81
454.853	1121.81
455.073	1044.81
455.294	1097.81
455.514	1074.81
455.734	1046.81
455.955	1106.81
456.175	1052.81
456.395	1060.81
456.616	1081.81
456.836	1095.81
457.056	1089.81
457.276	1095.81
457.497	1033.81
457.717	1014.81
457.937	1026.81
458.157	1064.81
458.377	1023.81
458.598	1018.81
458.818	1061.81
459.038	1122.81
459.258	1170.81
459.478	1147.81
459.698	1140.81
459.918	1146.81
460.138	1247.81
460.358	1233.81
460.578	1250.81
460.798	1308.81
461.018	1362.81
461.238	1291.81
461.458	1302.81
461.678	1265.81
461.898	1218.81
462.118	1184.81
462.338	1264.81
462.558	1276.81
462.777	1267.81
462.997	1319.81
463.217	1383.81
463.437	1359.81
463.657	1275.81
463.876	1255.81
464.096	1241.81
464.316	1223.81
464.536	1322.81
464.755	1298.81
464.975	1320.81
465.195	1290.81
465.414	1294.81
465.634	1260.81
465.854	1272.81
466.073	1405.81
466.293	1344.81
466.512	1206.81
466.732	1196.81
466.951	1258.81
467.171	1234.81
467.391	1206.81
467.61	1173.81
467.829	1230.81
468.049	1336.81
468.268	1497.81
468.488	1318.81
468.707	1282.81
468.927	1225.81
469.146	1220.81
469.365	1224.81
469.585	1227.81
469.804	1234.81
470.023	1220.81
470.243	1261.81
470.462	1259.81
470.681	1214.81
470.901	1238.81
471.12	1224.81
471.339	1215.81
471.558	1192.81
471.777	1189.81
471.997	1187.81
472.216	1182.81
472.435	1138.81
472.654	1141.81
472.873	1157.81
473.092	1238.81
473.311	1200.81
473.53	1168.81
473.749	1140.81
473.968	1190.81
474.187	1204.81
474.406	1223.81
474.625	1211.81
474.844	1228.81
475.063	1198.81
475.282	1223.81
475.501	1202.81
475.72	1217.81
475.939	1282.81
476.158	1257.81
476.377	1217.81
476.596	1205.81
476.814	1223.81
477.033	1222.81
477.252	1240.81
477.471	1284.81
477.69	1248.81
477.908	1300.81
478.127	1351.81
478.346	1446.81
478.564	1430.81
478.783	1419.81
479.002	1452.81
479.22	1431.81
479.439	1487.81
479.658	1551.81
479.876	1522.81
480.095	1353.81
480.313	1310.81
480.532	1308.81
480.751	1284.81
480.969	1278.81
481.188	1262.81
481.406	1271.81
481.624	1226.81
481.843	1290.81
482.061	1311.81
482.28	1324.81
482.498	1328.81
482.717	1302.81
482.935	1300.81
483.153	1349.81
483.372	1379.81
483.59	1359.81
483.808	1364.81
484.027	1365.81
484.245	1421.81
484.463	1714.81
484.681	1883.81
484.9	1457.81
485.118	1350.81
485.336	1355.81
485.554	1390.81
485.772	1380.81
485.99	1353.81
486.209	1412.81
486.427	1378.81
486.645	1401.81
486.863	1420.81
487.081	1484.81
487.299	1458.81
487.517	1450.81
487.735	1436.81
487.953	1497.81
488.171	1486.81
488.389	1481.81
488.607	1431.81
488.825	1590.81
489.043	1552.81
489.261	1405.81
489.479	1495.81
489.696	1467.81
489.914	1470.81
490.132	1411.81
490.35	1437.81
490.568	1496.81
490.786	1483.81
491.003	1497.81
491.221	1536.81
491.439	1571.81
491.657	1599.81
491.874	1602.81
492.092	1635.81
492.31	1649.81
492.527	1643.81
492.745	1607.81
492.963	1567.81
493.18	1591.81
493.398	1695.81
493.615	1692.81
493.833	1606.81
494.05	1553.81
494.268	1582.81
494.485	1584.81
494.703	1571.81
494.92	1577.81
495.138	1576.81
495.355	1573.81
495.573	1606.81
495.79	1659.81
496.008	1736.81
496.225	1580.81
496.442	1581.81
496.66	1620.81
496.877	1542.81
497.094	1628.81
497.312	1624.81
497.529	1612.81
497.746	1633.81
497.963	1897.81
498.181	1960.81
498.398	1892.81
498.615	1863.81
498.832	1780.81
499.049	1746.81
499.267	1755.81
499.484	1884.81
499.701	2016.81
499.918	2094.81
500.135	2223.81
500.352	2351.81
500.569	2386.81
500.786	2555.81
501.003	2306.81
501.22	2111.81
501.437	2080.81
501.654	2083.81
501.871	2000.81
502.088	1795.81
502.305	1808.81
502.522	1700.81
502.739	1584.81
502.956	1582.81
503.172	1567.81
503.389	1577.81
503.606	1493.81
503.823	1475.81
504.04	1503.81
504.256	1521.81
504.473	1502.81
504.69	1490.81
504.907	1441.81
505.123	1423.81
505.34	1588.81
505.557	2001.81
505.773	1646.81
505.99	1418.81
506.207	1335.81
506.423	1298.81
506.64	1315.81
506.856	1322.81
507.073	1521.81
507.289	1594.81
507.506	1504.81
507.722	1302.81
507.939	1218.81
508.155	1234.81
508.372	1278.81
508.588	1202.81
508.805	1160.81
509.021	1146.81
509.238	1160.81
509.454	1147.81
509.67	1156.81
509.887	1166.81
510.103	1130.81
510.319	1145.81
510.536	1232.81
510.752	1214.81
510.968	1212.81
511.184	1308.81
511.401	1243.81
511.617	1120.81
511.833	1106.81
512.049	1083.81
512.265	1119.81
512.481	1114.81
512.698	1154.81
512.914	1178.81
513.13	1162.81
513.346	1137.81
513.562	1084.81
513.778	1128.81
513.994	1164.81
514.21	1179.81
514.426	1218.81
514.642	1283.81
514.858	1215.81
515.074	1151.81
515.29	1108.81
515.506	1167.81
515.721	1170.81
515.937	1176.81
516.153	1298.81
516.369	1243.81
516.585	1159.81
516.801	1150.81
517.016	1121.81
517.232	1192.81
517.448	1227.81
517.664	1215.81
517.879	1223.81
518.095	1279.81
518.311	1215.81
518.527	1170.81
518.742	1142.81
518.958	1112.81
519.173	1137.81
519.389	1190.81
519.605	1176.81
519.82	1158.81
520.036	1160.81
520.251	1126.81
520.467	1161.81
520.682	1226.81
520.898	1231.81
521.113	1127.81
521.329	1122.81
521.544	1193.81
521.76	1131.81
521.975	1105.81
522.19	1067.81
522.406	1127.81
522.621	1356.81
522.836	1305.81
523.052	1082.81
523.267	1082.81
523.482	1121.81
523.698	1067.81
523.913	1077.81
524.128	1052.81
524.343	1142.81
524.559	1163.81
524.774	1096.81
524.989	1071.81
525.204	1113.81
525.419	1037.81
525.634	1051.81
525.849	1054.81
526.064	1052.81
526.28	1080.81
526.495	1001.81
526.71	1022.81
526.925	1019.81
527.14	1009.81
527.355	972.81
527.57	975.81
527.785	1033.81
527.999	1020.81
528.214	1014.81
528.429	983.81
528.644	1008.81
528.859	1074.81
529.074	1087.81
529.289	1082.81
529.503	1123.81
529.718	1104.81
529.933	1041.81
530.148	1000.81
530.363	970.81
530.577	971.81
530.792	979.81
531.007	982.81
531.221	989.81
531.436	1006.81
531.651	1030.81
531.865	1081.81
532.08	1037.81
532.295	962.81
532.509	948.81
532.724	963.81
532.938	992.81
533.153	1054.81
533.367	1004.81
533.582	1023.81
533.796	1009.81
534.011	1034.81
534.225	1007.81
534.44	982.81
534.654	980.81
534.868	976.81
535.083	1047.81
535.297	1037.81
535.511	998.81
535.726	1018.81
535.94	992.81
536.154	952.81
536.369	956.81
536.583	923.81
536.797	938.81
537.011	966.81
537.225	918.81
537.44	908.81
537.654	959.81
537.868	920.81
538.082	896.81
538.296	904.81
538.51	922.81
538.724	947.81
538.938	983.81
539.153	1022.81
539.367	979.81
539.581	963.81
539.795	972.81
540.009	949.81
540.222	946.81
540.436	970.81
540.65	1061.81
540.864	1071.81
541.078	1069.81
541.292	1040.81
541.506	1048.81
541.72	1110.81
541.934	1147.81
542.147	1200.81
542.361	1163.81
542.575	1052.81
542.789	997.81
543.002	968.81
543.216	947.81
543.43	983.81
543.644	1050.81
543.857	1089.81
544.071	1130.81
544.285	1078.81
544.498	1099.81
544.712	1071.81
544.925	1118.81
545.139	1121.81
545.352	1080.81
545.566	1050.81
545.779	1055.81
545.993	1072.81
546.206	1099.81
546.42	1061.81
546.633	1074.81
546.847	1040.81
547.06	1074.81
547.274	1074.81
547.487	1062.81
547.7	1086.81
547.914	1103.81
548.127	1104.81
548.34	1075.81
548.554	1048.81
548.767	1049.81
548.98	1044.81
549.193	1053.81
549.407	1110.81
549.62	1118.81
549.833	1055.81
550.046	1024.81
550.259	1038.81
550.473	1038.81
550.686	1020.81
550.899	1007.81
551.112	974.81
551.325	996.81
551.538	1045.81
551.751	1102.81
551.964	934.81
552.177	930.81
552.39	959.81
552.603	981.81
552.816	1008.81
553.029	1060.81
553.242	1076.81
553.455	1067.81
553.667	1036.81
553.88	1040.81
554.093	1031.81
554.306	991.81
554.519	975.81
554.732	983.81
554.944	981.81
555.157	968.81
555.37	947.81
555.583	948.81
555.795	902.81
556.008	886.81
556.221	863.81
556.433	861.81
556.646	836.81
556.859	878.81
557.071	902.81
557.284	870.81
557.496	868.81
557.709	863.81
557.921	862.81
558.134	848.81
558.346	866.81
558.559	833.81
558.771	856.81
558.984	820.81
559.196	814.81
559.409	797.81
559.621	809.81
559.833	811.81
560.046	823.81
560.258	818.81
560.47	835.81
560.683	830.81
560.895	831.81
561.107	808.81
561.32	809.81
561.532	826.81
561.744	811.81
561.956	798.81
562.168	798.81
562.381	796.81
562.593	785.81
562.805	791.81
563.017	782.81
563.229	786.81
563.441	800.81
563.653	784.81
563.865	792.81
564.077	755.81
564.289	762.81
564.501	804.81
564.713	806.81
564.925	831.81
565.137	842.81
565.349	820.81
565.561	790.81
565.773	805.81
565.985	819.81
566.197	865.81
566.408	896.81
566.62	866.81
566.832	888.81
567.044	907.81
567.255	871.81
567.467	883.81
567.679	908.81
567.891	923.81
568.102	885.81
568.314	858.81
568.526	812.81
568.737	803.81
568.949	719.81
569.161	704.81
569.372	706.81
569.584	683.81
569.795	699.81
570.007	678.81
570.218	654.81
570.43	644.81
570.641	660.81
570.853	645.81
571.064	661.81
571.276	652.81
571.487	660.81
571.698	648.81
571.91	630.81
572.121	614.81
572.333	618.81
572.544	614.81
572.755	568.81
572.966	578.81
573.178	585.81
573.389	587.81
573.6	590.81
573.811	638.81
574.023	594.81
574.234	579.81
574.445	536.81
574.656	562.81
574.867	562.81
575.078	584.81
575.289	563.81
575.501	544.81
575.712	549.81
575.923	546.81
576.134	571.81
576.345	540.81
576.556	565.81
576.767	558.81
576.978	559.81
577.188	520.81
577.399	530.81
577.61	525.81
577.821	509.81
578.032	504.81
578.243	530.81
578.454	513.81
578.665	498.81
578.875	511.81
579.086	492.81
579.297	500.81
579.508	521.81
579.718	498.81
579.929	501.81
580.14	470.81
580.35	482.81
580.561	491.81
580.772	539.81
580.982	511.81
581.193	499.81
581.403	483.81
581.614	488.81
581.825	471.81
582.035	479.81
582.246	482.81
582.456	492.81
582.667	484.81
582.877	470.81
583.087	472.81
583.298	460.81
583.508	475.81
583.719	468.81
583.929	474.81
584.139	474.81
584.35	466.81
584.56	455.81
584.77	477.81
584.981	467.81
585.191	490.81
585.401	491.81
585.611	471.81
585.821	472.81
586.032	458.81
586.242	454.81
586.452	461.81
586.662	461.81
586.872	455.81
587.082	467.81
587.292	452.81
587.502	462.81
587.713	461.81
587.923	436.81
588.133	430.81
588.343	449.81
588.553	440.81
588.762	446.81
588.972	446.81
589.182	455.81
589.392	459.81
589.602	455.81
589.812	449.81
590.022	446.81
590.232	425.81
590.441	441.81
590.651	447.81
590.861	453.81
591.071	417.81
591.281	430.81
591.49	410.81
591.7	427.81
591.91	432.81
592.119	440.81
592.329	451.81
592.539	474.81
592.748	458.81
592.958	450.81
593.167	472.81
593.377	472.81
593.587	482.81
593.796	446.81
594.006	451.81
594.215	462.81
594.424	464.81
594.634	470.81
594.843	454.81
595.053	478.81
595.262	449.81
595.472	431.81
595.681	443.81
595.89	433.81
596.1	393.81
596.309	434.81
596.518	421.81
596.727	424.81
596.937	430.81
597.146	419.81
597.355	412.81
597.564	413.81
597.774	381.81
597.983	389.81
598.192	394.81
598.401	390.81
598.61	385.81
598.819	380.81
599.028	396.81
599.237	399.81
599.446	401.81
599.655	376.81
599.864	386.81
600.073	385.81
600.282	378.81
600.491	382.81
600.7	381.81
600.909	383.81
601.118	396.81
601.327	400.81
601.536	398.81
601.745	410.81
601.953	387.81
602.162	410.81
602.371	406.81
602.58	406.81
602.789	398.81
602.997	404.81
603.206	410.81
603.415	384.81
603.623	401.81
603.832	400.81
604.041	399.81
604.249	379.81
604.458	373.81
604.666	388.81
604.875	389.81
605.084	392.81
605.292	389.81
605.501	395.81
605.709	397.81
605.918	404.81
606.126	413.81
606.334	384.81
606.543	425.81
606.751	400.81
606.96	398.81
607.168	413.81
607.376	393.81
607.585	399.81
607.793	417.81
608.001	407.81
608.21	422.81
608.418	402.81
608.626	399.81
608.834	403.81
609.043	401.81
609.251	407.81
609.459	396.81
609.667	397.81
609.875	411.81
610.083	422.81
610.291	414.81
610.499	407.81
610.707	405.81
610.916	394.81
611.124	404.81
611.332	391.81
611.54	394.81
611.748	386.81
611.955	374.81
612.163	376.81
612.371	384.81
612.579	406.81
612.787	355.81
612.995	382.81
613.203	403.81
613.411	383.81
613.618	378.81
613.826	375.81
614.034	382.81
614.242	384.81
614.449	374.81
614.657	396.81
614.865	387.81
615.072	387.81
615.28	383.81
615.488	394.81
615.695	418.81
615.903	401.81
616.111	366.81
616.318	375.81
616.526	399.81
616.733	390.81
616.941	396.81
617.148	395.81
617.356	367.81
617.563	378.81
617.771	367.81
617.978	362.81
618.185	373.81
618.393	352.81
618.6	362.81
618.807	384.81
619.015	362.81
619.222	359.81
619.429	379.81
619.637	336.81
619.844	348.81
620.051	358.81
620.258	358.81
620.466	368.81
620.673	369.81
620.88	330.81
621.087	340.81
621.294	351.81
621.501	338.81
621.708	354.81
621.915	348.81
622.122	354.81
622.329	370.81
622.536	331.81
622.743	344.81
622.95	336.81
623.157	343.81
623.364	347.81
623.571	376.81
623.778	346.81
623.985	341.81
624.192	346.81
624.399	324.81
624.606	354.81
624.812	338.81
625.019	309.81
625.226	334.81
625.433	314.81
625.639	321.81
625.846	331.81
626.053	309.81
626.259	289.81
626.466	298.81
626.673	287.81
626.879	294.81
627.086	285.81
627.293	299.81
627.499	304.81
627.706	312.81
627.912	313.81
628.119	323.81
628.325	320.81
628.532	316.81
628.738	309.81
628.945	331.81
629.151	308.81
629.357	302.81
629.564	324.81
629.77	300.81
629.976	308.81
630.183	296.81
630.389	289.81
630.595	294.81
630.802	312.81
631.008	294.81
631.214	296.81
631.42	302.81
631.627	284.81
631.833	282.81
632.039	288.81
632.245	323.81
632.451	282.81
632.657	290.81
632.863	294.81
633.069	314.81
633.275	297.81
633.481	266.81
633.688	269.81
633.893	275.81
634.099	292.81
634.305	270.81
634.511	269.81
634.717	264.81
634.923	269.81
635.129	266.81
635.335	279.81
635.541	251.81
635.747	265.81
635.952	279.81
636.158	282.81
636.364	292.81
636.57	272.81
636.775	291.81
636.981	279.81
637.187	276.81
637.392	247.81
637.598	265.81
637.804	270.81
638.009	278.81
638.215	282.81
638.421	274.81
638.626	276.81
638.832	254.81
639.037	248.81
639.243	271.81
639.448	275.81
639.654	264.81
639.859	262.81
640.065	264.81
640.27	259.81
640.475	246.81
640.681	261.81
640.886	259.81
641.091	264.81
641.297	270.81
641.502	263.81
641.707	256.81
641.913	270.81
642.118	281.81
642.323	261.81
642.528	261.81
642.733	265.81
642.939	232.81
643.144	243.81
643.349	250.81
643.554	257.81
643.759	260.81
643.964	234.81
644.169	261.81
644.374	260.81
644.579	264.81
644.784	262.81
644.989	225.81
645.194	234.81
645.399	239.81
645.604	256.81
645.809	238.81
646.014	247.81
646.219	265.81
646.423	257.81
646.628	252.81
646.833	278.81
647.038	265.81
647.243	270.81
647.447	255.81
647.652	258.81
647.857	260.81
648.062	271.81
648.266	251.81
648.471	235.81
648.676	263.81
648.88	277.81
649.085	251.81
649.289	243.81
649.494	255.81
649.698	266.81
649.903	244.81
650.107	247.81
650.312	258.81
650.516	241.81
650.721	251.81
650.925	234.81
651.13	233.81
651.334	238.81
651.539	239.81
651.743	243.81
651.947	226.81
652.152	231.81
652.356	229.81
652.56	232.81
652.764	243.81
652.969	223.81
653.173	216.81
653.377	225.81
653.581	225.81
653.785	229.81
653.99	223.81
654.194	206.81
654.398	222.81
654.602	225.81
654.806	236.81
655.01	226.81
655.214	212.81
655.418	219.81
655.622	227.81
655.826	217.81
656.03	223.81
656.234	242.81
656.438	270.81
656.642	250.81
656.846	238.81
657.049	213.81
657.253	225.81
657.457	200.81
657.661	208.81
657.865	192.81
658.068	197.81
658.272	162.81
658.476	163.81
658.68	172.81
658.883	147.81
659.087	148.81
659.291	143.81
659.494	149.81
659.698	128.81
659.901	130.81
660.105	121.81
660.309	116.81
660.512	112.81
660.716	136.81
660.919	115.81
661.123	123.81
661.326	118.81
661.53	107.81
661.733	105.81
661.936	114.81
662.14	107.81
662.343	110.81
662.546	112.81
662.75	89.81
662.953	103.81
663.156	101.81
663.36	104.81
663.563	92.81
663.766	104.81
663.969	98.81
664.173	81.81
664.376	96.81
664.579	88.81
664.782	99.81
664.985	90.81
665.188	87.81
665.391	80.81
665.594	83.81
665.797	70.81
666	86.81
666.203	81.81
666.406	80.81
666.609	77.81
666.812	84.81
667.015	72.81
667.218	85.81
667.421	82.81
667.624	90.81
667.827	63.81
668.03	80.81
668.232	75.81
668.435	67.81
668.638	81.81
668.841	86.81
669.043	81.81
669.246	86.81
669.449	83.81
669.651	76.81
669.854	72.81
670.057	88.81
670.259	78.81
670.462	74.81
670.665	83.81
670.867	80.81
671.07	87.81
671.272	90.81
671.475	76.81
671.677	76.81
671.88	76.81
672.082	86.81
672.284	87.81
672.487	93.81
672.689	75.81
672.892	79.81
