Data from WStandard_LampEnergy5.5LIBS07252019.E.O._I.C._HRD10591_16-06-29-919.txt Node
Date: Thu Jul 25 16:06:29 EDT 2019
User: cochatt
Spectrometer: HR+D1059
Trigger mode: 1
Integration Time (sec): 1.000000E-1
Scans to average: 1
Electric dark correction enabled: true
Nonlinearity correction enabled: false
Boxcar width: 0
XAxis mode: Wavelengths
Number of Pixels in Spectrum: 2048
>>>>>Begin Spectral Data<<<<<
223.165	-9.56
223.4	-9.56
223.635	-9.56
223.869	-8.56
224.104	-18.56
224.338	-22.56
224.573	-20.56
224.808	-17.56
225.042	-14.56
225.277	-12.56
225.511	2.44
225.746	7.44
225.98	15.44
226.215	0.44
226.449	15.44
226.683	27.44
226.918	20.44
227.152	35.44
227.387	42.44
227.621	33.44
227.856	56.44
228.09	46.44
228.324	33.44
228.559	54.44
228.793	143.44
229.027	339.44
229.262	333.44
229.496	350.44
229.73	370.44
229.964	422.44
230.199	443.44
230.433	446.44
230.667	462.44
230.901	497.44
231.136	467.44
231.37	429.44
231.604	447.44
231.838	454.44
232.072	460.44
232.306	420.44
232.541	447.44
232.775	502.44
233.009	581.44
233.243	554.44
233.477	521.44
233.711	515.44
233.945	515.44
234.179	515.44
234.413	562.44
234.647	605.44
234.881	563.44
235.115	536.44
235.349	520.44
235.583	535.44
235.817	537.44
236.051	500.44
236.285	500.44
236.519	559.44
236.753	617.44
236.987	659.44
237.221	626.44
237.455	679.44
237.689	676.44
237.922	643.44
238.156	611.44
238.39	647.44
238.624	672.44
238.858	718.44
239.091	754.44
239.325	744.44
239.559	858.44
239.793	897.44
240.027	960.44
240.26	946.44
240.494	739.44
240.728	669.44
240.961	664.44
241.195	682.44
241.429	750.44
241.662	796.44
241.896	727.44
242.13	717.44
242.363	820.44
242.597	837.44
242.83	824.44
243.064	834.44
243.298	863.44
243.531	864.44
243.765	867.44
243.998	864.44
244.232	754.44
244.465	727.44
244.699	726.44
244.932	839.44
245.166	948.44
245.399	914.44
245.633	844.44
245.866	798.44
246.099	886.44
246.333	893.44
246.566	894.44
246.8	947.44
247.033	1081.44
247.266	1003.44
247.5	1000.44
247.733	979.44
247.966	1036.44
248.2	1112.44
248.433	1103.44
248.666	1107.44
248.899	1193.44
249.133	1418.44
249.366	1621.44
249.599	1336.44
249.832	1174.44
250.066	1136.44
250.299	1204.44
250.532	1155.44
250.765	994.44
250.998	1073.44
251.231	1128.44
251.465	1162.44
251.698	1110.44
251.931	1097.44
252.164	1130.44
252.397	1137.44
252.63	1162.44
252.863	1034.44
253.096	1049.44
253.329	1063.44
253.562	1118.44
253.795	1193.44
254.028	1167.44
254.261	1091.44
254.494	1104.44
254.727	1036.44
254.96	1066.44
255.193	1164.44
255.426	1293.44
255.659	1488.44
255.892	1598.44
256.124	1269.44
256.357	1205.44
256.59	1296.44
256.823	1320.44
257.056	1303.44
257.289	1545.44
257.521	1778.44
257.754	1572.44
257.987	1447.44
258.22	1637.44
258.452	1584.44
258.685	1291.44
258.918	1268.44
259.151	1296.44
259.383	1226.44
259.616	1080.44
259.849	1183.44
260.081	1282.44
260.314	1427.44
260.547	1567.44
260.779	1596.44
261.012	1459.44
261.244	1308.44
261.477	1267.44
261.71	1291.44
261.942	1299.44
262.175	1303.44
262.407	1358.44
262.64	1259.44
262.872	1176.44
263.105	1152.44
263.337	1164.44
263.57	1233.44
263.802	1199.44
264.035	1129.44
264.267	1074.44
264.499	1044.44
264.732	1147.44
264.964	1182.44
265.197	1269.44
265.429	1284.44
265.661	1427.44
265.894	1566.44
266.126	1660.44
266.358	1490.44
266.591	1514.44
266.823	1695.44
267.055	1511.44
267.287	1488.44
267.52	1415.44
267.752	1442.44
267.984	1444.44
268.216	1478.44
268.448	1499.44
268.681	1493.44
268.913	1406.44
269.145	1312.44
269.377	1288.44
269.609	1428.44
269.841	1615.44
270.073	1840.44
270.306	2061.44
270.538	2221.44
270.77	1913.44
271.002	1567.44
271.234	1511.44
271.466	1524.44
271.698	1662.44
271.93	1993.44
272.162	2036.44
272.394	1852.44
272.626	1764.44
272.858	1556.44
273.09	1348.44
273.322	1323.44
273.553	1271.44
273.785	1288.44
274.017	1351.44
274.249	1506.44
274.481	1496.44
274.713	1368.44
274.945	1322.44
275.176	1342.44
275.408	1303.44
275.64	1314.44
275.872	1255.44
276.104	1350.44
276.335	1515.44
276.567	1720.44
276.799	1761.44
277.031	1593.44
277.262	1452.44
277.494	1514.44
277.726	1691.44
277.957	1683.44
278.189	1578.44
278.421	1446.44
278.652	1402.44
278.884	1361.44
279.115	1356.44
279.347	1388.44
279.579	1348.44
279.81	1372.44
280.042	1504.44
280.273	1634.44
280.505	1613.44
280.736	1635.44
280.968	1583.44
281.199	1412.44
281.431	1352.44
281.662	1348.44
281.894	1368.44
282.125	1364.44
282.356	1414.44
282.588	1489.44
282.819	1408.44
283.051	1513.44
283.282	1669.44
283.513	1611.44
283.745	1400.44
283.976	1312.44
284.207	1346.44
284.439	1396.44
284.67	1391.44
284.901	1418.44
285.132	1458.44
285.364	1446.44
285.595	1429.44
285.826	1415.44
286.057	1414.44
286.288	1414.44
286.52	1452.44
286.751	1558.44
286.982	1610.44
287.213	1518.44
287.444	1390.44
287.675	1346.44
287.906	1398.44
288.138	1506.44
288.369	1462.44
288.6	1407.44
288.831	1354.44
289.062	1370.44
289.293	1394.44
289.524	1400.44
289.755	1466.44
289.986	1438.44
290.217	1344.44
290.448	1392.44
290.679	1451.44
290.91	1425.44
291.141	1466.44
291.371	1503.44
291.602	1492.44
291.833	1471.44
292.064	1542.44
292.295	1493.44
292.526	1526.44
292.757	1633.44
292.987	1505.44
293.218	1433.44
293.449	1531.44
293.68	1704.44
293.91	1874.44
294.141	1757.44
294.372	1628.44
294.603	1665.44
294.833	1734.44
295.064	1665.44
295.295	1524.44
295.525	1515.44
295.756	1391.44
295.987	1327.44
296.217	1328.44
296.448	1378.44
296.679	1401.44
296.909	1426.44
297.14	1399.44
297.37	1396.44
297.601	1465.44
297.831	1580.44
298.062	1612.44
298.292	1469.44
298.523	1406.44
298.753	1417.44
298.984	1450.44
299.214	1479.44
299.445	1472.44
299.675	1510.44
299.905	1488.44
300.136	1463.44
300.366	1449.44
300.597	1394.44
300.827	1396.44
301.057	1434.44
301.288	1510.44
301.518	1548.44
301.748	1542.44
301.979	1597.44
302.209	1626.44
302.439	1711.44
302.669	1831.44
302.9	1689.44
303.13	1508.44
303.36	1574.44
303.59	1558.44
303.82	1528.44
304.051	1523.44
304.281	1532.44
304.511	1491.44
304.741	1625.44
304.971	1758.44
305.201	1927.44
305.431	1801.44
305.661	1500.44
305.891	1364.44
306.121	1355.44
306.352	1414.44
306.582	1462.44
306.812	1564.44
307.042	1673.44
307.272	1686.44
307.502	1736.44
307.731	1870.44
307.961	2030.44
308.191	1894.44
308.421	1612.44
308.651	1511.44
308.881	1485.44
309.111	1512.44
309.341	1449.44
309.571	1462.44
309.8	1485.44
310.03	1466.44
310.26	1454.44
310.49	1474.44
310.72	1466.44
310.949	1576.44
311.179	1563.44
311.409	1535.44
311.639	1520.44
311.868	1477.44
312.098	1504.44
312.328	1542.44
312.557	1503.44
312.787	1502.44
313.017	1562.44
313.246	1555.44
313.476	1543.44
313.706	1576.44
313.935	1584.44
314.165	1603.44
314.394	1633.44
314.624	1703.44
314.853	1819.44
315.083	1855.44
315.312	1918.44
315.542	1793.44
315.771	1600.44
316.001	1586.44
316.23	1687.44
316.46	1690.44
316.689	1636.44
316.919	1567.44
317.148	1523.44
317.377	1531.44
317.607	1643.44
317.836	1828.44
318.065	1954.44
318.295	1831.44
318.524	1711.44
318.753	1666.44
318.983	1672.44
319.212	1638.44
319.441	1612.44
319.67	1617.44
319.9	1630.44
320.129	1709.44
320.358	1754.44
320.587	1803.44
320.816	1769.44
321.046	1761.44
321.275	1608.44
321.504	1670.44
321.733	1799.44
321.962	1770.44
322.191	1644.44
322.42	1662.44
322.649	1593.44
322.878	1565.44
323.108	1621.44
323.337	1654.44
323.566	1658.44
323.795	1675.44
324.024	1688.44
324.253	1628.44
324.482	1679.44
324.71	1668.44
324.939	1550.44
325.168	1529.44
325.397	1623.44
325.626	1641.44
325.855	1668.44
326.084	1626.44
326.313	1622.44
326.542	1657.44
326.77	1666.44
326.999	1703.44
327.228	1630.44
327.457	1591.44
327.686	1558.44
327.914	1588.44
328.143	1640.44
328.372	1606.44
328.6	1603.44
328.829	1623.44
329.058	1598.44
329.287	1631.44
329.515	1617.44
329.744	1635.44
329.972	1768.44
330.201	1799.44
330.43	1763.44
330.658	1728.44
330.887	1748.44
331.115	1725.44
331.344	1749.44
331.572	1740.44
331.801	1688.44
332.03	1714.44
332.258	1744.44
332.486	1762.44
332.715	1758.44
332.943	1775.44
333.172	1698.44
333.4	1768.44
333.629	1777.44
333.857	1919.44
334.085	2045.44
334.314	2312.44
334.542	2548.44
334.771	2350.44
334.999	2102.44
335.227	1938.44
335.455	1854.44
335.684	1802.44
335.912	1872.44
336.14	1961.44
336.369	1890.44
336.597	1773.44
336.825	1749.44
337.053	1796.44
337.281	1880.44
337.51	1949.44
337.738	2058.44
337.966	2000.44
338.194	1789.44
338.422	1739.44
338.65	1765.44
338.878	1704.44
339.106	1651.44
339.334	1650.44
339.562	1620.44
339.79	1662.44
340.018	1737.44
340.246	1801.44
340.474	1848.44
340.702	1746.44
340.93	1748.44
341.158	1759.44
341.386	1702.44
341.614	1714.44
341.842	1686.44
342.07	1700.44
342.298	1725.44
342.526	1730.44
342.754	1714.44
342.981	1663.44
343.209	1713.44
343.437	1688.44
343.665	1698.44
343.893	1741.44
344.12	1838.44
344.348	1868.44
344.576	1758.44
344.804	1703.44
345.031	1728.44
345.259	1741.44
345.487	1675.44
345.714	1576.44
345.942	1562.44
346.17	1610.44
346.397	1620.44
346.625	1663.44
346.853	1528.44
347.08	1486.44
347.308	1566.44
347.535	1580.44
347.763	1610.44
347.99	1577.44
348.218	1539.44
348.445	1570.44
348.673	1588.44
348.9	1648.44
349.128	1632.44
349.355	1718.44
349.583	1691.44
349.81	1613.44
350.037	1501.44
350.265	1507.44
350.492	1513.44
350.72	1527.44
350.947	1588.44
351.174	1639.44
351.402	1523.44
351.629	1497.44
351.856	1451.44
352.083	1456.44
352.311	1496.44
352.538	1537.44
352.765	1592.44
352.992	1586.44
353.22	1598.44
353.447	1495.44
353.674	1544.44
353.901	1579.44
354.128	1528.44
354.355	1531.44
354.583	1595.44
354.81	1621.44
355.037	1665.44
355.264	1608.44
355.491	1582.44
355.718	1598.44
355.945	1583.44
356.172	1526.44
356.399	1519.44
356.626	1514.44
356.853	1578.44
357.08	1668.44
357.307	1824.44
357.534	1891.44
357.761	1654.44
357.988	1540.44
358.215	1473.44
358.441	1509.44
358.668	1497.44
358.895	1528.44
359.122	1563.44
359.349	1723.44
359.576	1755.44
359.802	1577.44
360.029	1531.44
360.256	1515.44
360.483	1488.44
360.709	1547.44
360.936	1611.44
361.163	1663.44
361.39	1763.44
361.616	1943.44
361.843	1872.44
362.07	1801.44
362.296	1569.44
362.523	1521.44
362.749	1533.44
362.976	1594.44
363.203	1599.44
363.429	1582.44
363.656	1496.44
363.882	1611.44
364.109	1721.44
364.335	1849.44
364.562	1747.44
364.788	1665.44
365.015	1577.44
365.241	1550.44
365.468	1572.44
365.694	1620.44
365.92	1675.44
366.147	1636.44
366.373	1547.44
366.599	1540.44
366.826	1526.44
367.052	1528.44
367.278	1545.44
367.505	1556.44
367.731	1594.44
367.957	1591.44
368.184	1614.44
368.41	1711.44
368.636	1687.44
368.862	1711.44
369.089	1763.44
369.315	1740.44
369.541	1657.44
369.767	1593.44
369.993	1536.44
370.219	1552.44
370.445	1615.44
370.672	1673.44
370.898	1738.44
371.124	1743.44
371.35	1658.44
371.576	1681.44
371.802	1751.44
372.028	1694.44
372.254	1637.44
372.48	1594.44
372.706	1606.44
372.932	1567.44
373.158	1610.44
373.384	1605.44
373.61	1663.44
373.835	1749.44
374.061	1686.44
374.287	1694.44
374.513	1621.44
374.739	1680.44
374.965	1670.44
375.191	1684.44
375.416	1712.44
375.642	1697.44
375.868	1772.44
376.094	1859.44
376.319	1735.44
376.545	1600.44
376.771	1664.44
376.997	1743.44
377.222	1759.44
377.448	1723.44
377.674	1734.44
377.899	1697.44
378.125	1779.44
378.35	1795.44
378.576	1663.44
378.802	1598.44
379.027	1598.44
379.253	1632.44
379.478	1611.44
379.704	1652.44
379.929	1602.44
380.155	1607.44
380.38	1657.44
380.606	1705.44
380.831	1690.44
381.057	1713.44
381.282	1739.44
381.507	1728.44
381.733	1787.44
381.958	1880.44
382.184	1724.44
382.409	1723.44
382.634	1735.44
382.86	1733.44
383.085	1716.44
383.31	1763.44
383.535	1887.44
383.761	1970.44
383.986	1901.44
384.211	1863.44
384.436	1848.44
384.662	1903.44
384.887	2011.44
385.112	1895.44
385.337	1926.44
385.562	1890.44
385.787	1878.44
386.013	1946.44
386.238	1939.44
386.463	1926.44
386.688	2022.44
386.913	2131.44
387.138	2083.44
387.363	1953.44
387.588	1919.44
387.813	1938.44
388.038	1984.44
388.263	2000.44
388.488	1927.44
388.713	1807.44
388.938	1810.44
389.163	1814.44
389.387	1842.44
389.612	1841.44
389.837	1882.44
390.062	1913.44
390.287	1920.44
390.512	1883.44
390.736	1861.44
390.961	1862.44
391.186	1813.44
391.411	1819.44
391.636	1907.44
391.86	1932.44
392.085	1907.44
392.31	1908.44
392.534	1928.44
392.759	1904.44
392.984	1914.44
393.208	1941.44
393.433	2041.44
393.658	2104.44
393.882	2086.44
394.107	1930.44
394.331	1862.44
394.556	1906.44
394.78	1906.44
395.005	1956.44
395.229	1993.44
395.454	2129.44
395.678	2152.44
395.903	2118.44
396.127	2002.44
396.352	2005.44
396.576	2046.44
396.801	2073.44
397.025	2102.44
397.249	2058.44
397.474	2036.44
397.698	2055.44
397.922	2090.44
398.147	2166.44
398.371	2204.44
398.595	2247.44
398.82	2154.44
399.044	2247.44
399.268	2311.44
399.492	2480.44
399.717	2574.44
399.941	2598.44
400.165	2561.44
400.389	2443.44
400.613	2398.44
400.837	2518.44
401.062	2937.44
401.286	2580.44
401.51	2354.44
401.734	2421.44
401.958	2412.44
402.182	2243.44
402.406	2200.44
402.63	2186.44
402.854	2156.44
403.078	2238.44
403.302	2238.44
403.526	2295.44
403.75	2260.44
403.974	2279.44
404.198	2258.44
404.422	2315.44
404.645	2399.44
404.869	2366.44
405.093	2228.44
405.317	2174.44
405.541	2224.44
405.765	2333.44
405.988	2267.44
406.212	2298.44
406.436	2402.44
406.66	2424.44
406.883	2406.44
407.107	2679.44
407.331	2919.44
407.555	3111.44
407.778	2878.44
408.002	2435.44
408.226	2403.44
408.449	2417.44
408.673	2345.44
408.896	2316.44
409.12	2387.44
409.344	2347.44
409.567	2267.44
409.791	2282.44
410.014	2376.44
410.238	2363.44
410.461	2515.44
410.685	2313.44
410.908	2208.44
411.132	2252.44
411.355	2278.44
411.578	2178.44
411.802	2225.44
412.025	2264.44
412.249	2228.44
412.472	2168.44
412.695	2143.44
412.919	2160.44
413.142	2122.44
413.365	2152.44
413.589	2174.44
413.812	2265.44
414.035	2371.44
414.258	2213.44
414.482	2145.44
414.705	2196.44
414.928	2173.44
415.151	2151.44
415.374	2166.44
415.597	2194.44
415.821	2202.44
416.044	2290.44
416.267	2283.44
416.49	2089.44
416.713	2074.44
416.936	2124.44
417.159	2162.44
417.382	2207.44
417.605	2076.44
417.828	2214.44
418.051	2202.44
418.274	2116.44
418.497	2078.44
418.72	2075.44
418.943	2065.44
419.166	2240.44
419.389	2376.44
419.611	2214.44
419.834	2150.44
420.057	2136.44
420.28	2096.44
420.503	2103.44
420.726	2111.44
420.948	2143.44
421.171	2067.44
421.394	2099.44
421.617	2159.44
421.839	2138.44
422.062	2106.44
422.285	2091.44
422.507	2067.44
422.73	2034.44
422.953	1988.44
423.175	1979.44
423.398	2081.44
423.621	2046.44
423.843	2077.44
424.066	2128.44
424.288	2162.44
424.511	2212.44
424.733	2138.44
424.956	2036.44
425.178	1977.44
425.401	2018.44
425.623	2006.44
425.846	2047.44
426.068	2091.44
426.291	2111.44
426.513	2110.44
426.735	2112.44
426.958	2163.44
427.18	2324.44
427.402	2192.44
427.625	2173.44
427.847	2227.44
428.069	2130.44
428.292	2061.44
428.514	1976.44
428.736	1974.44
428.958	1966.44
429.181	2047.44
429.403	2193.44
429.625	2720.44
429.847	2426.44
430.069	2025.44
430.292	2228.44
430.514	2342.44
430.736	2126.44
430.958	2255.44
431.18	2160.44
431.402	2017.44
431.624	1990.44
431.846	2044.44
432.068	1931.44
432.29	1954.44
432.512	1995.44
432.734	2055.44
432.956	2142.44
433.178	2165.44
433.4	2182.44
433.622	2194.44
433.844	2076.44
434.066	2023.44
434.287	2003.44
434.509	2060.44
434.731	2161.44
434.953	2341.44
435.175	2267.44
435.397	2151.44
435.618	2102.44
435.84	2137.44
436.062	2126.44
436.284	2128.44
436.505	2089.44
436.727	2156.44
436.949	2094.44
437.17	2043.44
437.392	2027.44
437.614	1974.44
437.835	1973.44
438.057	2109.44
438.278	2231.44
438.5	2055.44
438.721	2003.44
438.943	2017.44
439.165	2029.44
439.386	1951.44
439.608	2000.44
439.829	1970.44
440.05	2025.44
440.272	1976.44
440.493	1937.44
440.715	1996.44
440.936	2113.44
441.158	2371.44
441.379	2325.44
441.6	2263.44
441.822	2222.44
442.043	2200.44
442.264	2122.44
442.486	2051.44
442.707	2010.44
442.928	2022.44
443.149	2067.44
443.371	2200.44
443.592	2304.44
443.813	2223.44
444.034	2186.44
444.255	2200.44
444.476	2258.44
444.698	2306.44
444.919	2274.44
445.14	2356.44
445.361	2323.44
445.582	2414.44
445.803	2330.44
446.024	2235.44
446.245	2308.44
446.466	2228.44
446.687	2126.44
446.908	2087.44
447.129	2043.44
447.35	2059.44
447.571	2069.44
447.792	2007.44
448.013	1987.44
448.234	2033.44
448.455	2058.44
448.675	2058.44
448.896	1920.44
449.117	1904.44
449.338	1942.44
449.559	2041.44
449.779	2110.44
450	2357.44
450.221	2528.44
450.442	2448.44
450.662	2148.44
450.883	1927.44
451.104	1887.44
451.324	1914.44
451.545	1984.44
451.766	1982.44
451.986	1872.44
452.207	1891.44
452.428	1800.44
452.648	1792.44
452.869	1834.44
453.089	1952.44
453.31	1939.44
453.53	1993.44
453.751	1938.44
453.971	1848.44
454.192	1859.44
454.412	1999.44
454.633	1898.44
454.853	1862.44
455.073	1743.44
455.294	1762.44
455.514	1760.44
455.734	1771.44
455.955	1823.44
456.175	1766.44
456.395	1802.44
456.616	1867.44
456.836	1910.44
457.056	1830.44
457.276	1830.44
457.497	1776.44
457.717	1739.44
457.937	1762.44
458.157	1774.44
458.377	1800.44
458.598	1818.44
458.818	1782.44
459.038	1904.44
459.258	2050.44
459.478	2050.44
459.698	1974.44
459.918	2044.44
460.138	2117.44
460.358	2172.44
460.578	2153.44
460.798	2245.44
461.018	2386.44
461.238	2283.44
461.458	2158.44
461.678	2154.44
461.898	2139.44
462.118	2083.44
462.338	2180.44
462.558	2186.44
462.777	2173.44
462.997	2323.44
463.217	2447.44
463.437	2390.44
463.657	2236.44
463.876	2222.44
464.096	2180.44
464.316	2155.44
464.536	2239.44
464.755	2222.44
464.975	2275.44
465.195	2162.44
465.414	2270.44
465.634	2264.44
465.854	2116.44
466.073	2259.44
466.293	2222.44
466.512	1974.44
466.732	1977.44
466.951	2059.44
467.171	2059.44
467.391	1933.44
467.61	1914.44
467.829	1916.44
468.049	2063.44
468.268	2339.44
468.488	2126.44
468.707	2039.44
468.927	2031.44
469.146	1976.44
469.365	1967.44
469.585	1958.44
469.804	1946.44
470.023	1962.44
470.243	2017.44
470.462	1975.44
470.681	1931.44
470.901	2007.44
471.12	1970.44
471.339	1955.44
471.558	1919.44
471.777	1842.44
471.997	1931.44
472.216	1946.44
472.435	1859.44
472.654	1893.44
472.873	1994.44
473.092	2128.44
473.311	1984.44
473.53	1881.44
473.749	1893.44
473.968	1946.44
474.187	2082.44
474.406	2139.44
474.625	2033.44
474.844	1984.44
475.063	1982.44
475.282	2068.44
475.501	1975.44
475.72	1983.44
475.939	2102.44
476.158	2047.44
476.377	2007.44
476.596	2000.44
476.814	2062.44
477.033	2031.44
477.252	2151.44
477.471	2182.44
477.69	2114.44
477.908	2132.44
478.127	2184.44
478.346	2363.44
478.564	2426.44
478.783	2352.44
479.002	2390.44
479.22	2355.44
479.439	2451.44
479.658	2739.44
479.876	2756.44
480.095	2359.44
480.313	2326.44
480.532	2222.44
480.751	2206.44
480.969	2302.44
481.188	2215.44
481.406	2228.44
481.624	2163.44
481.843	2199.44
482.061	2180.44
482.28	2286.44
482.498	2278.44
482.717	2272.44
482.935	2199.44
483.153	2219.44
483.372	2224.44
483.59	2171.44
483.808	2167.44
484.027	2274.44
484.245	2395.44
484.463	2704.44
484.681	3141.44
484.9	2471.44
485.118	2321.44
485.336	2210.44
485.554	2304.44
485.772	2358.44
485.99	2425.44
486.209	2406.44
486.427	2381.44
486.645	2322.44
486.863	2342.44
487.081	2394.44
487.299	2432.44
487.517	2375.44
487.735	2291.44
487.953	2283.44
488.171	2262.44
488.389	2286.44
488.607	2277.44
488.825	2476.44
489.043	2498.44
489.261	2322.44
489.479	2430.44
489.696	2449.44
489.914	2445.44
490.132	2396.44
490.35	2340.44
490.568	2416.44
490.786	2290.44
491.003	2248.44
491.221	2352.44
491.439	2379.44
491.657	2346.44
491.874	2424.44
492.092	2437.44
492.31	2472.44
492.527	2406.44
492.745	2390.44
492.963	2372.44
493.18	2457.44
493.398	2602.44
493.615	2604.44
493.833	2472.44
494.05	2417.44
494.268	2472.44
494.485	2519.44
494.703	2420.44
494.92	2398.44
495.138	2390.44
495.355	2438.44
495.573	2490.44
495.79	2711.44
496.008	2709.44
496.225	2513.44
496.442	2521.44
496.66	2561.44
496.877	2510.44
497.094	2634.44
497.312	2674.44
497.529	2610.44
497.746	2706.44
497.963	3130.44
498.181	3483.44
498.398	3196.44
498.615	3179.44
498.832	3099.44
499.049	3077.44
499.267	3122.44
499.484	3318.44
499.701	3611.44
499.918	3616.44
500.135	3921.44
500.352	4202.44
500.569	4158.44
500.786	4365.44
501.003	4078.44
501.22	3710.44
501.437	3618.44
501.654	3586.44
501.871	3489.44
502.088	3111.44
502.305	3097.44
502.522	3023.44
502.739	2772.44
502.956	2680.44
503.172	2704.44
503.389	2641.44
503.606	2547.44
503.823	2601.44
504.04	2551.44
504.256	2537.44
504.473	2602.44
504.69	2670.44
504.907	2535.44
505.123	2366.44
505.34	2457.44
505.557	3122.44
505.773	2744.44
505.99	2368.44
506.207	2229.44
506.423	2178.44
506.64	2173.44
506.856	2205.44
507.073	2422.44
507.289	2569.44
507.506	2459.44
507.722	2215.44
507.939	2127.44
508.155	2100.44
508.372	2132.44
508.588	2071.44
508.805	2000.44
509.021	2028.44
509.238	2007.44
509.454	1989.44
509.67	2016.44
509.887	1979.44
510.103	1934.44
510.319	1953.44
510.536	2070.44
510.752	2088.44
510.968	2131.44
511.184	2314.44
511.401	2235.44
511.617	2007.44
511.833	1939.44
512.049	1942.44
512.265	1915.44
512.481	1905.44
512.698	2003.44
512.914	2128.44
513.13	2059.44
513.346	1963.44
513.562	1919.44
513.778	1915.44
513.994	2050.44
514.21	2068.44
514.426	2157.44
514.642	2304.44
514.858	2205.44
515.074	1999.44
515.29	1968.44
515.506	2023.44
515.721	2055.44
515.937	2088.44
516.153	2330.44
516.369	2245.44
516.585	2104.44
516.801	2015.44
517.016	2008.44
517.232	2101.44
517.448	2146.44
517.664	2221.44
517.879	2162.44
518.095	2222.44
518.311	2145.44
518.527	2057.44
518.742	2030.44
518.958	1939.44
519.173	1967.44
519.389	1952.44
519.605	2017.44
519.82	1982.44
520.036	2060.44
520.251	1940.44
520.467	1978.44
520.682	2110.44
520.898	2176.44
521.113	1986.44
521.329	1938.44
521.544	2090.44
521.76	1977.44
521.975	1912.44
522.19	1853.44
522.406	1863.44
522.621	2150.44
522.836	2192.44
523.052	1813.44
523.267	1884.44
523.482	1814.44
523.698	1764.44
523.913	1710.44
524.128	1767.44
524.343	1883.44
524.559	1861.44
524.774	1799.44
524.989	1824.44
525.204	1798.44
525.419	1750.44
525.634	1733.44
525.849	1750.44
526.064	1776.44
526.28	1815.44
526.495	1734.44
526.71	1738.44
526.925	1715.44
527.14	1736.44
527.355	1700.44
527.57	1683.44
527.785	1685.44
527.999	1712.44
528.214	1694.44
528.429	1686.44
528.644	1664.44
528.859	1679.44
529.074	1648.44
529.289	1695.44
529.503	1732.44
529.718	1708.44
529.933	1679.44
530.148	1601.44
530.363	1637.44
530.577	1688.44
530.792	1688.44
531.007	1694.44
531.221	1687.44
531.436	1716.44
531.651	1766.44
531.865	1837.44
532.08	1748.44
532.295	1683.44
532.509	1635.44
532.724	1656.44
532.938	1735.44
533.153	1807.44
533.367	1730.44
533.582	1682.44
533.796	1643.44
534.011	1682.44
534.225	1652.44
534.44	1627.44
534.654	1672.44
534.868	1650.44
535.083	1665.44
535.297	1710.44
535.511	1646.44
535.726	1680.44
535.94	1669.44
536.154	1626.44
536.369	1610.44
536.583	1595.44
536.797	1598.44
537.011	1635.44
537.225	1593.44
537.44	1566.44
537.654	1611.44
537.868	1594.44
538.082	1532.44
538.296	1504.44
538.51	1536.44
538.724	1534.44
538.938	1548.44
539.153	1551.44
539.367	1581.44
539.581	1584.44
539.795	1630.44
540.009	1599.44
540.222	1593.44
540.436	1617.44
540.65	1726.44
540.864	1740.44
541.078	1698.44
541.292	1572.44
541.506	1535.44
541.72	1597.44
541.934	1600.44
542.147	1627.44
542.361	1575.44
542.575	1532.44
542.789	1553.44
543.002	1486.44
543.216	1542.44
543.43	1582.44
543.644	1655.44
543.857	1723.44
544.071	1595.44
544.285	1595.44
544.498	1569.44
544.712	1584.44
544.925	1589.44
545.139	1606.44
545.352	1590.44
545.566	1485.44
545.779	1487.44
545.993	1548.44
546.206	1523.44
546.42	1507.44
546.633	1478.44
546.847	1474.44
547.06	1474.44
547.274	1503.44
547.487	1487.44
547.7	1504.44
547.914	1496.44
548.127	1511.44
548.34	1540.44
548.554	1548.44
548.767	1475.44
548.98	1483.44
549.193	1480.44
549.407	1494.44
549.62	1598.44
549.833	1499.44
550.046	1508.44
550.259	1506.44
550.473	1484.44
550.686	1500.44
550.899	1459.44
551.112	1429.44
551.325	1427.44
551.538	1525.44
551.751	1716.44
551.964	1477.44
552.177	1403.44
552.39	1450.44
552.603	1497.44
552.816	1481.44
553.029	1573.44
553.242	1618.44
553.455	1512.44
553.667	1496.44
553.88	1526.44
554.093	1512.44
554.306	1415.44
554.519	1393.44
554.732	1353.44
554.944	1398.44
555.157	1427.44
555.37	1408.44
555.583	1428.44
555.795	1364.44
556.008	1341.44
556.221	1316.44
556.433	1299.44
556.646	1284.44
556.859	1290.44
557.071	1262.44
557.284	1301.44
557.496	1285.44
557.709	1264.44
557.921	1243.44
558.134	1242.44
558.346	1224.44
558.559	1224.44
558.771	1241.44
558.984	1225.44
559.196	1177.44
559.409	1204.44
559.621	1249.44
559.833	1223.44
560.046	1273.44
560.258	1249.44
560.47	1223.44
560.683	1257.44
560.895	1260.44
561.107	1225.44
561.32	1229.44
561.532	1279.44
561.744	1198.44
561.956	1230.44
562.168	1179.44
562.381	1170.44
562.593	1187.44
562.805	1192.44
563.017	1176.44
563.229	1219.44
563.441	1246.44
563.653	1211.44
563.865	1195.44
564.077	1220.44
564.289	1218.44
564.501	1221.44
564.713	1226.44
564.925	1269.44
565.137	1330.44
565.349	1281.44
565.561	1280.44
565.773	1331.44
565.985	1282.44
566.197	1365.44
566.408	1473.44
566.62	1485.44
566.832	1480.44
567.044	1478.44
567.255	1469.44
567.467	1496.44
567.679	1540.44
567.891	1557.44
568.102	1539.44
568.314	1459.44
568.526	1395.44
568.737	1347.44
568.949	1270.44
569.161	1246.44
569.372	1193.44
569.584	1150.44
569.795	1165.44
570.007	1202.44
570.218	1102.44
570.43	1113.44
570.641	1117.44
570.853	1090.44
571.064	1094.44
571.276	1100.44
571.487	1062.44
571.698	1053.44
571.91	1024.44
572.121	1037.44
572.333	995.44
572.544	993.44
572.755	972.44
572.966	958.44
573.178	991.44
573.389	1003.44
573.6	1007.44
573.811	1032.44
574.023	976.44
574.234	944.44
574.445	928.44
574.656	906.44
574.867	926.44
575.078	911.44
575.289	923.44
575.501	929.44
575.712	886.44
575.923	921.44
576.134	918.44
576.345	879.44
576.556	884.44
576.767	898.44
576.978	878.44
577.188	859.44
577.399	872.44
577.61	838.44
577.821	838.44
578.032	839.44
578.243	830.44
578.454	832.44
578.665	819.44
578.875	838.44
579.086	802.44
579.297	822.44
579.508	852.44
579.718	855.44
579.929	857.44
580.14	807.44
580.35	811.44
580.561	816.44
580.772	860.44
580.982	836.44
581.193	839.44
581.403	824.44
581.614	761.44
581.825	773.44
582.035	787.44
582.246	827.44
582.456	815.44
582.667	793.44
582.877	778.44
583.087	753.44
583.298	739.44
583.508	755.44
583.719	776.44
583.929	767.44
584.139	766.44
584.35	743.44
584.56	742.44
584.77	772.44
584.981	747.44
585.191	774.44
585.401	775.44
585.611	780.44
585.821	746.44
586.032	742.44
586.242	723.44
586.452	736.44
586.662	754.44
586.872	734.44
587.082	750.44
587.292	737.44
587.502	758.44
587.713	793.44
587.923	747.44
588.133	758.44
588.343	771.44
588.553	751.44
588.762	757.44
588.972	726.44
589.182	755.44
589.392	756.44
589.602	767.44
589.812	751.44
590.022	714.44
590.232	735.44
590.441	730.44
590.651	756.44
590.861	704.44
591.071	718.44
591.281	687.44
591.49	722.44
591.7	716.44
591.91	708.44
592.119	733.44
592.329	715.44
592.539	757.44
592.748	752.44
592.958	771.44
593.167	770.44
593.377	766.44
593.587	770.44
593.796	778.44
594.006	788.44
594.215	763.44
594.424	762.44
594.634	736.44
594.843	749.44
595.053	774.44
595.262	751.44
595.472	722.44
595.681	713.44
595.89	684.44
596.1	713.44
596.309	690.44
596.518	699.44
596.727	692.44
596.937	680.44
597.146	663.44
597.355	701.44
597.564	650.44
597.774	642.44
597.983	654.44
598.192	634.44
598.401	626.44
598.61	632.44
598.819	635.44
599.028	629.44
599.237	620.44
599.446	591.44
599.655	592.44
599.864	620.44
600.073	597.44
600.282	623.44
600.491	617.44
600.7	601.44
600.909	595.44
601.118	614.44
601.327	582.44
601.536	617.44
601.745	602.44
601.953	599.44
602.162	600.44
602.371	604.44
602.58	599.44
602.789	610.44
602.997	600.44
603.206	593.44
603.415	589.44
603.623	591.44
603.832	574.44
604.041	576.44
604.249	552.44
604.458	589.44
604.666	577.44
604.875	586.44
605.084	578.44
605.292	606.44
605.501	576.44
605.709	560.44
605.918	571.44
606.126	569.44
606.334	571.44
606.543	578.44
606.751	568.44
606.96	558.44
607.168	553.44
607.376	567.44
607.585	526.44
607.793	535.44
608.001	561.44
608.21	576.44
608.418	536.44
608.626	528.44
608.834	547.44
609.043	534.44
609.251	520.44
609.459	530.44
609.667	542.44
609.875	538.44
610.083	556.44
610.291	555.44
610.499	553.44
610.707	528.44
610.916	528.44
611.124	523.44
611.332	523.44
611.54	533.44
611.748	531.44
611.955	527.44
612.163	533.44
612.371	520.44
612.579	528.44
612.787	523.44
612.995	552.44
613.203	510.44
613.411	508.44
613.618	526.44
613.826	523.44
614.034	520.44
614.242	527.44
614.449	520.44
614.657	537.44
614.865	498.44
615.072	506.44
615.28	518.44
615.488	513.44
615.695	551.44
615.903	541.44
616.111	513.44
616.318	529.44
616.526	510.44
616.733	518.44
616.941	514.44
617.148	529.44
617.356	514.44
617.563	495.44
617.771	489.44
617.978	489.44
618.185	500.44
618.393	528.44
618.6	495.44
618.807	507.44
619.015	498.44
619.222	508.44
619.429	503.44
619.637	481.44
619.844	501.44
620.051	481.44
620.258	462.44
620.466	455.44
620.673	447.44
620.88	458.44
621.087	460.44
621.294	466.44
621.501	458.44
621.708	484.44
621.915	468.44
622.122	475.44
622.329	455.44
622.536	455.44
622.743	451.44
622.95	467.44
623.157	460.44
623.364	454.44
623.571	437.44
623.778	452.44
623.985	438.44
624.192	449.44
624.399	422.44
624.606	440.44
624.812	415.44
625.019	422.44
625.226	407.44
625.433	430.44
625.639	434.44
625.846	411.44
626.053	416.44
626.259	421.44
626.466	416.44
626.673	405.44
626.879	404.44
627.086	420.44
627.293	425.44
627.499	422.44
627.706	416.44
627.912	425.44
628.119	415.44
628.325	418.44
628.532	436.44
628.738	434.44
628.945	432.44
629.151	427.44
629.357	428.44
629.564	388.44
629.77	380.44
629.976	401.44
630.183	403.44
630.389	404.44
630.595	392.44
630.802	383.44
631.008	380.44
631.214	405.44
631.42	382.44
631.627	358.44
631.833	384.44
632.039	383.44
632.245	384.44
632.451	374.44
632.657	379.44
632.863	376.44
633.069	375.44
633.275	383.44
633.481	360.44
633.688	380.44
633.893	370.44
634.099	340.44
634.305	363.44
634.511	363.44
634.717	338.44
634.923	355.44
635.129	362.44
635.335	352.44
635.541	345.44
635.747	353.44
635.952	359.44
636.158	336.44
636.364	346.44
636.57	359.44
636.775	359.44
636.981	352.44
637.187	351.44
637.392	335.44
637.598	365.44
637.804	339.44
638.009	356.44
638.215	359.44
638.421	330.44
638.626	343.44
638.832	328.44
639.037	331.44
639.243	352.44
639.448	359.44
639.654	324.44
639.859	346.44
640.065	333.44
640.27	318.44
640.475	324.44
640.681	333.44
640.886	340.44
641.091	320.44
641.297	332.44
641.502	322.44
641.707	326.44
641.913	325.44
642.118	308.44
642.323	313.44
642.528	327.44
642.733	332.44
642.939	320.44
643.144	315.44
643.349	346.44
643.554	331.44
643.759	325.44
643.964	295.44
644.169	322.44
644.374	317.44
644.579	324.44
644.784	320.44
644.989	322.44
645.194	319.44
645.399	318.44
645.604	318.44
645.809	324.44
646.014	298.44
646.219	310.44
646.423	323.44
646.628	302.44
646.833	313.44
647.038	324.44
647.243	327.44
647.447	318.44
647.652	298.44
647.857	309.44
648.062	318.44
648.266	316.44
648.471	331.44
648.676	316.44
648.88	331.44
649.085	302.44
649.289	314.44
649.494	292.44
649.698	310.44
649.903	312.44
650.107	306.44
650.312	302.44
650.516	309.44
650.721	308.44
650.925	302.44
651.13	302.44
651.334	296.44
651.539	292.44
651.743	297.44
651.947	265.44
652.152	282.44
652.356	263.44
652.56	248.44
652.764	262.44
652.969	266.44
653.173	264.44
653.377	257.44
653.581	240.44
653.785	248.44
653.99	249.44
654.194	266.44
654.398	235.44
654.602	239.44
654.806	235.44
655.01	228.44
655.214	255.44
655.418	249.44
655.622	240.44
655.826	239.44
656.03	242.44
656.234	262.44
656.438	259.44
656.642	262.44
656.846	253.44
657.049	240.44
657.253	215.44
657.457	221.44
657.661	203.44
657.865	199.44
658.068	180.44
658.272	165.44
658.476	164.44
658.68	163.44
658.883	154.44
659.087	150.44
659.291	144.44
659.494	136.44
659.698	119.44
659.901	118.44
660.105	135.44
660.309	112.44
660.512	120.44
660.716	108.44
660.919	111.44
661.123	116.44
661.326	116.44
661.53	111.44
661.733	116.44
661.936	107.44
662.14	93.44
662.343	90.44
662.546	104.44
662.75	82.44
662.953	81.44
663.156	84.44
663.36	96.44
663.563	89.44
663.766	91.44
663.969	76.44
664.173	85.44
664.376	82.44
664.579	81.44
664.782	80.44
664.985	85.44
665.188	84.44
665.391	80.44
665.594	81.44
665.797	88.44
666	86.44
666.203	95.44
666.406	72.44
666.609	86.44
666.812	91.44
667.015	88.44
667.218	93.44
667.421	82.44
667.624	75.44
667.827	75.44
668.03	74.44
668.232	76.44
668.435	78.44
668.638	86.44
668.841	85.44
669.043	76.44
669.246	81.44
669.449	76.44
669.651	96.44
669.854	73.44
670.057	83.44
670.259	76.44
670.462	79.44
670.665	80.44
670.867	81.44
671.07	80.44
671.272	88.44
671.475	79.44
671.677	81.44
671.88	68.44
672.082	75.44
672.284	72.44
672.487	77.44
672.689	74.44
672.892	75.44
