Data from WStandard_LampEnergy8_LIBS07252019.E.O._I.C._HRD10591_15-59-01-929.txt Node
Date: Thu Jul 25 15:59:01 EDT 2019
User: cochatt
Spectrometer: HR+D1059
Trigger mode: 1
Integration Time (sec): 1.000000E-1
Scans to average: 1
Electric dark correction enabled: true
Nonlinearity correction enabled: false
Boxcar width: 0
XAxis mode: Wavelengths
Number of Pixels in Spectrum: 2048
>>>>>Begin Spectral Data<<<<<
223.165	-1.19
223.4	-1.19
223.635	-1.19
223.869	-23.19
224.104	-21.19
224.338	-15.19
224.573	-25.19
224.808	-7.19
225.042	-5.19
225.277	-1.19
225.511	-7.19
225.746	-3.19
225.98	2.81
226.215	17.81
226.449	10.81
226.683	18.81
226.918	19.81
227.152	39.81
227.387	39.81
227.621	42.81
227.856	43.81
228.09	49.81
228.324	45.81
228.559	47.81
228.793	103.81
229.027	206.81
229.262	238.81
229.496	212.81
229.73	231.81
229.964	254.81
230.199	260.81
230.433	246.81
230.667	266.81
230.901	300.81
231.136	276.81
231.37	250.81
231.604	264.81
231.838	277.81
232.072	263.81
232.306	244.81
232.541	282.81
232.775	316.81
233.009	326.81
233.243	316.81
233.477	279.81
233.711	323.81
233.945	313.81
234.179	308.81
234.413	324.81
234.647	337.81
234.881	339.81
235.115	316.81
235.349	292.81
235.583	303.81
235.817	311.81
236.051	298.81
236.285	292.81
236.519	316.81
236.753	362.81
236.987	362.81
237.221	355.81
237.455	373.81
237.689	378.81
237.922	375.81
238.156	354.81
238.39	367.81
238.624	393.81
238.858	393.81
239.091	409.81
239.325	418.81
239.559	484.81
239.793	497.81
240.027	546.81
240.26	499.81
240.494	388.81
240.728	379.81
240.961	388.81
241.195	390.81
241.429	423.81
241.662	404.81
241.896	379.81
242.13	409.81
242.363	441.81
242.597	455.81
242.83	441.81
243.064	461.81
243.298	490.81
243.531	454.81
243.765	465.81
243.998	474.81
244.232	410.81
244.465	419.81
244.699	416.81
244.932	456.81
245.166	531.81
245.399	483.81
245.633	467.81
245.866	459.81
246.099	484.81
246.333	479.81
246.566	506.81
246.8	550.81
247.033	584.81
247.266	528.81
247.5	530.81
247.733	525.81
247.966	571.81
248.2	601.81
248.433	620.81
248.666	618.81
248.899	666.81
249.133	743.81
249.366	820.81
249.599	685.81
249.832	607.81
250.066	615.81
250.299	641.81
250.532	609.81
250.765	561.81
250.998	589.81
251.231	598.81
251.465	621.81
251.698	602.81
251.931	586.81
252.164	611.81
252.397	615.81
252.63	608.81
252.863	544.81
253.096	547.81
253.329	599.81
253.562	623.81
253.795	631.81
254.028	614.81
254.261	578.81
254.494	589.81
254.727	542.81
254.96	597.81
255.193	648.81
255.426	711.81
255.659	800.81
255.892	797.81
256.124	684.81
256.357	656.81
256.59	701.81
256.823	712.81
257.056	748.81
257.289	834.81
257.521	904.81
257.754	811.81
257.987	784.81
258.22	837.81
258.452	820.81
258.685	725.81
258.918	682.81
259.151	671.81
259.383	656.81
259.616	583.81
259.849	621.81
260.081	703.81
260.314	780.81
260.547	838.81
260.779	828.81
261.012	763.81
261.244	708.81
261.477	676.81
261.71	711.81
261.942	703.81
262.175	693.81
262.407	711.81
262.64	679.81
262.872	632.81
263.105	634.81
263.337	631.81
263.57	646.81
263.802	654.81
264.035	605.81
264.267	569.81
264.499	571.81
264.732	608.81
264.964	664.81
265.197	667.81
265.429	706.81
265.661	765.81
265.894	863.81
266.126	869.81
266.358	811.81
266.591	807.81
266.823	875.81
267.055	788.81
267.287	776.81
267.52	756.81
267.752	755.81
267.984	763.81
268.216	786.81
268.448	807.81
268.681	796.81
268.913	723.81
269.145	712.81
269.377	720.81
269.609	780.81
269.841	902.81
270.073	1021.81
270.306	1092.81
270.538	1135.81
270.77	953.81
271.002	849.81
271.234	810.81
271.466	815.81
271.698	969.81
271.93	1091.81
272.162	1068.81
272.394	953.81
272.626	901.81
272.858	815.81
273.09	697.81
273.322	708.81
273.553	685.81
273.785	678.81
274.017	721.81
274.249	799.81
274.481	777.81
274.713	711.81
274.945	722.81
275.176	710.81
275.408	705.81
275.64	677.81
275.872	687.81
276.104	760.81
276.335	877.81
276.567	936.81
276.799	921.81
277.031	853.81
277.262	816.81
277.494	855.81
277.726	904.81
277.957	883.81
278.189	826.81
278.421	781.81
278.652	713.81
278.884	715.81
279.115	765.81
279.347	743.81
279.579	732.81
279.81	734.81
280.042	823.81
280.273	869.81
280.505	887.81
280.736	875.81
280.968	812.81
281.199	738.81
281.431	713.81
281.662	718.81
281.894	735.81
282.125	753.81
282.356	780.81
282.588	772.81
282.819	789.81
283.051	851.81
283.282	901.81
283.513	855.81
283.745	755.81
283.976	716.81
284.207	739.81
284.439	721.81
284.67	736.81
284.901	774.81
285.132	801.81
285.364	781.81
285.595	772.81
285.826	780.81
286.057	743.81
286.288	760.81
286.52	804.81
286.751	856.81
286.982	867.81
287.213	806.81
287.444	751.81
287.675	787.81
287.906	792.81
288.138	868.81
288.369	809.81
288.6	769.81
288.831	771.81
289.062	741.81
289.293	748.81
289.524	773.81
289.755	793.81
289.986	795.81
290.217	740.81
290.448	770.81
290.679	796.81
290.91	790.81
291.141	811.81
291.371	833.81
291.602	827.81
291.833	799.81
292.064	870.81
292.295	822.81
292.526	865.81
292.757	886.81
292.987	820.81
293.218	802.81
293.449	890.81
293.68	957.81
293.91	1044.81
294.141	965.81
294.372	907.81
294.603	939.81
294.833	989.81
295.064	943.81
295.295	854.81
295.525	816.81
295.756	759.81
295.987	746.81
296.217	742.81
296.448	770.81
296.679	761.81
296.909	803.81
297.14	774.81
297.37	802.81
297.601	864.81
297.831	921.81
298.062	882.81
298.292	812.81
298.523	791.81
298.753	825.81
298.984	792.81
299.214	785.81
299.445	838.81
299.675	855.81
299.905	864.81
300.136	827.81
300.366	767.81
300.597	773.81
300.827	769.81
301.057	818.81
301.288	854.81
301.518	831.81
301.748	872.81
301.979	913.81
302.209	936.81
302.439	987.81
302.669	1002.81
302.9	934.81
303.13	876.81
303.36	849.81
303.59	883.81
303.82	858.81
304.051	884.81
304.281	875.81
304.511	857.81
304.741	971.81
304.971	1039.81
305.201	1089.81
305.431	945.81
305.661	826.81
305.891	776.81
306.121	795.81
306.352	803.81
306.582	843.81
306.812	908.81
307.042	961.81
307.272	951.81
307.502	997.81
307.731	1102.81
307.961	1095.81
308.191	995.81
308.421	888.81
308.651	866.81
308.881	860.81
309.111	821.81
309.341	802.81
309.571	820.81
309.8	840.81
310.03	834.81
310.26	837.81
310.49	827.81
310.72	853.81
310.949	891.81
311.179	879.81
311.409	857.81
311.639	852.81
311.868	841.81
312.098	867.81
312.328	833.81
312.557	852.81
312.787	877.81
313.017	873.81
313.246	865.81
313.476	895.81
313.706	921.81
313.935	890.81
314.165	923.81
314.394	951.81
314.624	989.81
314.853	1027.81
315.083	1071.81
315.312	1065.81
315.542	984.81
315.771	923.81
316.001	931.81
316.23	966.81
316.46	964.81
316.689	934.81
316.919	876.81
317.148	901.81
317.377	903.81
317.607	979.81
317.836	1065.81
318.065	1073.81
318.295	1037.81
318.524	1013.81
318.753	963.81
318.983	950.81
319.212	928.81
319.441	927.81
319.67	924.81
319.9	929.81
320.129	988.81
320.358	1056.81
320.587	1059.81
320.816	1034.81
321.046	996.81
321.275	971.81
321.504	998.81
321.733	1040.81
321.962	1018.81
322.191	969.81
322.42	955.81
322.649	923.81
322.878	935.81
323.108	943.81
323.337	945.81
323.566	966.81
323.795	960.81
324.024	965.81
324.253	964.81
324.482	957.81
324.71	909.81
324.939	870.81
325.168	901.81
325.397	952.81
325.626	971.81
325.855	974.81
326.084	929.81
326.313	956.81
326.542	951.81
326.77	994.81
326.999	969.81
327.228	909.81
327.457	873.81
327.686	879.81
327.914	937.81
328.143	955.81
328.372	947.81
328.6	939.81
328.829	908.81
329.058	919.81
329.287	906.81
329.515	963.81
329.744	985.81
329.972	1041.81
330.201	1034.81
330.43	1004.81
330.658	972.81
330.887	1003.81
331.115	998.81
331.344	1014.81
331.572	971.81
331.801	960.81
332.03	1011.81
332.258	1023.81
332.486	994.81
332.715	1012.81
332.943	1025.81
333.172	1013.81
333.4	985.81
333.629	1038.81
333.857	1122.81
334.085	1188.81
334.314	1367.81
334.542	1433.81
334.771	1319.81
334.999	1138.81
335.227	1091.81
335.455	1047.81
335.684	1060.81
335.912	1075.81
336.14	1115.81
336.369	1030.81
336.597	1025.81
336.825	998.81
337.053	1067.81
337.281	1119.81
337.51	1159.81
337.738	1186.81
337.966	1077.81
338.194	1014.81
338.422	960.81
338.65	992.81
338.878	964.81
339.106	947.81
339.334	937.81
339.562	950.81
339.79	973.81
340.018	1024.81
340.246	1066.81
340.474	1063.81
340.702	1023.81
340.93	1042.81
341.158	1009.81
341.386	989.81
341.614	1000.81
341.842	1001.81
342.07	1004.81
342.298	1033.81
342.526	991.81
342.754	984.81
342.981	987.81
343.209	972.81
343.437	984.81
343.665	984.81
343.893	1008.81
344.12	1059.81
344.348	1071.81
344.576	988.81
344.804	992.81
345.031	983.81
345.259	1000.81
345.487	967.81
345.714	905.81
345.942	913.81
346.17	942.81
346.397	938.81
346.625	933.81
346.853	883.81
347.08	891.81
347.308	911.81
347.535	923.81
347.763	960.81
347.99	916.81
348.218	888.81
348.445	914.81
348.673	927.81
348.9	955.81
349.128	1004.81
349.355	1017.81
349.583	982.81
349.81	913.81
350.037	896.81
350.265	867.81
350.492	917.81
350.72	928.81
350.947	937.81
351.174	935.81
351.402	899.81
351.629	874.81
351.856	860.81
352.083	844.81
352.311	896.81
352.538	892.81
352.765	944.81
352.992	955.81
353.22	913.81
353.447	903.81
353.674	909.81
353.901	915.81
354.128	891.81
354.355	917.81
354.583	947.81
354.81	975.81
355.037	938.81
355.264	940.81
355.491	918.81
355.718	959.81
355.945	897.81
356.172	917.81
356.399	897.81
356.626	919.81
356.853	961.81
357.08	1031.81
357.307	1137.81
357.534	1082.81
357.761	944.81
357.988	905.81
358.215	895.81
358.441	884.81
358.668	909.81
358.895	900.81
359.122	982.81
359.349	1053.81
359.576	1025.81
359.802	924.81
360.029	895.81
360.256	893.81
360.483	924.81
360.709	972.81
360.936	993.81
361.163	1053.81
361.39	1106.81
361.616	1167.81
361.843	1144.81
362.07	1055.81
362.296	951.81
362.523	904.81
362.749	923.81
362.976	957.81
363.203	964.81
363.429	934.81
363.656	889.81
363.882	972.81
364.109	1060.81
364.335	1098.81
364.562	1025.81
364.788	982.81
365.015	933.81
365.241	914.81
365.468	977.81
365.694	969.81
365.92	1012.81
366.147	961.81
366.373	913.81
366.599	889.81
366.826	884.81
367.052	920.81
367.278	926.81
367.505	955.81
367.731	961.81
367.957	956.81
368.184	1011.81
368.41	1045.81
368.636	1073.81
368.862	1072.81
369.089	1037.81
369.315	994.81
369.541	962.81
369.767	945.81
369.993	932.81
370.219	950.81
370.445	995.81
370.672	1027.81
370.898	1095.81
371.124	1024.81
371.35	1024.81
371.576	1040.81
371.802	1039.81
372.028	1009.81
372.254	971.81
372.48	927.81
372.706	959.81
372.932	944.81
373.158	943.81
373.384	965.81
373.61	1024.81
373.835	1037.81
374.061	986.81
374.287	993.81
374.513	972.81
374.739	994.81
374.965	1003.81
375.191	1055.81
375.416	1009.81
375.642	1054.81
375.868	1076.81
376.094	1105.81
376.319	1016.81
376.545	996.81
376.771	1030.81
376.997	1096.81
377.222	1042.81
377.448	1026.81
377.674	1047.81
377.899	1043.81
378.125	1109.81
378.35	1101.81
378.576	985.81
378.802	936.81
379.027	967.81
379.253	958.81
379.478	988.81
379.704	1012.81
379.929	979.81
380.155	969.81
380.38	1015.81
380.606	1019.81
380.831	1029.81
381.057	1100.81
381.282	1064.81
381.507	1069.81
381.733	1121.81
381.958	1144.81
382.184	1055.81
382.409	1047.81
382.634	1042.81
382.86	1032.81
383.085	1044.81
383.31	1088.81
383.535	1225.81
383.761	1194.81
383.986	1181.81
384.211	1138.81
384.436	1109.81
384.662	1175.81
384.887	1199.81
385.112	1125.81
385.337	1165.81
385.562	1149.81
385.787	1121.81
386.013	1161.81
386.238	1170.81
386.463	1159.81
386.688	1235.81
386.913	1306.81
387.138	1253.81
387.363	1173.81
387.588	1220.81
387.813	1175.81
388.038	1209.81
388.263	1223.81
388.488	1140.81
388.713	1087.81
388.938	1112.81
389.163	1114.81
389.387	1147.81
389.612	1113.81
389.837	1160.81
390.062	1166.81
390.287	1120.81
390.512	1147.81
390.736	1090.81
390.961	1108.81
391.186	1053.81
391.411	1088.81
391.636	1135.81
391.86	1136.81
392.085	1124.81
392.31	1157.81
392.534	1109.81
392.759	1145.81
392.984	1169.81
393.208	1153.81
393.433	1194.81
393.658	1219.81
393.882	1227.81
394.107	1152.81
394.331	1140.81
394.556	1119.81
394.78	1171.81
395.005	1219.81
395.229	1252.81
395.454	1311.81
395.678	1324.81
395.903	1237.81
396.127	1211.81
396.352	1183.81
396.576	1247.81
396.801	1254.81
397.025	1253.81
397.249	1258.81
397.474	1212.81
397.698	1201.81
397.922	1250.81
398.147	1340.81
398.371	1367.81
398.595	1339.81
398.82	1337.81
399.044	1360.81
399.268	1360.81
399.492	1447.81
399.717	1483.81
399.941	1474.81
400.165	1467.81
400.389	1459.81
400.613	1467.81
400.837	1680.81
401.062	1827.81
401.286	1531.81
401.51	1460.81
401.734	1455.81
401.958	1448.81
402.182	1320.81
402.406	1320.81
402.63	1269.81
402.854	1299.81
403.078	1299.81
403.302	1334.81
403.526	1327.81
403.75	1400.81
403.974	1389.81
404.198	1380.81
404.422	1435.81
404.645	1476.81
404.869	1443.81
405.093	1323.81
405.317	1309.81
405.541	1321.81
405.765	1331.81
405.988	1313.81
406.212	1412.81
406.436	1413.81
406.66	1447.81
406.883	1492.81
407.107	1685.81
407.331	1786.81
407.555	1915.81
407.778	1685.81
408.002	1452.81
408.226	1449.81
408.449	1423.81
408.673	1392.81
408.896	1399.81
409.12	1439.81
409.344	1404.81
409.567	1340.81
409.791	1381.81
410.014	1417.81
410.238	1487.81
410.461	1546.81
410.685	1389.81
410.908	1343.81
411.132	1357.81
411.355	1354.81
411.578	1340.81
411.802	1326.81
412.025	1355.81
412.249	1387.81
412.472	1291.81
412.695	1294.81
412.919	1286.81
413.142	1306.81
413.365	1323.81
413.589	1375.81
413.812	1406.81
414.035	1421.81
414.258	1323.81
414.482	1291.81
414.705	1334.81
414.928	1299.81
415.151	1300.81
415.374	1315.81
415.597	1345.81
415.821	1340.81
416.044	1365.81
416.267	1354.81
416.49	1277.81
416.713	1266.81
416.936	1320.81
417.159	1340.81
417.382	1371.81
417.605	1306.81
417.828	1350.81
418.051	1293.81
418.274	1306.81
418.497	1279.81
418.72	1289.81
418.943	1300.81
419.166	1343.81
419.389	1381.81
419.611	1318.81
419.834	1311.81
420.057	1318.81
420.28	1290.81
420.503	1308.81
420.726	1316.81
420.948	1324.81
421.171	1251.81
421.394	1297.81
421.617	1334.81
421.839	1314.81
422.062	1324.81
422.285	1289.81
422.507	1266.81
422.73	1250.81
422.953	1224.81
423.175	1229.81
423.398	1273.81
423.621	1261.81
423.843	1288.81
424.066	1294.81
424.288	1387.81
424.511	1401.81
424.733	1380.81
424.956	1259.81
425.178	1252.81
425.401	1292.81
425.623	1301.81
425.846	1271.81
426.068	1331.81
426.291	1350.81
426.513	1303.81
426.735	1315.81
426.958	1444.81
427.18	1507.81
427.402	1395.81
427.625	1423.81
427.847	1392.81
428.069	1285.81
428.292	1253.81
428.514	1240.81
428.736	1226.81
428.958	1264.81
429.181	1265.81
429.403	1452.81
429.625	1772.81
429.847	1489.81
430.069	1319.81
430.292	1458.81
430.514	1464.81
430.736	1340.81
430.958	1377.81
431.18	1291.81
431.402	1230.81
431.624	1197.81
431.846	1186.81
432.068	1145.81
432.29	1163.81
432.512	1218.81
432.734	1250.81
432.956	1261.81
433.178	1332.81
433.4	1312.81
433.622	1302.81
433.844	1243.81
434.066	1219.81
434.287	1172.81
434.509	1192.81
434.731	1259.81
434.953	1378.81
435.175	1333.81
435.397	1281.81
435.618	1267.81
435.84	1255.81
436.062	1252.81
436.284	1305.81
436.505	1263.81
436.727	1302.81
436.949	1251.81
437.17	1228.81
437.392	1245.81
437.614	1222.81
437.835	1189.81
438.057	1213.81
438.278	1241.81
438.5	1207.81
438.721	1256.81
438.943	1241.81
439.165	1226.81
439.386	1207.81
439.608	1237.81
439.829	1212.81
440.05	1244.81
440.272	1250.81
440.493	1252.81
440.715	1280.81
440.936	1350.81
441.158	1418.81
441.379	1377.81
441.6	1392.81
441.822	1323.81
442.043	1353.81
442.264	1346.81
442.486	1264.81
442.707	1251.81
442.928	1272.81
443.149	1303.81
443.371	1353.81
443.592	1382.81
443.813	1370.81
444.034	1368.81
444.255	1363.81
444.476	1421.81
444.698	1400.81
444.919	1408.81
445.14	1454.81
445.361	1441.81
445.582	1444.81
445.803	1419.81
446.024	1365.81
446.245	1434.81
446.466	1360.81
446.687	1346.81
446.908	1313.81
447.129	1329.81
447.35	1330.81
447.571	1309.81
447.792	1267.81
448.013	1290.81
448.234	1265.81
448.455	1296.81
448.675	1316.81
448.896	1247.81
449.117	1177.81
449.338	1208.81
449.559	1294.81
449.779	1349.81
450	1451.81
450.221	1459.81
450.442	1443.81
450.662	1274.81
450.883	1201.81
451.104	1161.81
451.324	1188.81
451.545	1210.81
451.766	1171.81
451.986	1157.81
452.207	1152.81
452.428	1087.81
452.648	1088.81
452.869	1108.81
453.089	1145.81
453.31	1178.81
453.53	1144.81
453.751	1087.81
453.971	1046.81
454.192	1098.81
454.412	1162.81
454.633	1159.81
454.853	1139.81
455.073	1065.81
455.294	1099.81
455.514	1083.81
455.734	1088.81
455.955	1105.81
456.175	1100.81
456.395	1055.81
456.616	1083.81
456.836	1113.81
457.056	1095.81
457.276	1081.81
457.497	1051.81
457.717	1039.81
457.937	1073.81
458.157	1063.81
458.377	1043.81
458.598	1016.81
458.818	1059.81
459.038	1097.81
459.258	1143.81
459.478	1129.81
459.698	1128.81
459.918	1176.81
460.138	1202.81
460.358	1235.81
460.578	1236.81
460.798	1321.81
461.018	1386.81
461.238	1283.81
461.458	1263.81
461.678	1251.81
461.898	1237.81
462.118	1203.81
462.338	1285.81
462.558	1287.81
462.777	1264.81
462.997	1307.81
463.217	1375.81
463.437	1353.81
463.657	1242.81
463.876	1275.81
464.096	1245.81
464.316	1276.81
464.536	1328.81
464.755	1288.81
464.975	1304.81
465.195	1263.81
465.414	1322.81
465.634	1292.81
465.854	1304.81
466.073	1401.81
466.293	1347.81
466.512	1198.81
466.732	1200.81
466.951	1235.81
467.171	1240.81
467.391	1217.81
467.61	1193.81
467.829	1251.81
468.049	1356.81
468.268	1457.81
468.488	1354.81
468.707	1285.81
468.927	1242.81
469.146	1247.81
469.365	1204.81
469.585	1271.81
469.804	1163.81
470.023	1234.81
470.243	1240.81
470.462	1228.81
470.681	1203.81
470.901	1254.81
471.12	1242.81
471.339	1232.81
471.558	1189.81
471.777	1204.81
471.997	1240.81
472.216	1183.81
472.435	1121.81
472.654	1140.81
472.873	1173.81
473.092	1205.81
473.311	1161.81
473.53	1135.81
473.749	1143.81
473.968	1200.81
474.187	1240.81
474.406	1232.81
474.625	1200.81
474.844	1200.81
475.063	1225.81
475.282	1227.81
475.501	1213.81
475.72	1181.81
475.939	1314.81
476.158	1229.81
476.377	1217.81
476.596	1210.81
476.814	1241.81
477.033	1185.81
477.252	1290.81
477.471	1351.81
477.69	1303.81
477.908	1264.81
478.127	1376.81
478.346	1408.81
478.564	1443.81
478.783	1405.81
479.002	1463.81
479.22	1413.81
479.439	1463.81
479.658	1570.81
479.876	1515.81
480.095	1420.81
480.313	1340.81
480.532	1271.81
480.751	1311.81
480.969	1316.81
481.188	1295.81
481.406	1259.81
481.624	1233.81
481.843	1264.81
482.061	1301.81
482.28	1336.81
482.498	1359.81
482.717	1320.81
482.935	1332.81
483.153	1344.81
483.372	1380.81
483.59	1355.81
483.808	1338.81
484.027	1376.81
484.245	1460.81
484.463	1785.81
484.681	1895.81
484.9	1421.81
485.118	1367.81
485.336	1340.81
485.554	1359.81
485.772	1387.81
485.99	1363.81
486.209	1396.81
486.427	1378.81
486.645	1413.81
486.863	1437.81
487.081	1469.81
487.299	1462.81
487.517	1460.81
487.735	1464.81
487.953	1533.81
488.171	1484.81
488.389	1485.81
488.607	1485.81
488.825	1608.81
489.043	1603.81
489.261	1405.81
489.479	1476.81
489.696	1489.81
489.914	1451.81
490.132	1439.81
490.35	1459.81
490.568	1568.81
490.786	1515.81
491.003	1474.81
491.221	1539.81
491.439	1602.81
491.657	1616.81
491.874	1642.81
492.092	1704.81
492.31	1728.81
492.527	1678.81
492.745	1603.81
492.963	1583.81
493.18	1601.81
493.398	1720.81
493.615	1727.81
493.833	1596.81
494.05	1555.81
494.268	1546.81
494.485	1607.81
494.703	1576.81
494.92	1555.81
495.138	1522.81
495.355	1598.81
495.573	1593.81
495.79	1671.81
496.008	1676.81
496.225	1594.81
496.442	1626.81
496.66	1586.81
496.877	1604.81
497.094	1645.81
497.312	1682.81
497.529	1623.81
497.746	1652.81
497.963	1855.81
498.181	2022.81
498.398	1894.81
498.615	1833.81
498.832	1784.81
499.049	1754.81
499.267	1781.81
499.484	1938.81
499.701	2037.81
499.918	2081.81
500.135	2204.81
500.352	2381.81
500.569	2354.81
500.786	2552.81
501.003	2295.81
501.22	2121.81
501.437	1989.81
501.654	2106.81
501.871	1978.81
502.088	1798.81
502.305	1770.81
502.522	1696.81
502.739	1569.81
502.956	1562.81
503.172	1567.81
503.389	1516.81
503.606	1508.81
503.823	1478.81
504.04	1484.81
504.256	1492.81
504.473	1508.81
504.69	1509.81
504.907	1462.81
505.123	1399.81
505.34	1562.81
505.557	2015.81
505.773	1673.81
505.99	1428.81
506.207	1329.81
506.423	1293.81
506.64	1289.81
506.856	1305.81
507.073	1552.81
507.289	1619.81
507.506	1539.81
507.722	1299.81
507.939	1232.81
508.155	1226.81
508.372	1230.81
508.588	1211.81
508.805	1203.81
509.021	1208.81
509.238	1143.81
509.454	1144.81
509.67	1132.81
509.887	1146.81
510.103	1134.81
510.319	1145.81
510.536	1195.81
510.752	1243.81
510.968	1210.81
511.184	1273.81
511.401	1233.81
511.617	1156.81
511.833	1111.81
512.049	1115.81
512.265	1104.81
512.481	1116.81
512.698	1132.81
512.914	1188.81
513.13	1146.81
513.346	1121.81
513.562	1095.81
513.778	1109.81
513.994	1174.81
514.21	1216.81
514.426	1222.81
514.642	1303.81
514.858	1228.81
515.074	1141.81
515.29	1104.81
515.506	1129.81
515.721	1183.81
515.937	1193.81
516.153	1302.81
516.369	1236.81
516.585	1193.81
516.801	1171.81
517.016	1181.81
517.232	1198.81
517.448	1229.81
517.664	1205.81
517.879	1233.81
518.095	1311.81
518.311	1234.81
518.527	1181.81
518.742	1163.81
518.958	1137.81
519.173	1147.81
519.389	1188.81
519.605	1199.81
519.82	1163.81
520.036	1181.81
520.251	1135.81
520.467	1183.81
520.682	1253.81
520.898	1266.81
521.113	1115.81
521.329	1156.81
521.544	1204.81
521.76	1148.81
521.975	1123.81
522.19	1077.81
522.406	1131.81
522.621	1463.81
522.836	1345.81
523.052	1111.81
523.267	1125.81
523.482	1098.81
523.698	1062.81
523.913	1043.81
524.128	1076.81
524.343	1162.81
524.559	1185.81
524.774	1098.81
524.989	1067.81
525.204	1056.81
525.419	1076.81
525.634	1052.81
525.849	1104.81
526.064	1080.81
526.28	1057.81
526.495	1031.81
526.71	979.81
526.925	992.81
527.14	983.81
527.355	992.81
527.57	990.81
527.785	1042.81
527.999	1019.81
528.214	978.81
528.429	991.81
528.644	1030.81
528.859	1056.81
529.074	1080.81
529.289	1121.81
529.503	1124.81
529.718	1110.81
529.933	1029.81
530.148	970.81
530.363	965.81
530.577	1001.81
530.792	990.81
531.007	1004.81
531.221	986.81
531.436	1009.81
531.651	1051.81
531.865	1017.81
532.08	1044.81
532.295	976.81
532.509	958.81
532.724	957.81
532.938	1019.81
533.153	1055.81
533.367	1040.81
533.582	1029.81
533.796	1029.81
534.011	1016.81
534.225	1011.81
534.44	995.81
534.654	972.81
534.868	966.81
535.083	1009.81
535.297	1021.81
535.511	1025.81
535.726	1021.81
535.94	994.81
536.154	961.81
536.369	949.81
536.583	955.81
536.797	945.81
537.011	934.81
537.225	930.81
537.44	946.81
537.654	1014.81
537.868	959.81
538.082	917.81
538.296	925.81
538.51	923.81
538.724	951.81
538.938	959.81
539.153	988.81
539.367	1007.81
539.581	982.81
539.795	1017.81
540.009	979.81
540.222	940.81
540.436	968.81
540.65	1044.81
540.864	1067.81
541.078	1072.81
541.292	1037.81
541.506	1061.81
541.72	1107.81
541.934	1166.81
542.147	1171.81
542.361	1111.81
542.575	1089.81
542.789	1008.81
543.002	969.81
543.216	956.81
543.43	1020.81
543.644	1069.81
543.857	1157.81
544.071	1076.81
544.285	1102.81
544.498	1073.81
544.712	1075.81
544.925	1085.81
545.139	1133.81
545.352	1112.81
545.566	1068.81
545.779	1037.81
545.993	1093.81
546.206	1135.81
546.42	1067.81
546.633	1067.81
546.847	1061.81
547.06	1055.81
547.274	1063.81
547.487	1084.81
547.7	1102.81
547.914	1106.81
548.127	1104.81
548.34	1062.81
548.554	1062.81
548.767	1045.81
548.98	1063.81
549.193	1041.81
549.407	1099.81
549.62	1109.81
549.833	1031.81
550.046	1035.81
550.259	1052.81
550.473	1031.81
550.686	1028.81
550.899	1001.81
551.112	1003.81
551.325	983.81
551.538	1035.81
551.751	1137.81
551.964	933.81
552.177	921.81
552.39	969.81
552.603	1022.81
552.816	1009.81
553.029	1079.81
553.242	1083.81
553.455	1051.81
553.667	1051.81
553.88	1015.81
554.093	1049.81
554.306	981.81
554.519	965.81
554.732	959.81
554.944	957.81
555.157	984.81
555.37	941.81
555.583	952.81
555.795	929.81
556.008	876.81
556.221	890.81
556.433	895.81
556.646	876.81
556.859	861.81
557.071	883.81
557.284	881.81
557.496	893.81
557.709	876.81
557.921	847.81
558.134	886.81
558.346	901.81
558.559	857.81
558.771	850.81
558.984	803.81
559.196	825.81
559.409	800.81
559.621	830.81
559.833	833.81
560.046	830.81
560.258	832.81
560.47	811.81
560.683	828.81
560.895	827.81
561.107	841.81
561.32	829.81
561.532	846.81
561.744	836.81
561.956	829.81
562.168	817.81
562.381	809.81
562.593	789.81
562.805	804.81
563.017	768.81
563.229	779.81
563.441	825.81
563.653	764.81
563.865	784.81
564.077	758.81
564.289	782.81
564.501	765.81
564.713	808.81
564.925	837.81
565.137	890.81
565.349	809.81
565.561	815.81
565.773	806.81
565.985	839.81
566.197	865.81
566.408	881.81
566.62	917.81
566.832	892.81
567.044	917.81
567.255	892.81
567.467	902.81
567.679	938.81
567.891	931.81
568.102	902.81
568.314	856.81
568.526	786.81
568.737	775.81
568.949	727.81
569.161	684.81
569.372	687.81
569.584	676.81
569.795	695.81
570.007	671.81
570.218	656.81
570.43	639.81
570.641	639.81
570.853	681.81
571.064	696.81
571.276	661.81
571.487	646.81
571.698	650.81
571.91	663.81
572.121	630.81
572.333	615.81
572.544	600.81
572.755	568.81
572.966	585.81
573.178	586.81
573.389	597.81
573.6	637.81
573.811	679.81
574.023	588.81
574.234	578.81
574.445	571.81
574.656	566.81
574.867	562.81
575.078	571.81
575.289	569.81
575.501	541.81
575.712	559.81
575.923	532.81
576.134	547.81
576.345	550.81
576.556	543.81
576.767	548.81
576.978	537.81
577.188	539.81
577.399	528.81
577.61	501.81
577.821	521.81
578.032	499.81
578.243	526.81
578.454	502.81
578.665	505.81
578.875	510.81
579.086	500.81
579.297	488.81
579.508	512.81
579.718	508.81
579.929	507.81
580.14	496.81
580.35	471.81
580.561	513.81
580.772	553.81
580.982	504.81
581.193	497.81
581.403	474.81
581.614	475.81
581.825	478.81
582.035	491.81
582.246	470.81
582.456	515.81
582.667	485.81
582.877	501.81
583.087	475.81
583.298	461.81
583.508	481.81
583.719	498.81
583.929	474.81
584.139	487.81
584.35	474.81
584.56	468.81
584.77	456.81
584.981	491.81
585.191	469.81
585.401	489.81
585.611	473.81
585.821	497.81
586.032	465.81
586.242	437.81
586.452	441.81
586.662	454.81
586.872	456.81
587.082	427.81
587.292	480.81
587.502	464.81
587.713	447.81
587.923	463.81
588.133	482.81
588.343	456.81
588.553	425.81
588.762	432.81
588.972	446.81
589.182	459.81
589.392	453.81
589.602	471.81
589.812	468.81
590.022	423.81
590.232	438.81
590.441	446.81
590.651	449.81
590.861	439.81
591.071	443.81
591.281	438.81
591.49	434.81
591.7	432.81
591.91	442.81
592.119	452.81
592.329	439.81
592.539	454.81
592.748	457.81
592.958	447.81
593.167	451.81
593.377	453.81
593.587	486.81
593.796	468.81
594.006	452.81
594.215	470.81
594.424	465.81
594.634	473.81
594.843	449.81
595.053	500.81
595.262	455.81
595.472	451.81
595.681	448.81
595.89	445.81
596.1	427.81
596.309	442.81
596.518	433.81
596.727	444.81
596.937	441.81
597.146	412.81
597.355	435.81
597.564	418.81
597.774	412.81
597.983	406.81
598.192	397.81
598.401	393.81
598.61	396.81
598.819	401.81
599.028	421.81
599.237	394.81
599.446	401.81
599.655	383.81
599.864	417.81
600.073	395.81
600.282	396.81
600.491	381.81
600.7	360.81
600.909	393.81
601.118	376.81
601.327	420.81
601.536	417.81
601.745	411.81
601.953	394.81
602.162	395.81
602.371	431.81
602.58	408.81
602.789	417.81
602.997	401.81
603.206	430.81
603.415	422.81
603.623	404.81
603.832	407.81
604.041	396.81
604.249	376.81
604.458	373.81
604.666	387.81
604.875	378.81
605.084	397.81
605.292	421.81
605.501	404.81
605.709	417.81
605.918	406.81
606.126	405.81
606.334	398.81
606.543	423.81
606.751	400.81
606.96	413.81
607.168	382.81
607.376	397.81
607.585	400.81
607.793	403.81
608.001	413.81
608.21	415.81
608.418	404.81
608.626	415.81
608.834	422.81
609.043	410.81
609.251	403.81
609.459	395.81
609.667	383.81
609.875	389.81
610.083	400.81
610.291	428.81
610.499	414.81
610.707	410.81
610.916	385.81
611.124	380.81
611.332	397.81
611.54	413.81
611.748	400.81
611.955	398.81
612.163	376.81
612.371	378.81
612.579	367.81
612.787	396.81
612.995	401.81
613.203	403.81
613.411	373.81
613.618	400.81
613.826	394.81
614.034	381.81
614.242	404.81
614.449	380.81
614.657	389.81
614.865	373.81
615.072	387.81
615.28	371.81
615.488	378.81
615.695	393.81
615.903	403.81
616.111	407.81
616.318	404.81
616.526	379.81
616.733	395.81
616.941	390.81
617.148	381.81
617.356	378.81
617.563	382.81
617.771	378.81
617.978	371.81
618.185	369.81
618.393	379.81
618.6	377.81
618.807	380.81
619.015	381.81
619.222	363.81
619.429	367.81
619.637	359.81
619.844	342.81
620.051	347.81
620.258	349.81
620.466	356.81
620.673	340.81
620.88	344.81
621.087	333.81
621.294	339.81
621.501	338.81
621.708	343.81
621.915	347.81
622.122	365.81
622.329	367.81
622.536	348.81
622.743	351.81
622.95	345.81
623.157	349.81
623.364	336.81
623.571	356.81
623.778	355.81
623.985	351.81
624.192	344.81
624.399	333.81
624.606	341.81
624.812	326.81
625.019	331.81
625.226	330.81
625.433	334.81
625.639	341.81
625.846	291.81
626.053	304.81
626.259	293.81
626.466	294.81
626.673	292.81
626.879	268.81
627.086	287.81
627.293	327.81
627.499	321.81
627.706	331.81
627.912	310.81
628.119	324.81
628.325	327.81
628.532	324.81
628.738	330.81
628.945	347.81
629.151	303.81
629.357	331.81
629.564	315.81
629.77	307.81
629.976	287.81
630.183	307.81
630.389	284.81
630.595	317.81
630.802	320.81
631.008	300.81
631.214	299.81
631.42	280.81
631.627	308.81
631.833	293.81
632.039	285.81
632.245	279.81
632.451	296.81
632.657	282.81
632.863	284.81
633.069	286.81
633.275	285.81
633.481	287.81
633.688	292.81
633.893	285.81
634.099	285.81
634.305	268.81
634.511	287.81
634.717	269.81
634.923	269.81
635.129	262.81
635.335	257.81
635.541	269.81
635.747	271.81
635.952	279.81
636.158	254.81
636.364	282.81
636.57	287.81
636.775	283.81
636.981	283.81
637.187	278.81
637.392	279.81
637.598	293.81
637.804	287.81
638.009	289.81
638.215	288.81
638.421	304.81
638.626	291.81
638.832	271.81
639.037	258.81
639.243	258.81
639.448	269.81
639.654	274.81
639.859	256.81
640.065	271.81
640.27	284.81
640.475	273.81
640.681	277.81
640.886	260.81
641.091	275.81
641.297	267.81
641.502	269.81
641.707	255.81
641.913	260.81
642.118	253.81
642.323	259.81
642.528	257.81
642.733	261.81
642.939	260.81
643.144	258.81
643.349	268.81
643.554	247.81
643.759	259.81
643.964	261.81
644.169	258.81
644.374	260.81
644.579	252.81
644.784	260.81
644.989	270.81
645.194	253.81
645.399	276.81
645.604	263.81
645.809	250.81
646.014	252.81
646.219	253.81
646.423	249.81
646.628	257.81
646.833	257.81
647.038	266.81
647.243	274.81
647.447	250.81
647.652	246.81
647.857	257.81
648.062	250.81
648.266	259.81
648.471	275.81
648.676	268.81
648.88	267.81
649.085	263.81
649.289	245.81
649.494	240.81
649.698	234.81
649.903	255.81
650.107	247.81
650.312	239.81
650.516	246.81
650.721	239.81
650.925	213.81
651.13	242.81
651.334	239.81
651.539	243.81
651.743	228.81
651.947	236.81
652.152	239.81
652.356	241.81
652.56	216.81
652.764	215.81
652.969	214.81
653.173	215.81
653.377	220.81
653.581	210.81
653.785	212.81
653.99	221.81
654.194	235.81
654.398	201.81
654.602	204.81
654.806	212.81
655.01	218.81
655.214	220.81
655.418	206.81
655.622	217.81
655.826	236.81
656.03	242.81
656.234	236.81
656.438	242.81
656.642	268.81
656.846	244.81
657.049	234.81
657.253	220.81
657.457	199.81
657.661	199.81
657.865	193.81
658.068	184.81
658.272	169.81
658.476	170.81
658.68	143.81
658.883	150.81
659.087	154.81
659.291	153.81
659.494	139.81
659.698	138.81
659.901	132.81
660.105	125.81
660.309	134.81
660.512	119.81
660.716	118.81
660.919	121.81
661.123	115.81
661.326	123.81
661.53	118.81
661.733	118.81
661.936	108.81
662.14	97.81
662.343	97.81
662.546	106.81
662.75	96.81
662.953	98.81
663.156	97.81
663.36	82.81
663.563	85.81
663.766	84.81
663.969	82.81
664.173	71.81
664.376	84.81
664.579	80.81
664.782	89.81
664.985	82.81
665.188	74.81
665.391	92.81
665.594	90.81
665.797	85.81
666	86.81
666.203	75.81
666.406	74.81
666.609	90.81
666.812	84.81
667.015	76.81
667.218	85.81
667.421	92.81
667.624	79.81
667.827	90.81
668.03	88.81
668.232	95.81
668.435	80.81
668.638	82.81
668.841	86.81
669.043	77.81
669.246	85.81
669.449	77.81
669.651	77.81
669.854	77.81
670.057	69.81
670.259	87.81
670.462	80.81
670.665	73.81
670.867	69.81
671.07	74.81
671.272	83.81
671.475	92.81
671.677	87.81
671.88	77.81
672.082	83.81
672.284	87.81
672.487	84.81
672.689	84.81
672.892	81.81
