Data from WStandard_LampEnergy8_LIBS07252019.E.O._I.C._HRD10591_16-00-25-930.txt Node
Date: Thu Jul 25 16:00:25 EDT 2019
User: cochatt
Spectrometer: HR+D1059
Trigger mode: 1
Integration Time (sec): 1.000000E-1
Scans to average: 1
Electric dark correction enabled: true
Nonlinearity correction enabled: false
Boxcar width: 0
XAxis mode: Wavelengths
Number of Pixels in Spectrum: 2048
>>>>>Begin Spectral Data<<<<<
223.165	-13.38
223.4	-13.38
223.635	-13.38
223.869	-17.38
224.104	-17.38
224.338	-15.38
224.573	-9.38
224.808	2.62
225.042	-9.38
225.277	-18.38
225.511	-15.38
225.746	-4.38
225.98	2.62
226.215	18.62
226.449	20.62
226.683	17.62
226.918	30.62
227.152	27.62
227.387	43.62
227.621	41.62
227.856	47.62
228.09	47.62
228.324	45.62
228.559	63.62
228.793	91.62
229.027	193.62
229.262	190.62
229.496	199.62
229.73	210.62
229.964	215.62
230.199	250.62
230.433	258.62
230.667	269.62
230.901	279.62
231.136	253.62
231.37	245.62
231.604	231.62
231.838	258.62
232.072	249.62
232.306	257.62
232.541	267.62
232.775	295.62
233.009	313.62
233.243	304.62
233.477	281.62
233.711	273.62
233.945	293.62
234.179	289.62
234.413	285.62
234.647	321.62
234.881	312.62
235.115	292.62
235.349	275.62
235.583	299.62
235.817	283.62
236.051	295.62
236.285	278.62
236.519	316.62
236.753	326.62
236.987	346.62
237.221	336.62
237.455	331.62
237.689	338.62
237.922	334.62
238.156	335.62
238.39	325.62
238.624	367.62
238.858	383.62
239.091	385.62
239.325	395.62
239.559	441.62
239.793	443.62
240.027	483.62
240.26	474.62
240.494	369.62
240.728	364.62
240.961	353.62
241.195	369.62
241.429	401.62
241.662	395.62
241.896	377.62
242.13	367.62
242.363	428.62
242.597	423.62
242.83	439.62
243.064	436.62
243.298	437.62
243.531	451.62
243.765	422.62
243.998	438.62
244.232	383.62
244.465	369.62
244.699	388.62
244.932	453.62
245.166	462.62
245.399	435.62
245.633	438.62
245.866	453.62
246.099	451.62
246.333	472.62
246.566	465.62
246.8	514.62
247.033	547.62
247.266	508.62
247.5	486.62
247.733	521.62
247.966	531.62
248.2	585.62
248.433	583.62
248.666	610.62
248.899	648.62
249.133	695.62
249.366	766.62
249.599	651.62
249.832	584.62
250.066	599.62
250.299	605.62
250.532	558.62
250.765	530.62
250.998	523.62
251.231	552.62
251.465	564.62
251.698	546.62
251.931	549.62
252.164	574.62
252.397	589.62
252.63	573.62
252.863	530.62
253.096	534.62
253.329	531.62
253.562	565.62
253.795	574.62
254.028	589.62
254.261	556.62
254.494	552.62
254.727	555.62
254.96	568.62
255.193	620.62
255.426	669.62
255.659	744.62
255.892	730.62
256.124	633.62
256.357	626.62
256.59	640.62
256.823	658.62
257.056	682.62
257.289	780.62
257.521	832.62
257.754	786.62
257.987	715.62
258.22	803.62
258.452	736.62
258.685	635.62
258.918	637.62
259.151	643.62
259.383	612.62
259.616	557.62
259.849	580.62
260.081	666.62
260.314	725.62
260.547	741.62
260.779	758.62
261.012	714.62
261.244	681.62
261.477	640.62
261.71	672.62
261.942	648.62
262.175	642.62
262.407	685.62
262.64	648.62
262.872	594.62
263.105	603.62
263.337	587.62
263.57	598.62
263.802	604.62
264.035	576.62
264.267	546.62
264.499	539.62
264.732	586.62
264.964	611.62
265.197	631.62
265.429	673.62
265.661	738.62
265.894	803.62
266.126	790.62
266.358	742.62
266.591	765.62
266.823	787.62
267.055	735.62
267.287	743.62
267.52	717.62
267.752	712.62
267.984	713.62
268.216	742.62
268.448	770.62
268.681	752.62
268.913	683.62
269.145	665.62
269.377	666.62
269.609	733.62
269.841	834.62
270.073	941.62
270.306	1010.62
270.538	1006.62
270.77	890.62
271.002	785.62
271.234	747.62
271.466	779.62
271.698	868.62
271.93	1003.62
272.162	999.62
272.394	888.62
272.626	856.62
272.858	768.62
273.09	689.62
273.322	655.62
273.553	651.62
273.785	661.62
274.017	699.62
274.249	713.62
274.481	710.62
274.713	680.62
274.945	667.62
275.176	660.62
275.408	657.62
275.64	657.62
275.872	656.62
276.104	704.62
276.335	794.62
276.567	871.62
276.799	857.62
277.031	786.62
277.262	765.62
277.494	805.62
277.726	863.62
277.957	834.62
278.189	751.62
278.421	724.62
278.652	686.62
278.884	685.62
279.115	688.62
279.347	726.62
279.579	686.62
279.81	698.62
280.042	763.62
280.273	818.62
280.505	832.62
280.736	855.62
280.968	773.62
281.199	705.62
281.431	694.62
281.662	689.62
281.894	690.62
282.125	714.62
282.356	714.62
282.588	749.62
282.819	746.62
283.051	806.62
283.282	802.62
283.513	801.62
283.745	724.62
283.976	709.62
284.207	711.62
284.439	720.62
284.67	712.62
284.901	725.62
285.132	760.62
285.364	730.62
285.595	713.62
285.826	724.62
286.057	727.62
286.288	725.62
286.52	755.62
286.751	799.62
286.982	821.62
287.213	773.62
287.444	715.62
287.675	729.62
287.906	763.62
288.138	807.62
288.369	784.62
288.6	760.62
288.831	740.62
289.062	728.62
289.293	737.62
289.524	735.62
289.755	775.62
289.986	751.62
290.217	719.62
290.448	702.62
290.679	756.62
290.91	740.62
291.141	764.62
291.371	786.62
291.602	800.62
291.833	762.62
292.064	801.62
292.295	793.62
292.526	788.62
292.757	846.62
292.987	791.62
293.218	744.62
293.449	829.62
293.68	917.62
293.91	965.62
294.141	898.62
294.372	863.62
294.603	941.62
294.833	921.62
295.064	872.62
295.295	804.62
295.525	780.62
295.756	723.62
295.987	682.62
296.217	709.62
296.448	741.62
296.679	752.62
296.909	736.62
297.14	741.62
297.37	757.62
297.601	792.62
297.831	850.62
298.062	804.62
298.292	780.62
298.523	742.62
298.753	761.62
298.984	762.62
299.214	785.62
299.445	784.62
299.675	796.62
299.905	811.62
300.136	772.62
300.366	755.62
300.597	748.62
300.827	737.62
301.057	769.62
301.288	811.62
301.518	831.62
301.748	849.62
301.979	895.62
302.209	889.62
302.439	925.62
302.669	970.62
302.9	898.62
303.13	796.62
303.36	816.62
303.59	818.62
303.82	817.62
304.051	810.62
304.281	829.62
304.511	834.62
304.741	921.62
304.971	970.62
305.201	1005.62
305.431	899.62
305.661	763.62
305.891	727.62
306.121	729.62
306.352	752.62
306.582	800.62
306.812	873.62
307.042	916.62
307.272	933.62
307.502	940.62
307.731	1016.62
307.961	1029.62
308.191	961.62
308.421	835.62
308.651	821.62
308.881	793.62
309.111	827.62
309.341	797.62
309.571	801.62
309.8	810.62
310.03	807.62
310.26	783.62
310.49	790.62
310.72	816.62
310.949	858.62
311.179	848.62
311.409	800.62
311.639	826.62
311.868	814.62
312.098	827.62
312.328	842.62
312.557	813.62
312.787	848.62
313.017	808.62
313.246	822.62
313.476	835.62
313.706	856.62
313.935	821.62
314.165	871.62
314.394	878.62
314.624	952.62
314.853	953.62
315.083	1005.62
315.312	987.62
315.542	922.62
315.771	878.62
316.001	857.62
316.23	905.62
316.46	898.62
316.689	889.62
316.919	857.62
317.148	831.62
317.377	843.62
317.607	929.62
317.836	1046.62
318.065	1015.62
318.295	995.62
318.524	937.62
318.753	901.62
318.983	888.62
319.212	877.62
319.441	867.62
319.67	864.62
319.9	886.62
320.129	939.62
320.358	986.62
320.587	1002.62
320.816	990.62
321.046	972.62
321.275	946.62
321.504	956.62
321.733	994.62
321.962	934.62
322.191	907.62
322.42	864.62
322.649	896.62
322.878	909.62
323.108	892.62
323.337	906.62
323.566	916.62
323.795	913.62
324.024	930.62
324.253	879.62
324.482	900.62
324.71	873.62
324.939	829.62
325.168	867.62
325.397	914.62
325.626	949.62
325.855	919.62
326.084	890.62
326.313	915.62
326.542	907.62
326.77	954.62
326.999	923.62
327.228	894.62
327.457	864.62
327.686	864.62
327.914	883.62
328.143	891.62
328.372	895.62
328.6	920.62
328.829	909.62
329.058	876.62
329.287	870.62
329.515	887.62
329.744	916.62
329.972	970.62
330.201	1007.62
330.43	973.62
330.658	953.62
330.887	914.62
331.115	963.62
331.344	986.62
331.572	943.62
331.801	941.62
332.03	939.62
332.258	965.62
332.486	975.62
332.715	975.62
332.943	974.62
333.172	966.62
333.4	973.62
333.629	1009.62
333.857	1037.62
334.085	1146.62
334.314	1325.62
334.542	1323.62
334.771	1240.62
334.999	1117.62
335.227	1035.62
335.455	1004.62
335.684	1000.62
335.912	1031.62
336.14	1057.62
336.369	1004.62
336.597	977.62
336.825	942.62
337.053	982.62
337.281	1022.62
337.51	1084.62
337.738	1110.62
337.966	1017.62
338.194	1000.62
338.422	917.62
338.65	945.62
338.878	906.62
339.106	914.62
339.334	886.62
339.562	919.62
339.79	930.62
340.018	962.62
340.246	1013.62
340.474	999.62
340.702	968.62
340.93	966.62
341.158	979.62
341.386	971.62
341.614	961.62
341.842	946.62
342.07	955.62
342.298	941.62
342.526	961.62
342.754	911.62
342.981	942.62
343.209	926.62
343.437	920.62
343.665	918.62
343.893	957.62
344.12	1032.62
344.348	1003.62
344.576	951.62
344.804	943.62
345.031	934.62
345.259	955.62
345.487	894.62
345.714	864.62
345.942	882.62
346.17	889.62
346.397	905.62
346.625	910.62
346.853	875.62
347.08	839.62
347.308	887.62
347.535	901.62
347.763	916.62
347.99	912.62
348.218	892.62
348.445	872.62
348.673	907.62
348.9	918.62
349.128	949.62
349.355	968.62
349.583	927.62
349.81	898.62
350.037	834.62
350.265	850.62
350.492	855.62
350.72	873.62
350.947	908.62
351.174	919.62
351.402	861.62
351.629	844.62
351.856	832.62
352.083	815.62
352.311	856.62
352.538	850.62
352.765	909.62
352.992	895.62
353.22	905.62
353.447	856.62
353.674	875.62
353.901	878.62
354.128	873.62
354.355	889.62
354.583	893.62
354.81	929.62
355.037	905.62
355.264	921.62
355.491	899.62
355.718	889.62
355.945	889.62
356.172	859.62
356.399	851.62
356.626	889.62
356.853	892.62
357.08	979.62
357.307	1087.62
357.534	1034.62
357.761	915.62
357.988	849.62
358.215	825.62
358.441	854.62
358.668	860.62
358.895	888.62
359.122	935.62
359.349	1014.62
359.576	987.62
359.802	909.62
360.029	860.62
360.256	839.62
360.483	855.62
360.709	901.62
360.936	915.62
361.163	975.62
361.39	1057.62
361.616	1103.62
361.843	1077.62
362.07	1013.62
362.296	891.62
362.523	862.62
362.749	870.62
362.976	913.62
363.203	903.62
363.429	895.62
363.656	859.62
363.882	922.62
364.109	977.62
364.335	1072.62
364.562	983.62
364.788	927.62
365.015	914.62
365.241	883.62
365.468	912.62
365.694	944.62
365.92	977.62
366.147	903.62
366.373	870.62
366.599	867.62
366.826	866.62
367.052	865.62
367.278	904.62
367.505	897.62
367.731	944.62
367.957	933.62
368.184	955.62
368.41	1031.62
368.636	1018.62
368.862	1022.62
369.089	1002.62
369.315	958.62
369.541	949.62
369.767	920.62
369.993	901.62
370.219	917.62
370.445	934.62
370.672	960.62
370.898	1006.62
371.124	1013.62
371.35	954.62
371.576	984.62
371.802	1035.62
372.028	944.62
372.254	965.62
372.48	901.62
372.706	895.62
372.932	898.62
373.158	921.62
373.384	945.62
373.61	988.62
373.835	997.62
374.061	956.62
374.287	905.62
374.513	951.62
374.739	960.62
374.965	986.62
375.191	958.62
375.416	973.62
375.642	999.62
375.868	1057.62
376.094	1056.62
376.319	965.62
376.545	966.62
376.771	976.62
376.997	1040.62
377.222	1013.62
377.448	952.62
377.674	998.62
377.899	997.62
378.125	1078.62
378.35	1029.62
378.576	971.62
378.802	937.62
379.027	961.62
379.253	958.62
379.478	972.62
379.704	949.62
379.929	954.62
380.155	979.62
380.38	948.62
380.606	1002.62
380.831	975.62
381.057	1035.62
381.282	1015.62
381.507	1033.62
381.733	1062.62
381.958	1074.62
382.184	1002.62
382.409	988.62
382.634	1009.62
382.86	1000.62
383.085	989.62
383.31	1041.62
383.535	1135.62
383.761	1171.62
383.986	1119.62
384.211	1082.62
384.436	1069.62
384.662	1118.62
384.887	1153.62
385.112	1092.62
385.337	1101.62
385.562	1062.62
385.787	1094.62
386.013	1136.62
386.238	1139.62
386.463	1094.62
386.688	1227.62
386.913	1257.62
387.138	1195.62
387.363	1133.62
387.588	1131.62
387.813	1127.62
388.038	1127.62
388.263	1190.62
388.488	1119.62
388.713	1045.62
388.938	1094.62
389.163	1090.62
389.387	1057.62
389.612	1069.62
389.837	1089.62
390.062	1098.62
390.287	1093.62
390.512	1087.62
390.736	1067.62
390.961	1081.62
391.186	1051.62
391.411	1071.62
391.636	1081.62
391.86	1103.62
392.085	1076.62
392.31	1084.62
392.534	1096.62
392.759	1084.62
392.984	1081.62
393.208	1104.62
393.433	1123.62
393.658	1173.62
393.882	1166.62
394.107	1107.62
394.331	1093.62
394.556	1118.62
394.78	1093.62
395.005	1141.62
395.229	1209.62
395.454	1274.62
395.678	1249.62
395.903	1185.62
396.127	1134.62
396.352	1191.62
396.576	1202.62
396.801	1172.62
397.025	1185.62
397.249	1185.62
397.474	1176.62
397.698	1166.62
397.922	1226.62
398.147	1292.62
398.371	1316.62
398.595	1283.62
398.82	1271.62
399.044	1309.62
399.268	1320.62
399.492	1397.62
399.717	1423.62
399.941	1427.62
400.165	1389.62
400.389	1391.62
400.613	1425.62
400.837	1581.62
401.062	1716.62
401.286	1469.62
401.51	1405.62
401.734	1410.62
401.958	1366.62
402.182	1305.62
402.406	1261.62
402.63	1227.62
402.854	1259.62
403.078	1280.62
403.302	1280.62
403.526	1309.62
403.75	1332.62
403.974	1353.62
404.198	1297.62
404.422	1378.62
404.645	1390.62
404.869	1403.62
405.093	1275.62
405.317	1215.62
405.541	1271.62
405.765	1295.62
405.988	1306.62
406.212	1330.62
406.436	1346.62
406.66	1361.62
406.883	1436.62
407.107	1611.62
407.331	1751.62
407.555	1869.62
407.778	1602.62
408.002	1388.62
408.226	1360.62
408.449	1379.62
408.673	1339.62
408.896	1336.62
409.12	1347.62
409.344	1305.62
409.567	1289.62
409.791	1325.62
410.014	1361.62
410.238	1415.62
410.461	1487.62
410.685	1344.62
410.908	1271.62
411.132	1289.62
411.355	1296.62
411.578	1250.62
411.802	1290.62
412.025	1302.62
412.249	1297.62
412.472	1265.62
412.695	1257.62
412.919	1248.62
413.142	1272.62
413.365	1314.62
413.589	1313.62
413.812	1359.62
414.035	1385.62
414.258	1342.62
414.482	1228.62
414.705	1231.62
414.928	1241.62
415.151	1247.62
415.374	1271.62
415.597	1245.62
415.821	1262.62
416.044	1296.62
416.267	1279.62
416.49	1235.62
416.713	1194.62
416.936	1276.62
417.159	1312.62
417.382	1303.62
417.605	1263.62
417.828	1277.62
418.051	1274.62
418.274	1265.62
418.497	1235.62
418.72	1255.62
418.943	1236.62
419.166	1274.62
419.389	1311.62
419.611	1255.62
419.834	1235.62
420.057	1240.62
420.28	1243.62
420.503	1247.62
420.726	1294.62
420.948	1287.62
421.171	1237.62
421.394	1233.62
421.617	1283.62
421.839	1306.62
422.062	1305.62
422.285	1232.62
422.507	1242.62
422.73	1196.62
422.953	1168.62
423.175	1190.62
423.398	1231.62
423.621	1236.62
423.843	1217.62
424.066	1261.62
424.288	1349.62
424.511	1331.62
424.733	1303.62
424.956	1222.62
425.178	1179.62
425.401	1206.62
425.623	1217.62
425.846	1224.62
426.068	1279.62
426.291	1269.62
426.513	1271.62
426.735	1263.62
426.958	1358.62
427.18	1370.62
427.402	1299.62
427.625	1341.62
427.847	1303.62
428.069	1253.62
428.292	1189.62
428.514	1185.62
428.736	1164.62
428.958	1203.62
429.181	1205.62
429.403	1407.62
429.625	1695.62
429.847	1425.62
430.069	1261.62
430.292	1428.62
430.514	1376.62
430.736	1278.62
430.958	1295.62
431.18	1234.62
431.402	1199.62
431.624	1192.62
431.846	1124.62
432.068	1108.62
432.29	1107.62
432.512	1123.62
432.734	1214.62
432.956	1235.62
433.178	1272.62
433.4	1262.62
433.622	1238.62
433.844	1217.62
434.066	1168.62
434.287	1133.62
434.509	1125.62
434.731	1193.62
434.953	1288.62
435.175	1254.62
435.397	1202.62
435.618	1209.62
435.84	1187.62
436.062	1175.62
436.284	1235.62
436.505	1238.62
436.727	1237.62
436.949	1186.62
437.17	1200.62
437.392	1173.62
437.614	1195.62
437.835	1110.62
438.057	1177.62
438.278	1227.62
438.5	1177.62
438.721	1197.62
438.943	1196.62
439.165	1172.62
439.386	1147.62
439.608	1205.62
439.829	1201.62
440.05	1203.62
440.272	1207.62
440.493	1206.62
440.715	1230.62
440.936	1296.62
441.158	1353.62
441.379	1339.62
441.6	1339.62
441.822	1308.62
442.043	1279.62
442.264	1257.62
442.486	1223.62
442.707	1241.62
442.928	1200.62
443.149	1249.62
443.371	1325.62
443.592	1329.62
443.813	1343.62
444.034	1291.62
444.255	1324.62
444.476	1319.62
444.698	1373.62
444.919	1382.62
445.14	1432.62
445.361	1383.62
445.582	1401.62
445.803	1330.62
446.024	1321.62
446.245	1352.62
446.466	1316.62
446.687	1296.62
446.908	1309.62
447.129	1301.62
447.35	1279.62
447.571	1262.62
447.792	1191.62
448.013	1185.62
448.234	1218.62
448.455	1310.62
448.675	1266.62
448.896	1150.62
449.117	1171.62
449.338	1181.62
449.559	1239.62
449.779	1292.62
450	1347.62
450.221	1402.62
450.442	1353.62
450.662	1229.62
450.883	1118.62
451.104	1109.62
451.324	1143.62
451.545	1132.62
451.766	1142.62
451.986	1123.62
452.207	1077.62
452.428	1058.62
452.648	1063.62
452.869	1073.62
453.089	1106.62
453.31	1071.62
453.53	1089.62
453.751	1108.62
453.971	998.62
454.192	1060.62
454.412	1092.62
454.633	1099.62
454.853	1057.62
455.073	1001.62
455.294	1029.62
455.514	1022.62
455.734	1007.62
455.955	1048.62
456.175	1033.62
456.395	1013.62
456.616	1048.62
456.836	1043.62
457.056	1038.62
457.276	1033.62
457.497	1025.62
457.717	986.62
457.937	1004.62
458.157	1023.62
458.377	997.62
458.598	989.62
458.818	985.62
459.038	1097.62
459.258	1085.62
459.478	1114.62
459.698	1055.62
459.918	1126.62
460.138	1185.62
460.358	1192.62
460.578	1222.62
460.798	1231.62
461.018	1285.62
461.238	1223.62
461.458	1179.62
461.678	1204.62
461.898	1153.62
462.118	1149.62
462.338	1206.62
462.558	1223.62
462.777	1225.62
462.997	1250.62
463.217	1321.62
463.437	1271.62
463.657	1254.62
463.876	1211.62
464.096	1179.62
464.316	1222.62
464.536	1231.62
464.755	1258.62
464.975	1196.62
465.195	1241.62
465.414	1233.62
465.634	1239.62
465.854	1228.62
466.073	1315.62
466.293	1273.62
466.512	1197.62
466.732	1157.62
466.951	1185.62
467.171	1182.62
467.391	1143.62
467.61	1131.62
467.829	1165.62
468.049	1272.62
468.268	1386.62
468.488	1294.62
468.707	1237.62
468.927	1182.62
469.146	1184.62
469.365	1169.62
469.585	1199.62
469.804	1163.62
470.023	1196.62
470.243	1191.62
470.462	1152.62
470.681	1203.62
470.901	1177.62
471.12	1192.62
471.339	1193.62
471.558	1168.62
471.777	1172.62
471.997	1163.62
472.216	1120.62
472.435	1081.62
472.654	1061.62
472.873	1108.62
473.092	1176.62
473.311	1163.62
473.53	1120.62
473.749	1086.62
473.968	1114.62
474.187	1167.62
474.406	1175.62
474.625	1152.62
474.844	1133.62
475.063	1151.62
475.282	1154.62
475.501	1138.62
475.72	1171.62
475.939	1236.62
476.158	1191.62
476.377	1176.62
476.596	1175.62
476.814	1196.62
477.033	1154.62
477.252	1201.62
477.471	1240.62
477.69	1240.62
477.908	1251.62
478.127	1287.62
478.346	1368.62
478.564	1355.62
478.783	1336.62
479.002	1394.62
479.22	1352.62
479.439	1421.62
479.658	1529.62
479.876	1442.62
480.095	1314.62
480.313	1292.62
480.532	1242.62
480.751	1242.62
480.969	1264.62
481.188	1235.62
481.406	1217.62
481.624	1189.62
481.843	1210.62
482.061	1236.62
482.28	1259.62
482.498	1282.62
482.717	1234.62
482.935	1256.62
483.153	1294.62
483.372	1341.62
483.59	1319.62
483.808	1307.62
484.027	1310.62
484.245	1388.62
484.463	1639.62
484.681	1759.62
484.9	1391.62
485.118	1311.62
485.336	1277.62
485.554	1311.62
485.772	1303.62
485.99	1295.62
486.209	1320.62
486.427	1328.62
486.645	1322.62
486.863	1367.62
487.081	1379.62
487.299	1393.62
487.517	1397.62
487.735	1393.62
487.953	1451.62
488.171	1431.62
488.389	1409.62
488.607	1437.62
488.825	1508.62
489.043	1477.62
489.261	1345.62
489.479	1419.62
489.696	1415.62
489.914	1405.62
490.132	1371.62
490.35	1422.62
490.568	1506.62
490.786	1467.62
491.003	1404.62
491.221	1475.62
491.439	1540.62
491.657	1522.62
491.874	1578.62
492.092	1636.62
492.31	1654.62
492.527	1638.62
492.745	1532.62
492.963	1483.62
493.18	1568.62
493.398	1619.62
493.615	1592.62
493.833	1512.62
494.05	1490.62
494.268	1534.62
494.485	1503.62
494.703	1545.62
494.92	1488.62
495.138	1469.62
495.355	1492.62
495.573	1544.62
495.79	1564.62
496.008	1609.62
496.225	1522.62
496.442	1530.62
496.66	1549.62
496.877	1538.62
497.094	1582.62
497.312	1588.62
497.529	1528.62
497.746	1590.62
497.963	1770.62
498.181	1889.62
498.398	1807.62
498.615	1732.62
498.832	1710.62
499.049	1690.62
499.267	1681.62
499.484	1828.62
499.701	1936.62
499.918	1989.62
500.135	2093.62
500.352	2238.62
500.569	2235.62
500.786	2430.62
501.003	2194.62
501.22	2028.62
501.437	1953.62
501.654	2003.62
501.871	1884.62
502.088	1746.62
502.305	1693.62
502.522	1622.62
502.739	1524.62
502.956	1502.62
503.172	1480.62
503.389	1431.62
503.606	1419.62
503.823	1432.62
504.04	1426.62
504.256	1423.62
504.473	1424.62
504.69	1471.62
504.907	1418.62
505.123	1351.62
505.34	1517.62
505.557	1918.62
505.773	1551.62
505.99	1321.62
506.207	1262.62
506.423	1251.62
506.64	1216.62
506.856	1263.62
507.073	1405.62
507.289	1480.62
507.506	1449.62
507.722	1222.62
507.939	1198.62
508.155	1237.62
508.372	1225.62
508.588	1159.62
508.805	1155.62
509.021	1132.62
509.238	1119.62
509.454	1111.62
509.67	1105.62
509.887	1120.62
510.103	1110.62
510.319	1092.62
510.536	1151.62
510.752	1197.62
510.968	1175.62
511.184	1219.62
511.401	1183.62
511.617	1075.62
511.833	1061.62
512.049	1055.62
512.265	1059.62
512.481	1101.62
512.698	1112.62
512.914	1145.62
513.13	1142.62
513.346	1082.62
513.562	1075.62
513.778	1075.62
513.994	1139.62
514.21	1142.62
514.426	1166.62
514.642	1237.62
514.858	1209.62
515.074	1105.62
515.29	1081.62
515.506	1104.62
515.721	1135.62
515.937	1133.62
516.153	1206.62
516.369	1183.62
516.585	1130.62
516.801	1095.62
517.016	1101.62
517.232	1141.62
517.448	1175.62
517.664	1167.62
517.879	1157.62
518.095	1224.62
518.311	1187.62
518.527	1136.62
518.742	1098.62
518.958	1098.62
519.173	1098.62
519.389	1136.62
519.605	1102.62
519.82	1130.62
520.036	1141.62
520.251	1102.62
520.467	1121.62
520.682	1178.62
520.898	1179.62
521.113	1083.62
521.329	1058.62
521.544	1146.62
521.76	1089.62
521.975	1054.62
522.19	1041.62
522.406	1086.62
522.621	1319.62
522.836	1247.62
523.052	1046.62
523.267	1074.62
523.482	1066.62
523.698	1026.62
523.913	1053.62
524.128	1045.62
524.343	1078.62
524.559	1136.62
524.774	1049.62
524.989	1059.62
525.204	1011.62
525.419	1019.62
525.634	1031.62
525.849	1046.62
526.064	1013.62
526.28	1030.62
526.495	988.62
526.71	959.62
526.925	950.62
527.14	947.62
527.355	923.62
527.57	956.62
527.785	984.62
527.999	979.62
528.214	940.62
528.429	981.62
528.644	958.62
528.859	1006.62
529.074	1027.62
529.289	1089.62
529.503	1096.62
529.718	1074.62
529.933	979.62
530.148	938.62
530.363	938.62
530.577	949.62
530.792	935.62
531.007	941.62
531.221	950.62
531.436	959.62
531.651	974.62
531.865	994.62
532.08	977.62
532.295	924.62
532.509	913.62
532.724	923.62
532.938	969.62
533.153	1026.62
533.367	989.62
533.582	978.62
533.796	980.62
534.011	989.62
534.225	958.62
534.44	926.62
534.654	898.62
534.868	911.62
535.083	969.62
535.297	978.62
535.511	966.62
535.726	974.62
535.94	973.62
536.154	935.62
536.369	917.62
536.583	893.62
536.797	898.62
537.011	943.62
537.225	908.62
537.44	882.62
537.654	954.62
537.868	894.62
538.082	865.62
538.296	841.62
538.51	894.62
538.724	928.62
538.938	918.62
539.153	957.62
539.367	962.62
539.581	947.62
539.795	941.62
540.009	928.62
540.222	899.62
540.436	945.62
540.65	1015.62
540.864	1051.62
541.078	1010.62
541.292	994.62
541.506	1009.62
541.72	1064.62
541.934	1106.62
542.147	1138.62
542.361	1101.62
542.575	1043.62
542.789	988.62
543.002	924.62
543.216	950.62
543.43	947.62
543.644	1035.62
543.857	1068.62
544.071	1081.62
544.285	1069.62
544.498	1038.62
544.712	1040.62
544.925	1079.62
545.139	1062.62
545.352	1041.62
545.566	1035.62
545.779	1047.62
545.993	1035.62
546.206	1068.62
546.42	1002.62
546.633	1040.62
546.847	1018.62
547.06	1047.62
547.274	1075.62
547.487	1070.62
547.7	1062.62
547.914	1031.62
548.127	1042.62
548.34	1051.62
548.554	1036.62
548.767	1013.62
548.98	1019.62
549.193	1025.62
549.407	1099.62
549.62	1056.62
549.833	1039.62
550.046	1033.62
550.259	1018.62
550.473	1003.62
550.686	1027.62
550.899	982.62
551.112	935.62
551.325	930.62
551.538	1006.62
551.751	1086.62
551.964	905.62
552.177	886.62
552.39	933.62
552.603	962.62
552.816	955.62
553.029	1010.62
553.242	1029.62
553.455	1009.62
553.667	1001.62
553.88	990.62
554.093	980.62
554.306	958.62
554.519	931.62
554.732	949.62
554.944	937.62
555.157	953.62
555.37	909.62
555.583	915.62
555.795	889.62
556.008	889.62
556.221	866.62
556.433	854.62
556.646	849.62
556.859	830.62
557.071	841.62
557.284	864.62
557.496	862.62
557.709	830.62
557.921	851.62
558.134	851.62
558.346	838.62
558.559	828.62
558.771	807.62
558.984	779.62
559.196	793.62
559.409	810.62
559.621	753.62
559.833	796.62
560.046	825.62
560.258	805.62
560.47	802.62
560.683	788.62
560.895	808.62
561.107	804.62
561.32	775.62
561.532	796.62
561.744	822.62
561.956	829.62
562.168	760.62
562.381	763.62
562.593	759.62
562.805	760.62
563.017	753.62
563.229	769.62
563.441	762.62
563.653	785.62
563.865	741.62
564.077	734.62
564.289	743.62
564.501	776.62
564.713	785.62
564.925	824.62
565.137	853.62
565.349	781.62
565.561	789.62
565.773	787.62
565.985	791.62
566.197	831.62
566.408	850.62
566.62	854.62
566.832	861.62
567.044	893.62
567.255	882.62
567.467	852.62
567.679	893.62
567.891	909.62
568.102	848.62
568.314	794.62
568.526	752.62
568.737	743.62
568.949	714.62
569.161	688.62
569.372	675.62
569.584	654.62
569.795	639.62
570.007	634.62
570.218	643.62
570.43	640.62
570.641	620.62
570.853	625.62
571.064	644.62
571.276	657.62
571.487	631.62
571.698	626.62
571.91	636.62
572.121	633.62
572.333	628.62
572.544	595.62
572.755	568.62
572.966	551.62
573.178	542.62
573.389	566.62
573.6	606.62
573.811	611.62
574.023	593.62
574.234	586.62
574.445	587.62
574.656	544.62
574.867	531.62
575.078	556.62
575.289	556.62
575.501	542.62
575.712	540.62
575.923	551.62
576.134	543.62
576.345	534.62
576.556	545.62
576.767	512.62
576.978	525.62
577.188	525.62
577.399	525.62
577.61	525.62
577.821	518.62
578.032	504.62
578.243	505.62
578.454	511.62
578.665	480.62
578.875	480.62
579.086	468.62
579.297	469.62
579.508	524.62
579.718	493.62
579.929	465.62
580.14	493.62
580.35	466.62
580.561	507.62
580.772	522.62
580.982	525.62
581.193	479.62
581.403	461.62
581.614	481.62
581.825	459.62
582.035	462.62
582.246	449.62
582.456	478.62
582.667	462.62
582.877	471.62
583.087	455.62
583.298	447.62
583.508	466.62
583.719	445.62
583.929	472.62
584.139	461.62
584.35	426.62
584.56	430.62
584.77	425.62
584.981	459.62
585.191	466.62
585.401	473.62
585.611	453.62
585.821	467.62
586.032	459.62
586.242	441.62
586.452	418.62
586.662	443.62
586.872	445.62
587.082	431.62
587.292	454.62
587.502	457.62
587.713	461.62
587.923	453.62
588.133	426.62
588.343	437.62
588.553	458.62
588.762	425.62
588.972	441.62
589.182	428.62
589.392	431.62
589.602	441.62
589.812	440.62
590.022	416.62
590.232	435.62
590.441	434.62
590.651	449.62
590.861	417.62
591.071	430.62
591.281	419.62
591.49	445.62
591.7	429.62
591.91	419.62
592.119	433.62
592.329	440.62
592.539	439.62
592.748	439.62
592.958	459.62
593.167	448.62
593.377	463.62
593.587	479.62
593.796	455.62
594.006	432.62
594.215	471.62
594.424	461.62
594.634	444.62
594.843	475.62
595.053	474.62
595.262	442.62
595.472	438.62
595.681	447.62
595.89	397.62
596.1	397.62
596.309	431.62
596.518	410.62
596.727	440.62
596.937	421.62
597.146	407.62
597.355	402.62
597.564	415.62
597.774	385.62
597.983	385.62
598.192	384.62
598.401	394.62
598.61	379.62
598.819	387.62
599.028	375.62
599.237	395.62
599.446	390.62
599.655	391.62
599.864	384.62
600.073	363.62
600.282	376.62
600.491	373.62
600.7	390.62
600.909	391.62
601.118	383.62
601.327	395.62
601.536	401.62
601.745	397.62
601.953	388.62
602.162	424.62
602.371	414.62
602.58	420.62
602.789	414.62
602.997	404.62
603.206	399.62
603.415	385.62
603.623	404.62
603.832	378.62
604.041	377.62
604.249	389.62
604.458	351.62
604.666	380.62
604.875	367.62
605.084	389.62
605.292	414.62
605.501	398.62
605.709	392.62
605.918	406.62
606.126	402.62
606.334	419.62
606.543	395.62
606.751	395.62
606.96	391.62
607.168	400.62
607.376	394.62
607.585	397.62
607.793	389.62
608.001	382.62
608.21	400.62
608.418	395.62
608.626	416.62
608.834	403.62
609.043	389.62
609.251	393.62
609.459	375.62
609.667	405.62
609.875	387.62
610.083	415.62
610.291	393.62
610.499	409.62
610.707	412.62
610.916	398.62
611.124	400.62
611.332	386.62
611.54	389.62
611.748	400.62
611.955	386.62
612.163	384.62
612.371	373.62
612.579	398.62
612.787	381.62
612.995	376.62
613.203	384.62
613.411	392.62
613.618	383.62
613.826	378.62
614.034	385.62
614.242	371.62
614.449	402.62
614.657	377.62
614.865	388.62
615.072	381.62
615.28	366.62
615.488	386.62
615.695	368.62
615.903	389.62
616.111	388.62
616.318	379.62
616.526	383.62
616.733	385.62
616.941	368.62
617.148	376.62
617.356	385.62
617.563	375.62
617.771	357.62
617.978	353.62
618.185	362.62
618.393	369.62
618.6	368.62
618.807	377.62
619.015	375.62
619.222	370.62
619.429	377.62
619.637	357.62
619.844	347.62
620.051	345.62
620.258	342.62
620.466	354.62
620.673	345.62
620.88	336.62
621.087	328.62
621.294	361.62
621.501	321.62
621.708	329.62
621.915	329.62
622.122	356.62
622.329	354.62
622.536	346.62
622.743	349.62
622.95	343.62
623.157	335.62
623.364	343.62
623.571	348.62
623.778	343.62
623.985	335.62
624.192	335.62
624.399	327.62
624.606	329.62
624.812	344.62
625.019	326.62
625.226	303.62
625.433	323.62
625.639	327.62
625.846	313.62
626.053	307.62
626.259	293.62
626.466	293.62
626.673	291.62
626.879	297.62
627.086	287.62
627.293	319.62
627.499	309.62
627.706	311.62
627.912	335.62
628.119	330.62
628.325	321.62
628.532	305.62
628.738	318.62
628.945	328.62
629.151	319.62
629.357	297.62
629.564	313.62
629.77	317.62
629.976	291.62
630.183	297.62
630.389	296.62
630.595	293.62
630.802	304.62
631.008	278.62
631.214	290.62
631.42	277.62
631.627	292.62
631.833	294.62
632.039	284.62
632.245	290.62
632.451	288.62
632.657	295.62
632.863	292.62
633.069	285.62
633.275	293.62
633.481	279.62
633.688	282.62
633.893	283.62
634.099	286.62
634.305	294.62
634.511	267.62
634.717	261.62
634.923	250.62
635.129	256.62
635.335	252.62
635.541	251.62
635.747	269.62
635.952	263.62
636.158	289.62
636.364	275.62
636.57	286.62
636.775	290.62
636.981	272.62
637.187	271.62
637.392	294.62
637.598	308.62
637.804	282.62
638.009	273.62
638.215	276.62
638.421	263.62
638.626	276.62
638.832	284.62
639.037	281.62
639.243	273.62
639.448	269.62
639.654	233.62
639.859	232.62
640.065	263.62
640.27	290.62
640.475	263.62
640.681	257.62
640.886	257.62
641.091	251.62
641.297	259.62
641.502	265.62
641.707	252.62
641.913	253.62
642.118	254.62
642.323	264.62
642.528	274.62
642.733	268.62
642.939	250.62
643.144	253.62
643.349	261.62
643.554	260.62
643.759	265.62
643.964	264.62
644.169	257.62
644.374	262.62
644.579	255.62
644.784	249.62
644.989	261.62
645.194	248.62
645.399	265.62
645.604	232.62
645.809	247.62
646.014	253.62
646.219	270.62
646.423	259.62
646.628	252.62
646.833	230.62
647.038	257.62
647.243	255.62
647.447	249.62
647.652	269.62
647.857	265.62
648.062	238.62
648.266	237.62
648.471	257.62
648.676	240.62
648.88	257.62
649.085	273.62
649.289	265.62
649.494	240.62
649.698	243.62
649.903	228.62
650.107	251.62
650.312	254.62
650.516	262.62
650.721	243.62
650.925	217.62
651.13	258.62
651.334	250.62
651.539	246.62
651.743	219.62
651.947	244.62
652.152	236.62
652.356	225.62
652.56	240.62
652.764	243.62
652.969	224.62
653.173	221.62
653.377	217.62
653.581	229.62
653.785	233.62
653.99	217.62
654.194	222.62
654.398	211.62
654.602	228.62
654.806	214.62
655.01	232.62
655.214	211.62
655.418	210.62
655.622	242.62
655.826	230.62
656.03	248.62
656.234	263.62
656.438	251.62
656.642	266.62
656.846	245.62
657.049	236.62
657.253	208.62
657.457	196.62
657.661	195.62
657.865	177.62
658.068	180.62
658.272	181.62
658.476	187.62
658.68	154.62
658.883	140.62
659.087	155.62
659.291	162.62
659.494	150.62
659.698	136.62
659.901	127.62
660.105	139.62
660.309	129.62
660.512	126.62
660.716	123.62
660.919	125.62
661.123	120.62
661.326	107.62
661.53	134.62
661.733	112.62
661.936	109.62
662.14	104.62
662.343	115.62
662.546	110.62
662.75	112.62
662.953	105.62
663.156	85.62
663.36	92.62
663.563	95.62
663.766	93.62
663.969	83.62
664.173	93.62
664.376	81.62
664.579	103.62
664.782	93.62
664.985	94.62
665.188	95.62
665.391	89.62
665.594	87.62
665.797	93.62
666	89.62
666.203	91.62
666.406	67.62
666.609	91.62
666.812	96.62
667.015	97.62
667.218	74.62
667.421	101.62
667.624	95.62
667.827	81.62
668.03	104.62
668.232	90.62
668.435	90.62
668.638	91.62
668.841	94.62
669.043	95.62
669.246	86.62
669.449	86.62
669.651	74.62
669.854	82.62
670.057	93.62
670.259	86.62
670.462	94.62
670.665	105.62
670.867	84.62
671.07	88.62
671.272	96.62
671.475	89.62
671.677	97.62
671.88	96.62
672.082	104.62
672.284	91.62
672.487	93.62
672.689	83.62
672.892	93.62
