Data from WStandard_LampEnergy5.5LIBS07252019.E.O._I.C._HRD10591_16-06-50-920.txt Node
Date: Thu Jul 25 16:06:50 EDT 2019
User: cochatt
Spectrometer: HR+D1059
Trigger mode: 1
Integration Time (sec): 1.000000E-1
Scans to average: 1
Electric dark correction enabled: true
Nonlinearity correction enabled: false
Boxcar width: 0
XAxis mode: Wavelengths
Number of Pixels in Spectrum: 2048
>>>>>Begin Spectral Data<<<<<
223.165	-16.38
223.4	-16.38
223.635	-16.38
223.869	-28.38
224.104	-16.38
224.338	-19.38
224.573	7.62
224.808	-13.38
225.042	-7.38
225.277	5.62
225.511	-17.38
225.746	-7.38
225.98	2.62
226.215	21.62
226.449	25.62
226.683	20.62
226.918	18.62
227.152	23.62
227.387	49.62
227.621	43.62
227.856	46.62
228.09	47.62
228.324	59.62
228.559	62.62
228.793	162.62
229.027	362.62
229.262	376.62
229.496	398.62
229.73	391.62
229.964	463.62
230.199	469.62
230.433	482.62
230.667	500.62
230.901	542.62
231.136	520.62
231.37	484.62
231.604	486.62
231.838	470.62
232.072	479.62
232.306	445.62
232.541	491.62
232.775	572.62
233.009	636.62
233.243	608.62
233.477	530.62
233.711	550.62
233.945	594.62
234.179	566.62
234.413	590.62
234.647	663.62
234.881	602.62
235.115	575.62
235.349	580.62
235.583	588.62
235.817	573.62
236.051	547.62
236.285	554.62
236.519	619.62
236.753	684.62
236.987	714.62
237.221	692.62
237.455	772.62
237.689	713.62
237.922	682.62
238.156	690.62
238.39	662.62
238.624	725.62
238.858	786.62
239.091	789.62
239.325	814.62
239.559	962.62
239.793	994.62
240.027	1052.62
240.26	1071.62
240.494	764.62
240.728	708.62
240.961	719.62
241.195	741.62
241.429	837.62
241.662	828.62
241.896	796.62
242.13	777.62
242.363	863.62
242.597	927.62
242.83	908.62
243.064	927.62
243.298	1003.62
243.531	955.62
243.765	950.62
243.998	934.62
244.232	830.62
244.465	780.62
244.699	801.62
244.932	913.62
245.166	1060.62
245.399	984.62
245.633	926.62
245.866	894.62
246.099	934.62
246.333	956.62
246.566	995.62
246.8	1057.62
247.033	1197.62
247.266	1099.62
247.5	1100.62
247.733	1106.62
247.966	1112.62
248.2	1252.62
248.433	1223.62
248.666	1232.62
248.899	1344.62
249.133	1573.62
249.366	1792.62
249.599	1470.62
249.832	1315.62
250.066	1295.62
250.299	1325.62
250.532	1236.62
250.765	1096.62
250.998	1206.62
251.231	1216.62
251.465	1272.62
251.698	1214.62
251.931	1245.62
252.164	1207.62
252.397	1299.62
252.63	1298.62
252.863	1147.62
253.096	1117.62
253.329	1190.62
253.562	1242.62
253.795	1334.62
254.028	1332.62
254.261	1210.62
254.494	1198.62
254.727	1138.62
254.96	1195.62
255.193	1276.62
255.426	1458.62
255.659	1664.62
255.892	1720.62
256.124	1382.62
256.357	1332.62
256.59	1453.62
256.823	1468.62
257.056	1458.62
257.289	1763.62
257.521	1985.62
257.754	1744.62
257.987	1611.62
258.22	1851.62
258.452	1789.62
258.685	1429.62
258.918	1411.62
259.151	1415.62
259.383	1388.62
259.616	1178.62
259.849	1287.62
260.081	1428.62
260.314	1588.62
260.547	1739.62
260.779	1761.62
261.012	1647.62
261.244	1474.62
261.477	1371.62
261.71	1494.62
261.942	1456.62
262.175	1372.62
262.407	1479.62
262.64	1388.62
262.872	1351.62
263.105	1283.62
263.337	1300.62
263.57	1313.62
263.802	1318.62
264.035	1245.62
264.267	1152.62
264.499	1178.62
264.732	1218.62
264.964	1316.62
265.197	1375.62
265.429	1431.62
265.661	1628.62
265.894	1762.62
266.126	1825.62
266.358	1627.62
266.591	1722.62
266.823	1843.62
267.055	1624.62
267.287	1656.62
267.52	1619.62
267.752	1556.62
267.984	1596.62
268.216	1653.62
268.448	1719.62
268.681	1686.62
268.913	1569.62
269.145	1422.62
269.377	1432.62
269.609	1520.62
269.841	1731.62
270.073	2091.62
270.306	2345.62
270.538	2496.62
270.77	2075.62
271.002	1804.62
271.234	1686.62
271.466	1683.62
271.698	1893.62
271.93	2250.62
272.162	2286.62
272.394	2020.62
272.626	1982.62
272.858	1735.62
273.09	1469.62
273.322	1467.62
273.553	1371.62
273.785	1418.62
274.017	1478.62
274.249	1589.62
274.481	1583.62
274.713	1469.62
274.945	1440.62
275.176	1433.62
275.408	1419.62
275.64	1392.62
275.872	1367.62
276.104	1485.62
276.335	1722.62
276.567	1972.62
276.799	1984.62
277.031	1759.62
277.262	1623.62
277.494	1676.62
277.726	1876.62
277.957	1898.62
278.189	1683.62
278.421	1590.62
278.652	1559.62
278.884	1520.62
279.115	1501.62
279.347	1548.62
279.579	1466.62
279.81	1455.62
280.042	1670.62
280.273	1826.62
280.505	1834.62
280.736	1898.62
280.968	1751.62
281.199	1525.62
281.431	1462.62
281.662	1443.62
281.894	1455.62
282.125	1493.62
282.356	1556.62
282.588	1580.62
282.819	1584.62
283.051	1679.62
283.282	1802.62
283.513	1807.62
283.745	1571.62
283.976	1434.62
284.207	1466.62
284.439	1497.62
284.67	1483.62
284.901	1571.62
285.132	1569.62
285.364	1534.62
285.595	1578.62
285.826	1541.62
286.057	1539.62
286.288	1476.62
286.52	1589.62
286.751	1685.62
286.982	1749.62
287.213	1639.62
287.444	1499.62
287.675	1484.62
287.906	1566.62
288.138	1660.62
288.369	1639.62
288.6	1560.62
288.831	1492.62
289.062	1499.62
289.293	1499.62
289.524	1518.62
289.755	1568.62
289.986	1599.62
290.217	1482.62
290.448	1513.62
290.679	1562.62
290.91	1559.62
291.141	1592.62
291.371	1651.62
291.602	1612.62
291.833	1599.62
292.064	1696.62
292.295	1663.62
292.526	1686.62
292.757	1763.62
292.987	1684.62
293.218	1572.62
293.449	1676.62
293.68	1945.62
293.91	2069.62
294.141	1936.62
294.372	1776.62
294.603	1849.62
294.833	1918.62
295.064	1865.62
295.295	1670.62
295.525	1610.62
295.756	1496.62
295.987	1437.62
296.217	1470.62
296.448	1500.62
296.679	1507.62
296.909	1525.62
297.14	1496.62
297.37	1510.62
297.601	1605.62
297.831	1734.62
298.062	1763.62
298.292	1646.62
298.523	1537.62
298.753	1532.62
298.984	1597.62
299.214	1551.62
299.445	1599.62
299.675	1647.62
299.905	1612.62
300.136	1562.62
300.366	1564.62
300.597	1499.62
300.827	1482.62
301.057	1572.62
301.288	1642.62
301.518	1662.62
301.748	1674.62
301.979	1749.62
302.209	1779.62
302.439	1900.62
302.669	1997.62
302.9	1856.62
303.13	1648.62
303.36	1689.62
303.59	1709.62
303.82	1666.62
304.051	1659.62
304.281	1664.62
304.511	1666.62
304.741	1749.62
304.971	1917.62
305.201	2119.62
305.431	1984.62
305.661	1613.62
305.891	1467.62
306.121	1494.62
306.352	1500.62
306.582	1589.62
306.812	1710.62
307.042	1855.62
307.272	1837.62
307.502	1868.62
307.731	2025.62
307.961	2197.62
308.191	2059.62
308.421	1759.62
308.651	1612.62
308.881	1635.62
309.111	1616.62
309.341	1556.62
309.571	1571.62
309.8	1612.62
310.03	1594.62
310.26	1589.62
310.49	1591.62
310.72	1592.62
310.949	1686.62
311.179	1743.62
311.409	1701.62
311.639	1672.62
311.868	1602.62
312.098	1622.62
312.328	1635.62
312.557	1588.62
312.787	1633.62
313.017	1720.62
313.246	1666.62
313.476	1688.62
313.706	1711.62
313.935	1688.62
314.165	1707.62
314.394	1759.62
314.624	1863.62
314.853	1957.62
315.083	2025.62
315.312	2112.62
315.542	1963.62
315.771	1758.62
316.001	1714.62
316.23	1837.62
316.46	1842.62
316.689	1798.62
316.919	1736.62
317.148	1655.62
317.377	1624.62
317.607	1731.62
317.836	2017.62
318.065	2068.62
318.295	2012.62
318.524	1931.62
318.753	1785.62
318.983	1847.62
319.212	1801.62
319.441	1758.62
319.67	1727.62
319.9	1704.62
320.129	1831.62
320.358	1932.62
320.587	2014.62
320.816	2013.62
321.046	1900.62
321.275	1792.62
321.504	1849.62
321.733	2002.62
321.962	1925.62
322.191	1780.62
322.42	1763.62
322.649	1748.62
322.878	1741.62
323.108	1739.62
323.337	1816.62
323.566	1803.62
323.795	1806.62
324.024	1849.62
324.253	1793.62
324.482	1782.62
324.71	1718.62
324.939	1633.62
325.168	1693.62
325.397	1757.62
325.626	1831.62
325.855	1822.62
326.084	1773.62
326.313	1772.62
326.542	1816.62
326.77	1847.62
326.999	1848.62
327.228	1770.62
327.457	1676.62
327.686	1615.62
327.914	1673.62
328.143	1781.62
328.372	1747.62
328.6	1782.62
328.829	1738.62
329.058	1722.62
329.287	1709.62
329.515	1768.62
329.744	1787.62
329.972	1890.62
330.201	1966.62
330.43	1915.62
330.658	1846.62
330.887	1912.62
331.115	1876.62
331.344	1817.62
331.572	1844.62
331.801	1799.62
332.03	1820.62
332.258	1873.62
332.486	1835.62
332.715	1903.62
332.943	1907.62
333.172	1859.62
333.4	1914.62
333.629	1910.62
333.857	2002.62
334.085	2227.62
334.314	2482.62
334.542	2767.62
334.771	2604.62
334.999	2274.62
335.227	2082.62
335.455	1999.62
335.684	1981.62
335.912	2061.62
336.14	2111.62
336.369	2013.62
336.597	1917.62
336.825	1850.62
337.053	1948.62
337.281	2002.62
337.51	2121.62
337.738	2221.62
337.966	2120.62
338.194	1950.62
338.422	1838.62
338.65	1820.62
338.878	1812.62
339.106	1778.62
339.334	1767.62
339.562	1688.62
339.79	1774.62
340.018	1880.62
340.246	1967.62
340.474	1976.62
340.702	1917.62
340.93	1984.62
341.158	1891.62
341.386	1856.62
341.614	1872.62
341.842	1814.62
342.07	1821.62
342.298	1884.62
342.526	1822.62
342.754	1829.62
342.981	1812.62
343.209	1787.62
343.437	1812.62
343.665	1822.62
343.893	1862.62
344.12	1946.62
344.348	2019.62
344.576	1902.62
344.804	1813.62
345.031	1805.62
345.259	1872.62
345.487	1731.62
345.714	1693.62
345.942	1635.62
346.17	1704.62
346.397	1711.62
346.625	1787.62
346.853	1673.62
347.08	1632.62
347.308	1637.62
347.535	1707.62
347.763	1740.62
347.99	1738.62
348.218	1696.62
348.445	1654.62
348.673	1676.62
348.9	1725.62
349.128	1771.62
349.355	1867.62
349.583	1781.62
349.81	1725.62
350.037	1605.62
350.265	1578.62
350.492	1634.62
350.72	1687.62
350.947	1725.62
351.174	1801.62
351.402	1676.62
351.629	1572.62
351.856	1564.62
352.083	1561.62
352.311	1565.62
352.538	1638.62
352.765	1698.62
352.992	1767.62
353.22	1687.62
353.447	1643.62
353.674	1682.62
353.901	1729.62
354.128	1634.62
354.355	1602.62
354.583	1689.62
354.81	1741.62
355.037	1739.62
355.264	1748.62
355.491	1696.62
355.718	1710.62
355.945	1663.62
356.172	1642.62
356.399	1656.62
356.626	1622.62
356.853	1658.62
357.08	1805.62
357.307	2002.62
357.534	1989.62
357.761	1813.62
357.988	1631.62
358.215	1541.62
358.441	1592.62
358.668	1606.62
358.895	1604.62
359.122	1711.62
359.349	1932.62
359.576	1890.62
359.802	1657.62
360.029	1595.62
360.256	1594.62
360.483	1634.62
360.709	1694.62
360.936	1745.62
361.163	1781.62
361.39	1962.62
361.616	2176.62
361.843	2075.62
362.07	1951.62
362.296	1706.62
362.523	1681.62
362.749	1633.62
362.976	1725.62
363.203	1710.62
363.429	1675.62
363.656	1635.62
363.882	1675.62
364.109	1839.62
364.335	2008.62
364.562	1876.62
364.788	1798.62
365.015	1716.62
365.241	1641.62
365.468	1672.62
365.694	1742.62
365.92	1851.62
366.147	1758.62
366.373	1652.62
366.599	1598.62
366.826	1617.62
367.052	1652.62
367.278	1648.62
367.505	1709.62
367.731	1706.62
367.957	1727.62
368.184	1741.62
368.41	1867.62
368.636	1939.62
368.862	1883.62
369.089	1924.62
369.315	1835.62
369.541	1759.62
369.767	1673.62
369.993	1663.62
370.219	1655.62
370.445	1701.62
370.672	1774.62
370.898	1871.62
371.124	1864.62
371.35	1736.62
371.576	1821.62
371.802	1942.62
372.028	1824.62
372.254	1736.62
372.48	1676.62
372.706	1662.62
372.932	1683.62
373.158	1742.62
373.384	1704.62
373.61	1719.62
373.835	1863.62
374.061	1808.62
374.287	1763.62
374.513	1736.62
374.739	1771.62
374.965	1773.62
375.191	1807.62
375.416	1814.62
375.642	1835.62
375.868	1910.62
376.094	1959.62
376.319	1885.62
376.545	1734.62
376.771	1796.62
376.997	1880.62
377.222	1867.62
377.448	1834.62
377.674	1842.62
377.899	1815.62
378.125	1971.62
378.35	1936.62
378.576	1743.62
378.802	1687.62
379.027	1679.62
379.253	1716.62
379.478	1776.62
379.704	1771.62
379.929	1745.62
380.155	1759.62
380.38	1723.62
380.606	1763.62
380.831	1774.62
381.057	1853.62
381.282	1885.62
381.507	1832.62
381.733	1952.62
381.958	2037.62
382.184	1856.62
382.409	1796.62
382.634	1858.62
382.86	1841.62
383.085	1844.62
383.31	1836.62
383.535	2027.62
383.761	2134.62
383.986	2073.62
384.211	1991.62
384.436	1952.62
384.662	2063.62
384.887	2121.62
385.112	1999.62
385.337	2076.62
385.562	2003.62
385.787	2007.62
386.013	2081.62
386.238	2088.62
386.463	2063.62
386.688	2135.62
386.913	2249.62
387.138	2252.62
387.363	2049.62
387.588	2063.62
387.813	2056.62
388.038	2080.62
388.263	2138.62
388.488	2047.62
388.713	1872.62
388.938	1889.62
389.163	1957.62
389.387	2008.62
389.612	1975.62
389.837	2015.62
390.062	2037.62
390.287	1997.62
390.512	1970.62
390.736	1963.62
390.961	1911.62
391.186	1868.62
391.411	1926.62
391.636	1982.62
391.86	2015.62
392.085	1993.62
392.31	1959.62
392.534	1992.62
392.759	2009.62
392.984	1996.62
393.208	2087.62
393.433	2110.62
393.658	2208.62
393.882	2176.62
394.107	2027.62
394.331	1984.62
394.556	1946.62
394.78	2005.62
395.005	2083.62
395.229	2104.62
395.454	2292.62
395.678	2342.62
395.903	2200.62
396.127	2084.62
396.352	2124.62
396.576	2201.62
396.801	2224.62
397.025	2193.62
397.249	2191.62
397.474	2157.62
397.698	2119.62
397.922	2194.62
398.147	2302.62
398.371	2374.62
398.595	2420.62
398.82	2278.62
399.044	2328.62
399.268	2443.62
399.492	2574.62
399.717	2716.62
399.941	2688.62
400.165	2684.62
400.389	2537.62
400.613	2497.62
400.837	2750.62
401.062	3206.62
401.286	2712.62
401.51	2470.62
401.734	2655.62
401.958	2501.62
402.182	2322.62
402.406	2296.62
402.63	2215.62
402.854	2307.62
403.078	2280.62
403.302	2365.62
403.526	2386.62
403.75	2361.62
403.974	2389.62
404.198	2383.62
404.422	2390.62
404.645	2547.62
404.869	2499.62
405.093	2332.62
405.317	2266.62
405.541	2347.62
405.765	2379.62
405.988	2339.62
406.212	2438.62
406.436	2457.62
406.66	2550.62
406.883	2526.62
407.107	2863.62
407.331	3095.62
407.555	3380.62
407.778	3085.62
408.002	2551.62
408.226	2483.62
408.449	2518.62
408.673	2417.62
408.896	2426.62
409.12	2520.62
409.344	2372.62
409.567	2348.62
409.791	2381.62
410.014	2453.62
410.238	2547.62
410.461	2669.62
410.685	2417.62
410.908	2276.62
411.132	2360.62
411.355	2357.62
411.578	2306.62
411.802	2332.62
412.025	2375.62
412.249	2341.62
412.472	2250.62
412.695	2203.62
412.919	2238.62
413.142	2239.62
413.365	2264.62
413.589	2336.62
413.812	2375.62
414.035	2500.62
414.258	2292.62
414.482	2254.62
414.705	2308.62
414.928	2275.62
415.151	2272.62
415.374	2295.62
415.597	2285.62
415.821	2328.62
416.044	2423.62
416.267	2414.62
416.49	2198.62
416.713	2114.62
416.936	2228.62
417.159	2376.62
417.382	2355.62
417.605	2223.62
417.828	2274.62
418.051	2323.62
418.274	2262.62
418.497	2195.62
418.72	2189.62
418.943	2189.62
419.166	2332.62
419.389	2427.62
419.611	2264.62
419.834	2258.62
420.057	2257.62
420.28	2176.62
420.503	2231.62
420.726	2218.62
420.948	2261.62
421.171	2138.62
421.394	2197.62
421.617	2247.62
421.839	2247.62
422.062	2239.62
422.285	2168.62
422.507	2155.62
422.73	2140.62
422.953	2111.62
423.175	2062.62
423.398	2154.62
423.621	2185.62
423.843	2151.62
424.066	2182.62
424.288	2325.62
424.511	2359.62
424.733	2270.62
424.956	2076.62
425.178	2064.62
425.401	2100.62
425.623	2139.62
425.846	2091.62
426.068	2200.62
426.291	2328.62
426.513	2242.62
426.735	2277.62
426.958	2367.62
427.18	2548.62
427.402	2283.62
427.625	2399.62
427.847	2408.62
428.069	2267.62
428.292	2147.62
428.514	2068.62
428.736	2078.62
428.958	2120.62
429.181	2132.62
429.403	2416.62
429.625	2966.62
429.847	2624.62
430.069	2212.62
430.292	2355.62
430.514	2558.62
430.736	2328.62
430.958	2469.62
431.18	2269.62
431.402	2135.62
431.624	2098.62
431.846	2081.62
432.068	2072.62
432.29	2074.62
432.512	2075.62
432.734	2193.62
432.956	2219.62
433.178	2288.62
433.4	2322.62
433.622	2286.62
433.844	2169.62
434.066	2113.62
434.287	2056.62
434.509	2170.62
434.731	2233.62
434.953	2424.62
435.175	2399.62
435.397	2192.62
435.618	2253.62
435.84	2263.62
436.062	2217.62
436.284	2206.62
436.505	2260.62
436.727	2266.62
436.949	2238.62
437.17	2127.62
437.392	2126.62
437.614	2104.62
437.835	2046.62
438.057	2211.62
438.278	2301.62
438.5	2165.62
438.721	2110.62
438.943	2106.62
439.165	2094.62
439.386	2040.62
439.608	2091.62
439.829	2111.62
440.05	2120.62
440.272	2059.62
440.493	2041.62
440.715	2124.62
440.936	2280.62
441.158	2483.62
441.379	2453.62
441.6	2336.62
441.822	2280.62
442.043	2279.62
442.264	2197.62
442.486	2141.62
442.707	2088.62
442.928	2077.62
443.149	2155.62
443.371	2281.62
443.592	2392.62
443.813	2367.62
444.034	2277.62
444.255	2308.62
444.476	2379.62
444.698	2432.62
444.919	2380.62
445.14	2450.62
445.361	2420.62
445.582	2546.62
445.803	2389.62
446.024	2306.62
446.245	2397.62
446.466	2327.62
446.687	2121.62
446.908	2255.62
447.129	2141.62
447.35	2172.62
447.571	2159.62
447.792	2098.62
448.013	2023.62
448.234	2070.62
448.455	2205.62
448.675	2209.62
448.896	2055.62
449.117	2014.62
449.338	2058.62
449.559	2137.62
449.779	2267.62
450	2468.62
450.221	2702.62
450.442	2597.62
450.662	2294.62
450.883	2000.62
451.104	2000.62
451.324	2029.62
451.545	2092.62
451.766	2006.62
451.986	1930.62
452.207	1930.62
452.428	1918.62
452.648	1890.62
452.869	1935.62
453.089	2027.62
453.31	2038.62
453.53	2108.62
453.751	2027.62
453.971	1920.62
454.192	1945.62
454.412	2121.62
454.633	2057.62
454.853	1970.62
455.073	1844.62
455.294	1823.62
455.514	1856.62
455.734	1848.62
455.955	1896.62
456.175	1896.62
456.395	1869.62
456.616	1988.62
456.836	1993.62
457.056	1923.62
457.276	1945.62
457.497	1883.62
457.717	1817.62
457.937	1847.62
458.157	1892.62
458.377	1872.62
458.598	1835.62
458.818	1897.62
459.038	2000.62
459.258	2120.62
459.478	2144.62
459.698	2070.62
459.918	2126.62
460.138	2239.62
460.358	2197.62
460.578	2262.62
460.798	2313.62
461.018	2476.62
461.238	2356.62
461.458	2278.62
461.678	2293.62
461.898	2227.62
462.118	2129.62
462.338	2254.62
462.558	2258.62
462.777	2283.62
462.997	2387.62
463.217	2519.62
463.437	2488.62
463.657	2362.62
463.876	2252.62
464.096	2243.62
464.316	2241.62
464.536	2335.62
464.755	2343.62
464.975	2364.62
465.195	2313.62
465.414	2414.62
465.634	2394.62
465.854	2244.62
466.073	2402.62
466.293	2405.62
466.512	2078.62
466.732	2077.62
466.951	2154.62
467.171	2125.62
467.391	2036.62
467.61	2015.62
467.829	2067.62
468.049	2210.62
468.268	2475.62
468.488	2300.62
468.707	2206.62
468.927	2108.62
469.146	2037.62
469.365	2065.62
469.585	2064.62
469.804	2054.62
470.023	2002.62
470.243	2064.62
470.462	2036.62
470.681	2004.62
470.901	2054.62
471.12	2090.62
471.339	2026.62
471.558	2015.62
471.777	1993.62
471.997	2019.62
472.216	1992.62
472.435	1946.62
472.654	1991.62
472.873	2099.62
473.092	2202.62
473.311	2118.62
473.53	1981.62
473.749	1967.62
473.968	2058.62
474.187	2164.62
474.406	2251.62
474.625	2152.62
474.844	2101.62
475.063	2048.62
475.282	2156.62
475.501	2093.62
475.72	2093.62
475.939	2220.62
476.158	2156.62
476.377	2083.62
476.596	2072.62
476.814	2137.62
477.033	2202.62
477.252	2287.62
477.471	2328.62
477.69	2275.62
477.908	2180.62
478.127	2264.62
478.346	2498.62
478.564	2498.62
478.783	2499.62
479.002	2554.62
479.22	2416.62
479.439	2596.62
479.658	2908.62
479.876	2940.62
480.095	2473.62
480.313	2400.62
480.532	2279.62
480.751	2314.62
480.969	2392.62
481.188	2341.62
481.406	2279.62
481.624	2217.62
481.843	2276.62
482.061	2337.62
482.28	2363.62
482.498	2402.62
482.717	2410.62
482.935	2323.62
483.153	2289.62
483.372	2259.62
483.59	2292.62
483.808	2304.62
484.027	2357.62
484.245	2521.62
484.463	2890.62
484.681	3384.62
484.9	2559.62
485.118	2387.62
485.336	2290.62
485.554	2423.62
485.772	2507.62
485.99	2447.62
486.209	2538.62
486.427	2518.62
486.645	2469.62
486.863	2448.62
487.081	2543.62
487.299	2547.62
487.517	2524.62
487.735	2386.62
487.953	2372.62
488.171	2379.62
488.389	2351.62
488.607	2411.62
488.825	2663.62
489.043	2705.62
489.261	2396.62
489.479	2484.62
489.696	2591.62
489.914	2564.62
490.132	2444.62
490.35	2449.62
490.568	2578.62
490.786	2429.62
491.003	2329.62
491.221	2389.62
491.439	2517.62
491.657	2510.62
491.874	2500.62
492.092	2493.62
492.31	2518.62
492.527	2461.62
492.745	2482.62
492.963	2478.62
493.18	2535.62
493.398	2714.62
493.615	2876.62
493.833	2593.62
494.05	2483.62
494.268	2543.62
494.485	2569.62
494.703	2512.62
494.92	2406.62
495.138	2497.62
495.355	2506.62
495.573	2618.62
495.79	2763.62
496.008	2854.62
496.225	2626.62
496.442	2591.62
496.66	2708.62
496.877	2631.62
497.094	2756.62
497.312	2759.62
497.529	2702.62
497.746	2800.62
497.963	3262.62
498.181	3674.62
498.398	3373.62
498.615	3335.62
498.832	3197.62
499.049	3180.62
499.267	3156.62
499.484	3344.62
499.701	3688.62
499.918	3743.62
500.135	4038.62
500.352	4294.62
500.569	4230.62
500.786	4490.62
501.003	4282.62
501.22	3784.62
501.437	3713.62
501.654	3683.62
501.871	3666.62
502.088	3149.62
502.305	3174.62
502.522	3038.62
502.739	2907.62
502.956	2795.62
503.172	2759.62
503.389	2697.62
503.606	2663.62
503.823	2660.62
504.04	2645.62
504.256	2640.62
504.473	2632.62
504.69	2716.62
504.907	2581.62
505.123	2470.62
505.34	2605.62
505.557	3484.62
505.773	2946.62
505.99	2474.62
506.207	2310.62
506.423	2282.62
506.64	2230.62
506.856	2279.62
507.073	2597.62
507.289	2831.62
507.506	2679.62
507.722	2264.62
507.939	2171.62
508.155	2198.62
508.372	2236.62
508.588	2171.62
508.805	2103.62
509.021	2065.62
509.238	2058.62
509.454	2066.62
509.67	2073.62
509.887	2064.62
510.103	2058.62
510.319	2047.62
510.536	2185.62
510.752	2251.62
510.968	2239.62
511.184	2414.62
511.401	2385.62
511.617	2043.62
511.833	1992.62
512.049	2020.62
512.265	1970.62
512.481	1964.62
512.698	2081.62
512.914	2219.62
513.13	2131.62
513.346	2016.62
513.562	1968.62
513.778	2010.62
513.994	2121.62
514.21	2145.62
514.426	2175.62
514.642	2442.62
514.858	2284.62
515.074	2077.62
515.29	2040.62
515.506	2107.62
515.721	2125.62
515.937	2134.62
516.153	2472.62
516.369	2351.62
516.585	2178.62
516.801	2095.62
517.016	2127.62
517.232	2131.62
517.448	2199.62
517.664	2216.62
517.879	2192.62
518.095	2324.62
518.311	2258.62
518.527	2062.62
518.742	2115.62
518.958	2056.62
519.173	2004.62
519.389	2046.62
519.605	2068.62
519.82	2078.62
520.036	2139.62
520.251	2044.62
520.467	2054.62
520.682	2191.62
520.898	2318.62
521.113	2018.62
521.329	2051.62
521.544	2178.62
521.76	2070.62
521.975	1960.62
522.19	1961.62
522.406	1939.62
522.621	2295.62
522.836	2368.62
523.052	1915.62
523.267	1916.62
523.482	1919.62
523.698	1850.62
523.913	1768.62
524.128	1837.62
524.343	1964.62
524.559	2015.62
524.774	1880.62
524.989	1862.62
525.204	1850.62
525.419	1776.62
525.634	1752.62
525.849	1820.62
526.064	1822.62
526.28	1845.62
526.495	1771.62
526.71	1782.62
526.925	1774.62
527.14	1735.62
527.355	1750.62
527.57	1732.62
527.785	1806.62
527.999	1726.62
528.214	1704.62
528.429	1721.62
528.644	1708.62
528.859	1761.62
529.074	1751.62
529.289	1799.62
529.503	1771.62
529.718	1768.62
529.933	1729.62
530.148	1687.62
530.363	1733.62
530.577	1730.62
530.792	1733.62
531.007	1789.62
531.221	1729.62
531.436	1807.62
531.651	1792.62
531.865	1922.62
532.08	1827.62
532.295	1750.62
532.509	1688.62
532.724	1682.62
532.938	1759.62
533.153	1939.62
533.367	1765.62
533.582	1716.62
533.796	1695.62
534.011	1720.62
534.225	1809.62
534.44	1700.62
534.654	1654.62
534.868	1696.62
535.083	1769.62
535.297	1743.62
535.511	1714.62
535.726	1718.62
535.94	1687.62
536.154	1697.62
536.369	1671.62
536.583	1647.62
536.797	1643.62
537.011	1705.62
537.225	1629.62
537.44	1602.62
537.654	1665.62
537.868	1619.62
538.082	1564.62
538.296	1553.62
538.51	1579.62
538.724	1565.62
538.938	1559.62
539.153	1616.62
539.367	1654.62
539.581	1630.62
539.795	1730.62
540.009	1683.62
540.222	1666.62
540.436	1684.62
540.65	1840.62
540.864	1783.62
541.078	1712.62
541.292	1620.62
541.506	1602.62
541.72	1623.62
541.934	1578.62
542.147	1660.62
542.361	1642.62
542.575	1596.62
542.789	1587.62
543.002	1522.62
543.216	1527.62
543.43	1677.62
543.644	1756.62
543.857	1767.62
544.071	1694.62
544.285	1626.62
544.498	1619.62
544.712	1605.62
544.925	1659.62
545.139	1672.62
545.352	1604.62
545.566	1533.62
545.779	1510.62
545.993	1551.62
546.206	1611.62
546.42	1543.62
546.633	1495.62
546.847	1510.62
547.06	1506.62
547.274	1561.62
547.487	1511.62
547.7	1499.62
547.914	1519.62
548.127	1590.62
548.34	1611.62
548.554	1553.62
548.767	1574.62
548.98	1543.62
549.193	1547.62
549.407	1615.62
549.62	1623.62
549.833	1555.62
550.046	1498.62
550.259	1539.62
550.473	1516.62
550.686	1491.62
550.899	1487.62
551.112	1487.62
551.325	1399.62
551.538	1560.62
551.751	1862.62
551.964	1483.62
552.177	1437.62
552.39	1506.62
552.603	1508.62
552.816	1514.62
553.029	1587.62
553.242	1641.62
553.455	1506.62
553.667	1546.62
553.88	1524.62
554.093	1497.62
554.306	1419.62
554.519	1431.62
554.732	1367.62
554.944	1433.62
555.157	1468.62
555.37	1438.62
555.583	1429.62
555.795	1421.62
556.008	1374.62
556.221	1324.62
556.433	1317.62
556.646	1292.62
556.859	1314.62
557.071	1302.62
557.284	1290.62
557.496	1278.62
557.709	1301.62
557.921	1271.62
558.134	1294.62
558.346	1312.62
558.559	1266.62
558.771	1243.62
558.984	1237.62
559.196	1200.62
559.409	1224.62
559.621	1249.62
559.833	1206.62
560.046	1297.62
560.258	1284.62
560.47	1258.62
560.683	1294.62
560.895	1248.62
561.107	1256.62
561.32	1274.62
561.532	1300.62
561.744	1222.62
561.956	1267.62
562.168	1206.62
562.381	1166.62
562.593	1209.62
562.805	1204.62
563.017	1166.62
563.229	1230.62
563.441	1239.62
563.653	1230.62
563.865	1208.62
564.077	1236.62
564.289	1207.62
564.501	1259.62
564.713	1274.62
564.925	1320.62
565.137	1415.62
565.349	1299.62
565.561	1290.62
565.773	1306.62
565.985	1287.62
566.197	1377.62
566.408	1465.62
566.62	1463.62
566.832	1492.62
567.044	1486.62
567.255	1495.62
567.467	1494.62
567.679	1534.62
567.891	1559.62
568.102	1515.62
568.314	1446.62
568.526	1401.62
568.737	1344.62
568.949	1293.62
569.161	1256.62
569.372	1242.62
569.584	1212.62
569.795	1182.62
570.007	1206.62
570.218	1173.62
570.43	1111.62
570.641	1125.62
570.853	1109.62
571.064	1125.62
571.276	1128.62
571.487	1080.62
571.698	1050.62
571.91	1051.62
572.121	1019.62
572.333	1010.62
572.544	991.62
572.755	1002.62
572.966	979.62
573.178	1011.62
573.389	998.62
573.6	1021.62
573.811	1098.62
574.023	1000.62
574.234	980.62
574.445	942.62
574.656	922.62
574.867	923.62
575.078	936.62
575.289	935.62
575.501	919.62
575.712	902.62
575.923	944.62
576.134	948.62
576.345	903.62
576.556	885.62
576.767	888.62
576.978	884.62
577.188	860.62
577.399	878.62
577.61	866.62
577.821	888.62
578.032	849.62
578.243	874.62
578.454	875.62
578.665	855.62
578.875	844.62
579.086	824.62
579.297	840.62
579.508	910.62
579.718	843.62
579.929	855.62
580.14	804.62
580.35	822.62
580.561	853.62
580.772	924.62
580.982	859.62
581.193	826.62
581.403	792.62
581.614	797.62
581.825	785.62
582.035	792.62
582.246	811.62
582.456	808.62
582.667	822.62
582.877	795.62
583.087	779.62
583.298	797.62
583.508	780.62
583.719	783.62
583.929	786.62
584.139	788.62
584.35	760.62
584.56	729.62
584.77	774.62
584.981	788.62
585.191	762.62
585.401	815.62
585.611	776.62
585.821	796.62
586.032	751.62
586.242	779.62
586.452	778.62
586.662	778.62
586.872	744.62
587.082	763.62
587.292	772.62
587.502	791.62
587.713	765.62
587.923	782.62
588.133	776.62
588.343	746.62
588.553	735.62
588.762	757.62
588.972	718.62
589.182	784.62
589.392	784.62
589.602	768.62
589.812	781.62
590.022	733.62
590.232	723.62
590.441	755.62
590.651	747.62
590.861	747.62
591.071	732.62
591.281	756.62
591.49	754.62
591.7	723.62
591.91	739.62
592.119	735.62
592.329	761.62
592.539	778.62
592.748	760.62
592.958	757.62
593.167	746.62
593.377	762.62
593.587	791.62
593.796	776.62
594.006	768.62
594.215	782.62
594.424	800.62
594.634	764.62
594.843	759.62
595.053	802.62
595.262	742.62
595.472	734.62
595.681	747.62
595.89	710.62
596.1	694.62
596.309	712.62
596.518	693.62
596.727	704.62
596.937	712.62
597.146	682.62
597.355	679.62
597.564	679.62
597.774	659.62
597.983	634.62
598.192	640.62
598.401	628.62
598.61	640.62
598.819	637.62
599.028	637.62
599.237	643.62
599.446	662.62
599.655	636.62
599.864	630.62
600.073	605.62
600.282	621.62
600.491	595.62
600.7	596.62
600.909	596.62
601.118	594.62
601.327	626.62
601.536	611.62
601.745	610.62
601.953	607.62
602.162	609.62
602.371	620.62
602.58	605.62
602.789	604.62
602.997	601.62
603.206	592.62
603.415	598.62
603.623	590.62
603.832	575.62
604.041	575.62
604.249	580.62
604.458	587.62
604.666	582.62
604.875	586.62
605.084	571.62
605.292	597.62
605.501	576.62
605.709	586.62
605.918	579.62
606.126	564.62
606.334	591.62
606.543	558.62
606.751	568.62
606.96	564.62
607.168	571.62
607.376	534.62
607.585	553.62
607.793	570.62
608.001	540.62
608.21	570.62
608.418	574.62
608.626	569.62
608.834	564.62
609.043	550.62
609.251	550.62
609.459	545.62
609.667	570.62
609.875	574.62
610.083	561.62
610.291	573.62
610.499	551.62
610.707	543.62
610.916	545.62
611.124	556.62
611.332	542.62
611.54	523.62
611.748	511.62
611.955	542.62
612.163	534.62
612.371	517.62
612.579	518.62
612.787	531.62
612.995	531.62
613.203	537.62
613.411	536.62
613.618	541.62
613.826	538.62
614.034	531.62
614.242	521.62
614.449	505.62
614.657	533.62
614.865	521.62
615.072	537.62
615.28	552.62
615.488	538.62
615.695	568.62
615.903	543.62
616.111	516.62
616.318	541.62
616.526	510.62
616.733	496.62
616.941	501.62
617.148	508.62
617.356	529.62
617.563	508.62
617.771	510.62
617.978	492.62
618.185	514.62
618.393	499.62
618.6	509.62
618.807	519.62
619.015	520.62
619.222	500.62
619.429	486.62
619.637	491.62
619.844	491.62
620.051	487.62
620.258	488.62
620.466	464.62
620.673	464.62
620.88	439.62
621.087	451.62
621.294	461.62
621.501	483.62
621.708	474.62
621.915	478.62
622.122	485.62
622.329	487.62
622.536	499.62
622.743	472.62
622.95	460.62
623.157	454.62
623.364	444.62
623.571	463.62
623.778	467.62
623.985	455.62
624.192	473.62
624.399	439.62
624.606	450.62
624.812	443.62
625.019	443.62
625.226	426.62
625.433	453.62
625.639	440.62
625.846	444.62
626.053	442.62
626.259	424.62
626.466	416.62
626.673	410.62
626.879	406.62
627.086	427.62
627.293	415.62
627.499	397.62
627.706	423.62
627.912	409.62
628.119	419.62
628.325	406.62
628.532	414.62
628.738	398.62
628.945	407.62
629.151	423.62
629.357	427.62
629.564	406.62
629.77	412.62
629.976	395.62
630.183	399.62
630.389	395.62
630.595	418.62
630.802	401.62
631.008	382.62
631.214	397.62
631.42	392.62
631.627	378.62
631.833	379.62
632.039	380.62
632.245	371.62
632.451	390.62
632.657	382.62
632.863	382.62
633.069	385.62
633.275	354.62
633.481	377.62
633.688	364.62
633.893	380.62
634.099	360.62
634.305	362.62
634.511	362.62
634.717	364.62
634.923	349.62
635.129	341.62
635.335	367.62
635.541	366.62
635.747	378.62
635.952	368.62
636.158	374.62
636.364	378.62
636.57	362.62
636.775	357.62
636.981	351.62
637.187	372.62
637.392	349.62
637.598	348.62
637.804	366.62
638.009	380.62
638.215	359.62
638.421	352.62
638.626	352.62
638.832	351.62
639.037	331.62
639.243	319.62
639.448	332.62
639.654	340.62
639.859	332.62
640.065	342.62
640.27	339.62
640.475	347.62
640.681	338.62
640.886	352.62
641.091	354.62
641.297	342.62
641.502	339.62
641.707	327.62
641.913	337.62
642.118	324.62
642.323	327.62
642.528	326.62
642.733	317.62
642.939	330.62
643.144	335.62
643.349	331.62
643.554	336.62
643.759	311.62
643.964	322.62
644.169	324.62
644.374	329.62
644.579	319.62
644.784	318.62
644.989	317.62
645.194	317.62
645.399	324.62
645.604	304.62
645.809	330.62
646.014	318.62
646.219	319.62
646.423	328.62
646.628	326.62
646.833	307.62
647.038	318.62
647.243	318.62
647.447	333.62
647.652	331.62
647.857	335.62
648.062	334.62
648.266	298.62
648.471	326.62
648.676	314.62
648.88	307.62
649.085	325.62
649.289	328.62
649.494	317.62
649.698	328.62
649.903	281.62
650.107	300.62
650.312	317.62
650.516	307.62
650.721	315.62
650.925	316.62
651.13	292.62
651.334	278.62
651.539	279.62
651.743	276.62
651.947	272.62
652.152	274.62
652.356	247.62
652.56	260.62
652.764	277.62
652.969	275.62
653.173	263.62
653.377	274.62
653.581	260.62
653.785	246.62
653.99	258.62
654.194	259.62
654.398	237.62
654.602	246.62
654.806	242.62
655.01	261.62
655.214	246.62
655.418	249.62
655.622	245.62
655.826	260.62
656.03	240.62
656.234	272.62
656.438	280.62
656.642	264.62
656.846	252.62
657.049	245.62
657.253	214.62
657.457	213.62
657.661	204.62
657.865	194.62
658.068	185.62
658.272	172.62
658.476	173.62
658.68	170.62
658.883	157.62
659.087	162.62
659.291	144.62
659.494	131.62
659.698	130.62
659.901	136.62
660.105	121.62
660.309	108.62
660.512	115.62
660.716	125.62
660.919	121.62
661.123	114.62
661.326	103.62
661.53	101.62
661.733	114.62
661.936	100.62
662.14	113.62
662.343	96.62
662.546	89.62
662.75	111.62
662.953	102.62
663.156	94.62
663.36	102.62
663.563	95.62
663.766	95.62
663.969	82.62
664.173	102.62
664.376	91.62
664.579	102.62
664.782	81.62
664.985	92.62
665.188	88.62
665.391	87.62
665.594	81.62
665.797	102.62
666	83.62
666.203	82.62
666.406	93.62
666.609	70.62
666.812	95.62
667.015	81.62
667.218	99.62
667.421	98.62
667.624	85.62
667.827	95.62
668.03	85.62
668.232	86.62
668.435	89.62
668.638	86.62
668.841	90.62
669.043	91.62
669.246	62.62
669.449	92.62
669.651	93.62
669.854	85.62
670.057	82.62
670.259	92.62
670.462	91.62
670.665	98.62
670.867	89.62
671.07	98.62
671.272	82.62
671.475	89.62
671.677	86.62
671.88	85.62
672.082	73.62
672.284	77.62
672.487	89.62
672.689	90.62
672.892	89.62
