Data from WStandard_LampEnergy10_LIBS07252019.E.O._I.C._HRD10591_15-55-27-928.txt Node
Date: Thu Jul 25 15:55:27 EDT 2019
User: cochatt
Spectrometer: HR+D1059
Trigger mode: 1
Integration Time (sec): 1.000000E-1
Scans to average: 1
Electric dark correction enabled: true
Nonlinearity correction enabled: false
Boxcar width: 0
XAxis mode: Wavelengths
Number of Pixels in Spectrum: 2048
>>>>>Begin Spectral Data<<<<<
223.165	-9.88
223.4	-9.88
223.635	-9.88
223.869	-8.88
224.104	-9.88
224.338	-8.88
224.573	-14.88
224.808	-18.88
225.042	-20.88
225.277	-12.88
225.511	-7.88
225.746	12.12
225.98	5.12
226.215	5.12
226.449	19.12
226.683	19.12
226.918	30.12
227.152	22.12
227.387	38.12
227.621	33.12
227.856	34.12
228.09	33.12
228.324	47.12
228.559	55.12
228.793	82.12
229.027	124.12
229.262	139.12
229.496	158.12
229.73	153.12
229.964	147.12
230.199	164.12
230.433	159.12
230.667	172.12
230.901	185.12
231.136	190.12
231.37	174.12
231.604	170.12
231.838	178.12
232.072	198.12
232.306	169.12
232.541	187.12
232.775	207.12
233.009	210.12
233.243	188.12
233.477	191.12
233.711	220.12
233.945	193.12
234.179	191.12
234.413	213.12
234.647	213.12
234.881	200.12
235.115	195.12
235.349	190.12
235.583	198.12
235.817	205.12
236.051	203.12
236.285	198.12
236.519	215.12
236.753	241.12
236.987	229.12
237.221	202.12
237.455	217.12
237.689	217.12
237.922	235.12
238.156	216.12
238.39	221.12
238.624	222.12
238.858	244.12
239.091	242.12
239.325	263.12
239.559	294.12
239.793	299.12
240.027	327.12
240.26	287.12
240.494	237.12
240.728	221.12
240.961	241.12
241.195	236.12
241.429	247.12
241.662	269.12
241.896	236.12
242.13	253.12
242.363	272.12
242.597	291.12
242.83	280.12
243.064	295.12
243.298	305.12
243.531	269.12
243.765	286.12
243.998	285.12
244.232	249.12
244.465	257.12
244.699	268.12
244.932	289.12
245.166	297.12
245.399	308.12
245.633	284.12
245.866	275.12
246.099	285.12
246.333	301.12
246.566	301.12
246.8	299.12
247.033	335.12
247.266	315.12
247.5	321.12
247.733	321.12
247.966	330.12
248.2	367.12
248.433	379.12
248.666	369.12
248.899	390.12
249.133	415.12
249.366	456.12
249.599	389.12
249.832	361.12
250.066	358.12
250.299	381.12
250.532	346.12
250.765	326.12
250.998	348.12
251.231	347.12
251.465	347.12
251.698	327.12
251.931	347.12
252.164	351.12
252.397	355.12
252.63	363.12
252.863	333.12
253.096	315.12
253.329	338.12
253.562	359.12
253.795	358.12
254.028	375.12
254.261	319.12
254.494	346.12
254.727	327.12
254.96	339.12
255.193	369.12
255.426	413.12
255.659	432.12
255.892	435.12
256.124	411.12
256.357	389.12
256.59	407.12
256.823	404.12
257.056	415.12
257.289	480.12
257.521	515.12
257.754	465.12
257.987	447.12
258.22	467.12
258.452	453.12
258.685	396.12
258.918	384.12
259.151	398.12
259.383	371.12
259.616	340.12
259.849	368.12
260.081	402.12
260.314	430.12
260.547	471.12
260.779	458.12
261.012	413.12
261.244	413.12
261.477	382.12
261.71	395.12
261.942	399.12
262.175	402.12
262.407	417.12
262.64	389.12
262.872	378.12
263.105	364.12
263.337	377.12
263.57	383.12
263.802	359.12
264.035	345.12
264.267	331.12
264.499	345.12
264.732	365.12
264.964	391.12
265.197	390.12
265.429	411.12
265.661	466.12
265.894	487.12
266.126	470.12
266.358	468.12
266.591	469.12
266.823	475.12
267.055	449.12
267.287	444.12
267.52	433.12
267.752	444.12
267.984	441.12
268.216	461.12
268.448	448.12
268.681	474.12
268.913	414.12
269.145	403.12
269.377	414.12
269.609	454.12
269.841	505.12
270.073	577.12
270.306	611.12
270.538	619.12
270.77	534.12
271.002	474.12
271.234	474.12
271.466	465.12
271.698	546.12
271.93	594.12
272.162	589.12
272.394	525.12
272.626	517.12
272.858	467.12
273.09	414.12
273.322	405.12
273.553	409.12
273.785	400.12
274.017	404.12
274.249	443.12
274.481	435.12
274.713	427.12
274.945	410.12
275.176	395.12
275.408	389.12
275.64	398.12
275.872	402.12
276.104	439.12
276.335	483.12
276.567	506.12
276.799	516.12
277.031	491.12
277.262	493.12
277.494	505.12
277.726	539.12
277.957	519.12
278.189	497.12
278.421	453.12
278.652	421.12
278.884	418.12
279.115	434.12
279.347	427.12
279.579	433.12
279.81	454.12
280.042	465.12
280.273	522.12
280.505	515.12
280.736	513.12
280.968	472.12
281.199	442.12
281.431	428.12
281.662	399.12
281.894	426.12
282.125	430.12
282.356	446.12
282.588	445.12
282.819	454.12
283.051	486.12
283.282	516.12
283.513	491.12
283.745	442.12
283.976	430.12
284.207	423.12
284.439	449.12
284.67	437.12
284.901	443.12
285.132	465.12
285.364	436.12
285.595	466.12
285.826	443.12
286.057	437.12
286.288	442.12
286.52	454.12
286.751	494.12
286.982	482.12
287.213	445.12
287.444	427.12
287.675	439.12
287.906	488.12
288.138	486.12
288.369	482.12
288.6	446.12
288.831	456.12
289.062	446.12
289.293	440.12
289.524	430.12
289.755	469.12
289.986	479.12
290.217	426.12
290.448	437.12
290.679	467.12
290.91	480.12
291.141	478.12
291.371	507.12
291.602	487.12
291.833	469.12
292.064	501.12
292.295	476.12
292.526	508.12
292.757	490.12
292.987	495.12
293.218	477.12
293.449	501.12
293.68	571.12
293.91	590.12
294.141	557.12
294.372	519.12
294.603	548.12
294.833	578.12
295.064	550.12
295.295	489.12
295.525	477.12
295.756	433.12
295.987	424.12
296.217	445.12
296.448	456.12
296.679	463.12
296.909	477.12
297.14	459.12
297.37	481.12
297.601	505.12
297.831	548.12
298.062	518.12
298.292	485.12
298.523	465.12
298.753	470.12
298.984	486.12
299.214	478.12
299.445	509.12
299.675	478.12
299.905	512.12
300.136	489.12
300.366	476.12
300.597	439.12
300.827	457.12
301.057	486.12
301.288	517.12
301.518	517.12
301.748	527.12
301.979	549.12
302.209	561.12
302.439	595.12
302.669	590.12
302.9	561.12
303.13	503.12
303.36	513.12
303.59	484.12
303.82	522.12
304.051	499.12
304.281	526.12
304.511	517.12
304.741	586.12
304.971	625.12
305.201	635.12
305.431	544.12
305.661	507.12
305.891	446.12
306.121	460.12
306.352	488.12
306.582	494.12
306.812	519.12
307.042	559.12
307.272	568.12
307.502	577.12
307.731	591.12
307.961	623.12
308.191	569.12
308.421	496.12
308.651	509.12
308.881	495.12
309.111	513.12
309.341	502.12
309.571	481.12
309.8	512.12
310.03	492.12
310.26	486.12
310.49	498.12
310.72	510.12
310.949	524.12
311.179	531.12
311.409	512.12
311.639	505.12
311.868	502.12
312.098	513.12
312.328	514.12
312.557	515.12
312.787	520.12
313.017	528.12
313.246	528.12
313.476	522.12
313.706	545.12
313.935	537.12
314.165	547.12
314.394	556.12
314.624	588.12
314.853	656.12
315.083	613.12
315.312	634.12
315.542	599.12
315.771	537.12
316.001	558.12
316.23	576.12
316.46	575.12
316.689	560.12
316.919	515.12
317.148	517.12
317.377	550.12
317.607	588.12
317.836	643.12
318.065	628.12
318.295	625.12
318.524	614.12
318.753	581.12
318.983	563.12
319.212	582.12
319.441	549.12
319.67	570.12
319.9	575.12
320.129	594.12
320.358	594.12
320.587	606.12
320.816	627.12
321.046	594.12
321.275	581.12
321.504	602.12
321.733	622.12
321.962	602.12
322.191	563.12
322.42	521.12
322.649	574.12
322.878	558.12
323.108	554.12
323.337	586.12
323.566	593.12
323.795	594.12
324.024	576.12
324.253	562.12
324.482	569.12
324.71	538.12
324.939	515.12
325.168	560.12
325.397	579.12
325.626	566.12
325.855	554.12
326.084	555.12
326.313	578.12
326.542	555.12
326.77	598.12
326.999	551.12
327.228	554.12
327.457	545.12
327.686	516.12
327.914	535.12
328.143	575.12
328.372	549.12
328.6	567.12
328.829	544.12
329.058	531.12
329.287	557.12
329.515	569.12
329.744	592.12
329.972	627.12
330.201	615.12
330.43	614.12
330.658	603.12
330.887	607.12
331.115	613.12
331.344	610.12
331.572	582.12
331.801	565.12
332.03	598.12
332.258	600.12
332.486	597.12
332.715	622.12
332.943	609.12
333.172	575.12
333.4	619.12
333.629	634.12
333.857	673.12
334.085	736.12
334.314	798.12
334.542	844.12
334.771	744.12
334.999	685.12
335.227	671.12
335.455	616.12
335.684	651.12
335.912	653.12
336.14	641.12
336.369	639.12
336.597	612.12
336.825	600.12
337.053	645.12
337.281	661.12
337.51	685.12
337.738	661.12
337.966	639.12
338.194	589.12
338.422	600.12
338.65	598.12
338.878	567.12
339.106	574.12
339.334	579.12
339.562	557.12
339.79	598.12
340.018	635.12
340.246	642.12
340.474	612.12
340.702	620.12
340.93	610.12
341.158	608.12
341.386	599.12
341.614	603.12
341.842	586.12
342.07	603.12
342.298	619.12
342.526	582.12
342.754	573.12
342.981	608.12
343.209	574.12
343.437	584.12
343.665	609.12
343.893	633.12
344.12	637.12
344.348	619.12
344.576	593.12
344.804	589.12
345.031	590.12
345.259	600.12
345.487	567.12
345.714	575.12
345.942	541.12
346.17	581.12
346.397	569.12
346.625	561.12
346.853	537.12
347.08	540.12
347.308	561.12
347.535	574.12
347.763	584.12
347.99	569.12
348.218	542.12
348.445	597.12
348.673	589.12
348.9	614.12
349.128	612.12
349.355	616.12
349.583	606.12
349.81	572.12
350.037	531.12
350.265	541.12
350.492	548.12
350.72	579.12
350.947	569.12
351.174	591.12
351.402	554.12
351.629	522.12
351.856	534.12
352.083	519.12
352.311	551.12
352.538	549.12
352.765	581.12
352.992	581.12
353.22	554.12
353.447	527.12
353.674	569.12
353.901	599.12
354.128	566.12
354.355	542.12
354.583	573.12
354.81	595.12
355.037	601.12
355.264	589.12
355.491	582.12
355.718	574.12
355.945	570.12
356.172	542.12
356.399	556.12
356.626	577.12
356.853	577.12
357.08	626.12
357.307	687.12
357.534	652.12
357.761	573.12
357.988	529.12
358.215	554.12
358.441	547.12
358.668	554.12
358.895	555.12
359.122	572.12
359.349	659.12
359.576	616.12
359.802	558.12
360.029	540.12
360.256	548.12
360.483	571.12
360.709	582.12
360.936	597.12
361.163	627.12
361.39	693.12
361.616	722.12
361.843	702.12
362.07	621.12
362.296	564.12
362.523	561.12
362.749	560.12
362.976	590.12
363.203	606.12
363.429	548.12
363.656	555.12
363.882	598.12
364.109	676.12
364.335	648.12
364.562	610.12
364.788	573.12
365.015	567.12
365.241	569.12
365.468	579.12
365.694	604.12
365.92	655.12
366.147	598.12
366.373	576.12
366.599	568.12
366.826	578.12
367.052	585.12
367.278	598.12
367.505	596.12
367.731	599.12
367.957	599.12
368.184	627.12
368.41	667.12
368.636	665.12
368.862	686.12
369.089	663.12
369.315	617.12
369.541	610.12
369.767	610.12
369.993	602.12
370.219	616.12
370.445	605.12
370.672	669.12
370.898	647.12
371.124	669.12
371.35	633.12
371.576	663.12
371.802	645.12
372.028	635.12
372.254	601.12
372.48	596.12
372.706	609.12
372.932	610.12
373.158	591.12
373.384	636.12
373.61	643.12
373.835	669.12
374.061	614.12
374.287	637.12
374.513	615.12
374.739	655.12
374.965	636.12
375.191	643.12
375.416	671.12
375.642	652.12
375.868	705.12
376.094	709.12
376.319	662.12
376.545	654.12
376.771	681.12
376.997	697.12
377.222	668.12
377.448	673.12
377.674	664.12
377.899	691.12
378.125	728.12
378.35	699.12
378.576	617.12
378.802	619.12
379.027	638.12
379.253	641.12
379.478	639.12
379.704	641.12
379.929	667.12
380.155	660.12
380.38	653.12
380.606	673.12
380.831	666.12
381.057	691.12
381.282	681.12
381.507	678.12
381.733	755.12
381.958	768.12
382.184	697.12
382.409	672.12
382.634	691.12
382.86	673.12
383.085	681.12
383.31	725.12
383.535	747.12
383.761	795.12
383.986	750.12
384.211	715.12
384.436	731.12
384.662	755.12
384.887	790.12
385.112	742.12
385.337	738.12
385.562	751.12
385.787	737.12
386.013	763.12
386.238	789.12
386.463	771.12
386.688	837.12
386.913	853.12
387.138	794.12
387.363	776.12
387.588	774.12
387.813	757.12
388.038	787.12
388.263	812.12
388.488	752.12
388.713	725.12
388.938	713.12
389.163	726.12
389.387	733.12
389.612	744.12
389.837	757.12
390.062	755.12
390.287	763.12
390.512	733.12
390.736	735.12
390.961	723.12
391.186	716.12
391.411	746.12
391.636	766.12
391.86	734.12
392.085	720.12
392.31	745.12
392.534	750.12
392.759	778.12
392.984	746.12
393.208	782.12
393.433	792.12
393.658	846.12
393.882	810.12
394.107	794.12
394.331	815.12
394.556	786.12
394.78	787.12
395.005	833.12
395.229	822.12
395.454	906.12
395.678	858.12
395.903	851.12
396.127	810.12
396.352	830.12
396.576	828.12
396.801	853.12
397.025	821.12
397.249	843.12
397.474	827.12
397.698	821.12
397.922	838.12
398.147	901.12
398.371	905.12
398.595	897.12
398.82	871.12
399.044	915.12
399.268	921.12
399.492	999.12
399.717	998.12
399.941	986.12
400.165	967.12
400.389	958.12
400.613	960.12
400.837	1151.12
401.062	1215.12
401.286	1034.12
401.51	1002.12
401.734	966.12
401.958	947.12
402.182	902.12
402.406	891.12
402.63	886.12
402.854	878.12
403.078	897.12
403.302	901.12
403.526	941.12
403.75	938.12
403.974	933.12
404.198	965.12
404.422	955.12
404.645	1011.12
404.869	975.12
405.093	914.12
405.317	912.12
405.541	941.12
405.765	929.12
405.988	909.12
406.212	927.12
406.436	953.12
406.66	1004.12
406.883	993.12
407.107	1159.12
407.331	1228.12
407.555	1309.12
407.778	1148.12
408.002	979.12
408.226	997.12
408.449	976.12
408.673	949.12
408.896	946.12
409.12	974.12
409.344	956.12
409.567	917.12
409.791	962.12
410.014	961.12
410.238	1029.12
410.461	1077.12
410.685	965.12
410.908	927.12
411.132	947.12
411.355	940.12
411.578	912.12
411.802	951.12
412.025	926.12
412.249	895.12
412.472	899.12
412.695	894.12
412.919	911.12
413.142	929.12
413.365	906.12
413.589	971.12
413.812	1004.12
414.035	1002.12
414.258	935.12
414.482	905.12
414.705	921.12
414.928	889.12
415.151	900.12
415.374	914.12
415.597	939.12
415.821	941.12
416.044	941.12
416.267	946.12
416.49	889.12
416.713	926.12
416.936	964.12
417.159	977.12
417.382	1000.12
417.605	938.12
417.828	912.12
418.051	965.12
418.274	947.12
418.497	937.12
418.72	935.12
418.943	929.12
419.166	948.12
419.389	980.12
419.611	949.12
419.834	950.12
420.057	952.12
420.28	933.12
420.503	968.12
420.726	957.12
420.948	941.12
421.171	907.12
421.394	942.12
421.617	963.12
421.839	978.12
422.062	976.12
422.285	914.12
422.507	953.12
422.73	901.12
422.953	895.12
423.175	875.12
423.398	947.12
423.621	915.12
423.843	941.12
424.066	973.12
424.288	1005.12
424.511	1028.12
424.733	998.12
424.956	928.12
425.178	924.12
425.401	931.12
425.623	932.12
425.846	957.12
426.068	979.12
426.291	990.12
426.513	958.12
426.735	981.12
426.958	1049.12
427.18	1070.12
427.402	1001.12
427.625	1029.12
427.847	986.12
428.069	942.12
428.292	923.12
428.514	914.12
428.736	911.12
428.958	918.12
429.181	929.12
429.403	1068.12
429.625	1252.12
429.847	1042.12
430.069	947.12
430.292	1049.12
430.514	1034.12
430.736	972.12
430.958	992.12
431.18	905.12
431.402	881.12
431.624	865.12
431.846	788.12
432.068	695.12
432.29	762.12
432.512	789.12
432.734	919.12
432.956	909.12
433.178	970.12
433.4	974.12
433.622	948.12
433.844	916.12
434.066	856.12
434.287	802.12
434.509	797.12
434.731	850.12
434.953	938.12
435.175	912.12
435.397	889.12
435.618	861.12
435.84	846.12
436.062	821.12
436.284	899.12
436.505	928.12
436.727	954.12
436.949	912.12
437.17	892.12
437.392	875.12
437.614	849.12
437.835	806.12
438.057	804.12
438.278	851.12
438.5	843.12
438.721	886.12
438.943	929.12
439.165	915.12
439.386	918.12
439.608	934.12
439.829	982.12
440.05	941.12
440.272	961.12
440.493	935.12
440.715	959.12
440.936	1035.12
441.158	1069.12
441.379	1014.12
441.6	1027.12
441.822	1036.12
442.043	1027.12
442.264	967.12
442.486	915.12
442.707	962.12
442.928	933.12
443.149	959.12
443.371	982.12
443.592	1043.12
443.813	1013.12
444.034	1025.12
444.255	1053.12
444.476	1013.12
444.698	1045.12
444.919	1058.12
445.14	1141.12
445.361	1080.12
445.582	1077.12
445.803	1086.12
446.024	1025.12
446.245	1055.12
446.466	1056.12
446.687	1037.12
446.908	1037.12
447.129	1022.12
447.35	1031.12
447.571	977.12
447.792	974.12
448.013	971.12
448.234	949.12
448.455	1009.12
448.675	975.12
448.896	925.12
449.117	873.12
449.338	909.12
449.559	941.12
449.779	949.12
450	1016.12
450.221	1027.12
450.442	967.12
450.662	934.12
450.883	878.12
451.104	864.12
451.324	866.12
451.545	896.12
451.766	865.12
451.986	815.12
452.207	819.12
452.428	801.12
452.648	792.12
452.869	773.12
453.089	795.12
453.31	789.12
453.53	764.12
453.751	712.12
453.971	713.12
454.192	729.12
454.412	773.12
454.633	807.12
454.853	793.12
455.073	753.12
455.294	773.12
455.514	769.12
455.734	744.12
455.955	741.12
456.175	740.12
456.395	719.12
456.616	715.12
456.836	698.12
457.056	719.12
457.276	745.12
457.497	706.12
457.717	709.12
457.937	683.12
458.157	717.12
458.377	708.12
458.598	668.12
458.818	675.12
459.038	682.12
459.258	730.12
459.478	720.12
459.698	711.12
459.918	740.12
460.138	784.12
460.358	830.12
460.578	841.12
460.798	868.12
461.018	903.12
461.238	881.12
461.458	864.12
461.678	846.12
461.898	833.12
462.118	825.12
462.338	846.12
462.558	836.12
462.777	875.12
462.997	860.12
463.217	913.12
463.437	862.12
463.657	833.12
463.876	839.12
464.096	829.12
464.316	848.12
464.536	907.12
464.755	880.12
464.975	883.12
465.195	876.12
465.414	891.12
465.634	872.12
465.854	905.12
466.073	987.12
466.293	931.12
466.512	849.12
466.732	876.12
466.951	897.12
467.171	909.12
467.391	901.12
467.61	889.12
467.829	881.12
468.049	1020.12
468.268	1018.12
468.488	984.12
468.707	891.12
468.927	922.12
469.146	889.12
469.365	922.12
469.585	945.12
469.804	908.12
470.023	933.12
470.243	930.12
470.462	956.12
470.681	933.12
470.901	905.12
471.12	935.12
471.339	911.12
471.558	911.12
471.777	883.12
471.997	869.12
472.216	837.12
472.435	775.12
472.654	765.12
472.873	790.12
473.092	845.12
473.311	833.12
473.53	852.12
473.749	846.12
473.968	840.12
474.187	861.12
474.406	845.12
474.625	833.12
474.844	877.12
475.063	888.12
475.282	883.12
475.501	853.12
475.72	856.12
475.939	929.12
476.158	903.12
476.377	860.12
476.596	852.12
476.814	835.12
477.033	809.12
477.252	855.12
477.471	890.12
477.69	907.12
477.908	946.12
478.127	947.12
478.346	1011.12
478.564	996.12
478.783	995.12
479.002	1040.12
479.22	1006.12
479.439	1040.12
479.658	1081.12
479.876	1002.12
480.095	901.12
480.313	927.12
480.532	875.12
480.751	828.12
480.969	829.12
481.188	821.12
481.406	788.12
481.624	758.12
481.843	810.12
482.061	844.12
482.28	878.12
482.498	884.12
482.717	859.12
482.935	890.12
483.153	985.12
483.372	1025.12
483.59	1009.12
483.808	955.12
484.027	969.12
484.245	1000.12
484.463	1232.12
484.681	1305.12
484.9	1038.12
485.118	962.12
485.336	929.12
485.554	889.12
485.772	889.12
485.99	889.12
486.209	894.12
486.427	896.12
486.645	931.12
486.863	1018.12
487.081	1050.12
487.299	1034.12
487.517	1011.12
487.735	1092.12
487.953	1191.12
488.171	1181.12
488.389	1142.12
488.607	1097.12
488.825	1141.12
489.043	1047.12
489.261	983.12
489.479	1067.12
489.696	1053.12
489.914	1057.12
490.132	1004.12
490.35	1086.12
490.568	1187.12
490.786	1167.12
491.003	1166.12
491.221	1260.12
491.439	1273.12
491.657	1299.12
491.874	1344.12
492.092	1462.12
492.31	1505.12
492.527	1433.12
492.745	1368.12
492.963	1324.12
493.18	1331.12
493.398	1377.12
493.615	1334.12
493.833	1243.12
494.05	1254.12
494.268	1240.12
494.485	1235.12
494.703	1237.12
494.92	1220.12
495.138	1218.12
495.355	1259.12
495.573	1258.12
495.79	1287.12
496.008	1283.12
496.225	1231.12
496.442	1220.12
496.66	1253.12
496.877	1228.12
497.094	1215.12
497.312	1213.12
497.529	1226.12
497.746	1197.12
497.963	1252.12
498.181	1344.12
498.398	1267.12
498.615	1183.12
498.832	1168.12
499.049	1130.12
499.267	1194.12
499.484	1252.12
499.701	1354.12
499.918	1396.12
500.135	1459.12
500.352	1531.12
500.569	1607.12
500.786	1677.12
501.003	1515.12
501.22	1420.12
501.437	1397.12
501.654	1453.12
501.871	1372.12
502.088	1163.12
502.305	1185.12
502.522	1155.12
502.739	1077.12
502.956	1070.12
503.172	1077.12
503.389	1031.12
503.606	1000.12
503.823	1002.12
504.04	1019.12
504.256	1023.12
504.473	1030.12
504.69	1012.12
504.907	985.12
505.123	957.12
505.34	1092.12
505.557	1367.12
505.773	1120.12
505.99	943.12
506.207	880.12
506.423	884.12
506.64	918.12
506.856	925.12
507.073	1043.12
507.289	1117.12
507.506	1043.12
507.722	907.12
507.939	868.12
508.155	861.12
508.372	848.12
508.588	823.12
508.805	797.12
509.021	777.12
509.238	767.12
509.454	781.12
509.67	779.12
509.887	747.12
510.103	734.12
510.319	765.12
510.536	777.12
510.752	783.12
510.968	770.12
511.184	806.12
511.401	784.12
511.617	713.12
511.833	714.12
512.049	707.12
512.265	710.12
512.481	743.12
512.698	750.12
512.914	772.12
513.13	771.12
513.346	710.12
513.562	715.12
513.778	711.12
513.994	741.12
514.21	748.12
514.426	783.12
514.642	831.12
514.858	772.12
515.074	723.12
515.29	725.12
515.506	737.12
515.721	745.12
515.937	754.12
516.153	821.12
516.369	780.12
516.585	744.12
516.801	697.12
517.016	726.12
517.232	757.12
517.448	789.12
517.664	799.12
517.879	807.12
518.095	803.12
518.311	790.12
518.527	764.12
518.742	769.12
518.958	753.12
519.173	749.12
519.389	802.12
519.605	777.12
519.82	779.12
520.036	776.12
520.251	786.12
520.467	791.12
520.682	801.12
520.898	808.12
521.113	734.12
521.329	739.12
521.544	769.12
521.76	731.12
521.975	705.12
522.19	730.12
522.406	733.12
522.621	942.12
522.836	883.12
523.052	731.12
523.267	747.12
523.482	739.12
523.698	743.12
523.913	731.12
524.128	746.12
524.343	818.12
524.559	813.12
524.774	764.12
524.989	777.12
525.204	716.12
525.419	718.12
525.634	727.12
525.849	714.12
526.064	718.12
526.28	705.12
526.495	676.12
526.71	664.12
526.925	665.12
527.14	645.12
527.355	623.12
527.57	634.12
527.785	668.12
527.999	676.12
528.214	668.12
528.429	709.12
528.644	736.12
528.859	788.12
529.074	822.12
529.289	854.12
529.503	875.12
529.718	862.12
529.933	734.12
530.148	678.12
530.363	665.12
530.577	631.12
530.792	650.12
531.007	617.12
531.221	592.12
531.436	645.12
531.651	651.12
531.865	674.12
532.08	655.12
532.295	637.12
532.509	606.12
532.724	625.12
532.938	676.12
533.153	727.12
533.367	711.12
533.582	751.12
533.796	739.12
534.011	695.12
534.225	665.12
534.44	645.12
534.654	650.12
534.868	652.12
535.083	693.12
535.297	715.12
535.511	684.12
535.726	673.12
535.94	669.12
536.154	678.12
536.369	617.12
536.583	621.12
536.797	604.12
537.011	633.12
537.225	625.12
537.44	603.12
537.654	659.12
537.868	605.12
538.082	603.12
538.296	591.12
538.51	639.12
538.724	686.12
538.938	709.12
539.153	752.12
539.367	737.12
539.581	682.12
539.795	681.12
540.009	651.12
540.222	646.12
540.436	668.12
540.65	767.12
540.864	792.12
541.078	817.12
541.292	845.12
541.506	905.12
541.72	959.12
541.934	1049.12
542.147	1066.12
542.361	993.12
542.575	895.12
542.789	835.12
543.002	776.12
543.216	749.12
543.43	763.12
543.644	811.12
543.857	869.12
544.071	887.12
544.285	925.12
544.498	923.12
544.712	940.12
544.925	936.12
545.139	975.12
545.352	967.12
545.566	927.12
545.779	947.12
545.993	933.12
546.206	931.12
546.42	971.12
546.633	941.12
546.847	947.12
547.06	949.12
547.274	947.12
547.487	978.12
547.7	998.12
547.914	974.12
548.127	957.12
548.34	964.12
548.554	936.12
548.767	933.12
548.98	943.12
549.193	946.12
549.407	975.12
549.62	939.12
549.833	901.12
550.046	909.12
550.259	899.12
550.473	882.12
550.686	907.12
550.899	872.12
551.112	858.12
551.325	827.12
551.538	838.12
551.751	867.12
551.964	696.12
552.177	744.12
552.39	780.12
552.603	844.12
552.816	877.12
553.029	926.12
553.242	939.12
553.455	921.12
553.667	911.12
553.88	908.12
554.093	886.12
554.306	838.12
554.519	825.12
554.732	828.12
554.944	821.12
555.157	873.12
555.37	828.12
555.583	813.12
555.795	779.12
556.008	762.12
556.221	711.12
556.433	717.12
556.646	725.12
556.859	746.12
557.071	718.12
557.284	747.12
557.496	750.12
557.709	742.12
557.921	734.12
558.134	740.12
558.346	729.12
558.559	748.12
558.771	722.12
558.984	684.12
559.196	657.12
559.409	695.12
559.621	658.12
559.833	675.12
560.046	695.12
560.258	646.12
560.47	689.12
560.683	691.12
560.895	677.12
561.107	668.12
561.32	685.12
561.532	700.12
561.744	663.12
561.956	698.12
562.168	670.12
562.381	649.12
562.593	643.12
562.805	662.12
563.017	633.12
563.229	643.12
563.441	649.12
563.653	631.12
563.865	639.12
564.077	594.12
564.289	618.12
564.501	618.12
564.713	628.12
564.925	637.12
565.137	655.12
565.349	643.12
565.561	630.12
565.773	629.12
565.985	632.12
566.197	663.12
566.408	680.12
566.62	679.12
566.832	645.12
567.044	675.12
567.255	668.12
567.467	655.12
567.679	674.12
567.891	646.12
568.102	618.12
568.314	563.12
568.526	552.12
568.737	505.12
568.949	500.12
569.161	473.12
569.372	436.12
569.584	469.12
569.795	445.12
570.007	458.12
570.218	418.12
570.43	433.12
570.641	454.12
570.853	460.12
571.064	473.12
571.276	495.12
571.487	483.12
571.698	485.12
571.91	479.12
572.121	456.12
572.333	449.12
572.544	449.12
572.755	418.12
572.966	411.12
573.178	397.12
573.389	409.12
573.6	413.12
573.811	441.12
574.023	425.12
574.234	404.12
574.445	407.12
574.656	397.12
574.867	412.12
575.078	414.12
575.289	429.12
575.501	399.12
575.712	397.12
575.923	374.12
576.134	404.12
576.345	393.12
576.556	409.12
576.767	385.12
576.978	396.12
577.188	391.12
577.399	364.12
577.61	356.12
577.821	360.12
578.032	355.12
578.243	371.12
578.454	348.12
578.665	365.12
578.875	364.12
579.086	347.12
579.297	356.12
579.508	363.12
579.718	356.12
579.929	352.12
580.14	360.12
580.35	338.12
580.561	364.12
580.772	399.12
580.982	373.12
581.193	347.12
581.403	364.12
581.614	361.12
581.825	348.12
582.035	357.12
582.246	342.12
582.456	365.12
582.667	341.12
582.877	338.12
583.087	346.12
583.298	351.12
583.508	343.12
583.719	337.12
583.929	346.12
584.139	340.12
584.35	314.12
584.56	330.12
584.77	332.12
584.981	330.12
585.191	339.12
585.401	357.12
585.611	341.12
585.821	315.12
586.032	332.12
586.242	340.12
586.452	328.12
586.662	326.12
586.872	328.12
587.082	305.12
587.292	323.12
587.502	338.12
587.713	321.12
587.923	328.12
588.133	316.12
588.343	335.12
588.553	319.12
588.762	311.12
588.972	308.12
589.182	299.12
589.392	325.12
589.602	318.12
589.812	312.12
590.022	291.12
590.232	321.12
590.441	342.12
590.651	326.12
590.861	327.12
591.071	318.12
591.281	311.12
591.49	319.12
591.7	326.12
591.91	320.12
592.119	306.12
592.329	321.12
592.539	324.12
592.748	332.12
592.958	336.12
593.167	317.12
593.377	309.12
593.587	342.12
593.796	318.12
594.006	315.12
594.215	318.12
594.424	333.12
594.634	328.12
594.843	331.12
595.053	356.12
595.262	325.12
595.472	311.12
595.681	322.12
595.89	312.12
596.1	321.12
596.309	339.12
596.518	335.12
596.727	319.12
596.937	317.12
597.146	323.12
597.355	312.12
597.564	304.12
597.774	303.12
597.983	279.12
598.192	284.12
598.401	285.12
598.61	287.12
598.819	291.12
599.028	290.12
599.237	298.12
599.446	286.12
599.655	277.12
599.864	285.12
600.073	290.12
600.282	290.12
600.491	291.12
600.7	298.12
600.909	294.12
601.118	306.12
601.327	340.12
601.536	356.12
601.745	353.12
601.953	355.12
602.162	363.12
602.371	331.12
602.58	343.12
602.789	357.12
602.997	342.12
603.206	339.12
603.415	349.12
603.623	357.12
603.832	357.12
604.041	346.12
604.249	330.12
604.458	324.12
604.666	307.12
604.875	309.12
605.084	303.12
605.292	360.12
605.501	351.12
605.709	364.12
605.918	353.12
606.126	364.12
606.334	365.12
606.543	350.12
606.751	382.12
606.96	340.12
607.168	344.12
607.376	349.12
607.585	360.12
607.793	343.12
608.001	350.12
608.21	346.12
608.418	366.12
608.626	362.12
608.834	366.12
609.043	372.12
609.251	358.12
609.459	353.12
609.667	362.12
609.875	361.12
610.083	386.12
610.291	372.12
610.499	363.12
610.707	371.12
610.916	355.12
611.124	364.12
611.332	355.12
611.54	373.12
611.748	373.12
611.955	343.12
612.163	363.12
612.371	355.12
612.579	365.12
612.787	366.12
612.995	370.12
613.203	369.12
613.411	347.12
613.618	345.12
613.826	373.12
614.034	365.12
614.242	347.12
614.449	360.12
614.657	353.12
614.865	354.12
615.072	346.12
615.28	353.12
615.488	353.12
615.695	363.12
615.903	365.12
616.111	346.12
616.318	351.12
616.526	361.12
616.733	369.12
616.941	331.12
617.148	322.12
617.356	352.12
617.563	346.12
617.771	327.12
617.978	334.12
618.185	336.12
618.393	338.12
618.6	347.12
618.807	347.12
619.015	362.12
619.222	339.12
619.429	334.12
619.637	317.12
619.844	308.12
620.051	315.12
620.258	335.12
620.466	307.12
620.673	324.12
620.88	309.12
621.087	307.12
621.294	320.12
621.501	309.12
621.708	317.12
621.915	329.12
622.122	319.12
622.329	334.12
622.536	319.12
622.743	325.12
622.95	308.12
623.157	313.12
623.364	315.12
623.571	319.12
623.778	321.12
623.985	319.12
624.192	322.12
624.399	302.12
624.606	322.12
624.812	319.12
625.019	318.12
625.226	293.12
625.433	282.12
625.639	281.12
625.846	266.12
626.053	254.12
626.259	245.12
626.466	248.12
626.673	252.12
626.879	234.12
627.086	249.12
627.293	263.12
627.499	303.12
627.706	286.12
627.912	293.12
628.119	294.12
628.325	315.12
628.532	325.12
628.738	283.12
628.945	305.12
629.151	284.12
629.357	280.12
629.564	295.12
629.77	270.12
629.976	262.12
630.183	265.12
630.389	267.12
630.595	285.12
630.802	284.12
631.008	292.12
631.214	264.12
631.42	270.12
631.627	257.12
631.833	260.12
632.039	267.12
632.245	263.12
632.451	283.12
632.657	263.12
632.863	279.12
633.069	263.12
633.275	276.12
633.481	279.12
633.688	270.12
633.893	254.12
634.099	252.12
634.305	243.12
634.511	261.12
634.717	242.12
634.923	227.12
635.129	243.12
635.335	226.12
635.541	230.12
635.747	238.12
635.952	255.12
636.158	270.12
636.364	250.12
636.57	264.12
636.775	286.12
636.981	257.12
637.187	265.12
637.392	255.12
637.598	274.12
637.804	261.12
638.009	263.12
638.215	250.12
638.421	246.12
638.626	244.12
638.832	250.12
639.037	260.12
639.243	253.12
639.448	236.12
639.654	244.12
639.859	241.12
640.065	250.12
640.27	249.12
640.475	248.12
640.681	237.12
640.886	241.12
641.091	257.12
641.297	262.12
641.502	254.12
641.707	264.12
641.913	262.12
642.118	256.12
642.323	242.12
642.528	248.12
642.733	251.12
642.939	237.12
643.144	237.12
643.349	259.12
643.554	269.12
643.759	251.12
643.964	238.12
644.169	247.12
644.374	234.12
644.579	237.12
644.784	254.12
644.989	243.12
645.194	216.12
645.399	235.12
645.604	233.12
645.809	231.12
646.014	245.12
646.219	251.12
646.423	259.12
646.628	252.12
646.833	236.12
647.038	245.12
647.243	233.12
647.447	261.12
647.652	242.12
647.857	241.12
648.062	229.12
648.266	234.12
648.471	250.12
648.676	249.12
648.88	235.12
649.085	252.12
649.289	230.12
649.494	226.12
649.698	233.12
649.903	247.12
650.107	241.12
650.312	233.12
650.516	228.12
650.721	221.12
650.925	234.12
651.13	232.12
651.334	219.12
651.539	243.12
651.743	239.12
651.947	221.12
652.152	211.12
652.356	227.12
652.56	216.12
652.764	227.12
652.969	221.12
653.173	216.12
653.377	203.12
653.581	207.12
653.785	200.12
653.99	213.12
654.194	200.12
654.398	205.12
654.602	209.12
654.806	203.12
655.01	212.12
655.214	215.12
655.418	209.12
655.622	215.12
655.826	207.12
656.03	212.12
656.234	210.12
656.438	230.12
656.642	244.12
656.846	213.12
657.049	213.12
657.253	210.12
657.457	185.12
657.661	181.12
657.865	170.12
658.068	169.12
658.272	157.12
658.476	165.12
658.68	150.12
658.883	135.12
659.087	146.12
659.291	141.12
659.494	143.12
659.698	116.12
659.901	123.12
660.105	127.12
660.309	134.12
660.512	119.12
660.716	119.12
660.919	131.12
661.123	111.12
661.326	103.12
661.53	109.12
661.733	115.12
661.936	99.12
662.14	105.12
662.343	105.12
662.546	91.12
662.75	92.12
662.953	97.12
663.156	91.12
663.36	84.12
663.563	91.12
663.766	96.12
663.969	86.12
664.173	91.12
664.376	85.12
664.579	90.12
664.782	86.12
664.985	86.12
665.188	85.12
665.391	83.12
665.594	95.12
665.797	79.12
666	90.12
666.203	90.12
666.406	88.12
666.609	81.12
666.812	75.12
667.015	99.12
667.218	92.12
667.421	87.12
667.624	87.12
667.827	83.12
668.03	80.12
668.232	69.12
668.435	82.12
668.638	75.12
668.841	83.12
669.043	96.12
669.246	95.12
669.449	85.12
669.651	78.12
669.854	101.12
670.057	84.12
670.259	79.12
670.462	97.12
670.665	80.12
670.867	82.12
671.07	77.12
671.272	84.12
671.475	102.12
671.677	85.12
671.88	81.12
672.082	87.12
672.284	81.12
672.487	88.12
672.689	89.12
672.892	76.12
