Data from WStandard_LampEnergy5.5LIBS07252019.E.O._I.C._HRD10591_16-07-34-920.txt Node
Date: Thu Jul 25 16:07:34 EDT 2019
User: cochatt
Spectrometer: HR+D1059
Trigger mode: 1
Integration Time (sec): 1.000000E-1
Scans to average: 1
Electric dark correction enabled: true
Nonlinearity correction enabled: false
Boxcar width: 0
XAxis mode: Wavelengths
Number of Pixels in Spectrum: 2048
>>>>>Begin Spectral Data<<<<<
223.165	-21.31
223.4	-21.31
223.635	-21.31
223.869	-16.31
224.104	-17.31
224.338	-22.31
224.573	-13.31
224.808	-14.31
225.042	-0.31
225.277	-0.31
225.511	6.69
225.746	11.69
225.98	-8.31
226.215	1.69
226.449	18.69
226.683	25.69
226.918	12.69
227.152	36.69
227.387	47.69
227.621	57.69
227.856	51.69
228.09	31.69
228.324	53.69
228.559	62.69
228.793	157.69
229.027	351.69
229.262	383.69
229.496	399.69
229.73	413.69
229.964	450.69
230.199	445.69
230.433	467.69
230.667	516.69
230.901	540.69
231.136	512.69
231.37	474.69
231.604	464.69
231.838	465.69
232.072	477.69
232.306	448.69
232.541	479.69
232.775	534.69
233.009	626.69
233.243	609.69
233.477	527.69
233.711	538.69
233.945	606.69
234.179	570.69
234.413	629.69
234.647	675.69
234.881	621.69
235.115	575.69
235.349	569.69
235.583	572.69
235.817	556.69
236.051	552.69
236.285	582.69
236.519	597.69
236.753	672.69
236.987	719.69
237.221	697.69
237.455	779.69
237.689	735.69
237.922	657.69
238.156	682.69
238.39	671.69
238.624	725.69
238.858	777.69
239.091	789.69
239.325	815.69
239.559	928.69
239.793	981.69
240.027	1061.69
240.26	1051.69
240.494	777.69
240.728	727.69
240.961	746.69
241.195	785.69
241.429	850.69
241.662	859.69
241.896	756.69
242.13	780.69
242.363	884.69
242.597	953.69
242.83	921.69
243.064	897.69
243.298	981.69
243.531	939.69
243.765	938.69
243.998	960.69
244.232	838.69
244.465	803.69
244.699	833.69
244.932	913.69
245.166	1077.69
245.399	1013.69
245.633	934.69
245.866	915.69
246.099	964.69
246.333	994.69
246.566	992.69
246.8	1041.69
247.033	1197.69
247.266	1108.69
247.5	1079.69
247.733	1073.69
247.966	1159.69
248.2	1266.69
248.433	1192.69
248.666	1257.69
248.899	1347.69
249.133	1574.69
249.366	1774.69
249.599	1439.69
249.832	1261.69
250.066	1292.69
250.299	1301.69
250.532	1214.69
250.765	1113.69
250.998	1149.69
251.231	1241.69
251.465	1252.69
251.698	1194.69
251.931	1186.69
252.164	1253.69
252.397	1313.69
252.63	1267.69
252.863	1122.69
253.096	1105.69
253.329	1166.69
253.562	1181.69
253.795	1307.69
254.028	1279.69
254.261	1247.69
254.494	1192.69
254.727	1137.69
254.96	1163.69
255.193	1279.69
255.426	1469.69
255.659	1644.69
255.892	1699.69
256.124	1433.69
256.357	1367.69
256.59	1493.69
256.823	1427.69
257.056	1465.69
257.289	1768.69
257.521	1951.69
257.754	1760.69
257.987	1612.69
258.22	1784.69
258.452	1813.69
258.685	1440.69
258.918	1407.69
259.151	1447.69
259.383	1351.69
259.616	1215.69
259.849	1293.69
260.081	1423.69
260.314	1613.69
260.547	1727.69
260.779	1776.69
261.012	1651.69
261.244	1478.69
261.477	1411.69
261.71	1472.69
261.942	1463.69
262.175	1403.69
262.407	1497.69
262.64	1405.69
262.872	1336.69
263.105	1293.69
263.337	1307.69
263.57	1332.69
263.802	1353.69
264.035	1226.69
264.267	1157.69
264.499	1153.69
264.732	1229.69
264.964	1334.69
265.197	1376.69
265.429	1464.69
265.661	1625.69
265.894	1749.69
266.126	1813.69
266.358	1631.69
266.591	1687.69
266.823	1879.69
267.055	1647.69
267.287	1673.69
267.52	1619.69
267.752	1594.69
267.984	1606.69
268.216	1717.69
268.448	1703.69
268.681	1728.69
268.913	1571.69
269.145	1461.69
269.377	1440.69
269.609	1535.69
269.841	1805.69
270.073	2095.69
270.306	2308.69
270.538	2502.69
270.77	2125.69
271.002	1777.69
271.234	1718.69
271.466	1669.69
271.698	1861.69
271.93	2272.69
272.162	2289.69
272.394	2008.69
272.626	1974.69
272.858	1755.69
273.09	1495.69
273.322	1482.69
273.553	1413.69
273.785	1427.69
274.017	1492.69
274.249	1617.69
274.481	1628.69
274.713	1496.69
274.945	1421.69
275.176	1459.69
275.408	1471.69
275.64	1421.69
275.872	1381.69
276.104	1476.69
276.335	1689.69
276.567	1945.69
276.799	1982.69
277.031	1766.69
277.262	1656.69
277.494	1695.69
277.726	1891.69
277.957	1910.69
278.189	1707.69
278.421	1591.69
278.652	1492.69
278.884	1513.69
279.115	1458.69
279.347	1591.69
279.579	1508.69
279.81	1509.69
280.042	1679.69
280.273	1809.69
280.505	1805.69
280.736	1889.69
280.968	1729.69
281.199	1558.69
281.431	1442.69
281.662	1480.69
281.894	1452.69
282.125	1485.69
282.356	1552.69
282.588	1596.69
282.819	1556.69
283.051	1691.69
283.282	1830.69
283.513	1776.69
283.745	1548.69
283.976	1457.69
284.207	1443.69
284.439	1521.69
284.67	1548.69
284.901	1556.69
285.132	1574.69
285.364	1594.69
285.595	1592.69
285.826	1561.69
286.057	1565.69
286.288	1536.69
286.52	1625.69
286.751	1730.69
286.982	1777.69
287.213	1644.69
287.444	1487.69
287.675	1457.69
287.906	1560.69
288.138	1702.69
288.369	1692.69
288.6	1559.69
288.831	1504.69
289.062	1514.69
289.293	1524.69
289.524	1540.69
289.755	1606.69
289.986	1612.69
290.217	1478.69
290.448	1503.69
290.679	1595.69
290.91	1544.69
291.141	1604.69
291.371	1663.69
291.602	1687.69
291.833	1658.69
292.064	1677.69
292.295	1613.69
292.526	1687.69
292.757	1767.69
292.987	1671.69
293.218	1590.69
293.449	1719.69
293.68	1937.69
293.91	2074.69
294.141	1919.69
294.372	1820.69
294.603	1839.69
294.833	1958.69
295.064	1907.69
295.295	1737.69
295.525	1603.69
295.756	1564.69
295.987	1461.69
296.217	1479.69
296.448	1515.69
296.679	1512.69
296.909	1514.69
297.14	1523.69
297.37	1554.69
297.601	1634.69
297.831	1759.69
298.062	1752.69
298.292	1603.69
298.523	1512.69
298.753	1577.69
298.984	1540.69
299.214	1575.69
299.445	1604.69
299.675	1632.69
299.905	1696.69
300.136	1597.69
300.366	1566.69
300.597	1524.69
300.827	1530.69
301.057	1571.69
301.288	1687.69
301.518	1673.69
301.748	1668.69
301.979	1752.69
302.209	1785.69
302.439	1935.69
302.669	2001.69
302.9	1841.69
303.13	1681.69
303.36	1711.69
303.59	1718.69
303.82	1685.69
304.051	1709.69
304.281	1702.69
304.511	1671.69
304.741	1791.69
304.971	1933.69
305.201	2107.69
305.431	1978.69
305.661	1644.69
305.891	1457.69
306.121	1460.69
306.352	1531.69
306.582	1609.69
306.812	1748.69
307.042	1871.69
307.272	1841.69
307.502	1927.69
307.731	2050.69
307.961	2199.69
308.191	2026.69
308.421	1767.69
308.651	1639.69
308.881	1634.69
309.111	1623.69
309.341	1579.69
309.571	1600.69
309.8	1622.69
310.03	1612.69
310.26	1562.69
310.49	1604.69
310.72	1637.69
310.949	1684.69
311.179	1725.69
311.409	1687.69
311.639	1663.69
311.868	1608.69
312.098	1630.69
312.328	1628.69
312.557	1598.69
312.787	1617.69
313.017	1675.69
313.246	1685.69
313.476	1686.69
313.706	1713.69
313.935	1700.69
314.165	1719.69
314.394	1767.69
314.624	1852.69
314.853	1977.69
315.083	2017.69
315.312	2137.69
315.542	2004.69
315.771	1737.69
316.001	1751.69
316.23	1830.69
316.46	1843.69
316.689	1805.69
316.919	1722.69
317.148	1686.69
317.377	1649.69
317.607	1773.69
317.836	2024.69
318.065	2107.69
318.295	2023.69
318.524	1948.69
318.753	1837.69
318.983	1825.69
319.212	1813.69
319.441	1723.69
319.67	1734.69
319.9	1751.69
320.129	1847.69
320.358	1943.69
320.587	1951.69
320.816	1983.69
321.046	1952.69
321.275	1860.69
321.504	1805.69
321.733	2007.69
321.962	1951.69
322.191	1822.69
322.42	1760.69
322.649	1772.69
322.878	1737.69
323.108	1765.69
323.337	1837.69
323.566	1852.69
323.795	1843.69
324.024	1829.69
324.253	1791.69
324.482	1801.69
324.71	1728.69
324.939	1677.69
325.168	1689.69
325.397	1728.69
325.626	1823.69
325.855	1834.69
326.084	1752.69
326.313	1759.69
326.542	1817.69
326.77	1842.69
326.999	1859.69
327.228	1811.69
327.457	1660.69
327.686	1655.69
327.914	1753.69
328.143	1781.69
328.372	1718.69
328.6	1780.69
328.829	1779.69
329.058	1736.69
329.287	1746.69
329.515	1762.69
329.744	1807.69
329.972	1892.69
330.201	1966.69
330.43	1934.69
330.658	1881.69
330.887	1869.69
331.115	1892.69
331.344	1888.69
331.572	1862.69
331.801	1872.69
332.03	1855.69
332.258	1851.69
332.486	1859.69
332.715	1886.69
332.943	1907.69
333.172	1849.69
333.4	1894.69
333.629	1957.69
333.857	2053.69
334.085	2241.69
334.314	2510.69
334.542	2783.69
334.771	2609.69
334.999	2263.69
335.227	2132.69
335.455	2023.69
335.684	2018.69
335.912	2015.69
336.14	2124.69
336.369	2035.69
336.597	1915.69
336.825	1876.69
337.053	1932.69
337.281	2023.69
337.51	2115.69
337.738	2223.69
337.966	2133.69
338.194	1930.69
338.422	1850.69
338.65	1830.69
338.878	1810.69
339.106	1725.69
339.334	1727.69
339.562	1763.69
339.79	1808.69
340.018	1882.69
340.246	1973.69
340.474	1993.69
340.702	1904.69
340.93	1953.69
341.158	1880.69
341.386	1861.69
341.614	1843.69
341.842	1804.69
342.07	1832.69
342.298	1860.69
342.526	1854.69
342.754	1813.69
342.981	1800.69
343.209	1807.69
343.437	1794.69
343.665	1839.69
343.893	1876.69
344.12	1969.69
344.348	1993.69
344.576	1917.69
344.804	1848.69
345.031	1833.69
345.259	1873.69
345.487	1778.69
345.714	1747.69
345.942	1693.69
346.17	1692.69
346.397	1765.69
346.625	1823.69
346.853	1665.69
347.08	1645.69
347.308	1655.69
347.535	1691.69
347.763	1771.69
347.99	1752.69
348.218	1624.69
348.445	1676.69
348.673	1704.69
348.9	1747.69
349.128	1789.69
349.355	1865.69
349.583	1823.69
349.81	1751.69
350.037	1607.69
350.265	1580.69
350.492	1571.69
350.72	1651.69
350.947	1717.69
351.174	1750.69
351.402	1683.69
351.629	1639.69
351.856	1591.69
352.083	1581.69
352.311	1611.69
352.538	1649.69
352.765	1704.69
352.992	1771.69
353.22	1681.69
353.447	1633.69
353.674	1640.69
353.901	1700.69
354.128	1627.69
354.355	1656.69
354.583	1725.69
354.81	1739.69
355.037	1767.69
355.264	1735.69
355.491	1684.69
355.718	1738.69
355.945	1702.69
356.172	1675.69
356.399	1648.69
356.626	1623.69
356.853	1717.69
357.08	1811.69
357.307	1993.69
357.534	2016.69
357.761	1768.69
357.988	1655.69
358.215	1583.69
358.441	1606.69
358.668	1600.69
358.895	1587.69
359.122	1723.69
359.349	1874.69
359.576	1857.69
359.802	1692.69
360.029	1620.69
360.256	1630.69
360.483	1644.69
360.709	1660.69
360.936	1772.69
361.163	1768.69
361.39	1940.69
361.616	2101.69
361.843	2066.69
362.07	1943.69
362.296	1696.69
362.523	1618.69
362.749	1676.69
362.976	1675.69
363.203	1745.69
363.429	1688.69
363.656	1616.69
363.882	1680.69
364.109	1846.69
364.335	2037.69
364.562	1889.69
364.788	1815.69
365.015	1740.69
365.241	1669.69
365.468	1670.69
365.694	1739.69
365.92	1811.69
366.147	1767.69
366.373	1625.69
366.599	1624.69
366.826	1639.69
367.052	1659.69
367.278	1656.69
367.505	1667.69
367.731	1735.69
367.957	1754.69
368.184	1763.69
368.41	1892.69
368.636	1851.69
368.862	1859.69
369.089	1909.69
369.315	1896.69
369.541	1783.69
369.767	1742.69
369.993	1663.69
370.219	1648.69
370.445	1714.69
370.672	1829.69
370.898	1885.69
371.124	1875.69
371.35	1786.69
371.576	1827.69
371.802	1892.69
372.028	1813.69
372.254	1731.69
372.48	1702.69
372.706	1707.69
372.932	1669.69
373.158	1715.69
373.384	1707.69
373.61	1773.69
373.835	1866.69
374.061	1771.69
374.287	1741.69
374.513	1777.69
374.739	1747.69
374.965	1786.69
375.191	1827.69
375.416	1809.69
375.642	1784.69
375.868	1932.69
376.094	1958.69
376.319	1919.69
376.545	1758.69
376.771	1810.69
376.997	1902.69
377.222	1863.69
377.448	1799.69
377.674	1841.69
377.899	1818.69
378.125	1919.69
378.35	1963.69
378.576	1805.69
378.802	1731.69
379.027	1699.69
379.253	1745.69
379.478	1721.69
379.704	1751.69
379.929	1767.69
380.155	1740.69
380.38	1795.69
380.606	1766.69
380.831	1745.69
381.057	1870.69
381.282	1912.69
381.507	1793.69
381.733	1945.69
381.958	2019.69
382.184	1863.69
382.409	1803.69
382.634	1868.69
382.86	1836.69
383.085	1787.69
383.31	1874.69
383.535	2038.69
383.761	2166.69
383.986	2086.69
384.211	1964.69
384.436	1973.69
384.662	2022.69
384.887	2162.69
385.112	2000.69
385.337	2058.69
385.562	2016.69
385.787	2009.69
386.013	2083.69
386.238	2035.69
386.463	2057.69
386.688	2205.69
386.913	2292.69
387.138	2251.69
387.363	2030.69
387.588	2116.69
387.813	2056.69
388.038	2065.69
388.263	2168.69
388.488	2122.69
388.713	1913.69
388.938	1928.69
389.163	1954.69
389.387	1956.69
389.612	1980.69
389.837	2035.69
390.062	2031.69
390.287	2023.69
390.512	1988.69
390.736	1947.69
390.961	1940.69
391.186	1939.69
391.411	1980.69
391.636	1968.69
391.86	2004.69
392.085	1993.69
392.31	2000.69
392.534	2010.69
392.759	2058.69
392.984	2015.69
393.208	2013.69
393.433	2072.69
393.658	2174.69
393.882	2202.69
394.107	2067.69
394.331	1979.69
394.556	1963.69
394.78	2044.69
395.005	2108.69
395.229	2152.69
395.454	2266.69
395.678	2341.69
395.903	2216.69
396.127	2104.69
396.352	2108.69
396.576	2215.69
396.801	2223.69
397.025	2194.69
397.249	2208.69
397.474	2187.69
397.698	2136.69
397.922	2173.69
398.147	2305.69
398.371	2375.69
398.595	2396.69
398.82	2299.69
399.044	2294.69
399.268	2409.69
399.492	2580.69
399.717	2736.69
399.941	2713.69
400.165	2656.69
400.389	2564.69
400.613	2546.69
400.837	2770.69
401.062	3217.69
401.286	2777.69
401.51	2434.69
401.734	2622.69
401.958	2565.69
402.182	2405.69
402.406	2321.69
402.63	2249.69
402.854	2265.69
403.078	2309.69
403.302	2391.69
403.526	2435.69
403.75	2361.69
403.974	2405.69
404.198	2419.69
404.422	2431.69
404.645	2592.69
404.869	2556.69
405.093	2381.69
405.317	2294.69
405.541	2403.69
405.765	2407.69
405.988	2374.69
406.212	2384.69
406.436	2460.69
406.66	2594.69
406.883	2567.69
407.107	2855.69
407.331	3139.69
407.555	3367.69
407.778	3134.69
408.002	2539.69
408.226	2513.69
408.449	2516.69
408.673	2459.69
408.896	2445.69
409.12	2475.69
409.344	2419.69
409.567	2415.69
409.791	2421.69
410.014	2450.69
410.238	2535.69
410.461	2690.69
410.685	2426.69
410.908	2272.69
411.132	2416.69
411.355	2370.69
411.578	2267.69
411.802	2318.69
412.025	2356.69
412.249	2376.69
412.472	2274.69
412.695	2265.69
412.919	2281.69
413.142	2299.69
413.365	2282.69
413.589	2351.69
413.812	2416.69
414.035	2531.69
414.258	2350.69
414.482	2283.69
414.705	2295.69
414.928	2237.69
415.151	2236.69
415.374	2316.69
415.597	2343.69
415.821	2303.69
416.044	2419.69
416.267	2402.69
416.49	2211.69
416.713	2199.69
416.936	2216.69
417.159	2385.69
417.382	2394.69
417.605	2187.69
417.828	2301.69
418.051	2345.69
418.274	2267.69
418.497	2234.69
418.72	2172.69
418.943	2188.69
419.166	2376.69
419.389	2434.69
419.611	2300.69
419.834	2251.69
420.057	2301.69
420.28	2225.69
420.503	2165.69
420.726	2224.69
420.948	2249.69
421.171	2155.69
421.394	2215.69
421.617	2275.69
421.839	2228.69
422.062	2194.69
422.285	2208.69
422.507	2216.69
422.73	2146.69
422.953	2111.69
423.175	2112.69
423.398	2201.69
423.621	2204.69
423.843	2180.69
424.066	2236.69
424.288	2324.69
424.511	2339.69
424.733	2349.69
424.956	2117.69
425.178	2083.69
425.401	2114.69
425.623	2122.69
425.846	2096.69
426.068	2272.69
426.291	2258.69
426.513	2239.69
426.735	2257.69
426.958	2349.69
427.18	2496.69
427.402	2330.69
427.625	2357.69
427.847	2410.69
428.069	2238.69
428.292	2135.69
428.514	2090.69
428.736	2114.69
428.958	2116.69
429.181	2108.69
429.403	2402.69
429.625	3022.69
429.847	2636.69
430.069	2191.69
430.292	2383.69
430.514	2496.69
430.736	2297.69
430.958	2425.69
431.18	2341.69
431.402	2132.69
431.624	2148.69
431.846	2120.69
432.068	2087.69
432.29	2121.69
432.512	2112.69
432.734	2129.69
432.956	2271.69
433.178	2323.69
433.4	2279.69
433.622	2307.69
433.844	2201.69
434.066	2106.69
434.287	2113.69
434.509	2212.69
434.731	2282.69
434.953	2441.69
435.175	2404.69
435.397	2233.69
435.618	2205.69
435.84	2327.69
436.062	2193.69
436.284	2229.69
436.505	2250.69
436.727	2290.69
436.949	2236.69
437.17	2117.69
437.392	2125.69
437.614	2134.69
437.835	2109.69
438.057	2239.69
438.278	2339.69
438.5	2162.69
438.721	2049.69
438.943	2142.69
439.165	2119.69
439.386	2090.69
439.608	2101.69
439.829	2131.69
440.05	2096.69
440.272	2113.69
440.493	2060.69
440.715	2143.69
440.936	2254.69
441.158	2488.69
441.379	2426.69
441.6	2332.69
441.822	2269.69
442.043	2295.69
442.264	2258.69
442.486	2123.69
442.707	2093.69
442.928	2111.69
443.149	2237.69
443.371	2329.69
443.592	2415.69
443.813	2354.69
444.034	2305.69
444.255	2317.69
444.476	2384.69
444.698	2460.69
444.919	2336.69
445.14	2460.69
445.361	2490.69
445.582	2526.69
445.803	2439.69
446.024	2303.69
446.245	2436.69
446.466	2381.69
446.687	2207.69
446.908	2219.69
447.129	2155.69
447.35	2167.69
447.571	2173.69
447.792	2076.69
448.013	2077.69
448.234	2096.69
448.455	2209.69
448.675	2239.69
448.896	2036.69
449.117	2034.69
449.338	2078.69
449.559	2182.69
449.779	2283.69
450	2509.69
450.221	2721.69
450.442	2619.69
450.662	2309.69
450.883	2042.69
451.104	1969.69
451.324	2022.69
451.545	2133.69
451.766	2095.69
451.986	1984.69
452.207	1993.69
452.428	1891.69
452.648	1873.69
452.869	1940.69
453.089	2049.69
453.31	2081.69
453.53	2141.69
453.751	2067.69
453.971	1938.69
454.192	1989.69
454.412	2105.69
454.633	2051.69
454.853	1971.69
455.073	1817.69
455.294	1823.69
455.514	1872.69
455.734	1888.69
455.955	1908.69
456.175	1892.69
456.395	1924.69
456.616	1954.69
456.836	2013.69
457.056	1949.69
457.276	1991.69
457.497	1904.69
457.717	1907.69
457.937	1918.69
458.157	1924.69
458.377	1880.69
458.598	1890.69
458.818	1903.69
459.038	2017.69
459.258	2163.69
459.478	2168.69
459.698	2113.69
459.918	2086.69
460.138	2225.69
460.358	2260.69
460.578	2266.69
460.798	2375.69
461.018	2499.69
461.238	2389.69
461.458	2291.69
461.678	2264.69
461.898	2264.69
462.118	2151.69
462.338	2282.69
462.558	2311.69
462.777	2258.69
462.997	2386.69
463.217	2527.69
463.437	2508.69
463.657	2348.69
463.876	2305.69
464.096	2243.69
464.316	2298.69
464.536	2407.69
464.755	2360.69
464.975	2415.69
465.195	2309.69
465.414	2387.69
465.634	2400.69
465.854	2225.69
466.073	2424.69
466.293	2332.69
466.512	2107.69
466.732	2113.69
466.951	2173.69
467.171	2183.69
467.391	2033.69
467.61	2053.69
467.829	2026.69
468.049	2187.69
468.268	2486.69
468.488	2327.69
468.707	2177.69
468.927	2107.69
469.146	2055.69
469.365	1991.69
469.585	2053.69
469.804	2002.69
470.023	2104.69
470.243	2134.69
470.462	2107.69
470.681	2025.69
470.901	2088.69
471.12	2090.69
471.339	2071.69
471.558	2014.69
471.777	1993.69
471.997	2052.69
472.216	2076.69
472.435	1942.69
472.654	1993.69
472.873	2078.69
473.092	2205.69
473.311	2115.69
473.53	1965.69
473.749	1964.69
473.968	2048.69
474.187	2137.69
474.406	2285.69
474.625	2169.69
474.844	2120.69
475.063	2085.69
475.282	2173.69
475.501	2071.69
475.72	2141.69
475.939	2258.69
476.158	2167.69
476.377	2099.69
476.596	2122.69
476.814	2134.69
477.033	2152.69
477.252	2273.69
477.471	2339.69
477.69	2228.69
477.908	2196.69
478.127	2349.69
478.346	2511.69
478.564	2564.69
478.783	2533.69
479.002	2544.69
479.22	2460.69
479.439	2577.69
479.658	2945.69
479.876	2839.69
480.095	2503.69
480.313	2390.69
480.532	2270.69
480.751	2347.69
480.969	2406.69
481.188	2345.69
481.406	2308.69
481.624	2294.69
481.843	2325.69
482.061	2380.69
482.28	2400.69
482.498	2418.69
482.717	2392.69
482.935	2259.69
483.153	2335.69
483.372	2313.69
483.59	2303.69
483.808	2355.69
484.027	2396.69
484.245	2525.69
484.463	2899.69
484.681	3358.69
484.9	2582.69
485.118	2400.69
485.336	2321.69
485.554	2434.69
485.772	2580.69
485.99	2509.69
486.209	2503.69
486.427	2488.69
486.645	2524.69
486.863	2472.69
487.081	2550.69
487.299	2616.69
487.517	2566.69
487.735	2439.69
487.953	2461.69
488.171	2388.69
488.389	2423.69
488.607	2364.69
488.825	2627.69
489.043	2697.69
489.261	2430.69
489.479	2559.69
489.696	2618.69
489.914	2581.69
490.132	2513.69
490.35	2450.69
490.568	2540.69
490.786	2504.69
491.003	2381.69
491.221	2419.69
491.439	2532.69
491.657	2479.69
491.874	2503.69
492.092	2548.69
492.31	2520.69
492.527	2554.69
492.745	2458.69
492.963	2473.69
493.18	2579.69
493.398	2737.69
493.615	2817.69
493.833	2569.69
494.05	2472.69
494.268	2495.69
494.485	2639.69
494.703	2582.69
494.92	2505.69
495.138	2484.69
495.355	2518.69
495.573	2594.69
495.79	2786.69
496.008	2829.69
496.225	2630.69
496.442	2643.69
496.66	2652.69
496.877	2641.69
497.094	2756.69
497.312	2727.69
497.529	2702.69
497.746	2839.69
497.963	3236.69
498.181	3688.69
498.398	3458.69
498.615	3331.69
498.832	3255.69
499.049	3257.69
499.267	3211.69
499.484	3410.69
499.701	3732.69
499.918	3794.69
500.135	4007.69
500.352	4309.69
500.569	4286.69
500.786	4537.69
501.003	4297.69
501.22	3785.69
501.437	3775.69
501.654	3726.69
501.871	3644.69
502.088	3239.69
502.305	3221.69
502.522	3059.69
502.739	2884.69
502.956	2778.69
503.172	2794.69
503.389	2734.69
503.606	2696.69
503.823	2679.69
504.04	2663.69
504.256	2687.69
504.473	2680.69
504.69	2767.69
504.907	2647.69
505.123	2523.69
505.34	2664.69
505.557	3395.69
505.773	2931.69
505.99	2493.69
506.207	2315.69
506.423	2305.69
506.64	2227.69
506.856	2258.69
507.073	2584.69
507.289	2815.69
507.506	2724.69
507.722	2279.69
507.939	2188.69
508.155	2194.69
508.372	2241.69
508.588	2169.69
508.805	2068.69
509.021	2106.69
509.238	2097.69
509.454	2076.69
509.67	2084.69
509.887	2049.69
510.103	2067.69
510.319	2097.69
510.536	2181.69
510.752	2229.69
510.968	2318.69
511.184	2431.69
511.401	2427.69
511.617	2085.69
511.833	1983.69
512.049	2001.69
512.265	2044.69
512.481	2004.69
512.698	2072.69
512.914	2217.69
513.13	2157.69
513.346	2016.69
513.562	1982.69
513.778	2016.69
513.994	2131.69
514.21	2239.69
514.426	2206.69
514.642	2490.69
514.858	2307.69
515.074	2113.69
515.29	2036.69
515.506	2138.69
515.721	2164.69
515.937	2167.69
516.153	2441.69
516.369	2370.69
516.585	2211.69
516.801	2129.69
517.016	2149.69
517.232	2150.69
517.448	2192.69
517.664	2215.69
517.879	2238.69
518.095	2357.69
518.311	2265.69
518.527	2147.69
518.742	2110.69
518.958	2006.69
519.173	1989.69
519.389	2079.69
519.605	2067.69
519.82	2097.69
520.036	2145.69
520.251	2047.69
520.467	2049.69
520.682	2244.69
520.898	2303.69
521.113	2067.69
521.329	2018.69
521.544	2193.69
521.76	2111.69
521.975	1972.69
522.19	1931.69
522.406	1948.69
522.621	2311.69
522.836	2406.69
523.052	1960.69
523.267	1934.69
523.482	1990.69
523.698	1894.69
523.913	1828.69
524.128	1873.69
524.343	1974.69
524.559	2002.69
524.774	1912.69
524.989	1844.69
525.204	1875.69
525.419	1816.69
525.634	1821.69
525.849	1846.69
526.064	1873.69
526.28	1877.69
526.495	1829.69
526.71	1763.69
526.925	1786.69
527.14	1841.69
527.355	1791.69
527.57	1723.69
527.785	1825.69
527.999	1766.69
528.214	1754.69
528.429	1699.69
528.644	1722.69
528.859	1760.69
529.074	1732.69
529.289	1754.69
529.503	1792.69
529.718	1807.69
529.933	1759.69
530.148	1696.69
530.363	1731.69
530.577	1735.69
530.792	1738.69
531.007	1730.69
531.221	1741.69
531.436	1768.69
531.651	1857.69
531.865	1976.69
532.08	1840.69
532.295	1721.69
532.509	1669.69
532.724	1711.69
532.938	1771.69
533.153	1909.69
533.367	1819.69
533.582	1749.69
533.796	1725.69
534.011	1742.69
534.225	1779.69
534.44	1748.69
534.654	1743.69
534.868	1722.69
535.083	1772.69
535.297	1823.69
535.511	1745.69
535.726	1737.69
535.94	1762.69
536.154	1705.69
536.369	1704.69
536.583	1682.69
536.797	1644.69
537.011	1733.69
537.225	1667.69
537.44	1655.69
537.654	1714.69
537.868	1633.69
538.082	1580.69
538.296	1573.69
538.51	1613.69
538.724	1580.69
538.938	1613.69
539.153	1664.69
539.367	1683.69
539.581	1612.69
539.795	1759.69
540.009	1698.69
540.222	1653.69
540.436	1700.69
540.65	1796.69
540.864	1832.69
541.078	1717.69
541.292	1600.69
541.506	1616.69
541.72	1637.69
541.934	1616.69
542.147	1688.69
542.361	1620.69
542.575	1579.69
542.789	1571.69
543.002	1557.69
543.216	1598.69
543.43	1689.69
543.644	1730.69
543.857	1814.69
544.071	1739.69
544.285	1649.69
544.498	1642.69
544.712	1659.69
544.925	1647.69
545.139	1712.69
545.352	1593.69
545.566	1507.69
545.779	1559.69
545.993	1581.69
546.206	1633.69
546.42	1561.69
546.633	1536.69
546.847	1543.69
547.06	1531.69
547.274	1488.69
547.487	1522.69
547.7	1538.69
547.914	1558.69
548.127	1564.69
548.34	1626.69
548.554	1575.69
548.767	1548.69
548.98	1552.69
549.193	1522.69
549.407	1579.69
549.62	1667.69
549.833	1547.69
550.046	1528.69
550.259	1555.69
550.473	1506.69
550.686	1516.69
550.899	1485.69
551.112	1470.69
551.325	1475.69
551.538	1564.69
551.751	1886.69
551.964	1515.69
552.177	1424.69
552.39	1506.69
552.603	1496.69
552.816	1525.69
553.029	1604.69
553.242	1635.69
553.455	1580.69
553.667	1537.69
553.88	1505.69
554.093	1513.69
554.306	1459.69
554.519	1439.69
554.732	1385.69
554.944	1431.69
555.157	1492.69
555.37	1413.69
555.583	1431.69
555.795	1412.69
556.008	1363.69
556.221	1377.69
556.433	1338.69
556.646	1330.69
556.859	1308.69
557.071	1333.69
557.284	1303.69
557.496	1299.69
557.709	1284.69
557.921	1303.69
558.134	1285.69
558.346	1291.69
558.559	1274.69
558.771	1260.69
558.984	1231.69
559.196	1217.69
559.409	1229.69
559.621	1232.69
559.833	1226.69
560.046	1295.69
560.258	1273.69
560.47	1241.69
560.683	1273.69
560.895	1282.69
561.107	1273.69
561.32	1261.69
561.532	1314.69
561.744	1259.69
561.956	1259.69
562.168	1248.69
562.381	1208.69
562.593	1218.69
562.805	1229.69
563.017	1177.69
563.229	1256.69
563.441	1255.69
563.653	1240.69
563.865	1244.69
564.077	1217.69
564.289	1236.69
564.501	1267.69
564.713	1273.69
564.925	1293.69
565.137	1405.69
565.349	1307.69
565.561	1308.69
565.773	1304.69
565.985	1302.69
566.197	1392.69
566.408	1505.69
566.62	1541.69
566.832	1509.69
567.044	1465.69
567.255	1489.69
567.467	1491.69
567.679	1571.69
567.891	1610.69
568.102	1533.69
568.314	1506.69
568.526	1401.69
568.737	1325.69
568.949	1304.69
569.161	1285.69
569.372	1209.69
569.584	1184.69
569.795	1191.69
570.007	1186.69
570.218	1127.69
570.43	1124.69
570.641	1143.69
570.853	1145.69
571.064	1152.69
571.276	1121.69
571.487	1080.69
571.698	1060.69
571.91	1038.69
572.121	1010.69
572.333	1005.69
572.544	1025.69
572.755	1025.69
572.966	977.69
573.178	1010.69
573.389	986.69
573.6	1066.69
573.811	1108.69
574.023	1009.69
574.234	960.69
574.445	961.69
574.656	959.69
574.867	939.69
575.078	957.69
575.289	944.69
575.501	908.69
575.712	901.69
575.923	945.69
576.134	942.69
576.345	916.69
576.556	918.69
576.767	892.69
576.978	884.69
577.188	889.69
577.399	863.69
577.61	881.69
577.821	898.69
578.032	873.69
578.243	850.69
578.454	868.69
578.665	854.69
578.875	842.69
579.086	841.69
579.297	837.69
579.508	904.69
579.718	879.69
579.929	861.69
580.14	824.69
580.35	847.69
580.561	862.69
580.772	940.69
580.982	853.69
581.193	830.69
581.403	827.69
581.614	813.69
581.825	823.69
582.035	787.69
582.246	805.69
582.456	831.69
582.667	805.69
582.877	796.69
583.087	783.69
583.298	791.69
583.508	775.69
583.719	793.69
583.929	801.69
584.139	799.69
584.35	753.69
584.56	778.69
584.77	800.69
584.981	799.69
585.191	797.69
585.401	826.69
585.611	793.69
585.821	787.69
586.032	786.69
586.242	786.69
586.452	774.69
586.662	745.69
586.872	774.69
587.082	751.69
587.292	764.69
587.502	791.69
587.713	804.69
587.923	771.69
588.133	764.69
588.343	782.69
588.553	742.69
588.762	751.69
588.972	763.69
589.182	762.69
589.392	778.69
589.602	795.69
589.812	765.69
590.022	748.69
590.232	726.69
590.441	755.69
590.651	775.69
590.861	744.69
591.071	751.69
591.281	731.69
591.49	717.69
591.7	717.69
591.91	731.69
592.119	736.69
592.329	762.69
592.539	754.69
592.748	785.69
592.958	794.69
593.167	798.69
593.377	780.69
593.587	793.69
593.796	815.69
594.006	809.69
594.215	821.69
594.424	796.69
594.634	793.69
594.843	790.69
595.053	796.69
595.262	764.69
595.472	737.69
595.681	745.69
595.89	740.69
596.1	708.69
596.309	715.69
596.518	674.69
596.727	721.69
596.937	707.69
597.146	673.69
597.355	654.69
597.564	660.69
597.774	631.69
597.983	644.69
598.192	645.69
598.401	636.69
598.61	641.69
598.819	623.69
599.028	631.69
599.237	661.69
599.446	643.69
599.655	619.69
599.864	619.69
600.073	615.69
600.282	646.69
600.491	617.69
600.7	613.69
600.909	583.69
601.118	603.69
601.327	621.69
601.536	668.69
601.745	604.69
601.953	611.69
602.162	604.69
602.371	618.69
602.58	625.69
602.789	615.69
602.997	619.69
603.206	605.69
603.415	595.69
603.623	601.69
603.832	593.69
604.041	573.69
604.249	565.69
604.458	597.69
604.666	592.69
604.875	597.69
605.084	603.69
605.292	578.69
605.501	595.69
605.709	582.69
605.918	575.69
606.126	561.69
606.334	568.69
606.543	569.69
606.751	578.69
606.96	567.69
607.168	575.69
607.376	551.69
607.585	570.69
607.793	545.69
608.001	567.69
608.21	555.69
608.418	544.69
608.626	555.69
608.834	545.69
609.043	549.69
609.251	547.69
609.459	553.69
609.667	554.69
609.875	540.69
610.083	564.69
610.291	562.69
610.499	559.69
610.707	557.69
610.916	534.69
611.124	539.69
611.332	538.69
611.54	524.69
611.748	524.69
611.955	510.69
612.163	530.69
612.371	491.69
612.579	543.69
612.787	539.69
612.995	532.69
613.203	547.69
613.411	519.69
613.618	526.69
613.826	539.69
614.034	537.69
614.242	535.69
614.449	516.69
614.657	514.69
614.865	525.69
615.072	554.69
615.28	543.69
615.488	532.69
615.695	539.69
615.903	562.69
616.111	508.69
616.318	531.69
616.526	537.69
616.733	521.69
616.941	514.69
617.148	527.69
617.356	526.69
617.563	493.69
617.771	526.69
617.978	486.69
618.185	496.69
618.393	508.69
618.6	507.69
618.807	516.69
619.015	497.69
619.222	513.69
619.429	491.69
619.637	499.69
619.844	497.69
620.051	501.69
620.258	514.69
620.466	471.69
620.673	452.69
620.88	461.69
621.087	483.69
621.294	456.69
621.501	461.69
621.708	461.69
621.915	471.69
622.122	457.69
622.329	504.69
622.536	479.69
622.743	457.69
622.95	466.69
623.157	455.69
623.364	476.69
623.571	451.69
623.778	475.69
623.985	473.69
624.192	488.69
624.399	460.69
624.606	441.69
624.812	447.69
625.019	439.69
625.226	441.69
625.433	445.69
625.639	447.69
625.846	435.69
626.053	441.69
626.259	424.69
626.466	426.69
626.673	415.69
626.879	399.69
627.086	426.69
627.293	439.69
627.499	420.69
627.706	443.69
627.912	424.69
628.119	403.69
628.325	427.69
628.532	395.69
628.738	417.69
628.945	437.69
629.151	415.69
629.357	433.69
629.564	435.69
629.77	429.69
629.976	402.69
630.183	386.69
630.389	396.69
630.595	423.69
630.802	404.69
631.008	390.69
631.214	394.69
631.42	381.69
631.627	379.69
631.833	387.69
632.039	373.69
632.245	397.69
632.451	396.69
632.657	368.69
632.863	355.69
633.069	387.69
633.275	364.69
633.481	365.69
633.688	362.69
633.893	366.69
634.099	377.69
634.305	371.69
634.511	355.69
634.717	358.69
634.923	358.69
635.129	354.69
635.335	370.69
635.541	356.69
635.747	339.69
635.952	354.69
636.158	353.69
636.364	365.69
636.57	361.69
636.775	380.69
636.981	362.69
637.187	362.69
637.392	351.69
637.598	358.69
637.804	370.69
638.009	349.69
638.215	356.69
638.421	348.69
638.626	331.69
638.832	336.69
639.037	342.69
639.243	340.69
639.448	348.69
639.654	349.69
639.859	335.69
640.065	344.69
640.27	339.69
640.475	326.69
640.681	319.69
640.886	320.69
641.091	320.69
641.297	330.69
641.502	345.69
641.707	342.69
641.913	341.69
642.118	338.69
642.323	328.69
642.528	310.69
642.733	311.69
642.939	321.69
643.144	326.69
643.349	327.69
643.554	324.69
643.759	329.69
643.964	335.69
644.169	339.69
644.374	311.69
644.579	310.69
644.784	340.69
644.989	308.69
645.194	328.69
645.399	328.69
645.604	313.69
645.809	317.69
646.014	325.69
646.219	335.69
646.423	332.69
646.628	343.69
646.833	327.69
647.038	329.69
647.243	319.69
647.447	324.69
647.652	333.69
647.857	318.69
648.062	319.69
648.266	317.69
648.471	307.69
648.676	320.69
648.88	327.69
649.085	312.69
649.289	340.69
649.494	306.69
649.698	307.69
649.903	300.69
650.107	316.69
650.312	306.69
650.516	289.69
650.721	304.69
650.925	286.69
651.13	294.69
651.334	299.69
651.539	278.69
651.743	284.69
651.947	271.69
652.152	288.69
652.356	293.69
652.56	264.69
652.764	266.69
652.969	279.69
653.173	252.69
653.377	236.69
653.581	260.69
653.785	241.69
653.99	252.69
654.194	244.69
654.398	257.69
654.602	253.69
654.806	248.69
655.01	231.69
655.214	239.69
655.418	250.69
655.622	266.69
655.826	259.69
656.03	256.69
656.234	260.69
656.438	287.69
656.642	276.69
656.846	259.69
657.049	255.69
657.253	199.69
657.457	199.69
657.661	198.69
657.865	188.69
658.068	193.69
658.272	169.69
658.476	160.69
658.68	136.69
658.883	156.69
659.087	159.69
659.291	147.69
659.494	131.69
659.698	128.69
659.901	153.69
660.105	142.69
660.309	131.69
660.512	117.69
660.716	124.69
660.919	113.69
661.123	98.69
661.326	115.69
661.53	111.69
661.733	101.69
661.936	98.69
662.14	95.69
662.343	96.69
662.546	93.69
662.75	84.69
662.953	102.69
663.156	93.69
663.36	104.69
663.563	89.69
663.766	102.69
663.969	99.69
664.173	92.69
664.376	83.69
664.579	90.69
664.782	97.69
664.985	101.69
665.188	107.69
665.391	89.69
665.594	85.69
665.797	71.69
666	91.69
666.203	92.69
666.406	88.69
666.609	87.69
666.812	83.69
667.015	77.69
667.218	83.69
667.421	83.69
667.624	95.69
667.827	98.69
668.03	91.69
668.232	89.69
668.435	84.69
668.638	80.69
668.841	81.69
669.043	100.69
669.246	91.69
669.449	75.69
669.651	84.69
669.854	90.69
670.057	87.69
670.259	76.69
670.462	84.69
670.665	79.69
670.867	92.69
671.07	94.69
671.272	83.69
671.475	86.69
671.677	93.69
671.88	80.69
672.082	71.69
672.284	83.69
672.487	85.69
672.689	72.69
672.892	79.69
