Data from WStandard_LampEnergy5.5LIBS07252019.E.O._I.C._HRD10591_16-09-03-921.txt Node
Date: Thu Jul 25 16:09:03 EDT 2019
User: cochatt
Spectrometer: HR+D1059
Trigger mode: 1
Integration Time (sec): 1.000000E-1
Scans to average: 1
Electric dark correction enabled: true
Nonlinearity correction enabled: false
Boxcar width: 0
XAxis mode: Wavelengths
Number of Pixels in Spectrum: 2048
>>>>>Begin Spectral Data<<<<<
223.165	-13.94
223.4	-13.94
223.635	-13.94
223.869	-25.94
224.104	-21.94
224.338	-17.94
224.573	-14.94
224.808	-27.94
225.042	-6.94
225.277	-0.94
225.511	11.06
225.746	-0.94
225.98	4.06
226.215	22.06
226.449	22.06
226.683	20.06
226.918	29.06
227.152	23.06
227.387	29.06
227.621	36.06
227.856	42.06
228.09	41.06
228.324	45.06
228.559	50.06
228.793	149.06
229.027	363.06
229.262	363.06
229.496	366.06
229.73	391.06
229.964	460.06
230.199	453.06
230.433	478.06
230.667	506.06
230.901	536.06
231.136	462.06
231.37	451.06
231.604	433.06
231.838	462.06
232.072	465.06
232.306	430.06
232.541	455.06
232.775	540.06
233.009	620.06
233.243	592.06
233.477	521.06
233.711	525.06
233.945	567.06
234.179	531.06
234.413	575.06
234.647	633.06
234.881	574.06
235.115	533.06
235.349	563.06
235.583	559.06
235.817	543.06
236.051	521.06
236.285	527.06
236.519	590.06
236.753	669.06
236.987	676.06
237.221	652.06
237.455	719.06
237.689	710.06
237.922	663.06
238.156	634.06
238.39	664.06
238.624	723.06
238.858	723.06
239.091	743.06
239.325	783.06
239.559	873.06
239.793	923.06
240.027	1025.06
240.26	1017.06
240.494	739.06
240.728	700.06
240.961	733.06
241.195	733.06
241.429	793.06
241.662	800.06
241.896	722.06
242.13	759.06
242.363	851.06
242.597	882.06
242.83	848.06
243.064	889.06
243.298	933.06
243.531	906.06
243.765	893.06
243.998	904.06
244.232	822.06
244.465	773.06
244.699	803.06
244.932	885.06
245.166	994.06
245.399	959.06
245.633	917.06
245.866	867.06
246.099	927.06
246.333	942.06
246.566	937.06
246.8	1024.06
247.033	1138.06
247.266	1060.06
247.5	1025.06
247.733	1009.06
247.966	1113.06
248.2	1206.06
248.433	1208.06
248.666	1193.06
248.899	1283.06
249.133	1485.06
249.366	1731.06
249.599	1415.06
249.832	1214.06
250.066	1194.06
250.299	1261.06
250.532	1186.06
250.765	1063.06
250.998	1126.06
251.231	1183.06
251.465	1221.06
251.698	1146.06
251.931	1147.06
252.164	1199.06
252.397	1260.06
252.63	1238.06
252.863	1094.06
253.096	1069.06
253.329	1152.06
253.562	1155.06
253.795	1241.06
254.028	1243.06
254.261	1168.06
254.494	1139.06
254.727	1124.06
254.96	1129.06
255.193	1260.06
255.426	1417.06
255.659	1635.06
255.892	1670.06
256.124	1331.06
256.357	1320.06
256.59	1427.06
256.823	1375.06
257.056	1407.06
257.289	1661.06
257.521	1874.06
257.754	1623.06
257.987	1555.06
258.22	1775.06
258.452	1740.06
258.685	1387.06
258.918	1340.06
259.151	1368.06
259.383	1319.06
259.616	1160.06
259.849	1216.06
260.081	1351.06
260.314	1509.06
260.547	1661.06
260.779	1700.06
261.012	1559.06
261.244	1433.06
261.477	1339.06
261.71	1399.06
261.942	1405.06
262.175	1327.06
262.407	1426.06
262.64	1351.06
262.872	1279.06
263.105	1260.06
263.337	1266.06
263.57	1267.06
263.802	1262.06
264.035	1219.06
264.267	1157.06
264.499	1114.06
264.732	1214.06
264.964	1297.06
265.197	1310.06
265.429	1402.06
265.661	1537.06
265.894	1692.06
266.126	1771.06
266.358	1588.06
266.591	1629.06
266.823	1775.06
267.055	1603.06
267.287	1543.06
267.52	1586.06
267.752	1515.06
267.984	1533.06
268.216	1542.06
268.448	1651.06
268.681	1595.06
268.913	1495.06
269.145	1409.06
269.377	1360.06
269.609	1485.06
269.841	1675.06
270.073	1996.06
270.306	2243.06
270.538	2353.06
270.77	1995.06
271.002	1677.06
271.234	1649.06
271.466	1594.06
271.698	1803.06
271.93	2164.06
272.162	2177.06
272.394	1930.06
272.626	1885.06
272.858	1678.06
273.09	1436.06
273.322	1443.06
273.553	1345.06
273.785	1394.06
274.017	1409.06
274.249	1542.06
274.481	1556.06
274.713	1429.06
274.945	1396.06
275.176	1406.06
275.408	1404.06
275.64	1386.06
275.872	1315.06
276.104	1440.06
276.335	1641.06
276.567	1867.06
276.799	1893.06
277.031	1687.06
277.262	1598.06
277.494	1618.06
277.726	1829.06
277.957	1820.06
278.189	1659.06
278.421	1507.06
278.652	1491.06
278.884	1467.06
279.115	1473.06
279.347	1521.06
279.579	1456.06
279.81	1448.06
280.042	1616.06
280.273	1740.06
280.505	1755.06
280.736	1751.06
280.968	1725.06
281.199	1501.06
281.431	1433.06
281.662	1472.06
281.894	1470.06
282.125	1485.06
282.356	1520.06
282.588	1539.06
282.819	1524.06
283.051	1621.06
283.282	1761.06
283.513	1725.06
283.745	1523.06
283.976	1461.06
284.207	1438.06
284.439	1438.06
284.67	1439.06
284.901	1513.06
285.132	1527.06
285.364	1547.06
285.595	1525.06
285.826	1493.06
286.057	1500.06
286.288	1487.06
286.52	1523.06
286.751	1683.06
286.982	1738.06
287.213	1557.06
287.444	1459.06
287.675	1463.06
287.906	1525.06
288.138	1658.06
288.369	1573.06
288.6	1486.06
288.831	1457.06
289.062	1490.06
289.293	1503.06
289.524	1516.06
289.755	1575.06
289.986	1611.06
290.217	1470.06
290.448	1436.06
290.679	1527.06
290.91	1518.06
291.141	1589.06
291.371	1610.06
291.602	1632.06
291.833	1577.06
292.064	1705.06
292.295	1619.06
292.526	1620.06
292.757	1721.06
292.987	1668.06
293.218	1549.06
293.449	1640.06
293.68	1875.06
293.91	2025.06
294.141	1886.06
294.372	1796.06
294.603	1863.06
294.833	1927.06
295.064	1824.06
295.295	1665.06
295.525	1615.06
295.756	1459.06
295.987	1413.06
296.217	1444.06
296.448	1500.06
296.679	1475.06
296.909	1513.06
297.14	1467.06
297.37	1498.06
297.601	1604.06
297.831	1727.06
298.062	1731.06
298.292	1632.06
298.523	1496.06
298.753	1469.06
298.984	1538.06
299.214	1566.06
299.445	1568.06
299.675	1644.06
299.905	1602.06
300.136	1556.06
300.366	1557.06
300.597	1491.06
300.827	1512.06
301.057	1551.06
301.288	1636.06
301.518	1633.06
301.748	1639.06
301.979	1729.06
302.209	1733.06
302.439	1870.06
302.669	1972.06
302.9	1841.06
303.13	1682.06
303.36	1676.06
303.59	1678.06
303.82	1639.06
304.051	1638.06
304.281	1622.06
304.511	1637.06
304.741	1691.06
304.971	1898.06
305.201	2076.06
305.431	1927.06
305.661	1589.06
305.891	1428.06
306.121	1435.06
306.352	1513.06
306.582	1558.06
306.812	1687.06
307.042	1818.06
307.272	1786.06
307.502	1878.06
307.731	1977.06
307.961	2131.06
308.191	1979.06
308.421	1683.06
308.651	1619.06
308.881	1596.06
309.111	1603.06
309.341	1571.06
309.571	1561.06
309.8	1595.06
310.03	1561.06
310.26	1551.06
310.49	1562.06
310.72	1593.06
310.949	1657.06
311.179	1689.06
311.409	1666.06
311.639	1629.06
311.868	1574.06
312.098	1614.06
312.328	1590.06
312.557	1569.06
312.787	1621.06
313.017	1674.06
313.246	1641.06
313.476	1621.06
313.706	1723.06
313.935	1709.06
314.165	1671.06
314.394	1747.06
314.624	1804.06
314.853	1895.06
315.083	1921.06
315.312	2051.06
315.542	1927.06
315.771	1715.06
316.001	1673.06
316.23	1819.06
316.46	1793.06
316.689	1807.06
316.919	1673.06
317.148	1610.06
317.377	1617.06
317.607	1754.06
317.836	1952.06
318.065	2042.06
318.295	1957.06
318.524	1883.06
318.753	1805.06
318.983	1833.06
319.212	1777.06
319.441	1730.06
319.67	1698.06
319.9	1729.06
320.129	1857.06
320.358	1889.06
320.587	1902.06
320.816	1954.06
321.046	1911.06
321.275	1746.06
321.504	1806.06
321.733	1963.06
321.962	1963.06
322.191	1748.06
322.42	1752.06
322.649	1679.06
322.878	1729.06
323.108	1726.06
323.337	1828.06
323.566	1803.06
323.795	1799.06
324.024	1755.06
324.253	1721.06
324.482	1761.06
324.71	1733.06
324.939	1640.06
325.168	1668.06
325.397	1694.06
325.626	1761.06
325.855	1762.06
326.084	1720.06
326.313	1755.06
326.542	1768.06
326.77	1848.06
326.999	1843.06
327.228	1792.06
327.457	1655.06
327.686	1653.06
327.914	1726.06
328.143	1766.06
328.372	1712.06
328.6	1771.06
328.829	1738.06
329.058	1700.06
329.287	1703.06
329.515	1746.06
329.744	1801.06
329.972	1868.06
330.201	1950.06
330.43	1885.06
330.658	1851.06
330.887	1818.06
331.115	1857.06
331.344	1860.06
331.572	1801.06
331.801	1832.06
332.03	1829.06
332.258	1850.06
332.486	1861.06
332.715	1843.06
332.943	1893.06
333.172	1817.06
333.4	1881.06
333.629	1942.06
333.857	2022.06
334.085	2232.06
334.314	2454.06
334.542	2695.06
334.771	2459.06
334.999	2213.06
335.227	2076.06
335.455	1960.06
335.684	1990.06
335.912	1998.06
336.14	2068.06
336.369	2044.06
336.597	1910.06
336.825	1851.06
337.053	1856.06
337.281	1985.06
337.51	2085.06
337.738	2179.06
337.966	2121.06
338.194	1927.06
338.422	1850.06
338.65	1850.06
338.878	1794.06
339.106	1761.06
339.334	1751.06
339.562	1687.06
339.79	1770.06
340.018	1875.06
340.246	1909.06
340.474	1933.06
340.702	1846.06
340.93	1868.06
341.158	1890.06
341.386	1857.06
341.614	1851.06
341.842	1837.06
342.07	1782.06
342.298	1850.06
342.526	1851.06
342.754	1801.06
342.981	1815.06
343.209	1787.06
343.437	1781.06
343.665	1802.06
343.893	1905.06
344.12	1917.06
344.348	1969.06
344.576	1874.06
344.804	1822.06
345.031	1827.06
345.259	1841.06
345.487	1751.06
345.714	1694.06
345.942	1684.06
346.17	1715.06
346.397	1721.06
346.625	1760.06
346.853	1645.06
347.08	1592.06
347.308	1630.06
347.535	1657.06
347.763	1756.06
347.99	1737.06
348.218	1655.06
348.445	1680.06
348.673	1710.06
348.9	1703.06
349.128	1751.06
349.355	1858.06
349.583	1793.06
349.81	1718.06
350.037	1585.06
350.265	1563.06
350.492	1628.06
350.72	1631.06
350.947	1707.06
351.174	1726.06
351.402	1693.06
351.629	1593.06
351.856	1575.06
352.083	1537.06
352.311	1600.06
352.538	1629.06
352.765	1675.06
352.992	1767.06
353.22	1677.06
353.447	1628.06
353.674	1638.06
353.901	1669.06
354.128	1634.06
354.355	1641.06
354.583	1727.06
354.81	1749.06
355.037	1665.06
355.264	1713.06
355.491	1689.06
355.718	1702.06
355.945	1665.06
356.172	1612.06
356.399	1625.06
356.626	1597.06
356.853	1683.06
357.08	1747.06
357.307	1940.06
357.534	1987.06
357.761	1763.06
357.988	1628.06
358.215	1547.06
358.441	1567.06
358.668	1581.06
358.895	1591.06
359.122	1686.06
359.349	1881.06
359.576	1852.06
359.802	1699.06
360.029	1603.06
360.256	1612.06
360.483	1642.06
360.709	1670.06
360.936	1723.06
361.163	1732.06
361.39	1918.06
361.616	2130.06
361.843	2035.06
362.07	1997.06
362.296	1725.06
362.523	1657.06
362.749	1679.06
362.976	1683.06
363.203	1727.06
363.429	1663.06
363.656	1604.06
363.882	1677.06
364.109	1822.06
364.335	1970.06
364.562	1834.06
364.788	1743.06
365.015	1688.06
365.241	1635.06
365.468	1668.06
365.694	1733.06
365.92	1821.06
366.147	1746.06
366.373	1641.06
366.599	1649.06
366.826	1598.06
367.052	1631.06
367.278	1650.06
367.505	1693.06
367.731	1698.06
367.957	1678.06
368.184	1778.06
368.41	1863.06
368.636	1854.06
368.862	1883.06
369.089	1877.06
369.315	1818.06
369.541	1743.06
369.767	1699.06
369.993	1691.06
370.219	1675.06
370.445	1739.06
370.672	1816.06
370.898	1873.06
371.124	1880.06
371.35	1771.06
371.576	1783.06
371.802	1872.06
372.028	1829.06
372.254	1770.06
372.48	1692.06
372.706	1655.06
372.932	1671.06
373.158	1710.06
373.384	1718.06
373.61	1766.06
373.835	1879.06
374.061	1803.06
374.287	1733.06
374.513	1755.06
374.739	1768.06
374.965	1741.06
375.191	1778.06
375.416	1795.06
375.642	1819.06
375.868	1894.06
376.094	1956.06
376.319	1882.06
376.545	1741.06
376.771	1822.06
376.997	1889.06
377.222	1873.06
377.448	1797.06
377.674	1850.06
377.899	1804.06
378.125	1924.06
378.35	1944.06
378.576	1747.06
378.802	1698.06
379.027	1735.06
379.253	1725.06
379.478	1745.06
379.704	1707.06
379.929	1762.06
380.155	1733.06
380.38	1776.06
380.606	1778.06
380.831	1748.06
381.057	1845.06
381.282	1870.06
381.507	1833.06
381.733	1893.06
381.958	2017.06
382.184	1880.06
382.409	1811.06
382.634	1841.06
382.86	1850.06
383.085	1828.06
383.31	1870.06
383.535	2019.06
383.761	2157.06
383.986	2091.06
384.211	1966.06
384.436	1981.06
384.662	2054.06
384.887	2123.06
385.112	2042.06
385.337	2021.06
385.562	1989.06
385.787	2007.06
386.013	2103.06
386.238	2069.06
386.463	2052.06
386.688	2179.06
386.913	2317.06
387.138	2271.06
387.363	2121.06
387.588	2033.06
387.813	2051.06
388.038	2064.06
388.263	2139.06
388.488	2107.06
388.713	1930.06
388.938	1891.06
389.163	1943.06
389.387	1981.06
389.612	1982.06
389.837	2012.06
390.062	2033.06
390.287	2042.06
390.512	2008.06
390.736	1978.06
390.961	1933.06
391.186	1921.06
391.411	1953.06
391.636	1975.06
391.86	2009.06
392.085	2002.06
392.31	1998.06
392.534	1963.06
392.759	2053.06
392.984	1989.06
393.208	1981.06
393.433	2047.06
393.658	2137.06
393.882	2134.06
394.107	2065.06
394.331	1977.06
394.556	1994.06
394.78	2017.06
395.005	2054.06
395.229	2126.06
395.454	2280.06
395.678	2317.06
395.903	2219.06
396.127	2125.06
396.352	2142.06
396.576	2191.06
396.801	2203.06
397.025	2217.06
397.249	2187.06
397.474	2168.06
397.698	2134.06
397.922	2185.06
398.147	2268.06
398.371	2426.06
398.595	2405.06
398.82	2320.06
399.044	2355.06
399.268	2426.06
399.492	2597.06
399.717	2730.06
399.941	2727.06
400.165	2643.06
400.389	2588.06
400.613	2555.06
400.837	2796.06
401.062	3264.06
401.286	2807.06
401.51	2521.06
401.734	2597.06
401.958	2539.06
402.182	2342.06
402.406	2286.06
402.63	2259.06
402.854	2263.06
403.078	2314.06
403.302	2358.06
403.526	2378.06
403.75	2421.06
403.974	2398.06
404.198	2431.06
404.422	2414.06
404.645	2542.06
404.869	2518.06
405.093	2348.06
405.317	2298.06
405.541	2389.06
405.765	2461.06
405.988	2417.06
406.212	2471.06
406.436	2465.06
406.66	2595.06
406.883	2529.06
407.107	2851.06
407.331	3127.06
407.555	3370.06
407.778	3167.06
408.002	2588.06
408.226	2516.06
408.449	2582.06
408.673	2457.06
408.896	2429.06
409.12	2517.06
409.344	2454.06
409.567	2324.06
409.791	2406.06
410.014	2440.06
410.238	2539.06
410.461	2750.06
410.685	2454.06
410.908	2325.06
411.132	2458.06
411.355	2331.06
411.578	2318.06
411.802	2367.06
412.025	2378.06
412.249	2310.06
412.472	2241.06
412.695	2291.06
412.919	2271.06
413.142	2261.06
413.365	2292.06
413.589	2378.06
413.812	2455.06
414.035	2554.06
414.258	2349.06
414.482	2283.06
414.705	2307.06
414.928	2243.06
415.151	2274.06
415.374	2227.06
415.597	2313.06
415.821	2320.06
416.044	2398.06
416.267	2366.06
416.49	2210.06
416.713	2151.06
416.936	2245.06
417.159	2373.06
417.382	2400.06
417.605	2243.06
417.828	2342.06
418.051	2311.06
418.274	2266.06
418.497	2179.06
418.72	2199.06
418.943	2197.06
419.166	2340.06
419.389	2433.06
419.611	2321.06
419.834	2274.06
420.057	2283.06
420.28	2190.06
420.503	2187.06
420.726	2284.06
420.948	2238.06
421.171	2152.06
421.394	2165.06
421.617	2249.06
421.839	2248.06
422.062	2202.06
422.285	2140.06
422.507	2169.06
422.73	2111.06
422.953	2133.06
423.175	2075.06
423.398	2198.06
423.621	2179.06
423.843	2180.06
424.066	2220.06
424.288	2291.06
424.511	2366.06
424.733	2348.06
424.956	2080.06
425.178	2072.06
425.401	2084.06
425.623	2142.06
425.846	2112.06
426.068	2233.06
426.291	2279.06
426.513	2210.06
426.735	2215.06
426.958	2357.06
427.18	2610.06
427.402	2309.06
427.625	2367.06
427.847	2371.06
428.069	2244.06
428.292	2134.06
428.514	2071.06
428.736	2081.06
428.958	2092.06
429.181	2120.06
429.403	2409.06
429.625	3046.06
429.847	2627.06
430.069	2184.06
430.292	2397.06
430.514	2507.06
430.736	2317.06
430.958	2413.06
431.18	2284.06
431.402	2126.06
431.624	2130.06
431.846	2140.06
432.068	2080.06
432.29	2086.06
432.512	2123.06
432.734	2167.06
432.956	2202.06
433.178	2263.06
433.4	2268.06
433.622	2282.06
433.844	2178.06
434.066	2090.06
434.287	2112.06
434.509	2217.06
434.731	2264.06
434.953	2427.06
435.175	2387.06
435.397	2221.06
435.618	2252.06
435.84	2211.06
436.062	2145.06
436.284	2158.06
436.505	2251.06
436.727	2250.06
436.949	2240.06
437.17	2128.06
437.392	2142.06
437.614	2138.06
437.835	2106.06
438.057	2196.06
438.278	2323.06
438.5	2183.06
438.721	2071.06
438.943	2110.06
439.165	2117.06
439.386	2041.06
439.608	2057.06
439.829	2097.06
440.05	2077.06
440.272	2081.06
440.493	2060.06
440.715	2115.06
440.936	2259.06
441.158	2463.06
441.379	2433.06
441.6	2301.06
441.822	2263.06
442.043	2226.06
442.264	2216.06
442.486	2101.06
442.707	2099.06
442.928	2082.06
443.149	2160.06
443.371	2296.06
443.592	2343.06
443.813	2269.06
444.034	2328.06
444.255	2261.06
444.476	2374.06
444.698	2393.06
444.919	2363.06
445.14	2406.06
445.361	2414.06
445.582	2514.06
445.803	2394.06
446.024	2320.06
446.245	2374.06
446.466	2326.06
446.687	2205.06
446.908	2215.06
447.129	2156.06
447.35	2145.06
447.571	2198.06
447.792	2089.06
448.013	2031.06
448.234	2093.06
448.455	2178.06
448.675	2204.06
448.896	2005.06
449.117	2026.06
449.338	2099.06
449.559	2155.06
449.779	2213.06
450	2474.06
450.221	2639.06
450.442	2585.06
450.662	2252.06
450.883	2044.06
451.104	1990.06
451.324	1997.06
451.545	2089.06
451.766	2057.06
451.986	1944.06
452.207	1937.06
452.428	1887.06
452.648	1878.06
452.869	1934.06
453.089	2071.06
453.31	2069.06
453.53	2155.06
453.751	2079.06
453.971	1928.06
454.192	1962.06
454.412	2123.06
454.633	2056.06
454.853	1974.06
455.073	1874.06
455.294	1852.06
455.514	1849.06
455.734	1853.06
455.955	1846.06
456.175	1883.06
456.395	1877.06
456.616	1947.06
456.836	1939.06
457.056	1893.06
457.276	1893.06
457.497	1890.06
457.717	1827.06
457.937	1838.06
458.157	1921.06
458.377	1877.06
458.598	1880.06
458.818	1845.06
459.038	2018.06
459.258	2145.06
459.478	2145.06
459.698	2064.06
459.918	2133.06
460.138	2207.06
460.358	2238.06
460.578	2256.06
460.798	2337.06
461.018	2472.06
461.238	2371.06
461.458	2286.06
461.678	2272.06
461.898	2265.06
462.118	2170.06
462.338	2269.06
462.558	2266.06
462.777	2271.06
462.997	2359.06
463.217	2549.06
463.437	2490.06
463.657	2338.06
463.876	2293.06
464.096	2258.06
464.316	2279.06
464.536	2361.06
464.755	2395.06
464.975	2401.06
465.195	2306.06
465.414	2369.06
465.634	2375.06
465.854	2220.06
466.073	2369.06
466.293	2339.06
466.512	2063.06
466.732	2039.06
466.951	2138.06
467.171	2118.06
467.391	2090.06
467.61	2009.06
467.829	2027.06
468.049	2209.06
468.268	2460.06
468.488	2275.06
468.707	2150.06
468.927	2085.06
469.146	2067.06
469.365	1992.06
469.585	2072.06
469.804	2018.06
470.023	2047.06
470.243	2116.06
470.462	2022.06
470.681	2004.06
470.901	2085.06
471.12	2069.06
471.339	2013.06
471.558	1942.06
471.777	1970.06
471.997	2010.06
472.216	1999.06
472.435	1945.06
472.654	1976.06
472.873	2094.06
473.092	2227.06
473.311	2075.06
473.53	1994.06
473.749	1981.06
473.968	2047.06
474.187	2100.06
474.406	2237.06
474.625	2131.06
474.844	2085.06
475.063	2083.06
475.282	2178.06
475.501	2095.06
475.72	2097.06
475.939	2242.06
476.158	2126.06
476.377	2075.06
476.596	2110.06
476.814	2187.06
477.033	2177.06
477.252	2284.06
477.471	2335.06
477.69	2253.06
477.908	2181.06
478.127	2325.06
478.346	2494.06
478.564	2508.06
478.783	2450.06
479.002	2510.06
479.22	2465.06
479.439	2549.06
479.658	2923.06
479.876	2855.06
480.095	2467.06
480.313	2415.06
480.532	2324.06
480.751	2357.06
480.969	2434.06
481.188	2381.06
481.406	2370.06
481.624	2261.06
481.843	2323.06
482.061	2341.06
482.28	2361.06
482.498	2397.06
482.717	2368.06
482.935	2330.06
483.153	2310.06
483.372	2292.06
483.59	2277.06
483.808	2319.06
484.027	2382.06
484.245	2479.06
484.463	2926.06
484.681	3317.06
484.9	2556.06
485.118	2399.06
485.336	2404.06
485.554	2428.06
485.772	2580.06
485.99	2520.06
486.209	2497.06
486.427	2499.06
486.645	2483.06
486.863	2436.06
487.081	2503.06
487.299	2536.06
487.517	2488.06
487.735	2445.06
487.953	2413.06
488.171	2405.06
488.389	2409.06
488.607	2407.06
488.825	2631.06
489.043	2713.06
489.261	2411.06
489.479	2515.06
489.696	2589.06
489.914	2549.06
490.132	2508.06
490.35	2426.06
490.568	2534.06
490.786	2446.06
491.003	2310.06
491.221	2450.06
491.439	2537.06
491.657	2484.06
491.874	2473.06
492.092	2529.06
492.31	2502.06
492.527	2503.06
492.745	2469.06
492.963	2476.06
493.18	2564.06
493.398	2733.06
493.615	2754.06
493.833	2507.06
494.05	2534.06
494.268	2512.06
494.485	2560.06
494.703	2547.06
494.92	2472.06
495.138	2492.06
495.355	2553.06
495.573	2622.06
495.79	2750.06
496.008	2820.06
496.225	2637.06
496.442	2619.06
496.66	2729.06
496.877	2633.06
497.094	2761.06
497.312	2798.06
497.529	2706.06
497.746	2791.06
497.963	3211.06
498.181	3669.06
498.398	3375.06
498.615	3381.06
498.832	3246.06
499.049	3219.06
499.267	3258.06
499.484	3477.06
499.701	3726.06
499.918	3776.06
500.135	3985.06
500.352	4390.06
500.569	4323.06
500.786	4476.06
501.003	4295.06
501.22	3831.06
501.437	3769.06
501.654	3730.06
501.871	3621.06
502.088	3215.06
502.305	3255.06
502.522	3110.06
502.739	2866.06
502.956	2825.06
503.172	2772.06
503.389	2682.06
503.606	2659.06
503.823	2679.06
504.04	2690.06
504.256	2666.06
504.473	2677.06
504.69	2787.06
504.907	2609.06
505.123	2513.06
505.34	2577.06
505.557	3411.06
505.773	2925.06
505.99	2455.06
506.207	2323.06
506.423	2273.06
506.64	2208.06
506.856	2281.06
507.073	2646.06
507.289	2819.06
507.506	2661.06
507.722	2337.06
507.939	2173.06
508.155	2252.06
508.372	2243.06
508.588	2175.06
508.805	2081.06
509.021	2112.06
509.238	2104.06
509.454	2042.06
509.67	2040.06
509.887	2070.06
510.103	2034.06
510.319	2083.06
510.536	2153.06
510.752	2229.06
510.968	2221.06
511.184	2366.06
511.401	2337.06
511.617	2069.06
511.833	1983.06
512.049	1966.06
512.265	2030.06
512.481	1946.06
512.698	2056.06
512.914	2203.06
513.13	2142.06
513.346	2017.06
513.562	1971.06
513.778	2010.06
513.994	2122.06
514.21	2134.06
514.426	2219.06
514.642	2417.06
514.858	2331.06
515.074	2110.06
515.29	2065.06
515.506	2085.06
515.721	2152.06
515.937	2149.06
516.153	2410.06
516.369	2365.06
516.585	2234.06
516.801	2117.06
517.016	2125.06
517.232	2178.06
517.448	2223.06
517.664	2225.06
517.879	2191.06
518.095	2339.06
518.311	2282.06
518.527	2127.06
518.742	2100.06
518.958	2006.06
519.173	2025.06
519.389	2043.06
519.605	2105.06
519.82	2115.06
520.036	2106.06
520.251	2027.06
520.467	2011.06
520.682	2248.06
520.898	2310.06
521.113	2036.06
521.329	2019.06
521.544	2148.06
521.76	2042.06
521.975	1975.06
522.19	1938.06
522.406	1948.06
522.621	2376.06
522.836	2377.06
523.052	1920.06
523.267	1953.06
523.482	1946.06
523.698	1851.06
523.913	1806.06
524.128	1863.06
524.343	1964.06
524.559	1942.06
524.774	1877.06
524.989	1867.06
525.204	1829.06
525.419	1814.06
525.634	1816.06
525.849	1843.06
526.064	1873.06
526.28	1878.06
526.495	1778.06
526.71	1778.06
526.925	1762.06
527.14	1777.06
527.355	1762.06
527.57	1763.06
527.785	1800.06
527.999	1783.06
528.214	1728.06
528.429	1700.06
528.644	1714.06
528.859	1750.06
529.074	1737.06
529.289	1771.06
529.503	1774.06
529.718	1775.06
529.933	1710.06
530.148	1678.06
530.363	1711.06
530.577	1738.06
530.792	1723.06
531.007	1810.06
531.221	1761.06
531.436	1784.06
531.651	1837.06
531.865	1920.06
532.08	1836.06
532.295	1773.06
532.509	1645.06
532.724	1703.06
532.938	1829.06
533.153	1892.06
533.367	1780.06
533.582	1750.06
533.796	1748.06
534.011	1759.06
534.225	1772.06
534.44	1707.06
534.654	1720.06
534.868	1696.06
535.083	1767.06
535.297	1830.06
535.511	1755.06
535.726	1740.06
535.94	1720.06
536.154	1713.06
536.369	1745.06
536.583	1662.06
536.797	1649.06
537.011	1747.06
537.225	1658.06
537.44	1622.06
537.654	1699.06
537.868	1634.06
538.082	1578.06
538.296	1589.06
538.51	1593.06
538.724	1593.06
538.938	1573.06
539.153	1629.06
539.367	1650.06
539.581	1654.06
539.795	1710.06
540.009	1709.06
540.222	1643.06
540.436	1679.06
540.65	1827.06
540.864	1818.06
541.078	1720.06
541.292	1625.06
541.506	1622.06
541.72	1655.06
541.934	1635.06
542.147	1701.06
542.361	1621.06
542.575	1600.06
542.789	1529.06
543.002	1510.06
543.216	1581.06
543.43	1663.06
543.644	1723.06
543.857	1799.06
544.071	1696.06
544.285	1659.06
544.498	1644.06
544.712	1615.06
544.925	1677.06
545.139	1683.06
545.352	1627.06
545.566	1546.06
545.779	1529.06
545.993	1548.06
546.206	1600.06
546.42	1548.06
546.633	1491.06
546.847	1523.06
547.06	1538.06
547.274	1543.06
547.487	1504.06
547.7	1560.06
547.914	1542.06
548.127	1595.06
548.34	1576.06
548.554	1555.06
548.767	1546.06
548.98	1559.06
549.193	1567.06
549.407	1639.06
549.62	1630.06
549.833	1556.06
550.046	1538.06
550.259	1511.06
550.473	1543.06
550.686	1500.06
550.899	1488.06
551.112	1478.06
551.325	1453.06
551.538	1578.06
551.751	1826.06
551.964	1524.06
552.177	1477.06
552.39	1513.06
552.603	1513.06
552.816	1492.06
553.029	1593.06
553.242	1657.06
553.455	1543.06
553.667	1529.06
553.88	1557.06
554.093	1495.06
554.306	1479.06
554.519	1422.06
554.732	1411.06
554.944	1454.06
555.157	1461.06
555.37	1417.06
555.583	1444.06
555.795	1429.06
556.008	1370.06
556.221	1375.06
556.433	1335.06
556.646	1332.06
556.859	1366.06
557.071	1346.06
557.284	1294.06
557.496	1332.06
557.709	1303.06
557.921	1289.06
558.134	1273.06
558.346	1267.06
558.559	1271.06
558.771	1249.06
558.984	1205.06
559.196	1209.06
559.409	1226.06
559.621	1231.06
559.833	1267.06
560.046	1291.06
560.258	1274.06
560.47	1242.06
560.683	1293.06
560.895	1251.06
561.107	1246.06
561.32	1276.06
561.532	1291.06
561.744	1274.06
561.956	1276.06
562.168	1254.06
562.381	1198.06
562.593	1236.06
562.805	1234.06
563.017	1235.06
563.229	1216.06
563.441	1291.06
563.653	1250.06
563.865	1242.06
564.077	1260.06
564.289	1239.06
564.501	1237.06
564.713	1306.06
564.925	1294.06
565.137	1411.06
565.349	1311.06
565.561	1290.06
565.773	1299.06
565.985	1313.06
566.197	1429.06
566.408	1485.06
566.62	1496.06
566.832	1536.06
567.044	1527.06
567.255	1510.06
567.467	1547.06
567.679	1576.06
567.891	1631.06
568.102	1604.06
568.314	1527.06
568.526	1427.06
568.737	1363.06
568.949	1350.06
569.161	1276.06
569.372	1220.06
569.584	1246.06
569.795	1227.06
570.007	1167.06
570.218	1120.06
570.43	1123.06
570.641	1133.06
570.853	1145.06
571.064	1111.06
571.276	1097.06
571.487	1108.06
571.698	1067.06
571.91	1053.06
572.121	1034.06
572.333	1043.06
572.544	996.06
572.755	988.06
572.966	975.06
573.178	980.06
573.389	997.06
573.6	1016.06
573.811	1115.06
574.023	1001.06
574.234	1007.06
574.445	963.06
574.656	951.06
574.867	916.06
575.078	953.06
575.289	953.06
575.501	955.06
575.712	918.06
575.923	936.06
576.134	935.06
576.345	922.06
576.556	925.06
576.767	900.06
576.978	893.06
577.188	888.06
577.399	895.06
577.61	854.06
577.821	869.06
578.032	840.06
578.243	865.06
578.454	860.06
578.665	852.06
578.875	871.06
579.086	860.06
579.297	865.06
579.508	905.06
579.718	863.06
579.929	856.06
580.14	847.06
580.35	804.06
580.561	839.06
580.772	924.06
580.982	869.06
581.193	849.06
581.403	843.06
581.614	820.06
581.825	798.06
582.035	791.06
582.246	841.06
582.456	836.06
582.667	825.06
582.877	811.06
583.087	787.06
583.298	775.06
583.508	797.06
583.719	805.06
583.929	776.06
584.139	805.06
584.35	782.06
584.56	757.06
584.77	790.06
584.981	803.06
585.191	797.06
585.401	823.06
585.611	801.06
585.821	791.06
586.032	779.06
586.242	787.06
586.452	751.06
586.662	798.06
586.872	747.06
587.082	749.06
587.292	774.06
587.502	803.06
587.713	801.06
587.923	755.06
588.133	757.06
588.343	778.06
588.553	741.06
588.762	750.06
588.972	777.06
589.182	774.06
589.392	766.06
589.602	746.06
589.812	761.06
590.022	737.06
590.232	746.06
590.441	774.06
590.651	780.06
590.861	746.06
591.071	717.06
591.281	744.06
591.49	746.06
591.7	730.06
591.91	760.06
592.119	767.06
592.329	765.06
592.539	761.06
592.748	791.06
592.958	773.06
593.167	786.06
593.377	771.06
593.587	791.06
593.796	788.06
594.006	817.06
594.215	777.06
594.424	775.06
594.634	779.06
594.843	763.06
595.053	814.06
595.262	754.06
595.472	749.06
595.681	769.06
595.89	751.06
596.1	717.06
596.309	700.06
596.518	669.06
596.727	688.06
596.937	707.06
597.146	676.06
597.355	676.06
597.564	661.06
597.774	652.06
597.983	636.06
598.192	659.06
598.401	643.06
598.61	651.06
598.819	638.06
599.028	655.06
599.237	659.06
599.446	625.06
599.655	638.06
599.864	622.06
600.073	618.06
600.282	622.06
600.491	590.06
600.7	610.06
600.909	626.06
601.118	619.06
601.327	628.06
601.536	633.06
601.745	595.06
601.953	594.06
602.162	618.06
602.371	620.06
602.58	615.06
602.789	604.06
602.997	598.06
603.206	610.06
603.415	591.06
603.623	574.06
603.832	587.06
604.041	611.06
604.249	590.06
604.458	578.06
604.666	579.06
604.875	601.06
605.084	595.06
605.292	599.06
605.501	605.06
605.709	587.06
605.918	593.06
606.126	581.06
606.334	549.06
606.543	555.06
606.751	553.06
606.96	581.06
607.168	579.06
607.376	572.06
607.585	548.06
607.793	567.06
608.001	565.06
608.21	585.06
608.418	560.06
608.626	565.06
608.834	552.06
609.043	571.06
609.251	554.06
609.459	559.06
609.667	540.06
609.875	554.06
610.083	564.06
610.291	579.06
610.499	575.06
610.707	520.06
610.916	543.06
611.124	528.06
611.332	559.06
611.54	565.06
611.748	567.06
611.955	522.06
612.163	526.06
612.371	543.06
612.579	507.06
612.787	527.06
612.995	548.06
613.203	552.06
613.411	525.06
613.618	538.06
613.826	531.06
614.034	520.06
614.242	546.06
614.449	524.06
614.657	537.06
614.865	522.06
615.072	521.06
615.28	526.06
615.488	538.06
615.695	561.06
615.903	551.06
616.111	521.06
616.318	531.06
616.526	545.06
616.733	525.06
616.941	519.06
617.148	508.06
617.356	506.06
617.563	500.06
617.771	526.06
617.978	484.06
618.185	515.06
618.393	535.06
618.6	510.06
618.807	505.06
619.015	507.06
619.222	502.06
619.429	509.06
619.637	477.06
619.844	491.06
620.051	500.06
620.258	501.06
620.466	499.06
620.673	482.06
620.88	444.06
621.087	448.06
621.294	455.06
621.501	471.06
621.708	479.06
621.915	458.06
622.122	477.06
622.329	485.06
622.536	492.06
622.743	467.06
622.95	441.06
623.157	423.06
623.364	447.06
623.571	447.06
623.778	469.06
623.985	454.06
624.192	475.06
624.399	464.06
624.606	449.06
624.812	460.06
625.019	435.06
625.226	440.06
625.433	425.06
625.639	433.06
625.846	431.06
626.053	439.06
626.259	428.06
626.466	438.06
626.673	412.06
626.879	417.06
627.086	409.06
627.293	409.06
627.499	419.06
627.706	411.06
627.912	419.06
628.119	414.06
628.325	440.06
628.532	418.06
628.738	411.06
628.945	423.06
629.151	416.06
629.357	425.06
629.564	415.06
629.77	392.06
629.976	395.06
630.183	409.06
630.389	393.06
630.595	409.06
630.802	383.06
631.008	403.06
631.214	376.06
631.42	371.06
631.627	384.06
631.833	385.06
632.039	373.06
632.245	398.06
632.451	379.06
632.657	374.06
632.863	388.06
633.069	387.06
633.275	383.06
633.481	381.06
633.688	385.06
633.893	391.06
634.099	382.06
634.305	372.06
634.511	331.06
634.717	355.06
634.923	353.06
635.129	336.06
635.335	354.06
635.541	356.06
635.747	371.06
635.952	357.06
636.158	365.06
636.364	388.06
636.57	364.06
636.775	339.06
636.981	379.06
637.187	355.06
637.392	348.06
637.598	348.06
637.804	370.06
638.009	354.06
638.215	362.06
638.421	350.06
638.626	350.06
638.832	346.06
639.037	330.06
639.243	344.06
639.448	344.06
639.654	342.06
639.859	342.06
640.065	342.06
640.27	334.06
640.475	348.06
640.681	342.06
640.886	318.06
641.091	324.06
641.297	339.06
641.502	330.06
641.707	325.06
641.913	342.06
642.118	328.06
642.323	323.06
642.528	331.06
642.733	319.06
642.939	324.06
643.144	314.06
643.349	325.06
643.554	317.06
643.759	330.06
643.964	333.06
644.169	305.06
644.374	322.06
644.579	329.06
644.784	340.06
644.989	318.06
645.194	312.06
645.399	316.06
645.604	333.06
645.809	313.06
646.014	324.06
646.219	316.06
646.423	325.06
646.628	327.06
646.833	330.06
647.038	305.06
647.243	333.06
647.447	309.06
647.652	325.06
647.857	307.06
648.062	329.06
648.266	323.06
648.471	304.06
648.676	346.06
648.88	337.06
649.085	335.06
649.289	334.06
649.494	307.06
649.698	324.06
649.903	307.06
650.107	299.06
650.312	288.06
650.516	302.06
650.721	298.06
650.925	278.06
651.13	289.06
651.334	293.06
651.539	279.06
651.743	283.06
651.947	266.06
652.152	270.06
652.356	287.06
652.56	272.06
652.764	263.06
652.969	267.06
653.173	251.06
653.377	249.06
653.581	255.06
653.785	252.06
653.99	232.06
654.194	236.06
654.398	252.06
654.602	244.06
654.806	246.06
655.01	246.06
655.214	234.06
655.418	245.06
655.622	245.06
655.826	276.06
656.03	274.06
656.234	283.06
656.438	288.06
656.642	284.06
656.846	252.06
657.049	248.06
657.253	218.06
657.457	206.06
657.661	190.06
657.865	184.06
658.068	189.06
658.272	172.06
658.476	162.06
658.68	165.06
658.883	153.06
659.087	150.06
659.291	157.06
659.494	137.06
659.698	132.06
659.901	132.06
660.105	143.06
660.309	126.06
660.512	120.06
660.716	115.06
660.919	126.06
661.123	121.06
661.326	95.06
661.53	126.06
661.733	109.06
661.936	95.06
662.14	96.06
662.343	98.06
662.546	87.06
662.75	88.06
662.953	98.06
663.156	91.06
663.36	105.06
663.563	100.06
663.766	90.06
663.969	88.06
664.173	95.06
664.376	99.06
664.579	92.06
664.782	75.06
664.985	89.06
665.188	76.06
665.391	93.06
665.594	83.06
665.797	73.06
666	77.06
666.203	89.06
666.406	65.06
666.609	89.06
666.812	89.06
667.015	91.06
667.218	87.06
667.421	85.06
667.624	84.06
667.827	92.06
668.03	75.06
668.232	76.06
668.435	79.06
668.638	85.06
668.841	87.06
669.043	81.06
669.246	88.06
669.449	91.06
669.651	77.06
669.854	83.06
670.057	82.06
670.259	77.06
670.462	84.06
670.665	88.06
670.867	78.06
671.07	103.06
671.272	74.06
671.475	83.06
671.677	89.06
671.88	89.06
672.082	83.06
672.284	82.06
672.487	87.06
672.689	86.06
672.892	87.06
