Data from WStandard_LampEnergy8_LIBS07252019.E.O._I.C._HRD10591_15-57-45-928.txt Node
Date: Thu Jul 25 15:57:45 EDT 2019
User: cochatt
Spectrometer: HR+D1059
Trigger mode: 1
Integration Time (sec): 1.000000E-1
Scans to average: 1
Electric dark correction enabled: true
Nonlinearity correction enabled: false
Boxcar width: 0
XAxis mode: Wavelengths
Number of Pixels in Spectrum: 2048
>>>>>Begin Spectral Data<<<<<
223.165	-18.88
223.4	-18.88
223.635	-18.88
223.869	-13.88
224.104	-22.88
224.338	-16.88
224.573	-22.88
224.808	-8.88
225.042	1.12
225.277	-11.88
225.511	-15.88
225.746	11.12
225.98	9.12
226.215	14.12
226.449	21.12
226.683	17.12
226.918	19.12
227.152	39.12
227.387	20.12
227.621	28.12
227.856	50.12
228.09	41.12
228.324	45.12
228.559	59.12
228.793	98.12
229.027	217.12
229.262	205.12
229.496	215.12
229.73	228.12
229.964	268.12
230.199	266.12
230.433	278.12
230.667	281.12
230.901	289.12
231.136	261.12
231.37	269.12
231.604	257.12
231.838	279.12
232.072	272.12
232.306	260.12
232.541	283.12
232.775	330.12
233.009	334.12
233.243	338.12
233.477	295.12
233.711	309.12
233.945	324.12
234.179	325.12
234.413	340.12
234.647	367.12
234.881	335.12
235.115	305.12
235.349	329.12
235.583	320.12
235.817	312.12
236.051	296.12
236.285	329.12
236.519	339.12
236.753	377.12
236.987	373.12
237.221	365.12
237.455	397.12
237.689	399.12
237.922	393.12
238.156	361.12
238.39	359.12
238.624	383.12
238.858	391.12
239.091	421.12
239.325	437.12
239.559	486.12
239.793	515.12
240.027	562.12
240.26	515.12
240.494	401.12
240.728	387.12
240.961	384.12
241.195	423.12
241.429	459.12
241.662	449.12
241.896	413.12
242.13	415.12
242.363	474.12
242.597	487.12
242.83	498.12
243.064	465.12
243.298	487.12
243.531	478.12
243.765	487.12
243.998	494.12
244.232	435.12
244.465	407.12
244.699	454.12
244.932	498.12
245.166	535.12
245.399	533.12
245.633	486.12
245.866	477.12
246.099	519.12
246.333	492.12
246.566	499.12
246.8	553.12
247.033	629.12
247.266	580.12
247.5	549.12
247.733	575.12
247.966	593.12
248.2	636.12
248.433	645.12
248.666	647.12
248.899	699.12
249.133	792.12
249.366	823.12
249.599	723.12
249.832	627.12
250.066	658.12
250.299	656.12
250.532	629.12
250.765	565.12
250.998	623.12
251.231	630.12
251.465	623.12
251.698	620.12
251.931	608.12
252.164	649.12
252.397	655.12
252.63	635.12
252.863	583.12
253.096	595.12
253.329	617.12
253.562	628.12
253.795	661.12
254.028	657.12
254.261	610.12
254.494	590.12
254.727	595.12
254.96	630.12
255.193	661.12
255.426	749.12
255.659	826.12
255.892	817.12
256.124	692.12
256.357	703.12
256.59	751.12
256.823	755.12
257.056	738.12
257.289	860.12
257.521	951.12
257.754	879.12
257.987	825.12
258.22	905.12
258.452	861.12
258.685	733.12
258.918	717.12
259.151	688.12
259.383	676.12
259.616	624.12
259.849	659.12
260.081	734.12
260.314	797.12
260.547	873.12
260.779	883.12
261.012	810.12
261.244	737.12
261.477	719.12
261.71	730.12
261.942	717.12
262.175	728.12
262.407	747.12
262.64	708.12
262.872	667.12
263.105	630.12
263.337	674.12
263.57	679.12
263.802	668.12
264.035	657.12
264.267	623.12
264.499	594.12
264.732	653.12
264.964	679.12
265.197	693.12
265.429	727.12
265.661	831.12
265.894	916.12
266.126	915.12
266.358	823.12
266.591	871.12
266.823	892.12
267.055	817.12
267.287	835.12
267.52	795.12
267.752	793.12
267.984	804.12
268.216	851.12
268.448	851.12
268.681	816.12
268.913	789.12
269.145	733.12
269.377	740.12
269.609	813.12
269.841	948.12
270.073	1085.12
270.306	1151.12
270.538	1213.12
270.77	1042.12
271.002	883.12
271.234	860.12
271.466	851.12
271.698	989.12
271.93	1129.12
272.162	1083.12
272.394	1007.12
272.626	964.12
272.858	851.12
273.09	744.12
273.322	746.12
273.553	695.12
273.785	733.12
274.017	766.12
274.249	808.12
274.481	777.12
274.713	746.12
274.945	731.12
275.176	743.12
275.408	715.12
275.64	727.12
275.872	723.12
276.104	788.12
276.335	889.12
276.567	961.12
276.799	952.12
277.031	865.12
277.262	859.12
277.494	871.12
277.726	975.12
277.957	921.12
278.189	840.12
278.421	809.12
278.652	797.12
278.884	771.12
279.115	785.12
279.347	777.12
279.579	771.12
279.81	802.12
280.042	877.12
280.273	902.12
280.505	927.12
280.736	911.12
280.968	864.12
281.199	792.12
281.431	698.12
281.662	751.12
281.894	779.12
282.125	807.12
282.356	837.12
282.588	815.12
282.819	811.12
283.051	885.12
283.282	945.12
283.513	912.12
283.745	809.12
283.976	748.12
284.207	768.12
284.439	790.12
284.67	808.12
284.901	804.12
285.132	823.12
285.364	828.12
285.595	826.12
285.826	801.12
286.057	799.12
286.288	808.12
286.52	852.12
286.751	898.12
286.982	918.12
287.213	820.12
287.444	796.12
287.675	754.12
287.906	857.12
288.138	871.12
288.369	839.12
288.6	771.12
288.831	774.12
289.062	791.12
289.293	792.12
289.524	800.12
289.755	836.12
289.986	792.12
290.217	775.12
290.448	784.12
290.679	801.12
290.91	821.12
291.141	854.12
291.371	867.12
291.602	846.12
291.833	833.12
292.064	862.12
292.295	854.12
292.526	909.12
292.757	935.12
292.987	861.12
293.218	856.12
293.449	909.12
293.68	1038.12
293.91	1095.12
294.141	1035.12
294.372	945.12
294.603	988.12
294.833	1011.12
295.064	938.12
295.295	898.12
295.525	832.12
295.756	794.12
295.987	760.12
296.217	785.12
296.448	782.12
296.679	795.12
296.909	802.12
297.14	791.12
297.37	841.12
297.601	909.12
297.831	953.12
298.062	921.12
298.292	845.12
298.523	823.12
298.753	822.12
298.984	859.12
299.214	853.12
299.445	869.12
299.675	894.12
299.905	861.12
300.136	851.12
300.366	849.12
300.597	810.12
300.827	821.12
301.057	853.12
301.288	899.12
301.518	909.12
301.748	883.12
301.979	975.12
302.209	968.12
302.439	1048.12
302.669	1074.12
302.9	978.12
303.13	894.12
303.36	887.12
303.59	905.12
303.82	915.12
304.051	917.12
304.281	925.12
304.511	925.12
304.741	975.12
304.971	1073.12
305.201	1123.12
305.431	1022.12
305.661	845.12
305.891	773.12
306.121	809.12
306.352	836.12
306.582	901.12
306.812	959.12
307.042	1015.12
307.272	1025.12
307.502	1043.12
307.731	1132.12
307.961	1157.12
308.191	1058.12
308.421	913.12
308.651	861.12
308.881	855.12
309.111	875.12
309.341	834.12
309.571	842.12
309.8	869.12
310.03	873.12
310.26	852.12
310.49	855.12
310.72	913.12
310.949	923.12
311.179	898.12
311.409	907.12
311.639	907.12
311.868	875.12
312.098	899.12
312.328	873.12
312.557	865.12
312.787	922.12
313.017	918.12
313.246	906.12
313.476	920.12
313.706	935.12
313.935	905.12
314.165	953.12
314.394	993.12
314.624	1027.12
314.853	1059.12
315.083	1138.12
315.312	1107.12
315.542	1016.12
315.771	953.12
316.001	949.12
316.23	1001.12
316.46	991.12
316.689	990.12
316.919	932.12
317.148	880.12
317.377	929.12
317.607	1024.12
317.836	1128.12
318.065	1134.12
318.295	1099.12
318.524	1062.12
318.753	976.12
318.983	991.12
319.212	962.12
319.441	944.12
319.67	978.12
319.9	977.12
320.129	1005.12
320.358	1069.12
320.587	1120.12
320.816	1085.12
321.046	1073.12
321.275	1011.12
321.504	1015.12
321.733	1058.12
321.962	1054.12
322.191	987.12
322.42	971.12
322.649	955.12
322.878	951.12
323.108	970.12
323.337	1029.12
323.566	1014.12
323.795	1008.12
324.024	1035.12
324.253	1002.12
324.482	965.12
324.71	927.12
324.939	895.12
325.168	932.12
325.397	988.12
325.626	1000.12
325.855	1022.12
326.084	1001.12
326.313	979.12
326.542	948.12
326.77	1025.12
326.999	996.12
327.228	982.12
327.457	890.12
327.686	888.12
327.914	945.12
328.143	954.12
328.372	953.12
328.6	988.12
328.829	929.12
329.058	976.12
329.287	951.12
329.515	973.12
329.744	1010.12
329.972	1056.12
330.201	1083.12
330.43	1079.12
330.658	1030.12
330.887	1038.12
331.115	1063.12
331.344	1035.12
331.572	1007.12
331.801	1021.12
332.03	1007.12
332.258	1043.12
332.486	1075.12
332.715	1071.12
332.943	1049.12
333.172	1027.12
333.4	1026.12
333.629	1066.12
333.857	1148.12
334.085	1294.12
334.314	1444.12
334.542	1519.12
334.771	1369.12
334.999	1244.12
335.227	1143.12
335.455	1073.12
335.684	1093.12
335.912	1131.12
336.14	1145.12
336.369	1106.12
336.597	1065.12
336.825	1047.12
337.053	1090.12
337.281	1160.12
337.51	1253.12
337.738	1228.12
337.966	1147.12
338.194	1054.12
338.422	1009.12
338.65	1017.12
338.878	964.12
339.106	960.12
339.334	970.12
339.562	977.12
339.79	986.12
340.018	1040.12
340.246	1111.12
340.474	1083.12
340.702	1072.12
340.93	1078.12
341.158	1077.12
341.386	1037.12
341.614	1052.12
341.842	987.12
342.07	1008.12
342.298	1072.12
342.526	1057.12
342.754	1013.12
342.981	1013.12
343.209	1024.12
343.437	1021.12
343.665	994.12
343.893	1048.12
344.12	1118.12
344.348	1085.12
344.576	1002.12
344.804	1015.12
345.031	1014.12
345.259	1027.12
345.487	983.12
345.714	947.12
345.942	929.12
346.17	976.12
346.397	971.12
346.625	982.12
346.853	899.12
347.08	907.12
347.308	918.12
347.535	948.12
347.763	975.12
347.99	960.12
348.218	947.12
348.445	959.12
348.673	948.12
348.9	994.12
349.128	1030.12
349.355	1055.12
349.583	1032.12
349.81	953.12
350.037	871.12
350.265	873.12
350.492	938.12
350.72	938.12
350.947	991.12
351.174	991.12
351.402	933.12
351.629	897.12
351.856	880.12
352.083	898.12
352.311	901.12
352.538	963.12
352.765	971.12
352.992	973.12
353.22	927.12
353.447	935.12
353.674	946.12
353.901	954.12
354.128	928.12
354.355	936.12
354.583	990.12
354.81	1029.12
355.037	978.12
355.264	999.12
355.491	949.12
355.718	935.12
355.945	930.12
356.172	918.12
356.399	915.12
356.626	920.12
356.853	979.12
357.08	1075.12
357.307	1162.12
357.534	1151.12
357.761	1004.12
357.988	899.12
358.215	886.12
358.441	903.12
358.668	910.12
358.895	931.12
359.122	986.12
359.349	1085.12
359.576	1060.12
359.802	951.12
360.029	931.12
360.256	907.12
360.483	905.12
360.709	977.12
360.936	1008.12
361.163	1070.12
361.39	1150.12
361.616	1224.12
361.843	1202.12
362.07	1101.12
362.296	987.12
362.523	924.12
362.749	945.12
362.976	964.12
363.203	986.12
363.429	947.12
363.656	937.12
363.882	978.12
364.109	1102.12
364.335	1139.12
364.562	1087.12
364.788	1028.12
365.015	969.12
365.241	954.12
365.468	953.12
365.694	1028.12
365.92	1027.12
366.147	964.12
366.373	957.12
366.599	962.12
366.826	898.12
367.052	907.12
367.278	923.12
367.505	972.12
367.731	978.12
367.957	963.12
368.184	1041.12
368.41	1103.12
368.636	1117.12
368.862	1091.12
369.089	1109.12
369.315	1044.12
369.541	1030.12
369.767	976.12
369.993	947.12
370.219	925.12
370.445	1011.12
370.672	1047.12
370.898	1117.12
371.124	1083.12
371.35	1012.12
371.576	1064.12
371.802	1080.12
372.028	1045.12
372.254	976.12
372.48	965.12
372.706	989.12
372.932	959.12
373.158	986.12
373.384	1015.12
373.61	1081.12
373.835	1068.12
374.061	1023.12
374.287	1013.12
374.513	1008.12
374.739	1008.12
374.965	1031.12
375.191	1019.12
375.416	1028.12
375.642	1071.12
375.868	1116.12
376.094	1153.12
376.319	1082.12
376.545	1021.12
376.771	1067.12
376.997	1117.12
377.222	1103.12
377.448	1057.12
377.674	1075.12
377.899	1083.12
378.125	1170.12
378.35	1101.12
378.576	1037.12
378.802	978.12
379.027	977.12
379.253	1023.12
379.478	1018.12
379.704	1020.12
379.929	1023.12
380.155	1008.12
380.38	1023.12
380.606	1043.12
380.831	1053.12
381.057	1117.12
381.282	1074.12
381.507	1084.12
381.733	1176.12
381.958	1190.12
382.184	1094.12
382.409	1045.12
382.634	1082.12
382.86	1063.12
383.085	1052.12
383.31	1107.12
383.535	1236.12
383.761	1249.12
383.986	1209.12
384.211	1156.12
384.436	1168.12
384.662	1210.12
384.887	1250.12
385.112	1140.12
385.337	1164.12
385.562	1174.12
385.787	1198.12
386.013	1190.12
386.238	1214.12
386.463	1173.12
386.688	1297.12
386.913	1354.12
387.138	1295.12
387.363	1225.12
387.588	1217.12
387.813	1226.12
388.038	1209.12
388.263	1251.12
388.488	1173.12
388.713	1109.12
388.938	1116.12
389.163	1106.12
389.387	1153.12
389.612	1153.12
389.837	1175.12
390.062	1177.12
390.287	1160.12
390.512	1159.12
390.736	1144.12
390.961	1143.12
391.186	1104.12
391.411	1090.12
391.636	1151.12
391.86	1132.12
392.085	1149.12
392.31	1136.12
392.534	1177.12
392.759	1154.12
392.984	1174.12
393.208	1183.12
393.433	1234.12
393.658	1259.12
393.882	1237.12
394.107	1204.12
394.331	1147.12
394.556	1147.12
394.78	1211.12
395.005	1209.12
395.229	1276.12
395.454	1347.12
395.678	1306.12
395.903	1264.12
396.127	1255.12
396.352	1232.12
396.576	1265.12
396.801	1329.12
397.025	1280.12
397.249	1285.12
397.474	1242.12
397.698	1243.12
397.922	1309.12
398.147	1378.12
398.371	1403.12
398.595	1386.12
398.82	1338.12
399.044	1361.12
399.268	1391.12
399.492	1484.12
399.717	1503.12
399.941	1524.12
400.165	1527.12
400.389	1456.12
400.613	1499.12
400.837	1731.12
401.062	1904.12
401.286	1599.12
401.51	1452.12
401.734	1531.12
401.958	1463.12
402.182	1361.12
402.406	1297.12
402.63	1297.12
402.854	1330.12
403.078	1360.12
403.302	1333.12
403.526	1369.12
403.75	1396.12
403.974	1436.12
404.198	1425.12
404.422	1456.12
404.645	1559.12
404.869	1516.12
405.093	1347.12
405.317	1351.12
405.541	1363.12
405.765	1394.12
405.988	1397.12
406.212	1394.12
406.436	1446.12
406.66	1493.12
406.883	1543.12
407.107	1773.12
407.331	1880.12
407.555	1979.12
407.778	1702.12
408.002	1443.12
408.226	1449.12
408.449	1505.12
408.673	1404.12
408.896	1408.12
409.12	1444.12
409.344	1376.12
409.567	1348.12
409.791	1428.12
410.014	1425.12
410.238	1514.12
410.461	1581.12
410.685	1404.12
410.908	1343.12
411.132	1393.12
411.355	1378.12
411.578	1347.12
411.802	1368.12
412.025	1391.12
412.249	1327.12
412.472	1304.12
412.695	1322.12
412.919	1341.12
413.142	1282.12
413.365	1331.12
413.589	1400.12
413.812	1448.12
414.035	1509.12
414.258	1376.12
414.482	1311.12
414.705	1364.12
414.928	1324.12
415.151	1327.12
415.374	1317.12
415.597	1341.12
415.821	1372.12
416.044	1393.12
416.267	1374.12
416.49	1315.12
416.713	1318.12
416.936	1350.12
417.159	1414.12
417.382	1378.12
417.605	1351.12
417.828	1356.12
418.051	1338.12
418.274	1363.12
418.497	1307.12
418.72	1330.12
418.943	1315.12
419.166	1341.12
419.389	1361.12
419.611	1336.12
419.834	1332.12
420.057	1336.12
420.28	1309.12
420.503	1285.12
420.726	1351.12
420.948	1356.12
421.171	1293.12
421.394	1331.12
421.617	1368.12
421.839	1361.12
422.062	1385.12
422.285	1304.12
422.507	1289.12
422.73	1282.12
422.953	1272.12
423.175	1244.12
423.398	1289.12
423.621	1327.12
423.843	1305.12
424.066	1371.12
424.288	1405.12
424.511	1439.12
424.733	1381.12
424.956	1307.12
425.178	1219.12
425.401	1279.12
425.623	1293.12
425.846	1294.12
426.068	1351.12
426.291	1378.12
426.513	1347.12
426.735	1380.12
426.958	1469.12
427.18	1511.12
427.402	1409.12
427.625	1449.12
427.847	1437.12
428.069	1298.12
428.292	1296.12
428.514	1255.12
428.736	1259.12
428.958	1309.12
429.181	1301.12
429.403	1499.12
429.625	1844.12
429.847	1491.12
430.069	1320.12
430.292	1459.12
430.514	1531.12
430.736	1403.12
430.958	1443.12
431.18	1312.12
431.402	1261.12
431.624	1243.12
431.846	1222.12
432.068	1130.12
432.29	1186.12
432.512	1216.12
432.734	1265.12
432.956	1300.12
433.178	1380.12
433.4	1329.12
433.622	1353.12
433.844	1282.12
434.066	1196.12
434.287	1216.12
434.509	1257.12
434.731	1346.12
434.953	1411.12
435.175	1397.12
435.397	1327.12
435.618	1270.12
435.84	1273.12
436.062	1271.12
436.284	1295.12
436.505	1321.12
436.727	1303.12
436.949	1306.12
437.17	1267.12
437.392	1267.12
437.614	1253.12
437.835	1225.12
438.057	1250.12
438.278	1277.12
438.5	1245.12
438.721	1265.12
438.943	1242.12
439.165	1251.12
439.386	1271.12
439.608	1307.12
439.829	1250.12
440.05	1271.12
440.272	1226.12
440.493	1269.12
440.715	1293.12
440.936	1367.12
441.158	1428.12
441.379	1397.12
441.6	1401.12
441.822	1403.12
442.043	1392.12
442.264	1361.12
442.486	1293.12
442.707	1279.12
442.928	1279.12
443.149	1303.12
443.371	1371.12
443.592	1400.12
443.813	1425.12
444.034	1418.12
444.255	1379.12
444.476	1436.12
444.698	1455.12
444.919	1397.12
445.14	1530.12
445.361	1516.12
445.582	1476.12
445.803	1447.12
446.024	1424.12
446.245	1471.12
446.466	1416.12
446.687	1352.12
446.908	1333.12
447.129	1347.12
447.35	1326.12
447.571	1330.12
447.792	1284.12
448.013	1277.12
448.234	1343.12
448.455	1354.12
448.675	1349.12
448.896	1213.12
449.117	1242.12
449.338	1255.12
449.559	1310.12
449.779	1380.12
450	1446.12
450.221	1539.12
450.442	1484.12
450.662	1330.12
450.883	1220.12
451.104	1211.12
451.324	1235.12
451.545	1239.12
451.766	1224.12
451.986	1173.12
452.207	1150.12
452.428	1117.12
452.648	1107.12
452.869	1145.12
453.089	1174.12
453.31	1171.12
453.53	1220.12
453.751	1129.12
453.971	1115.12
454.192	1118.12
454.412	1157.12
454.633	1185.12
454.853	1133.12
455.073	1095.12
455.294	1087.12
455.514	1096.12
455.734	1082.12
455.955	1096.12
456.175	1109.12
456.395	1110.12
456.616	1112.12
456.836	1120.12
457.056	1088.12
457.276	1106.12
457.497	1108.12
457.717	1042.12
457.937	1065.12
458.157	1076.12
458.377	1077.12
458.598	1056.12
458.818	1078.12
459.038	1119.12
459.258	1194.12
459.478	1165.12
459.698	1149.12
459.918	1166.12
460.138	1275.12
460.358	1274.12
460.578	1271.12
460.798	1289.12
461.018	1392.12
461.238	1310.12
461.458	1317.12
461.678	1258.12
461.898	1251.12
462.118	1245.12
462.338	1291.12
462.558	1306.12
462.777	1288.12
462.997	1322.12
463.217	1394.12
463.437	1380.12
463.657	1297.12
463.876	1268.12
464.096	1287.12
464.316	1282.12
464.536	1332.12
464.755	1353.12
464.975	1338.12
465.195	1303.12
465.414	1359.12
465.634	1359.12
465.854	1349.12
466.073	1461.12
466.293	1379.12
466.512	1254.12
466.732	1244.12
466.951	1291.12
467.171	1275.12
467.391	1235.12
467.61	1211.12
467.829	1268.12
468.049	1394.12
468.268	1537.12
468.488	1403.12
468.707	1290.12
468.927	1250.12
469.146	1236.12
469.365	1271.12
469.585	1237.12
469.804	1217.12
470.023	1293.12
470.243	1265.12
470.462	1256.12
470.681	1271.12
470.901	1252.12
471.12	1269.12
471.339	1256.12
471.558	1235.12
471.777	1210.12
471.997	1206.12
472.216	1215.12
472.435	1173.12
472.654	1136.12
472.873	1180.12
473.092	1263.12
473.311	1238.12
473.53	1151.12
473.749	1171.12
473.968	1192.12
474.187	1206.12
474.406	1281.12
474.625	1236.12
474.844	1224.12
475.063	1213.12
475.282	1268.12
475.501	1223.12
475.72	1211.12
475.939	1369.12
476.158	1231.12
476.377	1229.12
476.596	1223.12
476.814	1259.12
477.033	1256.12
477.252	1321.12
477.471	1322.12
477.69	1287.12
477.908	1308.12
478.127	1378.12
478.346	1484.12
478.564	1474.12
478.783	1453.12
479.002	1479.12
479.22	1452.12
479.439	1503.12
479.658	1633.12
479.876	1542.12
480.095	1467.12
480.313	1375.12
480.532	1313.12
480.751	1338.12
480.969	1323.12
481.188	1276.12
481.406	1288.12
481.624	1257.12
481.843	1318.12
482.061	1340.12
482.28	1357.12
482.498	1388.12
482.717	1329.12
482.935	1324.12
483.153	1359.12
483.372	1405.12
483.59	1367.12
483.808	1394.12
484.027	1379.12
484.245	1511.12
484.463	1803.12
484.681	1978.12
484.9	1523.12
485.118	1412.12
485.336	1404.12
485.554	1421.12
485.772	1431.12
485.99	1405.12
486.209	1408.12
486.427	1394.12
486.645	1421.12
486.863	1479.12
487.081	1505.12
487.299	1471.12
487.517	1489.12
487.735	1475.12
487.953	1543.12
488.171	1551.12
488.389	1495.12
488.607	1489.12
488.825	1686.12
489.043	1589.12
489.261	1419.12
489.479	1503.12
489.696	1479.12
489.914	1511.12
490.132	1494.12
490.35	1494.12
490.568	1587.12
490.786	1554.12
491.003	1510.12
491.221	1523.12
491.439	1599.12
491.657	1627.12
491.874	1599.12
492.092	1687.12
492.31	1750.12
492.527	1673.12
492.745	1621.12
492.963	1615.12
493.18	1667.12
493.398	1760.12
493.615	1754.12
493.833	1638.12
494.05	1614.12
494.268	1591.12
494.485	1599.12
494.703	1573.12
494.92	1566.12
495.138	1588.12
495.355	1590.12
495.573	1671.12
495.79	1750.12
496.008	1723.12
496.225	1647.12
496.442	1629.12
496.66	1636.12
496.877	1608.12
497.094	1661.12
497.312	1687.12
497.529	1664.12
497.746	1669.12
497.963	1898.12
498.181	2033.12
498.398	1923.12
498.615	1919.12
498.832	1849.12
499.049	1844.12
499.267	1824.12
499.484	1954.12
499.701	2049.12
499.918	2086.12
500.135	2255.12
500.352	2402.12
500.569	2386.12
500.786	2592.12
501.003	2361.12
501.22	2153.12
501.437	2077.12
501.654	2135.12
501.871	2045.12
502.088	1840.12
502.305	1796.12
502.522	1751.12
502.739	1663.12
502.956	1594.12
503.172	1580.12
503.389	1540.12
503.606	1493.12
503.823	1493.12
504.04	1524.12
504.256	1563.12
504.473	1541.12
504.69	1597.12
504.907	1503.12
505.123	1441.12
505.34	1608.12
505.557	2098.12
505.773	1745.12
505.99	1466.12
506.207	1333.12
506.423	1337.12
506.64	1336.12
506.856	1360.12
507.073	1586.12
507.289	1651.12
507.506	1587.12
507.722	1329.12
507.939	1280.12
508.155	1301.12
508.372	1284.12
508.588	1255.12
508.805	1192.12
509.021	1184.12
509.238	1221.12
509.454	1153.12
509.67	1181.12
509.887	1160.12
510.103	1166.12
510.319	1182.12
510.536	1196.12
510.752	1244.12
510.968	1276.12
511.184	1342.12
511.401	1286.12
511.617	1141.12
511.833	1118.12
512.049	1130.12
512.265	1139.12
512.481	1114.12
512.698	1178.12
512.914	1221.12
513.13	1204.12
513.346	1162.12
513.562	1143.12
513.778	1167.12
513.994	1235.12
514.21	1202.12
514.426	1249.12
514.642	1380.12
514.858	1258.12
515.074	1148.12
515.29	1186.12
515.506	1171.12
515.721	1201.12
515.937	1198.12
516.153	1347.12
516.369	1267.12
516.585	1233.12
516.801	1173.12
517.016	1176.12
517.232	1216.12
517.448	1234.12
517.664	1219.12
517.879	1249.12
518.095	1291.12
518.311	1275.12
518.527	1207.12
518.742	1205.12
518.958	1139.12
519.173	1160.12
519.389	1166.12
519.605	1191.12
519.82	1193.12
520.036	1193.12
520.251	1148.12
520.467	1196.12
520.682	1252.12
520.898	1282.12
521.113	1154.12
521.329	1159.12
521.544	1256.12
521.76	1157.12
521.975	1123.12
522.19	1109.12
522.406	1150.12
522.621	1443.12
522.836	1368.12
523.052	1122.12
523.267	1166.12
523.482	1125.12
523.698	1107.12
523.913	1076.12
524.128	1129.12
524.343	1172.12
524.559	1203.12
524.774	1104.12
524.989	1115.12
525.204	1078.12
525.419	1055.12
525.634	1061.12
525.849	1088.12
526.064	1065.12
526.28	1070.12
526.495	1025.12
526.71	1030.12
526.925	1027.12
527.14	1017.12
527.355	988.12
527.57	989.12
527.785	1042.12
527.999	1020.12
528.214	1026.12
528.429	1025.12
528.644	1036.12
528.859	1056.12
529.074	1095.12
529.289	1151.12
529.503	1136.12
529.718	1098.12
529.933	1045.12
530.148	1027.12
530.363	990.12
530.577	1017.12
530.792	1045.12
531.007	1022.12
531.221	1002.12
531.436	998.12
531.651	1055.12
531.865	1089.12
532.08	1049.12
532.295	981.12
532.509	954.12
532.724	950.12
532.938	1042.12
533.153	1087.12
533.367	1033.12
533.582	1056.12
533.796	1028.12
534.011	1051.12
534.225	1025.12
534.44	954.12
534.654	996.12
534.868	1000.12
535.083	1052.12
535.297	1084.12
535.511	1023.12
535.726	1045.12
535.94	999.12
536.154	981.12
536.369	973.12
536.583	961.12
536.797	938.12
537.011	997.12
537.225	948.12
537.44	938.12
537.654	1003.12
537.868	963.12
538.082	919.12
538.296	924.12
538.51	972.12
538.724	994.12
538.938	996.12
539.153	1032.12
539.367	1036.12
539.581	993.12
539.795	992.12
540.009	964.12
540.222	1003.12
540.436	969.12
540.65	1101.12
540.864	1109.12
541.078	1079.12
541.292	1081.12
541.506	1095.12
541.72	1123.12
541.934	1173.12
542.147	1233.12
542.361	1125.12
542.575	1091.12
542.789	1040.12
543.002	989.12
543.216	970.12
543.43	1043.12
543.644	1079.12
543.857	1152.12
544.071	1146.12
544.285	1125.12
544.498	1105.12
544.712	1104.12
544.925	1112.12
545.139	1134.12
545.352	1098.12
545.566	1059.12
545.779	1113.12
545.993	1100.12
546.206	1133.12
546.42	1084.12
546.633	1096.12
546.847	1087.12
547.06	1090.12
547.274	1123.12
547.487	1104.12
547.7	1093.12
547.914	1107.12
548.127	1116.12
548.34	1065.12
548.554	1082.12
548.767	1077.12
548.98	1096.12
549.193	1066.12
549.407	1120.12
549.62	1115.12
549.833	1047.12
550.046	1060.12
550.259	1059.12
550.473	1045.12
550.686	1068.12
550.899	1029.12
551.112	1001.12
551.325	994.12
551.538	1069.12
551.751	1171.12
551.964	949.12
552.177	918.12
552.39	993.12
552.603	1011.12
552.816	1033.12
553.029	1067.12
553.242	1078.12
553.455	1077.12
553.667	1037.12
553.88	1059.12
554.093	1034.12
554.306	1001.12
554.519	983.12
554.732	964.12
554.944	981.12
555.157	1012.12
555.37	969.12
555.583	986.12
555.795	957.12
556.008	934.12
556.221	883.12
556.433	874.12
556.646	891.12
556.859	897.12
557.071	869.12
557.284	888.12
557.496	913.12
557.709	883.12
557.921	885.12
558.134	893.12
558.346	899.12
558.559	856.12
558.771	863.12
558.984	829.12
559.196	830.12
559.409	812.12
559.621	795.12
559.833	823.12
560.046	871.12
560.258	818.12
560.47	841.12
560.683	843.12
560.895	857.12
561.107	833.12
561.32	859.12
561.532	861.12
561.744	830.12
561.956	815.12
562.168	786.12
562.381	787.12
562.593	784.12
562.805	812.12
563.017	779.12
563.229	816.12
563.441	815.12
563.653	791.12
563.865	778.12
564.077	798.12
564.289	791.12
564.501	797.12
564.713	841.12
564.925	838.12
565.137	917.12
565.349	843.12
565.561	821.12
565.773	806.12
565.985	848.12
566.197	869.12
566.408	935.12
566.62	890.12
566.832	905.12
567.044	907.12
567.255	892.12
567.467	885.12
567.679	942.12
567.891	945.12
568.102	912.12
568.314	869.12
568.526	806.12
568.737	777.12
568.949	751.12
569.161	706.12
569.372	718.12
569.584	685.12
569.795	677.12
570.007	681.12
570.218	649.12
570.43	644.12
570.641	659.12
570.853	679.12
571.064	656.12
571.276	708.12
571.487	674.12
571.698	669.12
571.91	637.12
572.121	618.12
572.333	632.12
572.544	608.12
572.755	589.12
572.966	603.12
573.178	573.12
573.389	588.12
573.6	624.12
573.811	673.12
574.023	613.12
574.234	568.12
574.445	560.12
574.656	533.12
574.867	563.12
575.078	593.12
575.289	586.12
575.501	547.12
575.712	549.12
575.923	560.12
576.134	571.12
576.345	564.12
576.556	565.12
576.767	548.12
576.978	566.12
577.188	549.12
577.399	544.12
577.61	531.12
577.821	541.12
578.032	500.12
578.243	530.12
578.454	525.12
578.665	512.12
578.875	526.12
579.086	504.12
579.297	501.12
579.508	557.12
579.718	522.12
579.929	520.12
580.14	511.12
580.35	500.12
580.561	543.12
580.772	573.12
580.982	529.12
581.193	521.12
581.403	504.12
581.614	484.12
581.825	471.12
582.035	489.12
582.246	480.12
582.456	474.12
582.667	507.12
582.877	461.12
583.087	478.12
583.298	483.12
583.508	480.12
583.719	481.12
583.929	503.12
584.139	494.12
584.35	464.12
584.56	469.12
584.77	469.12
584.981	483.12
585.191	486.12
585.401	495.12
585.611	477.12
585.821	467.12
586.032	464.12
586.242	433.12
586.452	441.12
586.662	481.12
586.872	460.12
587.082	448.12
587.292	469.12
587.502	479.12
587.713	471.12
587.923	486.12
588.133	474.12
588.343	450.12
588.553	461.12
588.762	451.12
588.972	442.12
589.182	471.12
589.392	465.12
589.602	441.12
589.812	436.12
590.022	440.12
590.232	441.12
590.441	467.12
590.651	461.12
590.861	443.12
591.071	435.12
591.281	455.12
591.49	451.12
591.7	463.12
591.91	459.12
592.119	445.12
592.329	443.12
592.539	482.12
592.748	458.12
592.958	459.12
593.167	474.12
593.377	491.12
593.587	478.12
593.796	447.12
594.006	473.12
594.215	465.12
594.424	486.12
594.634	472.12
594.843	475.12
595.053	480.12
595.262	478.12
595.472	466.12
595.681	458.12
595.89	436.12
596.1	423.12
596.309	457.12
596.518	435.12
596.727	485.12
596.937	444.12
597.146	422.12
597.355	435.12
597.564	424.12
597.774	417.12
597.983	390.12
598.192	380.12
598.401	397.12
598.61	410.12
598.819	436.12
599.028	427.12
599.237	411.12
599.446	424.12
599.655	411.12
599.864	395.12
600.073	369.12
600.282	411.12
600.491	385.12
600.7	399.12
600.909	408.12
601.118	379.12
601.327	410.12
601.536	423.12
601.745	431.12
601.953	411.12
602.162	415.12
602.371	435.12
602.58	435.12
602.789	406.12
602.997	406.12
603.206	412.12
603.415	400.12
603.623	404.12
603.832	415.12
604.041	414.12
604.249	393.12
604.458	377.12
604.666	372.12
604.875	397.12
605.084	406.12
605.292	405.12
605.501	403.12
605.709	412.12
605.918	420.12
606.126	411.12
606.334	392.12
606.543	411.12
606.751	419.12
606.96	382.12
607.168	401.12
607.376	423.12
607.585	400.12
607.793	422.12
608.001	397.12
608.21	409.12
608.418	395.12
608.626	404.12
608.834	391.12
609.043	405.12
609.251	403.12
609.459	405.12
609.667	402.12
609.875	413.12
610.083	421.12
610.291	411.12
610.499	413.12
610.707	419.12
610.916	387.12
611.124	392.12
611.332	403.12
611.54	391.12
611.748	397.12
611.955	398.12
612.163	398.12
612.371	386.12
612.579	410.12
612.787	379.12
612.995	412.12
613.203	405.12
613.411	395.12
613.618	401.12
613.826	395.12
614.034	403.12
614.242	394.12
614.449	391.12
614.657	391.12
614.865	384.12
615.072	388.12
615.28	379.12
615.488	401.12
615.695	422.12
615.903	413.12
616.111	389.12
616.318	427.12
616.526	405.12
616.733	380.12
616.941	381.12
617.148	382.12
617.356	379.12
617.563	393.12
617.771	398.12
617.978	401.12
618.185	388.12
618.393	395.12
618.6	395.12
618.807	385.12
619.015	379.12
619.222	371.12
619.429	356.12
619.637	358.12
619.844	355.12
620.051	345.12
620.258	369.12
620.466	367.12
620.673	370.12
620.88	350.12
621.087	339.12
621.294	367.12
621.501	350.12
621.708	328.12
621.915	348.12
622.122	382.12
622.329	377.12
622.536	362.12
622.743	358.12
622.95	354.12
623.157	350.12
623.364	342.12
623.571	330.12
623.778	362.12
623.985	369.12
624.192	359.12
624.399	340.12
624.606	354.12
624.812	332.12
625.019	337.12
625.226	313.12
625.433	345.12
625.639	322.12
625.846	316.12
626.053	321.12
626.259	312.12
626.466	281.12
626.673	280.12
626.879	295.12
627.086	282.12
627.293	310.12
627.499	319.12
627.706	325.12
627.912	325.12
628.119	313.12
628.325	319.12
628.532	335.12
628.738	319.12
628.945	315.12
629.151	321.12
629.357	322.12
629.564	328.12
629.77	313.12
629.976	303.12
630.183	299.12
630.389	299.12
630.595	307.12
630.802	279.12
631.008	309.12
631.214	307.12
631.42	307.12
631.627	307.12
631.833	293.12
632.039	276.12
632.245	293.12
632.451	312.12
632.657	287.12
632.863	282.12
633.069	250.12
633.275	296.12
633.481	280.12
633.688	297.12
633.893	272.12
634.099	279.12
634.305	277.12
634.511	275.12
634.717	270.12
634.923	259.12
635.129	268.12
635.335	265.12
635.541	283.12
635.747	270.12
635.952	267.12
636.158	279.12
636.364	284.12
636.57	307.12
636.775	287.12
636.981	273.12
637.187	271.12
637.392	288.12
637.598	270.12
637.804	285.12
638.009	291.12
638.215	272.12
638.421	279.12
638.626	292.12
638.832	283.12
639.037	291.12
639.243	265.12
639.448	270.12
639.654	267.12
639.859	257.12
640.065	275.12
640.27	271.12
640.475	251.12
640.681	263.12
640.886	263.12
641.091	274.12
641.297	279.12
641.502	278.12
641.707	250.12
641.913	273.12
642.118	268.12
642.323	263.12
642.528	277.12
642.733	268.12
642.939	256.12
643.144	264.12
643.349	270.12
643.554	255.12
643.759	276.12
643.964	264.12
644.169	259.12
644.374	251.12
644.579	272.12
644.784	276.12
644.989	266.12
645.194	252.12
645.399	242.12
645.604	269.12
645.809	272.12
646.014	265.12
646.219	263.12
646.423	264.12
646.628	255.12
646.833	246.12
647.038	250.12
647.243	257.12
647.447	281.12
647.652	259.12
647.857	259.12
648.062	256.12
648.266	251.12
648.471	257.12
648.676	269.12
648.88	256.12
649.085	249.12
649.289	269.12
649.494	242.12
649.698	250.12
649.903	251.12
650.107	259.12
650.312	261.12
650.516	225.12
650.721	252.12
650.925	252.12
651.13	263.12
651.334	253.12
651.539	246.12
651.743	211.12
651.947	239.12
652.152	236.12
652.356	229.12
652.56	228.12
652.764	240.12
652.969	231.12
653.173	216.12
653.377	225.12
653.581	206.12
653.785	227.12
653.99	216.12
654.194	230.12
654.398	226.12
654.602	223.12
654.806	216.12
655.01	212.12
655.214	218.12
655.418	223.12
655.622	227.12
655.826	228.12
656.03	230.12
656.234	243.12
656.438	260.12
656.642	255.12
656.846	246.12
657.049	222.12
657.253	216.12
657.457	212.12
657.661	186.12
657.865	195.12
658.068	168.12
658.272	175.12
658.476	172.12
658.68	156.12
658.883	141.12
659.087	148.12
659.291	135.12
659.494	152.12
659.698	145.12
659.901	137.12
660.105	142.12
660.309	133.12
660.512	112.12
660.716	127.12
660.919	121.12
661.123	112.12
661.326	132.12
661.53	119.12
661.733	109.12
661.936	104.12
662.14	83.12
662.343	99.12
662.546	104.12
662.75	95.12
662.953	91.12
663.156	82.12
663.36	85.12
663.563	99.12
663.766	97.12
663.969	96.12
664.173	95.12
664.376	88.12
664.579	85.12
664.782	86.12
664.985	89.12
665.188	94.12
665.391	89.12
665.594	79.12
665.797	82.12
666	91.12
666.203	86.12
666.406	90.12
666.609	76.12
666.812	83.12
667.015	84.12
667.218	92.12
667.421	80.12
667.624	81.12
667.827	63.12
668.03	68.12
668.232	73.12
668.435	71.12
668.638	82.12
668.841	93.12
669.043	81.12
669.246	86.12
669.449	82.12
669.651	79.12
669.854	87.12
670.057	81.12
670.259	81.12
670.462	76.12
670.665	79.12
670.867	78.12
671.07	73.12
671.272	76.12
671.475	79.12
671.677	79.12
671.88	75.12
672.082	83.12
672.284	82.12
672.487	80.12
672.689	75.12
672.892	77.12
