Data from WStandard_LampEnergy5.5LIBS07252019.E.O._I.C._HRD10591_16-06-54-919.txt Node
Date: Thu Jul 25 16:06:54 EDT 2019
User: cochatt
Spectrometer: HR+D1059
Trigger mode: 1
Integration Time (sec): 1.000000E-1
Scans to average: 1
Electric dark correction enabled: true
Nonlinearity correction enabled: false
Boxcar width: 0
XAxis mode: Wavelengths
Number of Pixels in Spectrum: 2048
>>>>>Begin Spectral Data<<<<<
223.165	-23.88
223.4	-23.88
223.635	-23.88
223.869	-5.88
224.104	-19.88
224.338	-15.88
224.573	-15.88
224.808	-10.88
225.042	1.12
225.277	-7.88
225.511	2.12
225.746	2.12
225.98	2.12
226.215	1.12
226.449	25.12
226.683	19.12
226.918	23.12
227.152	24.12
227.387	32.12
227.621	21.12
227.856	36.12
228.09	33.12
228.324	51.12
228.559	52.12
228.793	146.12
229.027	373.12
229.262	384.12
229.496	418.12
229.73	416.12
229.964	468.12
230.199	467.12
230.433	484.12
230.667	519.12
230.901	552.12
231.136	483.12
231.37	474.12
231.604	454.12
231.838	480.12
232.072	497.12
232.306	480.12
232.541	499.12
232.775	592.12
233.009	640.12
233.243	601.12
233.477	554.12
233.711	570.12
233.945	596.12
234.179	575.12
234.413	618.12
234.647	656.12
234.881	610.12
235.115	567.12
235.349	574.12
235.583	594.12
235.817	556.12
236.051	550.12
236.285	570.12
236.519	619.12
236.753	678.12
236.987	711.12
237.221	687.12
237.455	786.12
237.689	736.12
237.922	696.12
238.156	698.12
238.39	690.12
238.624	752.12
238.858	777.12
239.091	802.12
239.325	831.12
239.559	956.12
239.793	985.12
240.027	1087.12
240.26	1095.12
240.494	786.12
240.728	724.12
240.961	745.12
241.195	776.12
241.429	866.12
241.662	839.12
241.896	786.12
242.13	800.12
242.363	879.12
242.597	924.12
242.83	923.12
243.064	938.12
243.298	980.12
243.531	961.12
243.765	970.12
243.998	974.12
244.232	842.12
244.465	803.12
244.699	825.12
244.932	930.12
245.166	1074.12
245.399	1010.12
245.633	955.12
245.866	922.12
246.099	978.12
246.333	1002.12
246.566	1008.12
246.8	1063.12
247.033	1240.12
247.266	1129.12
247.5	1090.12
247.733	1122.12
247.966	1169.12
248.2	1300.12
248.433	1229.12
248.666	1273.12
248.899	1386.12
249.133	1613.12
249.366	1850.12
249.599	1501.12
249.832	1328.12
250.066	1332.12
250.299	1355.12
250.532	1256.12
250.765	1144.12
250.998	1178.12
251.231	1288.12
251.465	1270.12
251.698	1227.12
251.931	1248.12
252.164	1253.12
252.397	1344.12
252.63	1312.12
252.863	1156.12
253.096	1118.12
253.329	1196.12
253.562	1213.12
253.795	1326.12
254.028	1346.12
254.261	1242.12
254.494	1240.12
254.727	1148.12
254.96	1204.12
255.193	1315.12
255.426	1498.12
255.659	1702.12
255.892	1755.12
256.124	1411.12
256.357	1383.12
256.59	1450.12
256.823	1485.12
257.056	1497.12
257.289	1763.12
257.521	1992.12
257.754	1803.12
257.987	1664.12
258.22	1862.12
258.452	1842.12
258.685	1466.12
258.918	1455.12
259.151	1442.12
259.383	1383.12
259.616	1231.12
259.849	1266.12
260.081	1451.12
260.314	1597.12
260.547	1814.12
260.779	1794.12
261.012	1712.12
261.244	1505.12
261.477	1388.12
261.71	1504.12
261.942	1480.12
262.175	1427.12
262.407	1546.12
262.64	1429.12
262.872	1337.12
263.105	1320.12
263.337	1343.12
263.57	1328.12
263.802	1361.12
264.035	1264.12
264.267	1196.12
264.499	1156.12
264.732	1232.12
264.964	1334.12
265.197	1398.12
265.429	1448.12
265.661	1656.12
265.894	1779.12
266.126	1847.12
266.358	1651.12
266.591	1735.12
266.823	1896.12
267.055	1697.12
267.287	1678.12
267.52	1618.12
267.752	1556.12
267.984	1624.12
268.216	1651.12
268.448	1711.12
268.681	1723.12
268.913	1580.12
269.145	1480.12
269.377	1428.12
269.609	1582.12
269.841	1802.12
270.073	2120.12
270.306	2386.12
270.538	2545.12
270.77	2139.12
271.002	1824.12
271.234	1753.12
271.466	1686.12
271.698	1904.12
271.93	2342.12
272.162	2313.12
272.394	2091.12
272.626	1993.12
272.858	1744.12
273.09	1490.12
273.322	1464.12
273.553	1371.12
273.785	1393.12
274.017	1503.12
274.249	1623.12
274.481	1659.12
274.713	1518.12
274.945	1455.12
275.176	1444.12
275.408	1452.12
275.64	1432.12
275.872	1378.12
276.104	1544.12
276.335	1696.12
276.567	1984.12
276.799	2007.12
277.031	1751.12
277.262	1655.12
277.494	1713.12
277.726	1948.12
277.957	1943.12
278.189	1754.12
278.421	1618.12
278.652	1543.12
278.884	1502.12
279.115	1520.12
279.347	1607.12
279.579	1515.12
279.81	1505.12
280.042	1690.12
280.273	1879.12
280.505	1874.12
280.736	1897.12
280.968	1780.12
281.199	1572.12
281.431	1460.12
281.662	1466.12
281.894	1498.12
282.125	1524.12
282.356	1574.12
282.588	1622.12
282.819	1573.12
283.051	1707.12
283.282	1844.12
283.513	1823.12
283.745	1584.12
283.976	1416.12
284.207	1450.12
284.439	1584.12
284.67	1540.12
284.901	1550.12
285.132	1617.12
285.364	1570.12
285.595	1570.12
285.826	1570.12
286.057	1557.12
286.288	1552.12
286.52	1605.12
286.751	1718.12
286.982	1787.12
287.213	1634.12
287.444	1511.12
287.675	1475.12
287.906	1594.12
288.138	1704.12
288.369	1664.12
288.6	1513.12
288.831	1504.12
289.062	1576.12
289.293	1546.12
289.524	1559.12
289.755	1590.12
289.986	1622.12
290.217	1498.12
290.448	1493.12
290.679	1566.12
290.91	1618.12
291.141	1644.12
291.371	1678.12
291.602	1664.12
291.833	1655.12
292.064	1706.12
292.295	1640.12
292.526	1742.12
292.757	1809.12
292.987	1656.12
293.218	1602.12
293.449	1668.12
293.68	1967.12
293.91	2139.12
294.141	1972.12
294.372	1820.12
294.603	1895.12
294.833	1996.12
295.064	1866.12
295.295	1715.12
295.525	1611.12
295.756	1549.12
295.987	1462.12
296.217	1467.12
296.448	1530.12
296.679	1560.12
296.909	1537.12
297.14	1508.12
297.37	1503.12
297.601	1650.12
297.831	1775.12
298.062	1796.12
298.292	1641.12
298.523	1540.12
298.753	1558.12
298.984	1604.12
299.214	1608.12
299.445	1602.12
299.675	1697.12
299.905	1652.12
300.136	1627.12
300.366	1590.12
300.597	1526.12
300.827	1543.12
301.057	1568.12
301.288	1655.12
301.518	1668.12
301.748	1703.12
301.979	1761.12
302.209	1797.12
302.439	1941.12
302.669	2050.12
302.9	1890.12
303.13	1698.12
303.36	1654.12
303.59	1760.12
303.82	1738.12
304.051	1675.12
304.281	1652.12
304.511	1690.12
304.741	1756.12
304.971	1976.12
305.201	2202.12
305.431	2009.12
305.661	1635.12
305.891	1491.12
306.121	1491.12
306.352	1522.12
306.582	1638.12
306.812	1703.12
307.042	1895.12
307.272	1867.12
307.502	1901.12
307.731	2070.12
307.961	2242.12
308.191	2054.12
308.421	1734.12
308.651	1620.12
308.881	1600.12
309.111	1619.12
309.341	1567.12
309.571	1612.12
309.8	1623.12
310.03	1618.12
310.26	1607.12
310.49	1592.12
310.72	1626.12
310.949	1730.12
311.179	1726.12
311.409	1676.12
311.639	1654.12
311.868	1617.12
312.098	1659.12
312.328	1610.12
312.557	1594.12
312.787	1658.12
313.017	1722.12
313.246	1720.12
313.476	1688.12
313.706	1770.12
313.935	1754.12
314.165	1723.12
314.394	1795.12
314.624	1871.12
314.853	1974.12
315.083	2044.12
315.312	2149.12
315.542	1979.12
315.771	1754.12
316.001	1726.12
316.23	1839.12
316.46	1860.12
316.689	1769.12
316.919	1710.12
317.148	1684.12
317.377	1667.12
317.607	1784.12
317.836	2010.12
318.065	2118.12
318.295	2031.12
318.524	1916.12
318.753	1884.12
318.983	1889.12
319.212	1771.12
319.441	1769.12
319.67	1729.12
319.9	1795.12
320.129	1874.12
320.358	1952.12
320.587	1988.12
320.816	1947.12
321.046	1966.12
321.275	1845.12
321.504	1857.12
321.733	2017.12
321.962	1977.12
322.191	1799.12
322.42	1762.12
322.649	1755.12
322.878	1756.12
323.108	1770.12
323.337	1850.12
323.566	1859.12
323.795	1836.12
324.024	1854.12
324.253	1794.12
324.482	1866.12
324.71	1748.12
324.939	1666.12
325.168	1690.12
325.397	1765.12
325.626	1837.12
325.855	1881.12
326.084	1796.12
326.313	1785.12
326.542	1822.12
326.77	1866.12
326.999	1875.12
327.228	1793.12
327.457	1666.12
327.686	1691.12
327.914	1723.12
328.143	1751.12
328.372	1778.12
328.6	1769.12
328.829	1779.12
329.058	1723.12
329.287	1735.12
329.515	1784.12
329.744	1786.12
329.972	1846.12
330.201	1979.12
330.43	1924.12
330.658	1846.12
330.887	1846.12
331.115	1871.12
331.344	1914.12
331.572	1870.12
331.801	1861.12
332.03	1822.12
332.258	1877.12
332.486	1902.12
332.715	1922.12
332.943	1916.12
333.172	1880.12
333.4	1910.12
333.629	1908.12
333.857	1992.12
334.085	2280.12
334.314	2577.12
334.542	2870.12
334.771	2592.12
334.999	2285.12
335.227	2178.12
335.455	2039.12
335.684	2003.12
335.912	2060.12
336.14	2187.12
336.369	2055.12
336.597	1934.12
336.825	1902.12
337.053	1937.12
337.281	2047.12
337.51	2148.12
337.738	2301.12
337.966	2200.12
338.194	1936.12
338.422	1841.12
338.65	1842.12
338.878	1857.12
339.106	1804.12
339.334	1781.12
339.562	1760.12
339.79	1811.12
340.018	1916.12
340.246	1979.12
340.474	1996.12
340.702	1897.12
340.93	1950.12
341.158	1907.12
341.386	1878.12
341.614	1864.12
341.842	1862.12
342.07	1876.12
342.298	1866.12
342.526	1894.12
342.754	1861.12
342.981	1776.12
343.209	1865.12
343.437	1818.12
343.665	1854.12
343.893	1886.12
344.12	1953.12
344.348	2002.12
344.576	1874.12
344.804	1868.12
345.031	1892.12
345.259	1878.12
345.487	1821.12
345.714	1706.12
345.942	1680.12
346.17	1682.12
346.397	1743.12
346.625	1802.12
346.853	1676.12
347.08	1635.12
347.308	1670.12
347.535	1688.12
347.763	1785.12
347.99	1742.12
348.218	1666.12
348.445	1716.12
348.673	1733.12
348.9	1746.12
349.128	1801.12
349.355	1884.12
349.583	1828.12
349.81	1742.12
350.037	1579.12
350.265	1590.12
350.492	1619.12
350.72	1637.12
350.947	1711.12
351.174	1819.12
351.402	1689.12
351.629	1616.12
351.856	1577.12
352.083	1551.12
352.311	1607.12
352.538	1699.12
352.765	1728.12
352.992	1770.12
353.22	1726.12
353.447	1637.12
353.674	1671.12
353.901	1718.12
354.128	1666.12
354.355	1611.12
354.583	1694.12
354.81	1771.12
355.037	1776.12
355.264	1747.12
355.491	1716.12
355.718	1742.12
355.945	1726.12
356.172	1638.12
356.399	1633.12
356.626	1617.12
356.853	1727.12
357.08	1804.12
357.307	2050.12
357.534	2044.12
357.761	1754.12
357.988	1640.12
358.215	1583.12
358.441	1635.12
358.668	1620.12
358.895	1623.12
359.122	1748.12
359.349	1914.12
359.576	1924.12
359.802	1726.12
360.029	1651.12
360.256	1649.12
360.483	1647.12
360.709	1659.12
360.936	1742.12
361.163	1806.12
361.39	1999.12
361.616	2127.12
361.843	2063.12
362.07	1952.12
362.296	1735.12
362.523	1635.12
362.749	1660.12
362.976	1731.12
363.203	1738.12
363.429	1694.12
363.656	1603.12
363.882	1694.12
364.109	1862.12
364.335	2067.12
364.562	1918.12
364.788	1812.12
365.015	1758.12
365.241	1634.12
365.468	1689.12
365.694	1782.12
365.92	1822.12
366.147	1792.12
366.373	1696.12
366.599	1617.12
366.826	1631.12
367.052	1626.12
367.278	1670.12
367.505	1733.12
367.731	1720.12
367.957	1745.12
368.184	1782.12
368.41	1868.12
368.636	1902.12
368.862	1914.12
369.089	1918.12
369.315	1832.12
369.541	1790.12
369.767	1725.12
369.993	1666.12
370.219	1628.12
370.445	1655.12
370.672	1836.12
370.898	1950.12
371.124	1914.12
371.35	1776.12
371.576	1820.12
371.802	1913.12
372.028	1862.12
372.254	1769.12
372.48	1683.12
372.706	1696.12
372.932	1681.12
373.158	1681.12
373.384	1728.12
373.61	1775.12
373.835	1878.12
374.061	1788.12
374.287	1750.12
374.513	1790.12
374.739	1765.12
374.965	1803.12
375.191	1821.12
375.416	1814.12
375.642	1843.12
375.868	1936.12
376.094	1948.12
376.319	1892.12
376.545	1787.12
376.771	1808.12
376.997	1916.12
377.222	1887.12
377.448	1817.12
377.674	1886.12
377.899	1827.12
378.125	1951.12
378.35	1956.12
378.576	1794.12
378.802	1679.12
379.027	1671.12
379.253	1722.12
379.478	1769.12
379.704	1711.12
379.929	1714.12
380.155	1766.12
380.38	1804.12
380.606	1787.12
380.831	1750.12
381.057	1856.12
381.282	1854.12
381.507	1838.12
381.733	1966.12
381.958	2058.12
382.184	1873.12
382.409	1860.12
382.634	1866.12
382.86	1812.12
383.085	1845.12
383.31	1884.12
383.535	2064.12
383.761	2137.12
383.986	2067.12
384.211	1970.12
384.436	1928.12
384.662	2094.12
384.887	2198.12
385.112	2066.12
385.337	2043.12
385.562	2036.12
385.787	2043.12
386.013	2112.12
386.238	2085.12
386.463	2072.12
386.688	2185.12
386.913	2335.12
387.138	2262.12
387.363	2101.12
387.588	2090.12
387.813	2095.12
388.038	2056.12
388.263	2161.12
388.488	2057.12
388.713	1894.12
388.938	1906.12
389.163	1940.12
389.387	2032.12
389.612	1955.12
389.837	2044.12
390.062	2101.12
390.287	2036.12
390.512	1966.12
390.736	1993.12
390.961	1983.12
391.186	1934.12
391.411	1904.12
391.636	1982.12
391.86	1966.12
392.085	1957.12
392.31	1954.12
392.534	1978.12
392.759	2020.12
392.984	2028.12
393.208	2081.12
393.433	2096.12
393.658	2174.12
393.882	2206.12
394.107	2065.12
394.331	1990.12
394.556	2008.12
394.78	2021.12
395.005	2103.12
395.229	2118.12
395.454	2322.12
395.678	2347.12
395.903	2267.12
396.127	2131.12
396.352	2126.12
396.576	2220.12
396.801	2249.12
397.025	2198.12
397.249	2183.12
397.474	2177.12
397.698	2115.12
397.922	2233.12
398.147	2286.12
398.371	2408.12
398.595	2421.12
398.82	2335.12
399.044	2378.12
399.268	2408.12
399.492	2591.12
399.717	2734.12
399.941	2720.12
400.165	2708.12
400.389	2595.12
400.613	2529.12
400.837	2766.12
401.062	3195.12
401.286	2786.12
401.51	2514.12
401.734	2685.12
401.958	2574.12
402.182	2364.12
402.406	2312.12
402.63	2308.12
402.854	2255.12
403.078	2290.12
403.302	2359.12
403.526	2385.12
403.75	2361.12
403.974	2413.12
404.198	2416.12
404.422	2480.12
404.645	2626.12
404.869	2558.12
405.093	2391.12
405.317	2310.12
405.541	2417.12
405.765	2426.12
405.988	2418.12
406.212	2442.12
406.436	2536.12
406.66	2566.12
406.883	2608.12
407.107	2905.12
407.331	3128.12
407.555	3392.12
407.778	3180.12
408.002	2625.12
408.226	2523.12
408.449	2545.12
408.673	2447.12
408.896	2457.12
409.12	2544.12
409.344	2425.12
409.567	2361.12
409.791	2468.12
410.014	2452.12
410.238	2580.12
410.461	2705.12
410.685	2494.12
410.908	2314.12
411.132	2357.12
411.355	2468.12
411.578	2322.12
411.802	2373.12
412.025	2358.12
412.249	2300.12
412.472	2296.12
412.695	2311.12
412.919	2310.12
413.142	2232.12
413.365	2300.12
413.589	2361.12
413.812	2430.12
414.035	2562.12
414.258	2325.12
414.482	2350.12
414.705	2284.12
414.928	2246.12
415.151	2307.12
415.374	2298.12
415.597	2329.12
415.821	2356.12
416.044	2413.12
416.267	2418.12
416.49	2190.12
416.713	2194.12
416.936	2249.12
417.159	2370.12
417.382	2389.12
417.605	2224.12
417.828	2311.12
418.051	2358.12
418.274	2224.12
418.497	2177.12
418.72	2222.12
418.943	2206.12
419.166	2376.12
419.389	2482.12
419.611	2317.12
419.834	2246.12
420.057	2326.12
420.28	2230.12
420.503	2218.12
420.726	2255.12
420.948	2267.12
421.171	2179.12
421.394	2215.12
421.617	2272.12
421.839	2235.12
422.062	2258.12
422.285	2203.12
422.507	2187.12
422.73	2169.12
422.953	2137.12
423.175	2107.12
423.398	2185.12
423.621	2172.12
423.843	2183.12
424.066	2248.12
424.288	2329.12
424.511	2330.12
424.733	2320.12
424.956	2124.12
425.178	2112.12
425.401	2141.12
425.623	2110.12
425.846	2128.12
426.068	2238.12
426.291	2294.12
426.513	2293.12
426.735	2260.12
426.958	2364.12
427.18	2529.12
427.402	2300.12
427.625	2400.12
427.847	2395.12
428.069	2242.12
428.292	2222.12
428.514	2091.12
428.736	2110.12
428.958	2082.12
429.181	2169.12
429.403	2374.12
429.625	2956.12
429.847	2659.12
430.069	2174.12
430.292	2414.12
430.514	2527.12
430.736	2336.12
430.958	2412.12
431.18	2288.12
431.402	2152.12
431.624	2128.12
431.846	2147.12
432.068	2124.12
432.29	2110.12
432.512	2185.12
432.734	2172.12
432.956	2223.12
433.178	2322.12
433.4	2317.12
433.622	2266.12
433.844	2215.12
434.066	2084.12
434.287	2099.12
434.509	2189.12
434.731	2336.12
434.953	2426.12
435.175	2456.12
435.397	2261.12
435.618	2277.12
435.84	2249.12
436.062	2224.12
436.284	2284.12
436.505	2265.12
436.727	2307.12
436.949	2230.12
437.17	2115.12
437.392	2166.12
437.614	2158.12
437.835	2075.12
438.057	2222.12
438.278	2361.12
438.5	2172.12
438.721	2147.12
438.943	2147.12
439.165	2122.12
439.386	2048.12
439.608	2112.12
439.829	2153.12
440.05	2158.12
440.272	2117.12
440.493	2066.12
440.715	2107.12
440.936	2308.12
441.158	2511.12
441.379	2514.12
441.6	2374.12
441.822	2326.12
442.043	2311.12
442.264	2183.12
442.486	2134.12
442.707	2111.12
442.928	2128.12
443.149	2188.12
443.371	2338.12
443.592	2391.12
443.813	2386.12
444.034	2376.12
444.255	2281.12
444.476	2393.12
444.698	2428.12
444.919	2391.12
445.14	2490.12
445.361	2506.12
445.582	2516.12
445.803	2436.12
446.024	2405.12
446.245	2442.12
446.466	2302.12
446.687	2265.12
446.908	2244.12
447.129	2173.12
447.35	2148.12
447.571	2217.12
447.792	2144.12
448.013	2110.12
448.234	2130.12
448.455	2239.12
448.675	2243.12
448.896	2054.12
449.117	1998.12
449.338	2097.12
449.559	2184.12
449.779	2293.12
450	2517.12
450.221	2732.12
450.442	2662.12
450.662	2354.12
450.883	2074.12
451.104	1995.12
451.324	2058.12
451.545	2084.12
451.766	2126.12
451.986	2001.12
452.207	1981.12
452.428	1931.12
452.648	1883.12
452.869	1984.12
453.089	2096.12
453.31	2111.12
453.53	2149.12
453.751	2098.12
453.971	1932.12
454.192	1998.12
454.412	2111.12
454.633	2056.12
454.853	2003.12
455.073	1854.12
455.294	1831.12
455.514	1888.12
455.734	1917.12
455.955	1956.12
456.175	1921.12
456.395	1931.12
456.616	2002.12
456.836	1995.12
457.056	1961.12
457.276	1979.12
457.497	1934.12
457.717	1843.12
457.937	1875.12
458.157	1955.12
458.377	1906.12
458.598	1859.12
458.818	1906.12
459.038	2066.12
459.258	2147.12
459.478	2178.12
459.698	2102.12
459.918	2145.12
460.138	2277.12
460.358	2313.12
460.578	2290.12
460.798	2389.12
461.018	2495.12
461.238	2394.12
461.458	2279.12
461.678	2303.12
461.898	2249.12
462.118	2160.12
462.338	2302.12
462.558	2291.12
462.777	2265.12
462.997	2367.12
463.217	2502.12
463.437	2535.12
463.657	2355.12
463.876	2313.12
464.096	2326.12
464.316	2289.12
464.536	2338.12
464.755	2366.12
464.975	2418.12
465.195	2301.12
465.414	2419.12
465.634	2450.12
465.854	2259.12
466.073	2466.12
466.293	2418.12
466.512	2098.12
466.732	2092.12
466.951	2174.12
467.171	2166.12
467.391	2066.12
467.61	1985.12
467.829	2068.12
468.049	2200.12
468.268	2564.12
468.488	2398.12
468.707	2216.12
468.927	2155.12
469.146	2100.12
469.365	2014.12
469.585	2078.12
469.804	2040.12
470.023	2069.12
470.243	2102.12
470.462	2102.12
470.681	2027.12
470.901	2107.12
471.12	2112.12
471.339	2043.12
471.558	1986.12
471.777	1990.12
471.997	2070.12
472.216	2067.12
472.435	1980.12
472.654	2008.12
472.873	2094.12
473.092	2241.12
473.311	2145.12
473.53	1975.12
473.749	1955.12
473.968	2037.12
474.187	2151.12
474.406	2263.12
474.625	2170.12
474.844	2071.12
475.063	2093.12
475.282	2140.12
475.501	2146.12
475.72	2124.12
475.939	2310.12
476.158	2155.12
476.377	2119.12
476.596	2132.12
476.814	2217.12
477.033	2174.12
477.252	2270.12
477.471	2390.12
477.69	2217.12
477.908	2239.12
478.127	2368.12
478.346	2485.12
478.564	2517.12
478.783	2475.12
479.002	2607.12
479.22	2545.12
479.439	2585.12
479.658	2904.12
479.876	2916.12
480.095	2558.12
480.313	2377.12
480.532	2329.12
480.751	2347.12
480.969	2400.12
481.188	2330.12
481.406	2287.12
481.624	2273.12
481.843	2270.12
482.061	2364.12
482.28	2386.12
482.498	2461.12
482.717	2446.12
482.935	2343.12
483.153	2326.12
483.372	2327.12
483.59	2270.12
483.808	2342.12
484.027	2352.12
484.245	2521.12
484.463	2908.12
484.681	3337.12
484.9	2614.12
485.118	2419.12
485.336	2386.12
485.554	2478.12
485.772	2536.12
485.99	2519.12
486.209	2542.12
486.427	2508.12
486.645	2508.12
486.863	2452.12
487.081	2484.12
487.299	2607.12
487.517	2556.12
487.735	2416.12
487.953	2414.12
488.171	2425.12
488.389	2392.12
488.607	2448.12
488.825	2646.12
489.043	2730.12
489.261	2464.12
489.479	2555.12
489.696	2612.12
489.914	2565.12
490.132	2531.12
490.35	2390.12
490.568	2560.12
490.786	2446.12
491.003	2334.12
491.221	2447.12
491.439	2538.12
491.657	2541.12
491.874	2554.12
492.092	2520.12
492.31	2514.12
492.527	2507.12
492.745	2468.12
492.963	2462.12
493.18	2612.12
493.398	2810.12
493.615	2840.12
493.833	2591.12
494.05	2534.12
494.268	2533.12
494.485	2627.12
494.703	2557.12
494.92	2451.12
495.138	2468.12
495.355	2544.12
495.573	2687.12
495.79	2806.12
496.008	2850.12
496.225	2663.12
496.442	2635.12
496.66	2723.12
496.877	2692.12
497.094	2774.12
497.312	2802.12
497.529	2760.12
497.746	2815.12
497.963	3288.12
498.181	3717.12
498.398	3437.12
498.615	3384.12
498.832	3262.12
499.049	3270.12
499.267	3221.12
499.484	3469.12
499.701	3752.12
499.918	3767.12
500.135	4024.12
500.352	4296.12
500.569	4233.12
500.786	4547.12
501.003	4224.12
501.22	3817.12
501.437	3803.12
501.654	3761.12
501.871	3645.12
502.088	3184.12
502.305	3220.12
502.522	3080.12
502.739	2873.12
502.956	2842.12
503.172	2826.12
503.389	2707.12
503.606	2626.12
503.823	2724.12
504.04	2687.12
504.256	2715.12
504.473	2701.12
504.69	2811.12
504.907	2625.12
505.123	2505.12
505.34	2647.12
505.557	3438.12
505.773	2950.12
505.99	2442.12
506.207	2331.12
506.423	2293.12
506.64	2279.12
506.856	2292.12
507.073	2655.12
507.289	2878.12
507.506	2718.12
507.722	2368.12
507.939	2196.12
508.155	2197.12
508.372	2262.12
508.588	2161.12
508.805	2126.12
509.021	2117.12
509.238	2078.12
509.454	2054.12
509.67	2090.12
509.887	2102.12
510.103	2055.12
510.319	2063.12
510.536	2209.12
510.752	2267.12
510.968	2253.12
511.184	2430.12
511.401	2352.12
511.617	2127.12
511.833	2004.12
512.049	2031.12
512.265	2018.12
512.481	1974.12
512.698	2028.12
512.914	2215.12
513.13	2132.12
513.346	2034.12
513.562	1967.12
513.778	2012.12
513.994	2112.12
514.21	2195.12
514.426	2208.12
514.642	2496.12
514.858	2318.12
515.074	2110.12
515.29	2056.12
515.506	2073.12
515.721	2151.12
515.937	2156.12
516.153	2503.12
516.369	2335.12
516.585	2235.12
516.801	2112.12
517.016	2131.12
517.232	2155.12
517.448	2251.12
517.664	2233.12
517.879	2239.12
518.095	2375.12
518.311	2222.12
518.527	2142.12
518.742	2100.12
518.958	2030.12
519.173	2033.12
519.389	2071.12
519.605	2040.12
519.82	2077.12
520.036	2112.12
520.251	2046.12
520.467	2050.12
520.682	2246.12
520.898	2309.12
521.113	2068.12
521.329	1997.12
521.544	2165.12
521.76	2114.12
521.975	1990.12
522.19	1928.12
522.406	1926.12
522.621	2325.12
522.836	2393.12
523.052	1907.12
523.267	1874.12
523.482	1948.12
523.698	1881.12
523.913	1815.12
524.128	1907.12
524.343	1931.12
524.559	2002.12
524.774	1899.12
524.989	1866.12
525.204	1878.12
525.419	1819.12
525.634	1794.12
525.849	1819.12
526.064	1842.12
526.28	1916.12
526.495	1824.12
526.71	1767.12
526.925	1842.12
527.14	1776.12
527.355	1771.12
527.57	1754.12
527.785	1844.12
527.999	1798.12
528.214	1725.12
528.429	1712.12
528.644	1730.12
528.859	1780.12
529.074	1771.12
529.289	1746.12
529.503	1742.12
529.718	1796.12
529.933	1744.12
530.148	1703.12
530.363	1699.12
530.577	1751.12
530.792	1751.12
531.007	1760.12
531.221	1754.12
531.436	1762.12
531.651	1811.12
531.865	1946.12
532.08	1872.12
532.295	1708.12
532.509	1620.12
532.724	1675.12
532.938	1750.12
533.153	1910.12
533.367	1804.12
533.582	1751.12
533.796	1756.12
534.011	1747.12
534.225	1747.12
534.44	1731.12
534.654	1697.12
534.868	1722.12
535.083	1826.12
535.297	1791.12
535.511	1717.12
535.726	1730.12
535.94	1712.12
536.154	1680.12
536.369	1690.12
536.583	1656.12
536.797	1666.12
537.011	1712.12
537.225	1661.12
537.44	1663.12
537.654	1723.12
537.868	1694.12
538.082	1582.12
538.296	1559.12
538.51	1570.12
538.724	1598.12
538.938	1602.12
539.153	1623.12
539.367	1646.12
539.581	1635.12
539.795	1739.12
540.009	1701.12
540.222	1654.12
540.436	1695.12
540.65	1819.12
540.864	1878.12
541.078	1754.12
541.292	1591.12
541.506	1612.12
541.72	1628.12
541.934	1632.12
542.147	1662.12
542.361	1641.12
542.575	1583.12
542.789	1597.12
543.002	1521.12
543.216	1570.12
543.43	1699.12
543.644	1775.12
543.857	1798.12
544.071	1682.12
544.285	1683.12
544.498	1620.12
544.712	1632.12
544.925	1617.12
545.139	1719.12
545.352	1586.12
545.566	1541.12
545.779	1504.12
545.993	1590.12
546.206	1599.12
546.42	1565.12
546.633	1518.12
546.847	1530.12
547.06	1510.12
547.274	1535.12
547.487	1490.12
547.7	1540.12
547.914	1549.12
548.127	1610.12
548.34	1611.12
548.554	1566.12
548.767	1594.12
548.98	1550.12
549.193	1594.12
549.407	1644.12
549.62	1634.12
549.833	1547.12
550.046	1538.12
550.259	1531.12
550.473	1509.12
550.686	1542.12
550.899	1483.12
551.112	1479.12
551.325	1466.12
551.538	1560.12
551.751	1872.12
551.964	1466.12
552.177	1428.12
552.39	1468.12
552.603	1511.12
552.816	1537.12
553.029	1558.12
553.242	1640.12
553.455	1533.12
553.667	1514.12
553.88	1550.12
554.093	1530.12
554.306	1466.12
554.519	1424.12
554.732	1394.12
554.944	1444.12
555.157	1474.12
555.37	1417.12
555.583	1458.12
555.795	1391.12
556.008	1342.12
556.221	1362.12
556.433	1329.12
556.646	1314.12
556.859	1342.12
557.071	1291.12
557.284	1315.12
557.496	1319.12
557.709	1296.12
557.921	1264.12
558.134	1279.12
558.346	1291.12
558.559	1272.12
558.771	1271.12
558.984	1269.12
559.196	1221.12
559.409	1236.12
559.621	1282.12
559.833	1250.12
560.046	1310.12
560.258	1290.12
560.47	1274.12
560.683	1254.12
560.895	1231.12
561.107	1267.12
561.32	1250.12
561.532	1302.12
561.744	1214.12
561.956	1273.12
562.168	1268.12
562.381	1213.12
562.593	1185.12
562.805	1210.12
563.017	1188.12
563.229	1230.12
563.441	1243.12
563.653	1225.12
563.865	1236.12
564.077	1198.12
564.289	1200.12
564.501	1250.12
564.713	1277.12
564.925	1340.12
565.137	1400.12
565.349	1301.12
565.561	1299.12
565.773	1308.12
565.985	1335.12
566.197	1410.12
566.408	1496.12
566.62	1499.12
566.832	1534.12
567.044	1518.12
567.255	1466.12
567.467	1541.12
567.679	1540.12
567.891	1580.12
568.102	1561.12
568.314	1485.12
568.526	1422.12
568.737	1380.12
568.949	1326.12
569.161	1262.12
569.372	1209.12
569.584	1176.12
569.795	1194.12
570.007	1193.12
570.218	1113.12
570.43	1144.12
570.641	1115.12
570.853	1094.12
571.064	1136.12
571.276	1056.12
571.487	1082.12
571.698	1093.12
571.91	1056.12
572.121	1058.12
572.333	1046.12
572.544	1022.12
572.755	992.12
572.966	988.12
573.178	990.12
573.389	1016.12
573.6	1035.12
573.811	1154.12
574.023	1009.12
574.234	966.12
574.445	945.12
574.656	936.12
574.867	922.12
575.078	946.12
575.289	950.12
575.501	924.12
575.712	928.12
575.923	912.12
576.134	956.12
576.345	931.12
576.556	908.12
576.767	892.12
576.978	898.12
577.188	871.12
577.399	868.12
577.61	884.12
577.821	870.12
578.032	858.12
578.243	869.12
578.454	836.12
578.665	852.12
578.875	828.12
579.086	820.12
579.297	834.12
579.508	914.12
579.718	875.12
579.929	859.12
580.14	836.12
580.35	807.12
580.561	843.12
580.772	934.12
580.982	865.12
581.193	826.12
581.403	827.12
581.614	812.12
581.825	792.12
582.035	814.12
582.246	780.12
582.456	823.12
582.667	803.12
582.877	825.12
583.087	795.12
583.298	775.12
583.508	799.12
583.719	810.12
583.929	829.12
584.139	810.12
584.35	778.12
584.56	775.12
584.77	758.12
584.981	789.12
585.191	796.12
585.401	818.12
585.611	798.12
585.821	767.12
586.032	770.12
586.242	770.12
586.452	763.12
586.662	775.12
586.872	757.12
587.082	751.12
587.292	788.12
587.502	805.12
587.713	789.12
587.923	746.12
588.133	759.12
588.343	788.12
588.553	760.12
588.762	757.12
588.972	730.12
589.182	774.12
589.392	769.12
589.602	762.12
589.812	766.12
590.022	739.12
590.232	723.12
590.441	743.12
590.651	776.12
590.861	752.12
591.071	770.12
591.281	725.12
591.49	757.12
591.7	762.12
591.91	729.12
592.119	744.12
592.329	751.12
592.539	771.12
592.748	774.12
592.958	774.12
593.167	776.12
593.377	779.12
593.587	767.12
593.796	772.12
594.006	788.12
594.215	783.12
594.424	760.12
594.634	759.12
594.843	769.12
595.053	791.12
595.262	782.12
595.472	735.12
595.681	741.12
595.89	743.12
596.1	726.12
596.309	699.12
596.518	687.12
596.727	705.12
596.937	702.12
597.146	663.12
597.355	650.12
597.564	653.12
597.774	674.12
597.983	666.12
598.192	623.12
598.401	648.12
598.61	663.12
598.819	630.12
599.028	651.12
599.237	626.12
599.446	626.12
599.655	602.12
599.864	624.12
600.073	632.12
600.282	597.12
600.491	597.12
600.7	608.12
600.909	592.12
601.118	585.12
601.327	611.12
601.536	611.12
601.745	610.12
601.953	595.12
602.162	609.12
602.371	600.12
602.58	597.12
602.789	597.12
602.997	582.12
603.206	615.12
603.415	584.12
603.623	594.12
603.832	587.12
604.041	579.12
604.249	590.12
604.458	575.12
604.666	595.12
604.875	570.12
605.084	558.12
605.292	569.12
605.501	569.12
605.709	576.12
605.918	568.12
606.126	536.12
606.334	571.12
606.543	581.12
606.751	562.12
606.96	572.12
607.168	565.12
607.376	554.12
607.585	540.12
607.793	548.12
608.001	547.12
608.21	560.12
608.418	565.12
608.626	532.12
608.834	568.12
609.043	546.12
609.251	569.12
609.459	554.12
609.667	558.12
609.875	553.12
610.083	555.12
610.291	565.12
610.499	575.12
610.707	565.12
610.916	527.12
611.124	523.12
611.332	531.12
611.54	527.12
611.748	540.12
611.955	559.12
612.163	519.12
612.371	535.12
612.579	533.12
612.787	535.12
612.995	522.12
613.203	530.12
613.411	521.12
613.618	524.12
613.826	523.12
614.034	503.12
614.242	547.12
614.449	528.12
614.657	523.12
614.865	542.12
615.072	535.12
615.28	522.12
615.488	540.12
615.695	569.12
615.903	531.12
616.111	530.12
616.318	536.12
616.526	487.12
616.733	521.12
616.941	529.12
617.148	491.12
617.356	492.12
617.563	500.12
617.771	512.12
617.978	466.12
618.185	487.12
618.393	485.12
618.6	496.12
618.807	523.12
619.015	500.12
619.222	497.12
619.429	494.12
619.637	482.12
619.844	475.12
620.051	474.12
620.258	494.12
620.466	479.12
620.673	475.12
620.88	449.12
621.087	470.12
621.294	455.12
621.501	465.12
621.708	463.12
621.915	473.12
622.122	485.12
622.329	477.12
622.536	492.12
622.743	474.12
622.95	471.12
623.157	451.12
623.364	442.12
623.571	448.12
623.778	471.12
623.985	458.12
624.192	430.12
624.399	441.12
624.606	458.12
624.812	455.12
625.019	436.12
625.226	451.12
625.433	434.12
625.639	425.12
625.846	425.12
626.053	416.12
626.259	410.12
626.466	409.12
626.673	429.12
626.879	434.12
627.086	438.12
627.293	403.12
627.499	424.12
627.706	397.12
627.912	418.12
628.119	430.12
628.325	426.12
628.532	419.12
628.738	404.12
628.945	416.12
629.151	423.12
629.357	414.12
629.564	414.12
629.77	403.12
629.976	399.12
630.183	393.12
630.389	400.12
630.595	400.12
630.802	394.12
631.008	399.12
631.214	379.12
631.42	406.12
631.627	366.12
631.833	376.12
632.039	395.12
632.245	383.12
632.451	371.12
632.657	371.12
632.863	374.12
633.069	378.12
633.275	371.12
633.481	371.12
633.688	359.12
633.893	364.12
634.099	369.12
634.305	366.12
634.511	356.12
634.717	364.12
634.923	350.12
635.129	354.12
635.335	353.12
635.541	333.12
635.747	357.12
635.952	373.12
636.158	360.12
636.364	346.12
636.57	356.12
636.775	363.12
636.981	336.12
637.187	347.12
637.392	340.12
637.598	355.12
637.804	357.12
638.009	344.12
638.215	348.12
638.421	359.12
638.626	346.12
638.832	341.12
639.037	343.12
639.243	342.12
639.448	362.12
639.654	330.12
639.859	327.12
640.065	330.12
640.27	327.12
640.475	324.12
640.681	333.12
640.886	345.12
641.091	325.12
641.297	328.12
641.502	323.12
641.707	328.12
641.913	353.12
642.118	334.12
642.323	334.12
642.528	314.12
642.733	326.12
642.939	332.12
643.144	310.12
643.349	330.12
643.554	339.12
643.759	331.12
643.964	336.12
644.169	314.12
644.374	294.12
644.579	332.12
644.784	320.12
644.989	312.12
645.194	306.12
645.399	314.12
645.604	311.12
645.809	304.12
646.014	308.12
646.219	320.12
646.423	333.12
646.628	308.12
646.833	301.12
647.038	306.12
647.243	310.12
647.447	334.12
647.652	316.12
647.857	327.12
648.062	318.12
648.266	317.12
648.471	321.12
648.676	332.12
648.88	327.12
649.085	314.12
649.289	304.12
649.494	306.12
649.698	303.12
649.903	288.12
650.107	309.12
650.312	289.12
650.516	296.12
650.721	289.12
650.925	278.12
651.13	295.12
651.334	295.12
651.539	276.12
651.743	290.12
651.947	274.12
652.152	292.12
652.356	270.12
652.56	266.12
652.764	238.12
652.969	266.12
653.173	261.12
653.377	242.12
653.581	264.12
653.785	251.12
653.99	259.12
654.194	255.12
654.398	242.12
654.602	254.12
654.806	254.12
655.01	251.12
655.214	240.12
655.418	241.12
655.622	253.12
655.826	259.12
656.03	235.12
656.234	263.12
656.438	258.12
656.642	258.12
656.846	258.12
657.049	229.12
657.253	225.12
657.457	222.12
657.661	212.12
657.865	192.12
658.068	178.12
658.272	165.12
658.476	159.12
658.68	154.12
658.883	141.12
659.087	128.12
659.291	142.12
659.494	140.12
659.698	140.12
659.901	133.12
660.105	134.12
660.309	123.12
660.512	124.12
660.716	120.12
660.919	114.12
661.123	122.12
661.326	115.12
661.53	105.12
661.733	102.12
661.936	96.12
662.14	110.12
662.343	90.12
662.546	95.12
662.75	89.12
662.953	86.12
663.156	85.12
663.36	96.12
663.563	95.12
663.766	76.12
663.969	92.12
664.173	91.12
664.376	95.12
664.579	94.12
664.782	71.12
664.985	89.12
665.188	81.12
665.391	77.12
665.594	80.12
665.797	68.12
666	87.12
666.203	79.12
666.406	89.12
666.609	84.12
666.812	77.12
667.015	87.12
667.218	91.12
667.421	82.12
667.624	81.12
667.827	86.12
668.03	72.12
668.232	73.12
668.435	81.12
668.638	83.12
668.841	86.12
669.043	77.12
669.246	103.12
669.449	77.12
669.651	81.12
669.854	90.12
670.057	94.12
670.259	75.12
670.462	84.12
670.665	80.12
670.867	103.12
671.07	89.12
671.272	80.12
671.475	66.12
671.677	78.12
671.88	80.12
672.082	95.12
672.284	92.12
672.487	70.12
672.689	77.12
672.892	84.12
