Data from WStandard_LampEnergy10_LIBS07252019.E.O._I.C._HRD10591_15-54-58-928.txt Node
Date: Thu Jul 25 15:54:58 EDT 2019
User: cochatt
Spectrometer: HR+D1059
Trigger mode: 1
Integration Time (sec): 1.000000E-1
Scans to average: 1
Electric dark correction enabled: true
Nonlinearity correction enabled: false
Boxcar width: 0
XAxis mode: Wavelengths
Number of Pixels in Spectrum: 2048
>>>>>Begin Spectral Data<<<<<
223.165	-15.75
223.4	-15.75
223.635	-15.75
223.869	-18.75
224.104	-23.75
224.338	-3.75
224.573	-17.75
224.808	-12.75
225.042	-1.75
225.277	-2.75
225.511	1.25
225.746	3.25
225.98	2.25
226.215	2.25
226.449	20.25
226.683	20.25
226.918	26.25
227.152	21.25
227.387	35.25
227.621	37.25
227.856	43.25
228.09	43.25
228.324	54.25
228.559	60.25
228.793	66.25
229.027	134.25
229.262	144.25
229.496	143.25
229.73	135.25
229.964	153.25
230.199	158.25
230.433	164.25
230.667	177.25
230.901	180.25
231.136	183.25
231.37	166.25
231.604	181.25
231.838	175.25
232.072	187.25
232.306	167.25
232.541	165.25
232.775	195.25
233.009	212.25
233.243	201.25
233.477	199.25
233.711	204.25
233.945	207.25
234.179	197.25
234.413	193.25
234.647	209.25
234.881	209.25
235.115	182.25
235.349	187.25
235.583	195.25
235.817	181.25
236.051	183.25
236.285	205.25
236.519	196.25
236.753	231.25
236.987	228.25
237.221	231.25
237.455	229.25
237.689	237.25
237.922	206.25
238.156	218.25
238.39	227.25
238.624	234.25
238.858	230.25
239.091	257.25
239.325	265.25
239.559	262.25
239.793	283.25
240.027	308.25
240.26	287.25
240.494	231.25
240.728	221.25
240.961	253.25
241.195	237.25
241.429	251.25
241.662	245.25
241.896	238.25
242.13	231.25
242.363	264.25
242.597	277.25
242.83	272.25
243.064	280.25
243.298	291.25
243.531	284.25
243.765	267.25
243.998	282.25
244.232	248.25
244.465	244.25
244.699	263.25
244.932	301.25
245.166	328.25
245.399	310.25
245.633	254.25
245.866	270.25
246.099	292.25
246.333	305.25
246.566	300.25
246.8	313.25
247.033	336.25
247.266	335.25
247.5	318.25
247.733	335.25
247.966	333.25
248.2	372.25
248.433	343.25
248.666	356.25
248.899	399.25
249.133	431.25
249.366	470.25
249.599	387.25
249.832	364.25
250.066	355.25
250.299	354.25
250.532	344.25
250.765	317.25
250.998	328.25
251.231	331.25
251.465	342.25
251.698	341.25
251.931	352.25
252.164	335.25
252.397	347.25
252.63	358.25
252.863	332.25
253.096	327.25
253.329	335.25
253.562	351.25
253.795	361.25
254.028	359.25
254.261	333.25
254.494	352.25
254.727	324.25
254.96	346.25
255.193	395.25
255.426	416.25
255.659	443.25
255.892	452.25
256.124	377.25
256.357	365.25
256.59	402.25
256.823	405.25
257.056	419.25
257.289	487.25
257.521	505.25
257.754	450.25
257.987	445.25
258.22	482.25
258.452	453.25
258.685	375.25
258.918	387.25
259.151	388.25
259.383	367.25
259.616	357.25
259.849	379.25
260.081	427.25
260.314	441.25
260.547	479.25
260.779	464.25
261.012	433.25
261.244	396.25
261.477	388.25
261.71	428.25
261.942	403.25
262.175	391.25
262.407	407.25
262.64	380.25
262.872	369.25
263.105	344.25
263.337	371.25
263.57	369.25
263.802	375.25
264.035	355.25
264.267	316.25
264.499	348.25
264.732	369.25
264.964	381.25
265.197	405.25
265.429	414.25
265.661	448.25
265.894	492.25
266.126	488.25
266.358	420.25
266.591	456.25
266.823	486.25
267.055	447.25
267.287	442.25
267.52	433.25
267.752	448.25
267.984	446.25
268.216	474.25
268.448	461.25
268.681	469.25
268.913	423.25
269.145	396.25
269.377	401.25
269.609	461.25
269.841	509.25
270.073	577.25
270.306	600.25
270.538	601.25
270.77	516.25
271.002	470.25
271.234	470.25
271.466	489.25
271.698	547.25
271.93	601.25
272.162	568.25
272.394	530.25
272.626	511.25
272.858	454.25
273.09	415.25
273.322	401.25
273.553	392.25
273.785	415.25
274.017	401.25
274.249	453.25
274.481	444.25
274.713	424.25
274.945	412.25
275.176	397.25
275.408	397.25
275.64	388.25
275.872	406.25
276.104	426.25
276.335	472.25
276.567	534.25
276.799	515.25
277.031	458.25
277.262	477.25
277.494	485.25
277.726	523.25
277.957	518.25
278.189	467.25
278.421	423.25
278.652	437.25
278.884	421.25
279.115	418.25
279.347	457.25
279.579	435.25
279.81	423.25
280.042	448.25
280.273	521.25
280.505	509.25
280.736	499.25
280.968	476.25
281.199	414.25
281.431	420.25
281.662	414.25
281.894	437.25
282.125	447.25
282.356	459.25
282.588	429.25
282.819	452.25
283.051	487.25
283.282	507.25
283.513	494.25
283.745	424.25
283.976	395.25
284.207	411.25
284.439	453.25
284.67	443.25
284.901	453.25
285.132	436.25
285.364	448.25
285.595	452.25
285.826	429.25
286.057	429.25
286.288	456.25
286.52	469.25
286.751	495.25
286.982	484.25
287.213	452.25
287.444	436.25
287.675	436.25
287.906	470.25
288.138	470.25
288.369	478.25
288.6	434.25
288.831	405.25
289.062	452.25
289.293	463.25
289.524	454.25
289.755	458.25
289.986	449.25
290.217	440.25
290.448	439.25
290.679	461.25
290.91	466.25
291.141	471.25
291.371	496.25
291.602	463.25
291.833	467.25
292.064	506.25
292.295	497.25
292.526	493.25
292.757	491.25
292.987	478.25
293.218	488.25
293.449	527.25
293.68	566.25
293.91	572.25
294.141	550.25
294.372	532.25
294.603	561.25
294.833	568.25
295.064	520.25
295.295	480.25
295.525	457.25
295.756	470.25
295.987	441.25
296.217	433.25
296.448	462.25
296.679	446.25
296.909	458.25
297.14	447.25
297.37	472.25
297.601	484.25
297.831	546.25
298.062	504.25
298.292	470.25
298.523	457.25
298.753	464.25
298.984	481.25
299.214	491.25
299.445	488.25
299.675	497.25
299.905	487.25
300.136	483.25
300.366	461.25
300.597	453.25
300.827	476.25
301.057	494.25
301.288	506.25
301.518	526.25
301.748	539.25
301.979	569.25
302.209	559.25
302.439	604.25
302.669	590.25
302.9	542.25
303.13	527.25
303.36	516.25
303.59	525.25
303.82	481.25
304.051	517.25
304.281	538.25
304.511	525.25
304.741	558.25
304.971	591.25
305.201	629.25
305.431	572.25
305.661	463.25
305.891	447.25
306.121	460.25
306.352	499.25
306.582	523.25
306.812	535.25
307.042	569.25
307.272	567.25
307.502	604.25
307.731	621.25
307.961	632.25
308.191	566.25
308.421	513.25
308.651	467.25
308.881	465.25
309.111	508.25
309.341	482.25
309.571	518.25
309.8	496.25
310.03	480.25
310.26	479.25
310.49	481.25
310.72	514.25
310.949	536.25
311.179	521.25
311.409	498.25
311.639	529.25
311.868	515.25
312.098	521.25
312.328	518.25
312.557	491.25
312.787	509.25
313.017	513.25
313.246	527.25
313.476	524.25
313.706	535.25
313.935	545.25
314.165	551.25
314.394	576.25
314.624	585.25
314.853	616.25
315.083	638.25
315.312	632.25
315.542	578.25
315.771	534.25
316.001	552.25
316.23	559.25
316.46	546.25
316.689	555.25
316.919	524.25
317.148	501.25
317.377	543.25
317.607	584.25
317.836	630.25
318.065	640.25
318.295	583.25
318.524	622.25
318.753	578.25
318.983	555.25
319.212	571.25
319.441	556.25
319.67	544.25
319.9	553.25
320.129	583.25
320.358	594.25
320.587	606.25
320.816	606.25
321.046	583.25
321.275	610.25
321.504	596.25
321.733	625.25
321.962	591.25
322.191	552.25
322.42	558.25
322.649	549.25
322.878	545.25
323.108	567.25
323.337	596.25
323.566	573.25
323.795	583.25
324.024	568.25
324.253	570.25
324.482	569.25
324.71	552.25
324.939	520.25
325.168	542.25
325.397	560.25
325.626	571.25
325.855	551.25
326.084	548.25
326.313	555.25
326.542	550.25
326.77	593.25
326.999	567.25
327.228	542.25
327.457	518.25
327.686	553.25
327.914	556.25
328.143	540.25
328.372	547.25
328.6	541.25
328.829	552.25
329.058	541.25
329.287	539.25
329.515	563.25
329.744	582.25
329.972	622.25
330.201	629.25
330.43	609.25
330.658	599.25
330.887	590.25
331.115	581.25
331.344	600.25
331.572	584.25
331.801	558.25
332.03	577.25
332.258	599.25
332.486	608.25
332.715	610.25
332.943	610.25
333.172	587.25
333.4	587.25
333.629	628.25
333.857	655.25
334.085	719.25
334.314	814.25
334.542	824.25
334.771	783.25
334.999	696.25
335.227	663.25
335.455	647.25
335.684	616.25
335.912	630.25
336.14	679.25
336.369	621.25
336.597	605.25
336.825	607.25
337.053	619.25
337.281	633.25
337.51	694.25
337.738	716.25
337.966	686.25
338.194	594.25
338.422	577.25
338.65	584.25
338.878	571.25
339.106	577.25
339.334	549.25
339.562	539.25
339.79	573.25
340.018	627.25
340.246	611.25
340.474	614.25
340.702	609.25
340.93	614.25
341.158	628.25
341.386	605.25
341.614	603.25
341.842	611.25
342.07	596.25
342.298	595.25
342.526	603.25
342.754	611.25
342.981	606.25
343.209	581.25
343.437	580.25
343.665	605.25
343.893	605.25
344.12	625.25
344.348	636.25
344.576	595.25
344.804	583.25
345.031	610.25
345.259	604.25
345.487	574.25
345.714	553.25
345.942	551.25
346.17	569.25
346.397	595.25
346.625	546.25
346.853	549.25
347.08	546.25
347.308	530.25
347.535	583.25
347.763	585.25
347.99	560.25
348.218	570.25
348.445	547.25
348.673	586.25
348.9	593.25
349.128	605.25
349.355	612.25
349.583	577.25
349.81	555.25
350.037	511.25
350.265	547.25
350.492	524.25
350.72	543.25
350.947	559.25
351.174	582.25
351.402	538.25
351.629	542.25
351.856	524.25
352.083	512.25
352.311	513.25
352.538	550.25
352.765	567.25
352.992	575.25
353.22	558.25
353.447	557.25
353.674	565.25
353.901	557.25
354.128	548.25
354.355	567.25
354.583	584.25
354.81	583.25
355.037	604.25
355.264	555.25
355.491	575.25
355.718	573.25
355.945	575.25
356.172	541.25
356.399	552.25
356.626	542.25
356.853	596.25
357.08	657.25
357.307	679.25
357.534	639.25
357.761	543.25
357.988	550.25
358.215	519.25
358.441	548.25
358.668	552.25
358.895	561.25
359.122	625.25
359.349	661.25
359.576	602.25
359.802	570.25
360.029	529.25
360.256	541.25
360.483	569.25
360.709	556.25
360.936	617.25
361.163	635.25
361.39	685.25
361.616	740.25
361.843	669.25
362.07	635.25
362.296	575.25
362.523	571.25
362.749	577.25
362.976	594.25
363.203	588.25
363.429	555.25
363.656	563.25
363.882	581.25
364.109	648.25
364.335	626.25
364.562	607.25
364.788	583.25
365.015	565.25
365.241	556.25
365.468	596.25
365.694	599.25
365.92	606.25
366.147	591.25
366.373	543.25
366.599	547.25
366.826	567.25
367.052	559.25
367.278	568.25
367.505	595.25
367.731	594.25
367.957	596.25
368.184	635.25
368.41	665.25
368.636	672.25
368.862	675.25
369.089	647.25
369.315	647.25
369.541	570.25
369.767	596.25
369.993	592.25
370.219	598.25
370.445	614.25
370.672	657.25
370.898	663.25
371.124	655.25
371.35	600.25
371.576	630.25
371.802	666.25
372.028	639.25
372.254	600.25
372.48	597.25
372.706	575.25
372.932	609.25
373.158	585.25
373.384	614.25
373.61	636.25
373.835	649.25
374.061	624.25
374.287	638.25
374.513	641.25
374.739	612.25
374.965	646.25
375.191	653.25
375.416	644.25
375.642	661.25
375.868	726.25
376.094	708.25
376.319	670.25
376.545	645.25
376.771	657.25
376.997	710.25
377.222	683.25
377.448	647.25
377.674	654.25
377.899	670.25
378.125	728.25
378.35	701.25
378.576	643.25
378.802	620.25
379.027	611.25
379.253	631.25
379.478	650.25
379.704	631.25
379.929	627.25
380.155	643.25
380.38	646.25
380.606	670.25
380.831	678.25
381.057	728.25
381.282	701.25
381.507	671.25
381.733	752.25
381.958	740.25
382.184	669.25
382.409	676.25
382.634	691.25
382.86	668.25
383.085	640.25
383.31	705.25
383.535	801.25
383.761	812.25
383.986	754.25
384.211	729.25
384.436	743.25
384.662	761.25
384.887	767.25
385.112	727.25
385.337	747.25
385.562	741.25
385.787	729.25
386.013	747.25
386.238	757.25
386.463	763.25
386.688	815.25
386.913	877.25
387.138	809.25
387.363	779.25
387.588	747.25
387.813	729.25
388.038	808.25
388.263	795.25
388.488	741.25
388.713	718.25
388.938	730.25
389.163	736.25
389.387	722.25
389.612	755.25
389.837	717.25
390.062	744.25
390.287	754.25
390.512	726.25
390.736	737.25
390.961	768.25
391.186	694.25
391.411	701.25
391.636	724.25
391.86	722.25
392.085	754.25
392.31	749.25
392.534	738.25
392.759	743.25
392.984	736.25
393.208	769.25
393.433	777.25
393.658	823.25
393.882	804.25
394.107	753.25
394.331	775.25
394.556	782.25
394.78	781.25
395.005	837.25
395.229	863.25
395.454	877.25
395.678	857.25
395.903	816.25
396.127	791.25
396.352	811.25
396.576	841.25
396.801	842.25
397.025	845.25
397.249	826.25
397.474	831.25
397.698	814.25
397.922	820.25
398.147	896.25
398.371	896.25
398.595	919.25
398.82	861.25
399.044	893.25
399.268	933.25
399.492	914.25
399.717	984.25
399.941	980.25
400.165	978.25
400.389	954.25
400.613	985.25
400.837	1149.25
401.062	1188.25
401.286	1029.25
401.51	973.25
401.734	975.25
401.958	922.25
402.182	892.25
402.406	852.25
402.63	872.25
402.854	879.25
403.078	875.25
403.302	870.25
403.526	903.25
403.75	905.25
403.974	929.25
404.198	912.25
404.422	963.25
404.645	975.25
404.869	980.25
405.093	899.25
405.317	895.25
405.541	937.25
405.765	918.25
405.988	914.25
406.212	953.25
406.436	965.25
406.66	993.25
406.883	1013.25
407.107	1131.25
407.331	1186.25
407.555	1272.25
407.778	1125.25
408.002	991.25
408.226	972.25
408.449	959.25
408.673	932.25
408.896	924.25
409.12	935.25
409.344	950.25
409.567	928.25
409.791	954.25
410.014	959.25
410.238	1036.25
410.461	1057.25
410.685	960.25
410.908	950.25
411.132	925.25
411.355	907.25
411.578	920.25
411.802	911.25
412.025	931.25
412.249	949.25
412.472	915.25
412.695	894.25
412.919	897.25
413.142	911.25
413.365	910.25
413.589	962.25
413.812	996.25
414.035	987.25
414.258	922.25
414.482	887.25
414.705	915.25
414.928	904.25
415.151	885.25
415.374	901.25
415.597	966.25
415.821	941.25
416.044	942.25
416.267	932.25
416.49	894.25
416.713	918.25
416.936	987.25
417.159	989.25
417.382	917.25
417.605	905.25
417.828	952.25
418.051	947.25
418.274	918.25
418.497	953.25
418.72	923.25
418.943	947.25
419.166	979.25
419.389	978.25
419.611	931.25
419.834	929.25
420.057	956.25
420.28	946.25
420.503	942.25
420.726	967.25
420.948	933.25
421.171	900.25
421.394	932.25
421.617	987.25
421.839	979.25
422.062	941.25
422.285	946.25
422.507	903.25
422.73	900.25
422.953	885.25
423.175	895.25
423.398	932.25
423.621	931.25
423.843	955.25
424.066	948.25
424.288	1000.25
424.511	1050.25
424.733	1006.25
424.956	929.25
425.178	937.25
425.401	940.25
425.623	949.25
425.846	966.25
426.068	984.25
426.291	965.25
426.513	932.25
426.735	964.25
426.958	1032.25
427.18	1057.25
427.402	1024.25
427.625	999.25
427.847	985.25
428.069	923.25
428.292	919.25
428.514	905.25
428.736	883.25
428.958	895.25
429.181	946.25
429.403	1045.25
429.625	1218.25
429.847	1041.25
430.069	951.25
430.292	1054.25
430.514	1065.25
430.736	977.25
430.958	972.25
431.18	907.25
431.402	879.25
431.624	849.25
431.846	789.25
432.068	722.25
432.29	718.25
432.512	791.25
432.734	870.25
432.956	935.25
433.178	976.25
433.4	951.25
433.622	926.25
433.844	894.25
434.066	851.25
434.287	798.25
434.509	803.25
434.731	834.25
434.953	925.25
435.175	941.25
435.397	906.25
435.618	852.25
435.84	851.25
436.062	850.25
436.284	887.25
436.505	958.25
436.727	941.25
436.949	918.25
437.17	909.25
437.392	889.25
437.614	834.25
437.835	784.25
438.057	815.25
438.278	841.25
438.5	848.25
438.721	905.25
438.943	926.25
439.165	915.25
439.386	904.25
439.608	965.25
439.829	949.25
440.05	942.25
440.272	950.25
440.493	912.25
440.715	1013.25
440.936	1041.25
441.158	1062.25
441.379	1063.25
441.6	1055.25
441.822	1019.25
442.043	983.25
442.264	965.25
442.486	985.25
442.707	925.25
442.928	953.25
443.149	976.25
443.371	1007.25
443.592	1011.25
443.813	993.25
444.034	984.25
444.255	1021.25
444.476	1047.25
444.698	1075.25
444.919	1055.25
445.14	1161.25
445.361	1099.25
445.582	1064.25
445.803	1079.25
446.024	1052.25
446.245	1090.25
446.466	1057.25
446.687	1017.25
446.908	1045.25
447.129	995.25
447.35	992.25
447.571	982.25
447.792	943.25
448.013	919.25
448.234	973.25
448.455	996.25
448.675	992.25
448.896	900.25
449.117	933.25
449.338	899.25
449.559	944.25
449.779	979.25
450	1043.25
450.221	1073.25
450.442	1011.25
450.662	952.25
450.883	871.25
451.104	887.25
451.324	891.25
451.545	888.25
451.766	861.25
451.986	831.25
452.207	800.25
452.428	804.25
452.648	788.25
452.869	820.25
453.089	800.25
453.31	769.25
453.53	786.25
453.751	719.25
453.971	701.25
454.192	737.25
454.412	780.25
454.633	789.25
454.853	773.25
455.073	755.25
455.294	755.25
455.514	790.25
455.734	764.25
455.955	759.25
456.175	737.25
456.395	718.25
456.616	704.25
456.836	735.25
457.056	740.25
457.276	706.25
457.497	692.25
457.717	709.25
457.937	704.25
458.157	699.25
458.377	691.25
458.598	684.25
458.818	669.25
459.038	712.25
459.258	713.25
459.478	738.25
459.698	701.25
459.918	757.25
460.138	795.25
460.358	838.25
460.578	828.25
460.798	864.25
461.018	870.25
461.238	861.25
461.458	848.25
461.678	844.25
461.898	823.25
462.118	789.25
462.338	813.25
462.558	856.25
462.777	831.25
462.997	869.25
463.217	882.25
463.437	891.25
463.657	851.25
463.876	838.25
464.096	814.25
464.316	846.25
464.536	884.25
464.755	890.25
464.975	887.25
465.195	850.25
465.414	871.25
465.634	868.25
465.854	895.25
466.073	940.25
466.293	939.25
466.512	863.25
466.732	861.25
466.951	909.25
467.171	891.25
467.391	855.25
467.61	891.25
467.829	895.25
468.049	955.25
468.268	1011.25
468.488	960.25
468.707	891.25
468.927	885.25
469.146	909.25
469.365	885.25
469.585	915.25
469.804	914.25
470.023	912.25
470.243	916.25
470.462	935.25
470.681	928.25
470.901	899.25
471.12	939.25
471.339	923.25
471.558	911.25
471.777	896.25
471.997	916.25
472.216	853.25
472.435	769.25
472.654	764.25
472.873	791.25
473.092	824.25
473.311	821.25
473.53	837.25
473.749	844.25
473.968	817.25
474.187	860.25
474.406	847.25
474.625	832.25
474.844	872.25
475.063	882.25
475.282	903.25
475.501	835.25
475.72	824.25
475.939	857.25
476.158	886.25
476.377	844.25
476.596	833.25
476.814	821.25
477.033	820.25
477.252	852.25
477.471	905.25
477.69	937.25
477.908	894.25
478.127	981.25
478.346	1017.25
478.564	1008.25
478.783	998.25
479.002	1049.25
479.22	1020.25
479.439	1032.25
479.658	1064.25
479.876	956.25
480.095	916.25
480.313	881.25
480.532	880.25
480.751	850.25
480.969	849.25
481.188	817.25
481.406	808.25
481.624	774.25
481.843	795.25
482.061	853.25
482.28	876.25
482.498	868.25
482.717	849.25
482.935	900.25
483.153	987.25
483.372	1037.25
483.59	1052.25
483.808	998.25
484.027	945.25
484.245	983.25
484.463	1208.25
484.681	1289.25
484.9	1007.25
485.118	943.25
485.336	935.25
485.554	924.25
485.772	894.25
485.99	875.25
486.209	913.25
486.427	901.25
486.645	955.25
486.863	1022.25
487.081	1058.25
487.299	1028.25
487.517	1027.25
487.735	1129.25
487.953	1193.25
488.171	1191.25
488.389	1130.25
488.607	1079.25
488.825	1117.25
489.043	1072.25
489.261	1007.25
489.479	1047.25
489.696	1041.25
489.914	1043.25
490.132	1049.25
490.35	1102.25
490.568	1131.25
490.786	1165.25
491.003	1189.25
491.221	1253.25
491.439	1327.25
491.657	1290.25
491.874	1353.25
492.092	1409.25
492.31	1495.25
492.527	1421.25
492.745	1363.25
492.963	1339.25
493.18	1319.25
493.398	1346.25
493.615	1329.25
493.833	1273.25
494.05	1223.25
494.268	1268.25
494.485	1235.25
494.703	1214.25
494.92	1233.25
495.138	1232.25
495.355	1226.25
495.573	1232.25
495.79	1288.25
496.008	1249.25
496.225	1229.25
496.442	1271.25
496.66	1227.25
496.877	1199.25
497.094	1232.25
497.312	1231.25
497.529	1223.25
497.746	1217.25
497.963	1300.25
498.181	1281.25
498.398	1229.25
498.615	1174.25
498.832	1161.25
499.049	1173.25
499.267	1166.25
499.484	1247.25
499.701	1349.25
499.918	1357.25
500.135	1471.25
500.352	1568.25
500.569	1576.25
500.786	1720.25
501.003	1528.25
501.22	1448.25
501.437	1399.25
501.654	1369.25
501.871	1358.25
502.088	1227.25
502.305	1202.25
502.522	1132.25
502.739	1101.25
502.956	1075.25
503.172	1072.25
503.389	1017.25
503.606	983.25
503.823	1025.25
504.04	1007.25
504.256	1004.25
504.473	1008.25
504.69	1035.25
504.907	995.25
505.123	959.25
505.34	1040.25
505.557	1349.25
505.773	1117.25
505.99	949.25
506.207	923.25
506.423	895.25
506.64	888.25
506.856	902.25
507.073	1041.25
507.289	1087.25
507.506	1017.25
507.722	885.25
507.939	866.25
508.155	857.25
508.372	829.25
508.588	828.25
508.805	803.25
509.021	781.25
509.238	762.25
509.454	775.25
509.67	770.25
509.887	743.25
510.103	741.25
510.319	717.25
510.536	769.25
510.752	803.25
510.968	755.25
511.184	782.25
511.401	756.25
511.617	718.25
511.833	701.25
512.049	723.25
512.265	690.25
512.481	742.25
512.698	728.25
512.914	770.25
513.13	754.25
513.346	707.25
513.562	717.25
513.778	703.25
513.994	722.25
514.21	751.25
514.426	760.25
514.642	835.25
514.858	793.25
515.074	727.25
515.29	726.25
515.506	736.25
515.721	716.25
515.937	737.25
516.153	823.25
516.369	775.25
516.585	728.25
516.801	702.25
517.016	736.25
517.232	756.25
517.448	793.25
517.664	797.25
517.879	804.25
518.095	807.25
518.311	748.25
518.527	769.25
518.742	763.25
518.958	761.25
519.173	773.25
519.389	783.25
519.605	819.25
519.82	782.25
520.036	789.25
520.251	762.25
520.467	779.25
520.682	797.25
520.898	818.25
521.113	729.25
521.329	703.25
521.544	767.25
521.76	742.25
521.975	703.25
522.19	674.25
522.406	736.25
522.621	926.25
522.836	864.25
523.052	753.25
523.267	731.25
523.482	732.25
523.698	731.25
523.913	747.25
524.128	775.25
524.343	812.25
524.559	809.25
524.774	783.25
524.989	771.25
525.204	750.25
525.419	723.25
525.634	740.25
525.849	725.25
526.064	711.25
526.28	696.25
526.495	661.25
526.71	677.25
526.925	609.25
527.14	633.25
527.355	614.25
527.57	611.25
527.785	672.25
527.999	656.25
528.214	653.25
528.429	719.25
528.644	750.25
528.859	792.25
529.074	844.25
529.289	855.25
529.503	852.25
529.718	815.25
529.933	730.25
530.148	667.25
530.363	637.25
530.577	614.25
530.792	639.25
531.007	633.25
531.221	647.25
531.436	647.25
531.651	617.25
531.865	675.25
532.08	641.25
532.295	623.25
532.509	591.25
532.724	610.25
532.938	641.25
533.153	693.25
533.367	723.25
533.582	744.25
533.796	707.25
534.011	716.25
534.225	648.25
534.44	639.25
534.654	626.25
534.868	655.25
535.083	679.25
535.297	672.25
535.511	678.25
535.726	670.25
535.94	652.25
536.154	671.25
536.369	615.25
536.583	596.25
536.797	601.25
537.011	632.25
537.225	600.25
537.44	613.25
537.654	651.25
537.868	617.25
538.082	598.25
538.296	624.25
538.51	645.25
538.724	665.25
538.938	738.25
539.153	751.25
539.367	721.25
539.581	690.25
539.795	668.25
540.009	639.25
540.222	641.25
540.436	671.25
540.65	758.25
540.864	791.25
541.078	792.25
541.292	848.25
541.506	896.25
541.72	952.25
541.934	1004.25
542.147	1070.25
542.361	1012.25
542.575	914.25
542.789	835.25
543.002	720.25
543.216	712.25
543.43	761.25
543.644	803.25
543.857	861.25
544.071	893.25
544.285	943.25
544.498	919.25
544.712	960.25
544.925	941.25
545.139	973.25
545.352	912.25
545.566	933.25
545.779	932.25
545.993	966.25
546.206	973.25
546.42	972.25
546.633	934.25
546.847	945.25
547.06	935.25
547.274	953.25
547.487	996.25
547.7	989.25
547.914	965.25
548.127	930.25
548.34	958.25
548.554	909.25
548.767	910.25
548.98	921.25
549.193	936.25
549.407	924.25
549.62	938.25
549.833	939.25
550.046	919.25
550.259	910.25
550.473	877.25
550.686	877.25
550.899	873.25
551.112	844.25
551.325	828.25
551.538	821.25
551.751	878.25
551.964	682.25
552.177	731.25
552.39	780.25
552.603	841.25
552.816	879.25
553.029	895.25
553.242	896.25
553.455	932.25
553.667	902.25
553.88	882.25
554.093	910.25
554.306	845.25
554.519	827.25
554.732	831.25
554.944	835.25
555.157	838.25
555.37	804.25
555.583	802.25
555.795	760.25
556.008	749.25
556.221	695.25
556.433	695.25
556.646	724.25
556.859	732.25
557.071	724.25
557.284	755.25
557.496	752.25
557.709	762.25
557.921	768.25
558.134	725.25
558.346	726.25
558.559	740.25
558.771	722.25
558.984	695.25
559.196	665.25
559.409	673.25
559.621	681.25
559.833	660.25
560.046	660.25
560.258	659.25
560.47	676.25
560.683	691.25
560.895	677.25
561.107	685.25
561.32	683.25
561.532	689.25
561.744	681.25
561.956	670.25
562.168	638.25
562.381	628.25
562.593	621.25
562.805	648.25
563.017	625.25
563.229	633.25
563.441	647.25
563.653	622.25
563.865	621.25
564.077	610.25
564.289	603.25
564.501	589.25
564.713	621.25
564.925	644.25
565.137	707.25
565.349	632.25
565.561	625.25
565.773	596.25
565.985	623.25
566.197	635.25
566.408	669.25
566.62	669.25
566.832	680.25
567.044	683.25
567.255	650.25
567.467	633.25
567.679	637.25
567.891	671.25
568.102	620.25
568.314	574.25
568.526	531.25
568.737	519.25
568.949	478.25
569.161	492.25
569.372	447.25
569.584	455.25
569.795	441.25
570.007	436.25
570.218	430.25
570.43	430.25
570.641	441.25
570.853	464.25
571.064	467.25
571.276	500.25
571.487	471.25
571.698	472.25
571.91	477.25
572.121	443.25
572.333	432.25
572.544	447.25
572.755	414.25
572.966	424.25
573.178	405.25
573.389	405.25
573.6	394.25
573.811	419.25
574.023	394.25
574.234	390.25
574.445	405.25
574.656	391.25
574.867	383.25
575.078	408.25
575.289	411.25
575.501	401.25
575.712	381.25
575.923	390.25
576.134	409.25
576.345	391.25
576.556	409.25
576.767	406.25
576.978	383.25
577.188	391.25
577.399	399.25
577.61	372.25
577.821	351.25
578.032	367.25
578.243	379.25
578.454	353.25
578.665	367.25
578.875	356.25
579.086	339.25
579.297	318.25
579.508	341.25
579.718	360.25
579.929	357.25
580.14	331.25
580.35	336.25
580.561	353.25
580.772	381.25
580.982	357.25
581.193	348.25
581.403	367.25
581.614	338.25
581.825	333.25
582.035	325.25
582.246	348.25
582.456	329.25
582.667	356.25
582.877	345.25
583.087	320.25
583.298	331.25
583.508	336.25
583.719	329.25
583.929	339.25
584.139	336.25
584.35	329.25
584.56	321.25
584.77	324.25
584.981	326.25
585.191	323.25
585.401	331.25
585.611	333.25
585.821	344.25
586.032	304.25
586.242	308.25
586.452	315.25
586.662	311.25
586.872	310.25
587.082	312.25
587.292	321.25
587.502	327.25
587.713	314.25
587.923	317.25
588.133	294.25
588.343	317.25
588.553	308.25
588.762	324.25
588.972	328.25
589.182	312.25
589.392	321.25
589.602	328.25
589.812	324.25
590.022	309.25
590.232	297.25
590.441	314.25
590.651	309.25
590.861	308.25
591.071	303.25
591.281	303.25
591.49	293.25
591.7	312.25
591.91	317.25
592.119	300.25
592.329	324.25
592.539	293.25
592.748	300.25
592.958	319.25
593.167	329.25
593.377	312.25
593.587	318.25
593.796	321.25
594.006	332.25
594.215	323.25
594.424	335.25
594.634	334.25
594.843	338.25
595.053	352.25
595.262	315.25
595.472	320.25
595.681	305.25
595.89	295.25
596.1	311.25
596.309	325.25
596.518	325.25
596.727	324.25
596.937	334.25
597.146	299.25
597.355	309.25
597.564	295.25
597.774	305.25
597.983	285.25
598.192	281.25
598.401	280.25
598.61	287.25
598.819	293.25
599.028	283.25
599.237	289.25
599.446	284.25
599.655	302.25
599.864	279.25
600.073	276.25
600.282	309.25
600.491	293.25
600.7	286.25
600.909	292.25
601.118	328.25
601.327	326.25
601.536	338.25
601.745	343.25
601.953	349.25
602.162	348.25
602.371	351.25
602.58	352.25
602.789	336.25
602.997	341.25
603.206	347.25
603.415	353.25
603.623	340.25
603.832	352.25
604.041	345.25
604.249	322.25
604.458	321.25
604.666	316.25
604.875	313.25
605.084	322.25
605.292	333.25
605.501	347.25
605.709	356.25
605.918	367.25
606.126	355.25
606.334	353.25
606.543	343.25
606.751	365.25
606.96	352.25
607.168	357.25
607.376	358.25
607.585	353.25
607.793	365.25
608.001	355.25
608.21	371.25
608.418	344.25
608.626	350.25
608.834	350.25
609.043	364.25
609.251	357.25
609.459	353.25
609.667	373.25
609.875	352.25
610.083	371.25
610.291	367.25
610.499	331.25
610.707	357.25
610.916	370.25
611.124	376.25
611.332	380.25
611.54	371.25
611.748	363.25
611.955	357.25
612.163	367.25
612.371	365.25
612.579	362.25
612.787	358.25
612.995	353.25
613.203	340.25
613.411	349.25
613.618	350.25
613.826	360.25
614.034	356.25
614.242	364.25
614.449	331.25
614.657	368.25
614.865	347.25
615.072	339.25
615.28	358.25
615.488	338.25
615.695	358.25
615.903	354.25
616.111	346.25
616.318	360.25
616.526	364.25
616.733	357.25
616.941	355.25
617.148	348.25
617.356	340.25
617.563	348.25
617.771	341.25
617.978	325.25
618.185	329.25
618.393	325.25
618.6	323.25
618.807	336.25
619.015	343.25
619.222	351.25
619.429	329.25
619.637	332.25
619.844	290.25
620.051	308.25
620.258	314.25
620.466	304.25
620.673	316.25
620.88	326.25
621.087	304.25
621.294	319.25
621.501	297.25
621.708	293.25
621.915	324.25
622.122	339.25
622.329	340.25
622.536	316.25
622.743	329.25
622.95	323.25
623.157	310.25
623.364	311.25
623.571	305.25
623.778	312.25
623.985	332.25
624.192	314.25
624.399	319.25
624.606	300.25
624.812	296.25
625.019	300.25
625.226	305.25
625.433	287.25
625.639	280.25
625.846	270.25
626.053	264.25
626.259	240.25
626.466	248.25
626.673	249.25
626.879	217.25
627.086	232.25
627.293	260.25
627.499	268.25
627.706	285.25
627.912	283.25
628.119	288.25
628.325	300.25
628.532	285.25
628.738	281.25
628.945	282.25
629.151	282.25
629.357	280.25
629.564	264.25
629.77	292.25
629.976	270.25
630.183	239.25
630.389	252.25
630.595	272.25
630.802	289.25
631.008	288.25
631.214	272.25
631.42	258.25
631.627	242.25
631.833	246.25
632.039	235.25
632.245	260.25
632.451	262.25
632.657	287.25
632.863	271.25
633.069	272.25
633.275	256.25
633.481	239.25
633.688	239.25
633.893	261.25
634.099	231.25
634.305	248.25
634.511	228.25
634.717	220.25
634.923	223.25
635.129	211.25
635.335	243.25
635.541	239.25
635.747	243.25
635.952	247.25
636.158	265.25
636.364	269.25
636.57	252.25
636.775	266.25
636.981	258.25
637.187	236.25
637.392	256.25
637.598	253.25
637.804	273.25
638.009	264.25
638.215	263.25
638.421	238.25
638.626	240.25
638.832	239.25
639.037	248.25
639.243	231.25
639.448	242.25
639.654	243.25
639.859	236.25
640.065	238.25
640.27	252.25
640.475	247.25
640.681	238.25
640.886	239.25
641.091	252.25
641.297	241.25
641.502	247.25
641.707	262.25
641.913	238.25
642.118	239.25
642.323	252.25
642.528	227.25
642.733	228.25
642.939	242.25
643.144	240.25
643.349	229.25
643.554	233.25
643.759	222.25
643.964	240.25
644.169	231.25
644.374	213.25
644.579	246.25
644.784	247.25
644.989	221.25
645.194	243.25
645.399	237.25
645.604	227.25
645.809	242.25
646.014	249.25
646.219	241.25
646.423	232.25
646.628	223.25
646.833	233.25
647.038	231.25
647.243	240.25
647.447	227.25
647.652	247.25
647.857	245.25
648.062	227.25
648.266	241.25
648.471	250.25
648.676	232.25
648.88	223.25
649.085	225.25
649.289	236.25
649.494	240.25
649.698	238.25
649.903	224.25
650.107	250.25
650.312	222.25
650.516	229.25
650.721	225.25
650.925	224.25
651.13	233.25
651.334	227.25
651.539	232.25
651.743	225.25
651.947	224.25
652.152	208.25
652.356	218.25
652.56	205.25
652.764	211.25
652.969	194.25
653.173	201.25
653.377	186.25
653.581	193.25
653.785	212.25
653.99	205.25
654.194	205.25
654.398	201.25
654.602	200.25
654.806	201.25
655.01	202.25
655.214	205.25
655.418	194.25
655.622	215.25
655.826	213.25
656.03	215.25
656.234	216.25
656.438	229.25
656.642	213.25
656.846	207.25
657.049	195.25
657.253	200.25
657.457	194.25
657.661	176.25
657.865	166.25
658.068	151.25
658.272	152.25
658.476	160.25
658.68	134.25
658.883	130.25
659.087	139.25
659.291	143.25
659.494	145.25
659.698	120.25
659.901	120.25
660.105	103.25
660.309	119.25
660.512	110.25
660.716	121.25
660.919	112.25
661.123	110.25
661.326	115.25
661.53	114.25
661.733	121.25
661.936	109.25
662.14	90.25
662.343	107.25
662.546	91.25
662.75	82.25
662.953	80.25
663.156	78.25
663.36	90.25
663.563	76.25
663.766	96.25
663.969	89.25
664.173	76.25
664.376	86.25
664.579	89.25
664.782	78.25
664.985	76.25
665.188	72.25
665.391	88.25
665.594	85.25
665.797	72.25
666	85.25
666.203	82.25
666.406	85.25
666.609	79.25
666.812	75.25
667.015	68.25
667.218	92.25
667.421	78.25
667.624	75.25
667.827	77.25
668.03	86.25
668.232	84.25
668.435	69.25
668.638	73.25
668.841	71.25
669.043	82.25
669.246	85.25
669.449	84.25
669.651	80.25
669.854	85.25
670.057	74.25
670.259	90.25
670.462	80.25
670.665	81.25
670.867	77.25
671.07	67.25
671.272	77.25
671.475	80.25
671.677	99.25
671.88	71.25
672.082	79.25
672.284	83.25
672.487	60.25
672.689	80.25
672.892	88.25
