Data from WStandard_LampEnergy5.5LIBS07252019.E.O._I.C._HRD10591_16-07-12-920.txt Node
Date: Thu Jul 25 16:07:12 EDT 2019
User: cochatt
Spectrometer: HR+D1059
Trigger mode: 1
Integration Time (sec): 1.000000E-1
Scans to average: 1
Electric dark correction enabled: true
Nonlinearity correction enabled: false
Boxcar width: 0
XAxis mode: Wavelengths
Number of Pixels in Spectrum: 2048
>>>>>Begin Spectral Data<<<<<
223.165	-20.88
223.4	-20.88
223.635	-20.88
223.869	-23.88
224.104	-22.88
224.338	-23.88
224.573	-23.88
224.808	-11.88
225.042	2.12
225.277	-12.88
225.511	-1.88
225.746	5.12
225.98	0.12
226.215	13.12
226.449	27.12
226.683	27.12
226.918	34.12
227.152	33.12
227.387	45.12
227.621	46.12
227.856	48.12
228.09	47.12
228.324	56.12
228.559	55.12
228.793	158.12
229.027	349.12
229.262	377.12
229.496	405.12
229.73	409.12
229.964	475.12
230.199	476.12
230.433	494.12
230.667	527.12
230.901	568.12
231.136	501.12
231.37	493.12
231.604	502.12
231.838	490.12
232.072	481.12
232.306	478.12
232.541	502.12
232.775	560.12
233.009	605.12
233.243	589.12
233.477	555.12
233.711	585.12
233.945	605.12
234.179	571.12
234.413	592.12
234.647	678.12
234.881	635.12
235.115	563.12
235.349	565.12
235.583	573.12
235.817	589.12
236.051	564.12
236.285	581.12
236.519	616.12
236.753	703.12
236.987	713.12
237.221	715.12
237.455	789.12
237.689	754.12
237.922	715.12
238.156	701.12
238.39	689.12
238.624	730.12
238.858	783.12
239.091	808.12
239.325	829.12
239.559	983.12
239.793	1016.12
240.027	1091.12
240.26	1105.12
240.494	802.12
240.728	756.12
240.961	755.12
241.195	761.12
241.429	879.12
241.662	867.12
241.896	781.12
242.13	785.12
242.363	885.12
242.597	985.12
242.83	918.12
243.064	923.12
243.298	999.12
243.531	981.12
243.765	971.12
243.998	960.12
244.232	841.12
244.465	825.12
244.699	811.12
244.932	942.12
245.166	1093.12
245.399	1062.12
245.633	940.12
245.866	923.12
246.099	1000.12
246.333	982.12
246.566	1013.12
246.8	1085.12
247.033	1239.12
247.266	1134.12
247.5	1133.12
247.733	1101.12
247.966	1162.12
248.2	1321.12
248.433	1225.12
248.666	1293.12
248.899	1356.12
249.133	1621.12
249.366	1847.12
249.599	1489.12
249.832	1293.12
250.066	1357.12
250.299	1388.12
250.532	1271.12
250.765	1151.12
250.998	1203.12
251.231	1254.12
251.465	1322.12
251.698	1247.12
251.931	1231.12
252.164	1276.12
252.397	1345.12
252.63	1302.12
252.863	1178.12
253.096	1142.12
253.329	1188.12
253.562	1217.12
253.795	1371.12
254.028	1357.12
254.261	1224.12
254.494	1203.12
254.727	1128.12
254.96	1187.12
255.193	1306.12
255.426	1423.12
255.659	1712.12
255.892	1727.12
256.124	1447.12
256.357	1365.12
256.59	1427.12
256.823	1524.12
257.056	1466.12
257.289	1768.12
257.521	1995.12
257.754	1792.12
257.987	1714.12
258.22	1882.12
258.452	1832.12
258.685	1507.12
258.918	1429.12
259.151	1448.12
259.383	1400.12
259.616	1203.12
259.849	1267.12
260.081	1450.12
260.314	1639.12
260.547	1798.12
260.779	1806.12
261.012	1706.12
261.244	1493.12
261.477	1417.12
261.71	1526.12
261.942	1469.12
262.175	1460.12
262.407	1543.12
262.64	1448.12
262.872	1364.12
263.105	1331.12
263.337	1347.12
263.57	1372.12
263.802	1371.12
264.035	1290.12
264.267	1211.12
264.499	1187.12
264.732	1286.12
264.964	1354.12
265.197	1408.12
265.429	1476.12
265.661	1651.12
265.894	1813.12
266.126	1883.12
266.358	1674.12
266.591	1754.12
266.823	1887.12
267.055	1702.12
267.287	1647.12
267.52	1626.12
267.752	1604.12
267.984	1592.12
268.216	1691.12
268.448	1720.12
268.681	1740.12
268.913	1566.12
269.145	1452.12
269.377	1420.12
269.609	1557.12
269.841	1802.12
270.073	2129.12
270.306	2394.12
270.538	2539.12
270.77	2135.12
271.002	1827.12
271.234	1722.12
271.466	1683.12
271.698	1931.12
271.93	2328.12
272.162	2337.12
272.394	2094.12
272.626	2012.12
272.858	1761.12
273.09	1538.12
273.322	1477.12
273.553	1424.12
273.785	1474.12
274.017	1503.12
274.249	1636.12
274.481	1671.12
274.713	1494.12
274.945	1427.12
275.176	1480.12
275.408	1478.12
275.64	1428.12
275.872	1414.12
276.104	1502.12
276.335	1720.12
276.567	1989.12
276.799	2014.12
277.031	1787.12
277.262	1671.12
277.494	1743.12
277.726	1944.12
277.957	1939.12
278.189	1759.12
278.421	1574.12
278.652	1554.12
278.884	1537.12
279.115	1537.12
279.347	1580.12
279.579	1535.12
279.81	1494.12
280.042	1715.12
280.273	1857.12
280.505	1833.12
280.736	1895.12
280.968	1781.12
281.199	1578.12
281.431	1493.12
281.662	1505.12
281.894	1496.12
282.125	1553.12
282.356	1583.12
282.588	1627.12
282.819	1569.12
283.051	1726.12
283.282	1841.12
283.513	1835.12
283.745	1592.12
283.976	1472.12
284.207	1500.12
284.439	1529.12
284.67	1552.12
284.901	1590.12
285.132	1595.12
285.364	1555.12
285.595	1607.12
285.826	1594.12
286.057	1548.12
286.288	1551.12
286.52	1589.12
286.751	1750.12
286.982	1799.12
287.213	1666.12
287.444	1545.12
287.675	1526.12
287.906	1598.12
288.138	1727.12
288.369	1669.12
288.6	1566.12
288.831	1524.12
289.062	1517.12
289.293	1553.12
289.524	1572.12
289.755	1622.12
289.986	1666.12
290.217	1493.12
290.448	1571.12
290.679	1573.12
290.91	1540.12
291.141	1655.12
291.371	1675.12
291.602	1701.12
291.833	1630.12
292.064	1719.12
292.295	1646.12
292.526	1698.12
292.757	1824.12
292.987	1723.12
293.218	1617.12
293.449	1772.12
293.68	1972.12
293.91	2155.12
294.141	1955.12
294.372	1845.12
294.603	1911.12
294.833	2017.12
295.064	1889.12
295.295	1744.12
295.525	1676.12
295.756	1552.12
295.987	1474.12
296.217	1511.12
296.448	1520.12
296.679	1562.12
296.909	1569.12
297.14	1562.12
297.37	1573.12
297.601	1669.12
297.831	1806.12
298.062	1837.12
298.292	1671.12
298.523	1594.12
298.753	1563.12
298.984	1643.12
299.214	1590.12
299.445	1618.12
299.675	1707.12
299.905	1677.12
300.136	1628.12
300.366	1582.12
300.597	1557.12
300.827	1559.12
301.057	1597.12
301.288	1705.12
301.518	1685.12
301.748	1672.12
301.979	1799.12
302.209	1818.12
302.439	1964.12
302.669	2044.12
302.9	1896.12
303.13	1703.12
303.36	1660.12
303.59	1740.12
303.82	1722.12
304.051	1675.12
304.281	1731.12
304.511	1672.12
304.741	1792.12
304.971	1968.12
305.201	2150.12
305.431	2032.12
305.661	1665.12
305.891	1496.12
306.121	1483.12
306.352	1550.12
306.582	1624.12
306.812	1707.12
307.042	1923.12
307.272	1897.12
307.502	1902.12
307.731	2091.12
307.961	2248.12
308.191	2063.12
308.421	1773.12
308.651	1675.12
308.881	1651.12
309.111	1656.12
309.341	1615.12
309.571	1647.12
309.8	1620.12
310.03	1603.12
310.26	1609.12
310.49	1606.12
310.72	1624.12
310.949	1739.12
311.179	1712.12
311.409	1766.12
311.639	1662.12
311.868	1609.12
312.098	1691.12
312.328	1663.12
312.557	1578.12
312.787	1657.12
313.017	1714.12
313.246	1737.12
313.476	1695.12
313.706	1747.12
313.935	1705.12
314.165	1727.12
314.394	1819.12
314.624	1867.12
314.853	1984.12
315.083	2063.12
315.312	2125.12
315.542	2010.12
315.771	1778.12
316.001	1739.12
316.23	1856.12
316.46	1872.12
316.689	1828.12
316.919	1731.12
317.148	1643.12
317.377	1664.12
317.607	1831.12
317.836	2079.12
318.065	2174.12
318.295	2054.12
318.524	1980.12
318.753	1905.12
318.983	1842.12
319.212	1785.12
319.441	1769.12
319.67	1764.12
319.9	1802.12
320.129	1877.12
320.358	1976.12
320.587	2000.12
320.816	2025.12
321.046	1976.12
321.275	1825.12
321.504	1843.12
321.733	2020.12
321.962	1977.12
322.191	1799.12
322.42	1774.12
322.649	1759.12
322.878	1783.12
323.108	1822.12
323.337	1863.12
323.566	1833.12
323.795	1817.12
324.024	1914.12
324.253	1795.12
324.482	1858.12
324.71	1748.12
324.939	1668.12
325.168	1729.12
325.397	1767.12
325.626	1887.12
325.855	1875.12
326.084	1753.12
326.313	1804.12
326.542	1822.12
326.77	1865.12
326.999	1895.12
327.228	1787.12
327.457	1686.12
327.686	1679.12
327.914	1696.12
328.143	1736.12
328.372	1773.12
328.6	1791.12
328.829	1780.12
329.058	1733.12
329.287	1759.12
329.515	1790.12
329.744	1830.12
329.972	1870.12
330.201	1989.12
330.43	1947.12
330.658	1875.12
330.887	1943.12
331.115	1882.12
331.344	1904.12
331.572	1864.12
331.801	1873.12
332.03	1918.12
332.258	1869.12
332.486	1873.12
332.715	1934.12
332.943	1927.12
333.172	1837.12
333.4	1919.12
333.629	1989.12
333.857	2037.12
334.085	2224.12
334.314	2566.12
334.542	2819.12
334.771	2619.12
334.999	2276.12
335.227	2165.12
335.455	2059.12
335.684	1999.12
335.912	2055.12
336.14	2171.12
336.369	2109.12
336.597	1934.12
336.825	1899.12
337.053	1953.12
337.281	2061.12
337.51	2213.12
337.738	2259.12
337.966	2186.12
338.194	1959.12
338.422	1884.12
338.65	1823.12
338.878	1829.12
339.106	1799.12
339.334	1779.12
339.562	1749.12
339.79	1785.12
340.018	1921.12
340.246	1992.12
340.474	2024.12
340.702	1960.12
340.93	1975.12
341.158	1949.12
341.386	1873.12
341.614	1902.12
341.842	1832.12
342.07	1879.12
342.298	1857.12
342.526	1898.12
342.754	1845.12
342.981	1835.12
343.209	1807.12
343.437	1815.12
343.665	1838.12
343.893	1903.12
344.12	1998.12
344.348	2004.12
344.576	1968.12
344.804	1846.12
345.031	1865.12
345.259	1888.12
345.487	1802.12
345.714	1779.12
345.942	1708.12
346.17	1681.12
346.397	1740.12
346.625	1783.12
346.853	1694.12
347.08	1633.12
347.308	1669.12
347.535	1719.12
347.763	1779.12
347.99	1713.12
348.218	1671.12
348.445	1684.12
348.673	1719.12
348.9	1754.12
349.128	1785.12
349.355	1927.12
349.583	1824.12
349.81	1787.12
350.037	1638.12
350.265	1598.12
350.492	1601.12
350.72	1644.12
350.947	1803.12
351.174	1783.12
351.402	1683.12
351.629	1641.12
351.856	1591.12
352.083	1583.12
352.311	1598.12
352.538	1660.12
352.765	1717.12
352.992	1767.12
353.22	1698.12
353.447	1673.12
353.674	1677.12
353.901	1734.12
354.128	1679.12
354.355	1616.12
354.583	1763.12
354.81	1771.12
355.037	1775.12
355.264	1789.12
355.491	1734.12
355.718	1737.12
355.945	1744.12
356.172	1697.12
356.399	1657.12
356.626	1645.12
356.853	1722.12
357.08	1838.12
357.307	2019.12
357.534	2080.12
357.761	1809.12
357.988	1662.12
358.215	1584.12
358.441	1622.12
358.668	1632.12
358.895	1654.12
359.122	1749.12
359.349	1880.12
359.576	1939.12
359.802	1743.12
360.029	1690.12
360.256	1595.12
360.483	1659.12
360.709	1700.12
360.936	1765.12
361.163	1824.12
361.39	1985.12
361.616	2150.12
361.843	2074.12
362.07	2021.12
362.296	1735.12
362.523	1669.12
362.749	1719.12
362.976	1684.12
363.203	1781.12
363.429	1664.12
363.656	1619.12
363.882	1693.12
364.109	1886.12
364.335	2079.12
364.562	1960.12
364.788	1781.12
365.015	1729.12
365.241	1629.12
365.468	1691.12
365.694	1788.12
365.92	1884.12
366.147	1773.12
366.373	1656.12
366.599	1648.12
366.826	1635.12
367.052	1656.12
367.278	1672.12
367.505	1720.12
367.731	1734.12
367.957	1753.12
368.184	1800.12
368.41	1867.12
368.636	1938.12
368.862	1901.12
369.089	1894.12
369.315	1822.12
369.541	1763.12
369.767	1742.12
369.993	1692.12
370.219	1675.12
370.445	1733.12
370.672	1816.12
370.898	1891.12
371.124	1905.12
371.35	1769.12
371.576	1836.12
371.802	1892.12
372.028	1833.12
372.254	1791.12
372.48	1700.12
372.706	1695.12
372.932	1687.12
373.158	1746.12
373.384	1701.12
373.61	1758.12
373.835	1880.12
374.061	1788.12
374.287	1769.12
374.513	1830.12
374.739	1797.12
374.965	1816.12
375.191	1831.12
375.416	1857.12
375.642	1834.12
375.868	1921.12
376.094	2001.12
376.319	1918.12
376.545	1791.12
376.771	1821.12
376.997	1935.12
377.222	1925.12
377.448	1813.12
377.674	1901.12
377.899	1861.12
378.125	1956.12
378.35	1956.12
378.576	1787.12
378.802	1698.12
379.027	1689.12
379.253	1766.12
379.478	1750.12
379.704	1737.12
379.929	1788.12
380.155	1741.12
380.38	1791.12
380.606	1816.12
380.831	1752.12
381.057	1902.12
381.282	1898.12
381.507	1852.12
381.733	1951.12
381.958	2057.12
382.184	1929.12
382.409	1794.12
382.634	1895.12
382.86	1822.12
383.085	1821.12
383.31	1895.12
383.535	2046.12
383.761	2134.12
383.986	2058.12
384.211	2015.12
384.436	1962.12
384.662	2024.12
384.887	2160.12
385.112	2015.12
385.337	2058.12
385.562	2003.12
385.787	2053.12
386.013	2100.12
386.238	2099.12
386.463	2083.12
386.688	2181.12
386.913	2334.12
387.138	2284.12
387.363	2092.12
387.588	2056.12
387.813	2087.12
388.038	2124.12
388.263	2180.12
388.488	2125.12
388.713	1949.12
388.938	1935.12
389.163	1944.12
389.387	1978.12
389.612	2029.12
389.837	2053.12
390.062	2051.12
390.287	2012.12
390.512	1998.12
390.736	1991.12
390.961	1961.12
391.186	1951.12
391.411	1937.12
391.636	1979.12
391.86	2009.12
392.085	2024.12
392.31	1991.12
392.534	2022.12
392.759	2040.12
392.984	2023.12
393.208	2064.12
393.433	2085.12
393.658	2177.12
393.882	2223.12
394.107	2065.12
394.331	2003.12
394.556	1987.12
394.78	2044.12
395.005	2096.12
395.229	2172.12
395.454	2326.12
395.678	2358.12
395.903	2232.12
396.127	2119.12
396.352	2126.12
396.576	2220.12
396.801	2185.12
397.025	2193.12
397.249	2215.12
397.474	2189.12
397.698	2135.12
397.922	2240.12
398.147	2336.12
398.371	2436.12
398.595	2445.12
398.82	2321.12
399.044	2333.12
399.268	2443.12
399.492	2608.12
399.717	2717.12
399.941	2764.12
400.165	2641.12
400.389	2646.12
400.613	2548.12
400.837	2839.12
401.062	3266.12
401.286	2809.12
401.51	2478.12
401.734	2671.12
401.958	2528.12
402.182	2373.12
402.406	2292.12
402.63	2317.12
402.854	2317.12
403.078	2339.12
403.302	2429.12
403.526	2428.12
403.75	2393.12
403.974	2420.12
404.198	2413.12
404.422	2460.12
404.645	2601.12
404.869	2615.12
405.093	2371.12
405.317	2343.12
405.541	2453.12
405.765	2453.12
405.988	2431.12
406.212	2453.12
406.436	2501.12
406.66	2630.12
406.883	2622.12
407.107	2922.12
407.331	3167.12
407.555	3405.12
407.778	3152.12
408.002	2614.12
408.226	2548.12
408.449	2581.12
408.673	2510.12
408.896	2456.12
409.12	2564.12
409.344	2513.12
409.567	2367.12
409.791	2461.12
410.014	2479.12
410.238	2587.12
410.461	2755.12
410.685	2496.12
410.908	2359.12
411.132	2432.12
411.355	2404.12
411.578	2355.12
411.802	2323.12
412.025	2398.12
412.249	2331.12
412.472	2283.12
412.695	2286.12
412.919	2285.12
413.142	2285.12
413.365	2323.12
413.589	2348.12
413.812	2476.12
414.035	2586.12
414.258	2377.12
414.482	2249.12
414.705	2328.12
414.928	2311.12
415.151	2312.12
415.374	2320.12
415.597	2317.12
415.821	2339.12
416.044	2445.12
416.267	2460.12
416.49	2236.12
416.713	2163.12
416.936	2233.12
417.159	2374.12
417.382	2398.12
417.605	2221.12
417.828	2295.12
418.051	2388.12
418.274	2325.12
418.497	2181.12
418.72	2196.12
418.943	2199.12
419.166	2332.12
419.389	2468.12
419.611	2301.12
419.834	2253.12
420.057	2328.12
420.28	2255.12
420.503	2231.12
420.726	2282.12
420.948	2259.12
421.171	2248.12
421.394	2246.12
421.617	2318.12
421.839	2304.12
422.062	2260.12
422.285	2228.12
422.507	2212.12
422.73	2138.12
422.953	2137.12
423.175	2132.12
423.398	2198.12
423.621	2216.12
423.843	2260.12
424.066	2297.12
424.288	2331.12
424.511	2383.12
424.733	2299.12
424.956	2108.12
425.178	2111.12
425.401	2139.12
425.623	2165.12
425.846	2136.12
426.068	2264.12
426.291	2328.12
426.513	2327.12
426.735	2287.12
426.958	2406.12
427.18	2544.12
427.402	2378.12
427.625	2427.12
427.847	2443.12
428.069	2273.12
428.292	2193.12
428.514	2118.12
428.736	2147.12
428.958	2160.12
429.181	2130.12
429.403	2433.12
429.625	3055.12
429.847	2664.12
430.069	2214.12
430.292	2413.12
430.514	2551.12
430.736	2317.12
430.958	2438.12
431.18	2349.12
431.402	2170.12
431.624	2135.12
431.846	2127.12
432.068	2093.12
432.29	2142.12
432.512	2187.12
432.734	2235.12
432.956	2273.12
433.178	2319.12
433.4	2319.12
433.622	2303.12
433.844	2163.12
434.066	2146.12
434.287	2108.12
434.509	2191.12
434.731	2333.12
434.953	2443.12
435.175	2443.12
435.397	2313.12
435.618	2264.12
435.84	2339.12
436.062	2261.12
436.284	2284.12
436.505	2296.12
436.727	2295.12
436.949	2205.12
437.17	2147.12
437.392	2185.12
437.614	2192.12
437.835	2107.12
438.057	2239.12
438.278	2351.12
438.5	2176.12
438.721	2142.12
438.943	2101.12
439.165	2143.12
439.386	2099.12
439.608	2132.12
439.829	2103.12
440.05	2136.12
440.272	2104.12
440.493	2062.12
440.715	2107.12
440.936	2288.12
441.158	2536.12
441.379	2459.12
441.6	2384.12
441.822	2317.12
442.043	2278.12
442.264	2222.12
442.486	2143.12
442.707	2117.12
442.928	2115.12
443.149	2194.12
443.371	2360.12
443.592	2394.12
443.813	2426.12
444.034	2320.12
444.255	2353.12
444.476	2407.12
444.698	2453.12
444.919	2436.12
445.14	2498.12
445.361	2489.12
445.582	2607.12
445.803	2444.12
446.024	2379.12
446.245	2434.12
446.466	2374.12
446.687	2253.12
446.908	2249.12
447.129	2165.12
447.35	2208.12
447.571	2206.12
447.792	2149.12
448.013	2061.12
448.234	2138.12
448.455	2263.12
448.675	2231.12
448.896	2046.12
449.117	2040.12
449.338	2088.12
449.559	2215.12
449.779	2339.12
450	2537.12
450.221	2803.12
450.442	2633.12
450.662	2340.12
450.883	2069.12
451.104	2007.12
451.324	2066.12
451.545	2123.12
451.766	2131.12
451.986	1994.12
452.207	2015.12
452.428	1941.12
452.648	1904.12
452.869	1968.12
453.089	2108.12
453.31	2104.12
453.53	2187.12
453.751	2128.12
453.971	1991.12
454.192	2020.12
454.412	2182.12
454.633	2088.12
454.853	2022.12
455.073	1877.12
455.294	1833.12
455.514	1852.12
455.734	1881.12
455.955	1955.12
456.175	1915.12
456.395	1937.12
456.616	1973.12
456.836	2053.12
457.056	1984.12
457.276	1974.12
457.497	1929.12
457.717	1841.12
457.937	1882.12
458.157	1971.12
458.377	1915.12
458.598	1902.12
458.818	1939.12
459.038	2017.12
459.258	2192.12
459.478	2176.12
459.698	2118.12
459.918	2152.12
460.138	2258.12
460.358	2298.12
460.578	2338.12
460.798	2387.12
461.018	2555.12
461.238	2388.12
461.458	2268.12
461.678	2349.12
461.898	2278.12
462.118	2200.12
462.338	2333.12
462.558	2305.12
462.777	2294.12
462.997	2379.12
463.217	2543.12
463.437	2526.12
463.657	2358.12
463.876	2299.12
464.096	2338.12
464.316	2265.12
464.536	2388.12
464.755	2412.12
464.975	2429.12
465.195	2381.12
465.414	2435.12
465.634	2460.12
465.854	2282.12
466.073	2419.12
466.293	2405.12
466.512	2099.12
466.732	2089.12
466.951	2147.12
467.171	2156.12
467.391	2060.12
467.61	2047.12
467.829	2084.12
468.049	2265.12
468.268	2529.12
468.488	2353.12
468.707	2254.12
468.927	2138.12
469.146	2153.12
469.365	2051.12
469.585	2134.12
469.804	2138.12
470.023	2055.12
470.243	2104.12
470.462	2123.12
470.681	2081.12
470.901	2131.12
471.12	2101.12
471.339	2116.12
471.558	2019.12
471.777	1982.12
471.997	2032.12
472.216	2082.12
472.435	1950.12
472.654	2010.12
472.873	2121.12
473.092	2257.12
473.311	2148.12
473.53	1987.12
473.749	2017.12
473.968	2099.12
474.187	2179.12
474.406	2300.12
474.625	2150.12
474.844	2136.12
475.063	2093.12
475.282	2175.12
475.501	2145.12
475.72	2117.12
475.939	2238.12
476.158	2176.12
476.377	2113.12
476.596	2163.12
476.814	2218.12
477.033	2190.12
477.252	2307.12
477.471	2338.12
477.69	2286.12
477.908	2232.12
478.127	2357.12
478.346	2562.12
478.564	2554.12
478.783	2501.12
479.002	2585.12
479.22	2554.12
479.439	2615.12
479.658	2949.12
479.876	2899.12
480.095	2568.12
480.313	2419.12
480.532	2328.12
480.751	2386.12
480.969	2431.12
481.188	2368.12
481.406	2372.12
481.624	2283.12
481.843	2343.12
482.061	2397.12
482.28	2404.12
482.498	2473.12
482.717	2441.12
482.935	2337.12
483.153	2315.12
483.372	2361.12
483.59	2328.12
483.808	2327.12
484.027	2402.12
484.245	2537.12
484.463	2937.12
484.681	3455.12
484.9	2615.12
485.118	2421.12
485.336	2379.12
485.554	2469.12
485.772	2574.12
485.99	2533.12
486.209	2581.12
486.427	2477.12
486.645	2551.12
486.863	2451.12
487.081	2563.12
487.299	2557.12
487.517	2611.12
487.735	2447.12
487.953	2400.12
488.171	2410.12
488.389	2404.12
488.607	2423.12
488.825	2702.12
489.043	2766.12
489.261	2474.12
489.479	2591.12
489.696	2654.12
489.914	2591.12
490.132	2498.12
490.35	2470.12
490.568	2560.12
490.786	2489.12
491.003	2401.12
491.221	2463.12
491.439	2583.12
491.657	2563.12
491.874	2542.12
492.092	2556.12
492.31	2558.12
492.527	2528.12
492.745	2511.12
492.963	2499.12
493.18	2595.12
493.398	2806.12
493.615	2877.12
493.833	2653.12
494.05	2533.12
494.268	2551.12
494.485	2643.12
494.703	2635.12
494.92	2506.12
495.138	2490.12
495.355	2529.12
495.573	2676.12
495.79	2842.12
496.008	2827.12
496.225	2687.12
496.442	2654.12
496.66	2719.12
496.877	2687.12
497.094	2760.12
497.312	2824.12
497.529	2781.12
497.746	2832.12
497.963	3299.12
498.181	3715.12
498.398	3467.12
498.615	3344.12
498.832	3250.12
499.049	3274.12
499.267	3257.12
499.484	3502.12
499.701	3713.12
499.918	3799.12
500.135	4011.12
500.352	4355.12
500.569	4261.12
500.786	4627.12
501.003	4332.12
501.22	3869.12
501.437	3783.12
501.654	3835.12
501.871	3668.12
502.088	3253.12
502.305	3243.12
502.522	3118.12
502.739	2894.12
502.956	2861.12
503.172	2851.12
503.389	2731.12
503.606	2704.12
503.823	2700.12
504.04	2687.12
504.256	2772.12
504.473	2702.12
504.69	2837.12
504.907	2613.12
505.123	2475.12
505.34	2623.12
505.557	3471.12
505.773	2955.12
505.99	2505.12
506.207	2345.12
506.423	2330.12
506.64	2260.12
506.856	2307.12
507.073	2596.12
507.289	2835.12
507.506	2750.12
507.722	2341.12
507.939	2189.12
508.155	2264.12
508.372	2283.12
508.588	2163.12
508.805	2160.12
509.021	2075.12
509.238	2117.12
509.454	2110.12
509.67	2143.12
509.887	2060.12
510.103	2072.12
510.319	2105.12
510.536	2210.12
510.752	2295.12
510.968	2274.12
511.184	2416.12
511.401	2405.12
511.617	2101.12
511.833	2043.12
512.049	2047.12
512.265	2029.12
512.481	2012.12
512.698	2096.12
512.914	2224.12
513.13	2169.12
513.346	2033.12
513.562	2000.12
513.778	2064.12
513.994	2214.12
514.21	2240.12
514.426	2220.12
514.642	2477.12
514.858	2371.12
515.074	2123.12
515.29	2053.12
515.506	2148.12
515.721	2183.12
515.937	2179.12
516.153	2487.12
516.369	2398.12
516.585	2224.12
516.801	2144.12
517.016	2145.12
517.232	2211.12
517.448	2231.12
517.664	2256.12
517.879	2291.12
518.095	2392.12
518.311	2267.12
518.527	2111.12
518.742	2129.12
518.958	2078.12
519.173	2059.12
519.389	2055.12
519.605	2108.12
519.82	2126.12
520.036	2148.12
520.251	2080.12
520.467	2090.12
520.682	2224.12
520.898	2304.12
521.113	2132.12
521.329	2040.12
521.544	2180.12
521.76	2069.12
521.975	2011.12
522.19	1966.12
522.406	1950.12
522.621	2341.12
522.836	2439.12
523.052	1957.12
523.267	1974.12
523.482	1976.12
523.698	1886.12
523.913	1843.12
524.128	1892.12
524.343	1993.12
524.559	2051.12
524.774	1882.12
524.989	1885.12
525.204	1867.12
525.419	1839.12
525.634	1835.12
525.849	1912.12
526.064	1865.12
526.28	1901.12
526.495	1826.12
526.71	1812.12
526.925	1836.12
527.14	1764.12
527.355	1799.12
527.57	1810.12
527.785	1832.12
527.999	1795.12
528.214	1751.12
528.429	1735.12
528.644	1766.12
528.859	1780.12
529.074	1769.12
529.289	1772.12
529.503	1838.12
529.718	1791.12
529.933	1752.12
530.148	1719.12
530.363	1709.12
530.577	1753.12
530.792	1786.12
531.007	1811.12
531.221	1761.12
531.436	1839.12
531.651	1878.12
531.865	1970.12
532.08	1868.12
532.295	1765.12
532.509	1697.12
532.724	1695.12
532.938	1757.12
533.153	1916.12
533.367	1838.12
533.582	1803.12
533.796	1738.12
534.011	1771.12
534.225	1794.12
534.44	1744.12
534.654	1702.12
534.868	1741.12
535.083	1794.12
535.297	1821.12
535.511	1796.12
535.726	1747.12
535.94	1753.12
536.154	1743.12
536.369	1712.12
536.583	1710.12
536.797	1699.12
537.011	1695.12
537.225	1682.12
537.44	1662.12
537.654	1745.12
537.868	1690.12
538.082	1601.12
538.296	1573.12
538.51	1623.12
538.724	1564.12
538.938	1623.12
539.153	1687.12
539.367	1680.12
539.581	1667.12
539.795	1714.12
540.009	1681.12
540.222	1663.12
540.436	1704.12
540.65	1870.12
540.864	1867.12
541.078	1734.12
541.292	1623.12
541.506	1648.12
541.72	1649.12
541.934	1657.12
542.147	1696.12
542.361	1641.12
542.575	1613.12
542.789	1595.12
543.002	1550.12
543.216	1598.12
543.43	1663.12
543.644	1759.12
543.857	1814.12
544.071	1744.12
544.285	1677.12
544.498	1634.12
544.712	1635.12
544.925	1683.12
545.139	1688.12
545.352	1582.12
545.566	1566.12
545.779	1580.12
545.993	1624.12
546.206	1610.12
546.42	1572.12
546.633	1517.12
546.847	1541.12
547.06	1540.12
547.274	1539.12
547.487	1566.12
547.7	1588.12
547.914	1592.12
548.127	1600.12
548.34	1616.12
548.554	1617.12
548.767	1543.12
548.98	1574.12
549.193	1556.12
549.407	1623.12
549.62	1654.12
549.833	1561.12
550.046	1568.12
550.259	1571.12
550.473	1589.12
550.686	1532.12
550.899	1559.12
551.112	1524.12
551.325	1521.12
551.538	1567.12
551.751	1885.12
551.964	1541.12
552.177	1477.12
552.39	1492.12
552.603	1524.12
552.816	1537.12
553.029	1633.12
553.242	1687.12
553.455	1563.12
553.667	1579.12
553.88	1585.12
554.093	1549.12
554.306	1472.12
554.519	1473.12
554.732	1431.12
554.944	1455.12
555.157	1500.12
555.37	1462.12
555.583	1452.12
555.795	1419.12
556.008	1389.12
556.221	1379.12
556.433	1366.12
556.646	1339.12
556.859	1329.12
557.071	1343.12
557.284	1313.12
557.496	1327.12
557.709	1310.12
557.921	1268.12
558.134	1307.12
558.346	1315.12
558.559	1317.12
558.771	1308.12
558.984	1249.12
559.196	1251.12
559.409	1257.12
559.621	1214.12
559.833	1253.12
560.046	1311.12
560.258	1279.12
560.47	1295.12
560.683	1279.12
560.895	1237.12
561.107	1278.12
561.32	1303.12
561.532	1319.12
561.744	1256.12
561.956	1299.12
562.168	1238.12
562.381	1209.12
562.593	1219.12
562.805	1231.12
563.017	1252.12
563.229	1242.12
563.441	1293.12
563.653	1261.12
563.865	1248.12
564.077	1206.12
564.289	1243.12
564.501	1261.12
564.713	1310.12
564.925	1331.12
565.137	1430.12
565.349	1338.12
565.561	1374.12
565.773	1347.12
565.985	1315.12
566.197	1440.12
566.408	1523.12
566.62	1529.12
566.832	1525.12
567.044	1543.12
567.255	1504.12
567.467	1544.12
567.679	1573.12
567.891	1602.12
568.102	1565.12
568.314	1513.12
568.526	1439.12
568.737	1377.12
568.949	1349.12
569.161	1265.12
569.372	1236.12
569.584	1212.12
569.795	1200.12
570.007	1213.12
570.218	1165.12
570.43	1147.12
570.641	1147.12
570.853	1141.12
571.064	1143.12
571.276	1119.12
571.487	1113.12
571.698	1100.12
571.91	1069.12
572.121	1066.12
572.333	1030.12
572.544	1037.12
572.755	1027.12
572.966	991.12
573.178	993.12
573.389	1040.12
573.6	1051.12
573.811	1141.12
574.023	1033.12
574.234	995.12
574.445	979.12
574.656	957.12
574.867	955.12
575.078	964.12
575.289	967.12
575.501	921.12
575.712	926.12
575.923	952.12
576.134	945.12
576.345	937.12
576.556	920.12
576.767	907.12
576.978	896.12
577.188	892.12
577.399	896.12
577.61	887.12
577.821	867.12
578.032	874.12
578.243	856.12
578.454	895.12
578.665	866.12
578.875	859.12
579.086	859.12
579.297	889.12
579.508	898.12
579.718	872.12
579.929	843.12
580.14	842.12
580.35	850.12
580.561	826.12
580.772	920.12
580.982	891.12
581.193	851.12
581.403	840.12
581.614	807.12
581.825	806.12
582.035	802.12
582.246	807.12
582.456	881.12
582.667	816.12
582.877	796.12
583.087	788.12
583.298	771.12
583.508	804.12
583.719	793.12
583.929	797.12
584.139	820.12
584.35	803.12
584.56	809.12
584.77	827.12
584.981	810.12
585.191	847.12
585.401	809.12
585.611	810.12
585.821	793.12
586.032	761.12
586.242	732.12
586.452	764.12
586.662	788.12
586.872	771.12
587.082	783.12
587.292	808.12
587.502	808.12
587.713	797.12
587.923	755.12
588.133	785.12
588.343	799.12
588.553	770.12
588.762	764.12
588.972	760.12
589.182	770.12
589.392	800.12
589.602	797.12
589.812	776.12
590.022	735.12
590.232	716.12
590.441	748.12
590.651	785.12
590.861	743.12
591.071	748.12
591.281	742.12
591.49	755.12
591.7	759.12
591.91	745.12
592.119	744.12
592.329	765.12
592.539	773.12
592.748	792.12
592.958	759.12
593.167	787.12
593.377	784.12
593.587	815.12
593.796	819.12
594.006	787.12
594.215	780.12
594.424	806.12
594.634	782.12
594.843	771.12
595.053	811.12
595.262	762.12
595.472	743.12
595.681	734.12
595.89	749.12
596.1	723.12
596.309	707.12
596.518	687.12
596.727	708.12
596.937	693.12
597.146	675.12
597.355	663.12
597.564	667.12
597.774	652.12
597.983	652.12
598.192	651.12
598.401	639.12
598.61	683.12
598.819	649.12
599.028	644.12
599.237	644.12
599.446	624.12
599.655	635.12
599.864	640.12
600.073	640.12
600.282	622.12
600.491	632.12
600.7	615.12
600.909	618.12
601.118	619.12
601.327	619.12
601.536	618.12
601.745	615.12
601.953	602.12
602.162	604.12
602.371	617.12
602.58	620.12
602.789	605.12
602.997	614.12
603.206	602.12
603.415	602.12
603.623	598.12
603.832	601.12
604.041	575.12
604.249	592.12
604.458	589.12
604.666	598.12
604.875	595.12
605.084	603.12
605.292	626.12
605.501	588.12
605.709	596.12
605.918	582.12
606.126	597.12
606.334	582.12
606.543	574.12
606.751	604.12
606.96	577.12
607.168	571.12
607.376	559.12
607.585	552.12
607.793	571.12
608.001	581.12
608.21	571.12
608.418	549.12
608.626	569.12
608.834	563.12
609.043	569.12
609.251	573.12
609.459	543.12
609.667	570.12
609.875	567.12
610.083	558.12
610.291	582.12
610.499	591.12
610.707	574.12
610.916	541.12
611.124	543.12
611.332	552.12
611.54	545.12
611.748	551.12
611.955	534.12
612.163	528.12
612.371	544.12
612.579	507.12
612.787	520.12
612.995	532.12
613.203	557.12
613.411	542.12
613.618	517.12
613.826	549.12
614.034	536.12
614.242	539.12
614.449	526.12
614.657	543.12
614.865	535.12
615.072	532.12
615.28	536.12
615.488	545.12
615.695	584.12
615.903	553.12
616.111	539.12
616.318	530.12
616.526	534.12
616.733	521.12
616.941	510.12
617.148	516.12
617.356	513.12
617.563	519.12
617.771	522.12
617.978	511.12
618.185	511.12
618.393	508.12
618.6	509.12
618.807	500.12
619.015	526.12
619.222	509.12
619.429	512.12
619.637	513.12
619.844	480.12
620.051	486.12
620.258	495.12
620.466	498.12
620.673	490.12
620.88	468.12
621.087	465.12
621.294	475.12
621.501	477.12
621.708	469.12
621.915	477.12
622.122	479.12
622.329	470.12
622.536	481.12
622.743	469.12
622.95	461.12
623.157	460.12
623.364	492.12
623.571	471.12
623.778	475.12
623.985	464.12
624.192	456.12
624.399	460.12
624.606	446.12
624.812	446.12
625.019	469.12
625.226	445.12
625.433	451.12
625.639	437.12
625.846	448.12
626.053	445.12
626.259	446.12
626.466	424.12
626.673	406.12
626.879	443.12
627.086	445.12
627.293	410.12
627.499	438.12
627.706	435.12
627.912	427.12
628.119	427.12
628.325	420.12
628.532	424.12
628.738	438.12
628.945	423.12
629.151	416.12
629.357	417.12
629.564	424.12
629.77	397.12
629.976	396.12
630.183	394.12
630.389	417.12
630.595	398.12
630.802	413.12
631.008	407.12
631.214	406.12
631.42	391.12
631.627	394.12
631.833	394.12
632.039	400.12
632.245	400.12
632.451	385.12
632.657	383.12
632.863	393.12
633.069	397.12
633.275	374.12
633.481	384.12
633.688	369.12
633.893	382.12
634.099	371.12
634.305	355.12
634.511	377.12
634.717	361.12
634.923	361.12
635.129	355.12
635.335	351.12
635.541	375.12
635.747	385.12
635.952	358.12
636.158	366.12
636.364	357.12
636.57	376.12
636.775	379.12
636.981	375.12
637.187	374.12
637.392	337.12
637.598	363.12
637.804	352.12
638.009	365.12
638.215	365.12
638.421	337.12
638.626	341.12
638.832	360.12
639.037	368.12
639.243	345.12
639.448	341.12
639.654	360.12
639.859	316.12
640.065	319.12
640.27	344.12
640.475	334.12
640.681	335.12
640.886	353.12
641.091	327.12
641.297	330.12
641.502	340.12
641.707	329.12
641.913	343.12
642.118	344.12
642.323	316.12
642.528	336.12
642.733	336.12
642.939	307.12
643.144	314.12
643.349	347.12
643.554	308.12
643.759	341.12
643.964	346.12
644.169	337.12
644.374	320.12
644.579	319.12
644.784	319.12
644.989	319.12
645.194	310.12
645.399	308.12
645.604	316.12
645.809	318.12
646.014	323.12
646.219	326.12
646.423	342.12
646.628	336.12
646.833	327.12
647.038	309.12
647.243	315.12
647.447	327.12
647.652	324.12
647.857	316.12
648.062	336.12
648.266	324.12
648.471	332.12
648.676	313.12
648.88	335.12
649.085	332.12
649.289	318.12
649.494	299.12
649.698	320.12
649.903	302.12
650.107	313.12
650.312	309.12
650.516	309.12
650.721	303.12
650.925	285.12
651.13	283.12
651.334	280.12
651.539	302.12
651.743	300.12
651.947	281.12
652.152	277.12
652.356	257.12
652.56	263.12
652.764	263.12
652.969	261.12
653.173	267.12
653.377	250.12
653.581	268.12
653.785	251.12
653.99	271.12
654.194	256.12
654.398	261.12
654.602	255.12
654.806	256.12
655.01	252.12
655.214	259.12
655.418	263.12
655.622	245.12
655.826	256.12
656.03	262.12
656.234	279.12
656.438	272.12
656.642	274.12
656.846	245.12
657.049	252.12
657.253	224.12
657.457	213.12
657.661	197.12
657.865	201.12
658.068	190.12
658.272	178.12
658.476	170.12
658.68	145.12
658.883	144.12
659.087	152.12
659.291	154.12
659.494	145.12
659.698	132.12
659.901	140.12
660.105	121.12
660.309	131.12
660.512	130.12
660.716	129.12
660.919	117.12
661.123	128.12
661.326	99.12
661.53	108.12
661.733	112.12
661.936	104.12
662.14	96.12
662.343	102.12
662.546	101.12
662.75	85.12
662.953	95.12
663.156	94.12
663.36	100.12
663.563	104.12
663.766	96.12
663.969	86.12
664.173	84.12
664.376	93.12
664.579	96.12
664.782	90.12
664.985	96.12
665.188	86.12
665.391	94.12
665.594	91.12
665.797	90.12
666	85.12
666.203	80.12
666.406	90.12
666.609	87.12
666.812	95.12
667.015	85.12
667.218	84.12
667.421	71.12
667.624	91.12
667.827	86.12
668.03	85.12
668.232	78.12
668.435	93.12
668.638	81.12
668.841	88.12
669.043	101.12
669.246	78.12
669.449	84.12
669.651	78.12
669.854	71.12
670.057	97.12
670.259	83.12
670.462	77.12
670.665	96.12
670.867	81.12
671.07	87.12
671.272	96.12
671.475	93.12
671.677	78.12
671.88	88.12
672.082	87.12
672.284	96.12
672.487	91.12
672.689	86.12
672.892	89.12
