Data from WStandard_LampEnergy5.5LIBS07252019.E.O._I.C._HRD10591_16-08-24-921.txt Node
Date: Thu Jul 25 16:08:24 EDT 2019
User: cochatt
Spectrometer: HR+D1059
Trigger mode: 1
Integration Time (sec): 1.000000E-1
Scans to average: 1
Electric dark correction enabled: true
Nonlinearity correction enabled: false
Boxcar width: 0
XAxis mode: Wavelengths
Number of Pixels in Spectrum: 2048
>>>>>Begin Spectral Data<<<<<
223.165	-13.94
223.4	-13.94
223.635	-13.94
223.869	-24.94
224.104	-11.94
224.338	-20.94
224.573	-16.94
224.808	-4.94
225.042	-1.94
225.277	-2.94
225.511	7.06
225.746	11.06
225.98	5.06
226.215	2.06
226.449	17.06
226.683	11.06
226.918	18.06
227.152	27.06
227.387	38.06
227.621	45.06
227.856	44.06
228.09	44.06
228.324	41.06
228.559	50.06
228.793	145.06
229.027	352.06
229.262	360.06
229.496	372.06
229.73	399.06
229.964	437.06
230.199	453.06
230.433	475.06
230.667	491.06
230.901	529.06
231.136	472.06
231.37	472.06
231.604	444.06
231.838	468.06
232.072	475.06
232.306	458.06
232.541	479.06
232.775	533.06
233.009	604.06
233.243	590.06
233.477	515.06
233.711	544.06
233.945	564.06
234.179	524.06
234.413	569.06
234.647	641.06
234.881	595.06
235.115	547.06
235.349	548.06
235.583	557.06
235.817	561.06
236.051	539.06
236.285	547.06
236.519	613.06
236.753	690.06
236.987	693.06
237.221	675.06
237.455	774.06
237.689	719.06
237.922	650.06
238.156	630.06
238.39	652.06
238.624	695.06
238.858	767.06
239.091	787.06
239.325	786.06
239.559	901.06
239.793	979.06
240.027	1054.06
240.26	1065.06
240.494	775.06
240.728	715.06
240.961	730.06
241.195	748.06
241.429	812.06
241.662	831.06
241.896	758.06
242.13	767.06
242.363	836.06
242.597	940.06
242.83	879.06
243.064	892.06
243.298	919.06
243.531	910.06
243.765	922.06
243.998	945.06
244.232	813.06
244.465	791.06
244.699	772.06
244.932	896.06
245.166	1036.06
245.399	1001.06
245.633	898.06
245.866	883.06
246.099	921.06
246.333	969.06
246.566	986.06
246.8	1039.06
247.033	1181.06
247.266	1099.06
247.5	1081.06
247.733	1066.06
247.966	1105.06
248.2	1247.06
248.433	1189.06
248.666	1181.06
248.899	1303.06
249.133	1511.06
249.366	1783.06
249.599	1445.06
249.832	1231.06
250.066	1279.06
250.299	1313.06
250.532	1229.06
250.765	1054.06
250.998	1149.06
251.231	1224.06
251.465	1216.06
251.698	1153.06
251.931	1192.06
252.164	1199.06
252.397	1259.06
252.63	1243.06
252.863	1087.06
253.096	1082.06
253.329	1154.06
253.562	1199.06
253.795	1275.06
254.028	1257.06
254.261	1162.06
254.494	1173.06
254.727	1081.06
254.96	1140.06
255.193	1281.06
255.426	1399.06
255.659	1621.06
255.892	1714.06
256.124	1387.06
256.357	1341.06
256.59	1408.06
256.823	1431.06
257.056	1411.06
257.289	1727.06
257.521	1925.06
257.754	1711.06
257.987	1588.06
258.22	1780.06
258.452	1773.06
258.685	1431.06
258.918	1397.06
259.151	1394.06
259.383	1332.06
259.616	1171.06
259.849	1203.06
260.081	1406.06
260.314	1549.06
260.547	1739.06
260.779	1713.06
261.012	1589.06
261.244	1409.06
261.477	1357.06
261.71	1426.06
261.942	1446.06
262.175	1379.06
262.407	1465.06
262.64	1352.06
262.872	1283.06
263.105	1215.06
263.337	1284.06
263.57	1303.06
263.802	1309.06
264.035	1229.06
264.267	1153.06
264.499	1118.06
264.732	1227.06
264.964	1307.06
265.197	1369.06
265.429	1386.06
265.661	1561.06
265.894	1703.06
266.126	1816.06
266.358	1626.06
266.591	1640.06
266.823	1792.06
267.055	1657.06
267.287	1565.06
267.52	1562.06
267.752	1522.06
267.984	1519.06
268.216	1592.06
268.448	1676.06
268.681	1636.06
268.913	1500.06
269.145	1420.06
269.377	1383.06
269.609	1509.06
269.841	1751.06
270.073	2027.06
270.306	2272.06
270.538	2428.06
270.77	2075.06
271.002	1737.06
271.234	1661.06
271.466	1608.06
271.698	1813.06
271.93	2239.06
272.162	2183.06
272.394	1956.06
272.626	1897.06
272.858	1703.06
273.09	1445.06
273.322	1431.06
273.553	1362.06
273.785	1400.06
274.017	1444.06
274.249	1579.06
274.481	1580.06
274.713	1455.06
274.945	1404.06
275.176	1440.06
275.408	1422.06
275.64	1382.06
275.872	1330.06
276.104	1423.06
276.335	1667.06
276.567	1885.06
276.799	1919.06
277.031	1711.06
277.262	1621.06
277.494	1645.06
277.726	1855.06
277.957	1827.06
278.189	1683.06
278.421	1560.06
278.652	1523.06
278.884	1480.06
279.115	1483.06
279.347	1525.06
279.579	1459.06
279.81	1467.06
280.042	1614.06
280.273	1799.06
280.505	1788.06
280.736	1778.06
280.968	1712.06
281.199	1489.06
281.431	1463.06
281.662	1456.06
281.894	1469.06
282.125	1484.06
282.356	1511.06
282.588	1542.06
282.819	1544.06
283.051	1652.06
283.282	1814.06
283.513	1748.06
283.745	1515.06
283.976	1428.06
284.207	1427.06
284.439	1439.06
284.67	1483.06
284.901	1545.06
285.132	1561.06
285.364	1514.06
285.595	1572.06
285.826	1526.06
286.057	1496.06
286.288	1446.06
286.52	1568.06
286.751	1677.06
286.982	1747.06
287.213	1601.06
287.444	1463.06
287.675	1448.06
287.906	1530.06
288.138	1652.06
288.369	1603.06
288.6	1503.06
288.831	1465.06
289.062	1462.06
289.293	1511.06
289.524	1499.06
289.755	1563.06
289.986	1541.06
290.217	1471.06
290.448	1463.06
290.679	1523.06
290.91	1518.06
291.141	1567.06
291.371	1630.06
291.602	1626.06
291.833	1575.06
292.064	1631.06
292.295	1612.06
292.526	1635.06
292.757	1733.06
292.987	1623.06
293.218	1547.06
293.449	1614.06
293.68	1864.06
293.91	1981.06
294.141	1858.06
294.372	1747.06
294.603	1856.06
294.833	1895.06
295.064	1807.06
295.295	1613.06
295.525	1570.06
295.756	1484.06
295.987	1384.06
296.217	1458.06
296.448	1455.06
296.679	1510.06
296.909	1499.06
297.14	1475.06
297.37	1501.06
297.601	1599.06
297.831	1696.06
298.062	1713.06
298.292	1579.06
298.523	1506.06
298.753	1511.06
298.984	1547.06
299.214	1538.06
299.445	1568.06
299.675	1632.06
299.905	1595.06
300.136	1578.06
300.366	1513.06
300.597	1471.06
300.827	1473.06
301.057	1560.06
301.288	1634.06
301.518	1596.06
301.748	1645.06
301.979	1689.06
302.209	1734.06
302.439	1870.06
302.669	1925.06
302.9	1801.06
303.13	1660.06
303.36	1666.06
303.59	1664.06
303.82	1650.06
304.051	1610.06
304.281	1605.06
304.511	1656.06
304.741	1665.06
304.971	1912.06
305.201	2113.06
305.431	1958.06
305.661	1572.06
305.891	1463.06
306.121	1416.06
306.352	1465.06
306.582	1549.06
306.812	1686.06
307.042	1822.06
307.272	1809.06
307.502	1842.06
307.731	1977.06
307.961	2138.06
308.191	1941.06
308.421	1699.06
308.651	1601.06
308.881	1618.06
309.111	1599.06
309.341	1538.06
309.571	1576.06
309.8	1572.06
310.03	1541.06
310.26	1561.06
310.49	1566.06
310.72	1543.06
310.949	1642.06
311.179	1663.06
311.409	1645.06
311.639	1611.06
311.868	1556.06
312.098	1607.06
312.328	1609.06
312.557	1569.06
312.787	1636.06
313.017	1650.06
313.246	1659.06
313.476	1680.06
313.706	1709.06
313.935	1676.06
314.165	1683.06
314.394	1716.06
314.624	1782.06
314.853	1911.06
315.083	2027.06
315.312	2119.06
315.542	1923.06
315.771	1693.06
316.001	1667.06
316.23	1781.06
316.46	1774.06
316.689	1772.06
316.919	1674.06
317.148	1619.06
317.377	1618.06
317.607	1721.06
317.836	1933.06
318.065	2020.06
318.295	1969.06
318.524	1835.06
318.753	1783.06
318.983	1791.06
319.212	1737.06
319.441	1684.06
319.67	1672.06
319.9	1688.06
320.129	1826.06
320.358	1867.06
320.587	1955.06
320.816	1900.06
321.046	1884.06
321.275	1763.06
321.504	1788.06
321.733	1944.06
321.962	1881.06
322.191	1721.06
322.42	1731.06
322.649	1694.06
322.878	1652.06
323.108	1715.06
323.337	1768.06
323.566	1775.06
323.795	1786.06
324.024	1771.06
324.253	1739.06
324.482	1764.06
324.71	1711.06
324.939	1600.06
325.168	1657.06
325.397	1685.06
325.626	1771.06
325.855	1842.06
326.084	1718.06
326.313	1719.06
326.542	1728.06
326.77	1754.06
326.999	1811.06
327.228	1735.06
327.457	1620.06
327.686	1651.06
327.914	1645.06
328.143	1711.06
328.372	1738.06
328.6	1745.06
328.829	1703.06
329.058	1678.06
329.287	1692.06
329.515	1723.06
329.744	1717.06
329.972	1823.06
330.201	1957.06
330.43	1859.06
330.658	1811.06
330.887	1814.06
331.115	1815.06
331.344	1827.06
331.572	1807.06
331.801	1755.06
332.03	1772.06
332.258	1798.06
332.486	1819.06
332.715	1872.06
332.943	1830.06
333.172	1781.06
333.4	1829.06
333.629	1872.06
333.857	1979.06
334.085	2163.06
334.314	2432.06
334.542	2728.06
334.771	2492.06
334.999	2209.06
335.227	2098.06
335.455	1999.06
335.684	1919.06
335.912	1970.06
336.14	2063.06
336.369	2003.06
336.597	1836.06
336.825	1819.06
337.053	1877.06
337.281	1993.06
337.51	2071.06
337.738	2169.06
337.966	2106.06
338.194	1897.06
338.422	1816.06
338.65	1775.06
338.878	1807.06
339.106	1747.06
339.334	1720.06
339.562	1684.06
339.79	1735.06
340.018	1855.06
340.246	1906.06
340.474	1915.06
340.702	1852.06
340.93	1889.06
341.158	1878.06
341.386	1808.06
341.614	1780.06
341.842	1785.06
342.07	1769.06
342.298	1809.06
342.526	1823.06
342.754	1724.06
342.981	1733.06
343.209	1769.06
343.437	1788.06
343.665	1828.06
343.893	1849.06
344.12	1921.06
344.348	1934.06
344.576	1887.06
344.804	1812.06
345.031	1788.06
345.259	1759.06
345.487	1758.06
345.714	1664.06
345.942	1640.06
346.17	1657.06
346.397	1705.06
346.625	1753.06
346.853	1625.06
347.08	1607.06
347.308	1633.06
347.535	1671.06
347.763	1724.06
347.99	1667.06
348.218	1620.06
348.445	1617.06
348.673	1635.06
348.9	1672.06
349.128	1779.06
349.355	1830.06
349.583	1795.06
349.81	1718.06
350.037	1575.06
350.265	1580.06
350.492	1625.06
350.72	1612.06
350.947	1680.06
351.174	1688.06
351.402	1621.06
351.629	1537.06
351.856	1549.06
352.083	1535.06
352.311	1555.06
352.538	1623.06
352.765	1654.06
352.992	1715.06
353.22	1665.06
353.447	1602.06
353.674	1599.06
353.901	1632.06
354.128	1603.06
354.355	1591.06
354.583	1659.06
354.81	1713.06
355.037	1730.06
355.264	1730.06
355.491	1651.06
355.718	1684.06
355.945	1662.06
356.172	1634.06
356.399	1577.06
356.626	1621.06
356.853	1657.06
357.08	1763.06
357.307	1981.06
357.534	1985.06
357.761	1751.06
357.988	1592.06
358.215	1561.06
358.441	1591.06
358.668	1600.06
358.895	1577.06
359.122	1693.06
359.349	1836.06
359.576	1819.06
359.802	1634.06
360.029	1618.06
360.256	1579.06
360.483	1595.06
360.709	1644.06
360.936	1697.06
361.163	1738.06
361.39	1886.06
361.616	2120.06
361.843	2023.06
362.07	1931.06
362.296	1679.06
362.523	1641.06
362.749	1628.06
362.976	1655.06
363.203	1674.06
363.429	1615.06
363.656	1565.06
363.882	1644.06
364.109	1820.06
364.335	1997.06
364.562	1841.06
364.788	1766.06
365.015	1702.06
365.241	1610.06
365.468	1645.06
365.694	1703.06
365.92	1805.06
366.147	1740.06
366.373	1596.06
366.599	1574.06
366.826	1568.06
367.052	1608.06
367.278	1647.06
367.505	1644.06
367.731	1687.06
367.957	1693.06
368.184	1698.06
368.41	1843.06
368.636	1837.06
368.862	1827.06
369.089	1868.06
369.315	1795.06
369.541	1737.06
369.767	1656.06
369.993	1621.06
370.219	1629.06
370.445	1664.06
370.672	1735.06
370.898	1834.06
371.124	1860.06
371.35	1722.06
371.576	1755.06
371.802	1805.06
372.028	1743.06
372.254	1694.06
372.48	1683.06
372.706	1658.06
372.932	1667.06
373.158	1654.06
373.384	1699.06
373.61	1713.06
373.835	1894.06
374.061	1785.06
374.287	1688.06
374.513	1698.06
374.739	1779.06
374.965	1725.06
375.191	1789.06
375.416	1788.06
375.642	1789.06
375.868	1895.06
376.094	1939.06
376.319	1860.06
376.545	1731.06
376.771	1740.06
376.997	1850.06
377.222	1841.06
377.448	1749.06
377.674	1797.06
377.899	1763.06
378.125	1878.06
378.35	1864.06
378.576	1747.06
378.802	1678.06
379.027	1656.06
379.253	1698.06
379.478	1685.06
379.704	1730.06
379.929	1707.06
380.155	1673.06
380.38	1729.06
380.606	1766.06
380.831	1724.06
381.057	1800.06
381.282	1828.06
381.507	1770.06
381.733	1881.06
381.958	1986.06
382.184	1821.06
382.409	1792.06
382.634	1816.06
382.86	1777.06
383.085	1827.06
383.31	1864.06
383.535	1977.06
383.761	2093.06
383.986	2023.06
384.211	1942.06
384.436	1891.06
384.662	2035.06
384.887	2116.06
385.112	1975.06
385.337	1989.06
385.562	2002.06
385.787	1962.06
386.013	2026.06
386.238	2014.06
386.463	2016.06
386.688	2123.06
386.913	2274.06
387.138	2223.06
387.363	2010.06
387.588	2036.06
387.813	1994.06
388.038	2040.06
388.263	2082.06
388.488	2047.06
388.713	1881.06
388.938	1878.06
389.163	1923.06
389.387	1959.06
389.612	1948.06
389.837	1992.06
390.062	2041.06
390.287	1983.06
390.512	1972.06
390.736	1949.06
390.961	1939.06
391.186	1867.06
391.411	1943.06
391.636	1957.06
391.86	1931.06
392.085	1972.06
392.31	1946.06
392.534	1963.06
392.759	2001.06
392.984	2008.06
393.208	1982.06
393.433	1999.06
393.658	2097.06
393.882	2105.06
394.107	2007.06
394.331	1975.06
394.556	1913.06
394.78	1975.06
395.005	2085.06
395.229	2051.06
395.454	2257.06
395.678	2283.06
395.903	2165.06
396.127	2054.06
396.352	2091.06
396.576	2167.06
396.801	2143.06
397.025	2175.06
397.249	2139.06
397.474	2119.06
397.698	2090.06
397.922	2177.06
398.147	2264.06
398.371	2331.06
398.595	2354.06
398.82	2255.06
399.044	2274.06
399.268	2342.06
399.492	2530.06
399.717	2616.06
399.941	2677.06
400.165	2621.06
400.389	2528.06
400.613	2517.06
400.837	2770.06
401.062	3158.06
401.286	2772.06
401.51	2489.06
401.734	2541.06
401.958	2510.06
402.182	2324.06
402.406	2247.06
402.63	2227.06
402.854	2219.06
403.078	2253.06
403.302	2347.06
403.526	2323.06
403.75	2319.06
403.974	2368.06
404.198	2341.06
404.422	2368.06
404.645	2577.06
404.869	2483.06
405.093	2279.06
405.317	2258.06
405.541	2320.06
405.765	2396.06
405.988	2351.06
406.212	2395.06
406.436	2445.06
406.66	2481.06
406.883	2475.06
407.107	2808.06
407.331	3007.06
407.555	3299.06
407.778	3019.06
408.002	2540.06
408.226	2423.06
408.449	2464.06
408.673	2394.06
408.896	2378.06
409.12	2474.06
409.344	2391.06
409.567	2297.06
409.791	2332.06
410.014	2403.06
410.238	2508.06
410.461	2682.06
410.685	2393.06
410.908	2292.06
411.132	2351.06
411.355	2287.06
411.578	2288.06
411.802	2269.06
412.025	2378.06
412.249	2271.06
412.472	2273.06
412.695	2225.06
412.919	2221.06
413.142	2192.06
413.365	2237.06
413.589	2299.06
413.812	2370.06
414.035	2460.06
414.258	2286.06
414.482	2227.06
414.705	2241.06
414.928	2229.06
415.151	2228.06
415.374	2288.06
415.597	2300.06
415.821	2261.06
416.044	2365.06
416.267	2379.06
416.49	2193.06
416.713	2092.06
416.936	2206.06
417.159	2289.06
417.382	2284.06
417.605	2203.06
417.828	2240.06
418.051	2250.06
418.274	2224.06
418.497	2140.06
418.72	2167.06
418.943	2149.06
419.166	2291.06
419.389	2418.06
419.611	2267.06
419.834	2175.06
420.057	2252.06
420.28	2159.06
420.503	2112.06
420.726	2216.06
420.948	2220.06
421.171	2071.06
421.394	2167.06
421.617	2235.06
421.839	2200.06
422.062	2172.06
422.285	2132.06
422.507	2132.06
422.73	2065.06
422.953	2019.06
423.175	2041.06
423.398	2118.06
423.621	2135.06
423.843	2157.06
424.066	2172.06
424.288	2303.06
424.511	2311.06
424.733	2253.06
424.956	2034.06
425.178	2095.06
425.401	2068.06
425.623	2107.06
425.846	2075.06
426.068	2168.06
426.291	2236.06
426.513	2171.06
426.735	2165.06
426.958	2284.06
427.18	2438.06
427.402	2251.06
427.625	2282.06
427.847	2340.06
428.069	2190.06
428.292	2171.06
428.514	2062.06
428.736	2026.06
428.958	2091.06
429.181	2101.06
429.403	2364.06
429.625	2944.06
429.847	2583.06
430.069	2136.06
430.292	2340.06
430.514	2444.06
430.736	2293.06
430.958	2375.06
431.18	2249.06
431.402	2107.06
431.624	2093.06
431.846	2086.06
432.068	2038.06
432.29	2057.06
432.512	2097.06
432.734	2130.06
432.956	2146.06
433.178	2236.06
433.4	2241.06
433.622	2207.06
433.844	2112.06
434.066	2033.06
434.287	2053.06
434.509	2155.06
434.731	2251.06
434.953	2400.06
435.175	2323.06
435.397	2228.06
435.618	2214.06
435.84	2220.06
436.062	2184.06
436.284	2211.06
436.505	2163.06
436.727	2267.06
436.949	2181.06
437.17	2109.06
437.392	2108.06
437.614	2097.06
437.835	2011.06
438.057	2168.06
438.278	2302.06
438.5	2124.06
438.721	2068.06
438.943	2072.06
439.165	2070.06
439.386	2074.06
439.608	2040.06
439.829	2070.06
440.05	2104.06
440.272	2073.06
440.493	1984.06
440.715	2092.06
440.936	2207.06
441.158	2427.06
441.379	2437.06
441.6	2294.06
441.822	2254.06
442.043	2235.06
442.264	2188.06
442.486	2093.06
442.707	2056.06
442.928	2049.06
443.149	2091.06
443.371	2304.06
443.592	2358.06
443.813	2288.06
444.034	2288.06
444.255	2267.06
444.476	2290.06
444.698	2345.06
444.919	2317.06
445.14	2488.06
445.361	2449.06
445.582	2502.06
445.803	2383.06
446.024	2285.06
446.245	2371.06
446.466	2275.06
446.687	2143.06
446.908	2185.06
447.129	2113.06
447.35	2163.06
447.571	2169.06
447.792	2082.06
448.013	2037.06
448.234	2078.06
448.455	2138.06
448.675	2164.06
448.896	1997.06
449.117	1988.06
449.338	2071.06
449.559	2151.06
449.779	2267.06
450	2455.06
450.221	2676.06
450.442	2581.06
450.662	2274.06
450.883	1979.06
451.104	1921.06
451.324	1945.06
451.545	2045.06
451.766	2009.06
451.986	1939.06
452.207	1932.06
452.428	1873.06
452.648	1847.06
452.869	1920.06
453.089	2037.06
453.31	2031.06
453.53	2108.06
453.751	2045.06
453.971	1897.06
454.192	1933.06
454.412	2082.06
454.633	1991.06
454.853	1919.06
455.073	1801.06
455.294	1791.06
455.514	1815.06
455.734	1792.06
455.955	1848.06
456.175	1852.06
456.395	1827.06
456.616	1937.06
456.836	2000.06
457.056	1922.06
457.276	1927.06
457.497	1921.06
457.717	1799.06
457.937	1841.06
458.157	1907.06
458.377	1881.06
458.598	1894.06
458.818	1852.06
459.038	1969.06
459.258	2101.06
459.478	2113.06
459.698	2030.06
459.918	2113.06
460.138	2163.06
460.358	2212.06
460.578	2191.06
460.798	2262.06
461.018	2469.06
461.238	2391.06
461.458	2259.06
461.678	2276.06
461.898	2204.06
462.118	2161.06
462.338	2251.06
462.558	2283.06
462.777	2226.06
462.997	2351.06
463.217	2534.06
463.437	2497.06
463.657	2252.06
463.876	2253.06
464.096	2185.06
464.316	2217.06
464.536	2315.06
464.755	2335.06
464.975	2398.06
465.195	2250.06
465.414	2371.06
465.634	2378.06
465.854	2203.06
466.073	2378.06
466.293	2345.06
466.512	2080.06
466.732	2035.06
466.951	2140.06
467.171	2089.06
467.391	1973.06
467.61	1963.06
467.829	2009.06
468.049	2152.06
468.268	2441.06
468.488	2271.06
468.707	2163.06
468.927	2096.06
469.146	2033.06
469.365	2015.06
469.585	2024.06
469.804	1999.06
470.023	2014.06
470.243	2108.06
470.462	2066.06
470.681	1987.06
470.901	2031.06
471.12	2028.06
471.339	2032.06
471.558	1959.06
471.777	1971.06
471.997	1979.06
472.216	2003.06
472.435	1970.06
472.654	1983.06
472.873	2060.06
473.092	2211.06
473.311	2076.06
473.53	1959.06
473.749	1969.06
473.968	2016.06
474.187	2119.06
474.406	2247.06
474.625	2111.06
474.844	2026.06
475.063	2047.06
475.282	2091.06
475.501	2052.06
475.72	2028.06
475.939	2192.06
476.158	2087.06
476.377	2037.06
476.596	2069.06
476.814	2147.06
477.033	2148.06
477.252	2232.06
477.471	2235.06
477.69	2186.06
477.908	2217.06
478.127	2285.06
478.346	2473.06
478.564	2475.06
478.783	2455.06
479.002	2528.06
479.22	2417.06
479.439	2574.06
479.658	2888.06
479.876	2842.06
480.095	2493.06
480.313	2382.06
480.532	2305.06
480.751	2264.06
480.969	2329.06
481.188	2277.06
481.406	2312.06
481.624	2229.06
481.843	2263.06
482.061	2333.06
482.28	2379.06
482.498	2444.06
482.717	2391.06
482.935	2282.06
483.153	2311.06
483.372	2321.06
483.59	2229.06
483.808	2277.06
484.027	2309.06
484.245	2444.06
484.463	2805.06
484.681	3255.06
484.9	2546.06
485.118	2363.06
485.336	2306.06
485.554	2419.06
485.772	2473.06
485.99	2427.06
486.209	2527.06
486.427	2435.06
486.645	2452.06
486.863	2410.06
487.081	2470.06
487.299	2549.06
487.517	2429.06
487.735	2333.06
487.953	2354.06
488.171	2382.06
488.389	2371.06
488.607	2378.06
488.825	2616.06
489.043	2635.06
489.261	2340.06
489.479	2504.06
489.696	2564.06
489.914	2521.06
490.132	2428.06
490.35	2382.06
490.568	2499.06
490.786	2403.06
491.003	2309.06
491.221	2384.06
491.439	2471.06
491.657	2445.06
491.874	2435.06
492.092	2480.06
492.31	2511.06
492.527	2463.06
492.745	2434.06
492.963	2427.06
493.18	2554.06
493.398	2685.06
493.615	2756.06
493.833	2529.06
494.05	2521.06
494.268	2479.06
494.485	2592.06
494.703	2531.06
494.92	2404.06
495.138	2445.06
495.355	2479.06
495.573	2563.06
495.79	2737.06
496.008	2740.06
496.225	2559.06
496.442	2612.06
496.66	2647.06
496.877	2603.06
497.094	2731.06
497.312	2777.06
497.529	2706.06
497.746	2738.06
497.963	3259.06
498.181	3625.06
498.398	3340.06
498.615	3246.06
498.832	3160.06
499.049	3134.06
499.267	3166.06
499.484	3328.06
499.701	3639.06
499.918	3655.06
500.135	3941.06
500.352	4233.06
500.569	4190.06
500.786	4435.06
501.003	4141.06
501.22	3778.06
501.437	3695.06
501.654	3608.06
501.871	3601.06
502.088	3129.06
502.305	3142.06
502.522	3036.06
502.739	2835.06
502.956	2731.06
503.172	2745.06
503.389	2665.06
503.606	2609.06
503.823	2658.06
504.04	2637.06
504.256	2676.06
504.473	2634.06
504.69	2727.06
504.907	2591.06
505.123	2455.06
505.34	2552.06
505.557	3257.06
505.773	2870.06
505.99	2378.06
506.207	2275.06
506.423	2213.06
506.64	2196.06
506.856	2251.06
507.073	2561.06
507.289	2695.06
507.506	2579.06
507.722	2277.06
507.939	2173.06
508.155	2164.06
508.372	2196.06
508.588	2137.06
508.805	2023.06
509.021	2056.06
509.238	2028.06
509.454	2058.06
509.67	2055.06
509.887	1998.06
510.103	1996.06
510.319	2028.06
510.536	2174.06
510.752	2231.06
510.968	2177.06
511.184	2381.06
511.401	2332.06
511.617	2040.06
511.833	1989.06
512.049	1965.06
512.265	1958.06
512.481	1933.06
512.698	1987.06
512.914	2163.06
513.13	2105.06
513.346	1993.06
513.562	1953.06
513.778	1981.06
513.994	2117.06
514.21	2189.06
514.426	2186.06
514.642	2387.06
514.858	2269.06
515.074	2116.06
515.29	2008.06
515.506	2066.06
515.721	2082.06
515.937	2149.06
516.153	2403.06
516.369	2279.06
516.585	2128.06
516.801	2051.06
517.016	2109.06
517.232	2108.06
517.448	2169.06
517.664	2189.06
517.879	2206.06
518.095	2308.06
518.311	2244.06
518.527	2108.06
518.742	2089.06
518.958	2007.06
519.173	2020.06
519.389	2040.06
519.605	2018.06
519.82	2073.06
520.036	2065.06
520.251	2002.06
520.467	2050.06
520.682	2208.06
520.898	2265.06
521.113	2028.06
521.329	1972.06
521.544	2155.06
521.76	2031.06
521.975	1924.06
522.19	1919.06
522.406	1871.06
522.621	2257.06
522.836	2301.06
523.052	1870.06
523.267	1891.06
523.482	1915.06
523.698	1852.06
523.913	1789.06
524.128	1849.06
524.343	1938.06
524.559	1985.06
524.774	1836.06
524.989	1830.06
525.204	1805.06
525.419	1768.06
525.634	1775.06
525.849	1803.06
526.064	1809.06
526.28	1857.06
526.495	1785.06
526.71	1766.06
526.925	1772.06
527.14	1748.06
527.355	1737.06
527.57	1709.06
527.785	1761.06
527.999	1732.06
528.214	1688.06
528.429	1644.06
528.644	1703.06
528.859	1759.06
529.074	1731.06
529.289	1701.06
529.503	1744.06
529.718	1766.06
529.933	1732.06
530.148	1670.06
530.363	1659.06
530.577	1715.06
530.792	1746.06
531.007	1752.06
531.221	1735.06
531.436	1739.06
531.651	1787.06
531.865	1888.06
532.08	1782.06
532.295	1676.06
532.509	1600.06
532.724	1656.06
532.938	1752.06
533.153	1852.06
533.367	1778.06
533.582	1751.06
533.796	1673.06
534.011	1700.06
534.225	1733.06
534.44	1669.06
534.654	1696.06
534.868	1659.06
535.083	1711.06
535.297	1761.06
535.511	1713.06
535.726	1712.06
535.94	1716.06
536.154	1685.06
536.369	1638.06
536.583	1639.06
536.797	1644.06
537.011	1684.06
537.225	1654.06
537.44	1604.06
537.654	1676.06
537.868	1644.06
538.082	1573.06
538.296	1548.06
538.51	1575.06
538.724	1597.06
538.938	1557.06
539.153	1625.06
539.367	1623.06
539.581	1630.06
539.795	1729.06
540.009	1688.06
540.222	1656.06
540.436	1668.06
540.65	1788.06
540.864	1830.06
541.078	1729.06
541.292	1593.06
541.506	1595.06
541.72	1578.06
541.934	1618.06
542.147	1613.06
542.361	1620.06
542.575	1580.06
542.789	1551.06
543.002	1514.06
543.216	1552.06
543.43	1649.06
543.644	1676.06
543.857	1770.06
544.071	1668.06
544.285	1616.06
544.498	1595.06
544.712	1625.06
544.925	1608.06
545.139	1649.06
545.352	1586.06
545.566	1492.06
545.779	1522.06
545.993	1535.06
546.206	1512.06
546.42	1508.06
546.633	1483.06
546.847	1500.06
547.06	1530.06
547.274	1493.06
547.487	1523.06
547.7	1491.06
547.914	1527.06
548.127	1534.06
548.34	1535.06
548.554	1543.06
548.767	1543.06
548.98	1536.06
549.193	1515.06
549.407	1569.06
549.62	1610.06
549.833	1546.06
550.046	1547.06
550.259	1525.06
550.473	1500.06
550.686	1485.06
550.899	1475.06
551.112	1447.06
551.325	1447.06
551.538	1524.06
551.751	1770.06
551.964	1465.06
552.177	1434.06
552.39	1436.06
552.603	1496.06
552.816	1505.06
553.029	1605.06
553.242	1620.06
553.455	1510.06
553.667	1509.06
553.88	1516.06
554.093	1519.06
554.306	1422.06
554.519	1415.06
554.732	1381.06
554.944	1407.06
555.157	1449.06
555.37	1415.06
555.583	1425.06
555.795	1413.06
556.008	1370.06
556.221	1323.06
556.433	1328.06
556.646	1266.06
556.859	1296.06
557.071	1283.06
557.284	1272.06
557.496	1291.06
557.709	1291.06
557.921	1271.06
558.134	1261.06
558.346	1273.06
558.559	1250.06
558.771	1287.06
558.984	1238.06
559.196	1209.06
559.409	1199.06
559.621	1212.06
559.833	1234.06
560.046	1287.06
560.258	1229.06
560.47	1274.06
560.683	1236.06
560.895	1228.06
561.107	1251.06
561.32	1267.06
561.532	1280.06
561.744	1243.06
561.956	1255.06
562.168	1213.06
562.381	1171.06
562.593	1220.06
562.805	1228.06
563.017	1190.06
563.229	1230.06
563.441	1240.06
563.653	1231.06
563.865	1240.06
564.077	1181.06
564.289	1193.06
564.501	1219.06
564.713	1247.06
564.925	1299.06
565.137	1417.06
565.349	1290.06
565.561	1263.06
565.773	1308.06
565.985	1311.06
566.197	1367.06
566.408	1441.06
566.62	1479.06
566.832	1451.06
567.044	1500.06
567.255	1445.06
567.467	1442.06
567.679	1532.06
567.891	1546.06
568.102	1510.06
568.314	1503.06
568.526	1430.06
568.737	1354.06
568.949	1270.06
569.161	1218.06
569.372	1173.06
569.584	1175.06
569.795	1197.06
570.007	1177.06
570.218	1153.06
570.43	1119.06
570.641	1107.06
570.853	1097.06
571.064	1106.06
571.276	1069.06
571.487	1099.06
571.698	1075.06
571.91	1023.06
572.121	1053.06
572.333	1011.06
572.544	1017.06
572.755	997.06
572.966	999.06
573.178	976.06
573.389	1020.06
573.6	1045.06
573.811	1081.06
574.023	969.06
574.234	953.06
574.445	951.06
574.656	921.06
574.867	928.06
575.078	956.06
575.289	935.06
575.501	913.06
575.712	919.06
575.923	927.06
576.134	920.06
576.345	902.06
576.556	882.06
576.767	866.06
576.978	872.06
577.188	886.06
577.399	862.06
577.61	857.06
577.821	866.06
578.032	864.06
578.243	829.06
578.454	849.06
578.665	855.06
578.875	823.06
579.086	819.06
579.297	840.06
579.508	869.06
579.718	874.06
579.929	839.06
580.14	807.06
580.35	821.06
580.561	867.06
580.772	909.06
580.982	884.06
581.193	821.06
581.403	803.06
581.614	781.06
581.825	801.06
582.035	792.06
582.246	789.06
582.456	827.06
582.667	815.06
582.877	765.06
583.087	773.06
583.298	746.06
583.508	805.06
583.719	809.06
583.929	773.06
584.139	802.06
584.35	748.06
584.56	771.06
584.77	780.06
584.981	776.06
585.191	794.06
585.401	791.06
585.611	790.06
585.821	765.06
586.032	726.06
586.242	769.06
586.452	733.06
586.662	763.06
586.872	757.06
587.082	735.06
587.292	793.06
587.502	756.06
587.713	777.06
587.923	745.06
588.133	730.06
588.343	760.06
588.553	751.06
588.762	735.06
588.972	748.06
589.182	761.06
589.392	768.06
589.602	777.06
589.812	768.06
590.022	723.06
590.232	736.06
590.441	737.06
590.651	749.06
590.861	738.06
591.071	703.06
591.281	728.06
591.49	725.06
591.7	740.06
591.91	742.06
592.119	717.06
592.329	725.06
592.539	767.06
592.748	759.06
592.958	755.06
593.167	779.06
593.377	771.06
593.587	767.06
593.796	769.06
594.006	787.06
594.215	784.06
594.424	773.06
594.634	747.06
594.843	744.06
595.053	782.06
595.262	756.06
595.472	743.06
595.681	725.06
595.89	743.06
596.1	719.06
596.309	728.06
596.518	668.06
596.727	707.06
596.937	687.06
597.146	659.06
597.355	664.06
597.564	666.06
597.774	657.06
597.983	637.06
598.192	639.06
598.401	618.06
598.61	635.06
598.819	633.06
599.028	633.06
599.237	656.06
599.446	620.06
599.655	609.06
599.864	581.06
600.073	616.06
600.282	607.06
600.491	603.06
600.7	613.06
600.909	622.06
601.118	609.06
601.327	629.06
601.536	634.06
601.745	605.06
601.953	594.06
602.162	594.06
602.371	597.06
602.58	608.06
602.789	611.06
602.997	579.06
603.206	572.06
603.415	572.06
603.623	588.06
603.832	590.06
604.041	594.06
604.249	579.06
604.458	583.06
604.666	588.06
604.875	551.06
605.084	565.06
605.292	585.06
605.501	549.06
605.709	579.06
605.918	548.06
606.126	533.06
606.334	537.06
606.543	554.06
606.751	562.06
606.96	580.06
607.168	564.06
607.376	554.06
607.585	525.06
607.793	563.06
608.001	547.06
608.21	540.06
608.418	555.06
608.626	543.06
608.834	545.06
609.043	547.06
609.251	545.06
609.459	553.06
609.667	553.06
609.875	548.06
610.083	552.06
610.291	575.06
610.499	575.06
610.707	541.06
610.916	537.06
611.124	526.06
611.332	516.06
611.54	527.06
611.748	531.06
611.955	526.06
612.163	525.06
612.371	513.06
612.579	532.06
612.787	521.06
612.995	521.06
613.203	539.06
613.411	497.06
613.618	529.06
613.826	537.06
614.034	521.06
614.242	528.06
614.449	515.06
614.657	503.06
614.865	510.06
615.072	513.06
615.28	490.06
615.488	531.06
615.695	521.06
615.903	565.06
616.111	536.06
616.318	523.06
616.526	484.06
616.733	492.06
616.941	499.06
617.148	515.06
617.356	501.06
617.563	513.06
617.771	491.06
617.978	505.06
618.185	510.06
618.393	491.06
618.6	468.06
618.807	492.06
619.015	511.06
619.222	480.06
619.429	471.06
619.637	493.06
619.844	479.06
620.051	497.06
620.258	486.06
620.466	477.06
620.673	457.06
620.88	450.06
621.087	459.06
621.294	441.06
621.501	468.06
621.708	464.06
621.915	493.06
622.122	476.06
622.329	475.06
622.536	461.06
622.743	456.06
622.95	447.06
623.157	448.06
623.364	462.06
623.571	453.06
623.778	468.06
623.985	458.06
624.192	443.06
624.399	431.06
624.606	434.06
624.812	440.06
625.019	437.06
625.226	447.06
625.433	422.06
625.639	442.06
625.846	418.06
626.053	433.06
626.259	409.06
626.466	415.06
626.673	400.06
626.879	423.06
627.086	416.06
627.293	393.06
627.499	417.06
627.706	397.06
627.912	397.06
628.119	411.06
628.325	404.06
628.532	403.06
628.738	413.06
628.945	412.06
629.151	416.06
629.357	405.06
629.564	410.06
629.77	398.06
629.976	388.06
630.183	401.06
630.389	397.06
630.595	407.06
630.802	407.06
631.008	392.06
631.214	385.06
631.42	398.06
631.627	381.06
631.833	367.06
632.039	390.06
632.245	388.06
632.451	399.06
632.657	395.06
632.863	395.06
633.069	360.06
633.275	350.06
633.481	355.06
633.688	361.06
633.893	369.06
634.099	364.06
634.305	376.06
634.511	345.06
634.717	350.06
634.923	340.06
635.129	337.06
635.335	344.06
635.541	368.06
635.747	333.06
635.952	358.06
636.158	369.06
636.364	351.06
636.57	337.06
636.775	347.06
636.981	347.06
637.187	347.06
637.392	337.06
637.598	346.06
637.804	346.06
638.009	351.06
638.215	339.06
638.421	353.06
638.626	333.06
638.832	344.06
639.037	340.06
639.243	314.06
639.448	332.06
639.654	325.06
639.859	332.06
640.065	325.06
640.27	330.06
640.475	326.06
640.681	343.06
640.886	329.06
641.091	341.06
641.297	316.06
641.502	316.06
641.707	318.06
641.913	303.06
642.118	325.06
642.323	327.06
642.528	330.06
642.733	307.06
642.939	306.06
643.144	312.06
643.349	336.06
643.554	313.06
643.759	336.06
643.964	317.06
644.169	307.06
644.374	323.06
644.579	311.06
644.784	337.06
644.989	320.06
645.194	313.06
645.399	298.06
645.604	299.06
645.809	300.06
646.014	307.06
646.219	321.06
646.423	307.06
646.628	321.06
646.833	319.06
647.038	300.06
647.243	309.06
647.447	307.06
647.652	330.06
647.857	329.06
648.062	327.06
648.266	329.06
648.471	320.06
648.676	313.06
648.88	325.06
649.085	303.06
649.289	317.06
649.494	303.06
649.698	312.06
649.903	293.06
650.107	311.06
650.312	298.06
650.516	281.06
650.721	282.06
650.925	290.06
651.13	291.06
651.334	280.06
651.539	293.06
651.743	265.06
651.947	283.06
652.152	272.06
652.356	260.06
652.56	264.06
652.764	259.06
652.969	268.06
653.173	257.06
653.377	269.06
653.581	277.06
653.785	241.06
653.99	255.06
654.194	256.06
654.398	231.06
654.602	239.06
654.806	219.06
655.01	246.06
655.214	245.06
655.418	237.06
655.622	235.06
655.826	261.06
656.03	247.06
656.234	272.06
656.438	264.06
656.642	267.06
656.846	277.06
657.049	243.06
657.253	236.06
657.457	216.06
657.661	198.06
657.865	197.06
658.068	196.06
658.272	172.06
658.476	169.06
658.68	163.06
658.883	156.06
659.087	145.06
659.291	136.06
659.494	131.06
659.698	139.06
659.901	128.06
660.105	118.06
660.309	132.06
660.512	129.06
660.716	124.06
660.919	112.06
661.123	104.06
661.326	103.06
661.53	102.06
661.733	97.06
661.936	108.06
662.14	112.06
662.343	106.06
662.546	96.06
662.75	76.06
662.953	90.06
663.156	84.06
663.36	92.06
663.563	81.06
663.766	89.06
663.969	102.06
664.173	76.06
664.376	72.06
664.579	91.06
664.782	83.06
664.985	87.06
665.188	84.06
665.391	85.06
665.594	84.06
665.797	92.06
666	80.06
666.203	89.06
666.406	80.06
666.609	77.06
666.812	79.06
667.015	95.06
667.218	103.06
667.421	94.06
667.624	96.06
667.827	84.06
668.03	80.06
668.232	87.06
668.435	91.06
668.638	87.06
668.841	75.06
669.043	75.06
669.246	83.06
669.449	87.06
669.651	76.06
669.854	90.06
670.057	74.06
670.259	80.06
670.462	73.06
670.665	91.06
670.867	76.06
671.07	74.06
671.272	73.06
671.475	83.06
671.677	84.06
671.88	77.06
672.082	74.06
672.284	83.06
672.487	99.06
672.689	77.06
672.892	87.06
