Data from WStandard_LampEnergy5.5LIBS07252019.E.O._I.C._HRD10591_16-06-48-920.txt Node
Date: Thu Jul 25 16:06:48 EDT 2019
User: cochatt
Spectrometer: HR+D1059
Trigger mode: 1
Integration Time (sec): 1.000000E-1
Scans to average: 1
Electric dark correction enabled: true
Nonlinearity correction enabled: false
Boxcar width: 0
XAxis mode: Wavelengths
Number of Pixels in Spectrum: 2048
>>>>>Begin Spectral Data<<<<<
223.165	-11.25
223.4	-11.25
223.635	-11.25
223.869	-28.25
224.104	-17.25
224.338	-11.25
224.573	-18.25
224.808	-11.25
225.042	-16.25
225.277	-6.25
225.511	2.75
225.746	6.75
225.98	3.75
226.215	9.75
226.449	20.75
226.683	25.75
226.918	20.75
227.152	29.75
227.387	32.75
227.621	40.75
227.856	34.75
228.09	47.75
228.324	51.75
228.559	47.75
228.793	145.75
229.027	356.75
229.262	372.75
229.496	407.75
229.73	400.75
229.964	452.75
230.199	452.75
230.433	483.75
230.667	493.75
230.901	536.75
231.136	487.75
231.37	472.75
231.604	446.75
231.838	467.75
232.072	444.75
232.306	459.75
232.541	468.75
232.775	585.75
233.009	614.75
233.243	607.75
233.477	536.75
233.711	540.75
233.945	566.75
234.179	545.75
234.413	560.75
234.647	646.75
234.881	601.75
235.115	547.75
235.349	568.75
235.583	576.75
235.817	565.75
236.051	540.75
236.285	572.75
236.519	577.75
236.753	633.75
236.987	686.75
237.221	679.75
237.455	770.75
237.689	726.75
237.922	671.75
238.156	646.75
238.39	673.75
238.624	719.75
238.858	764.75
239.091	782.75
239.325	805.75
239.559	958.75
239.793	965.75
240.027	1051.75
240.26	1045.75
240.494	789.75
240.728	744.75
240.961	748.75
241.195	748.75
241.429	865.75
241.662	813.75
241.896	732.75
242.13	772.75
242.363	861.75
242.597	924.75
242.83	882.75
243.064	888.75
243.298	993.75
243.531	941.75
243.765	940.75
243.998	943.75
244.232	822.75
244.465	792.75
244.699	800.75
244.932	935.75
245.166	1011.75
245.399	1013.75
245.633	897.75
245.866	889.75
246.099	908.75
246.333	963.75
246.566	972.75
246.8	1078.75
247.033	1199.75
247.266	1097.75
247.5	1088.75
247.733	1040.75
247.966	1114.75
248.2	1240.75
248.433	1206.75
248.666	1226.75
248.899	1328.75
249.133	1524.75
249.366	1757.75
249.599	1448.75
249.832	1237.75
250.066	1280.75
250.299	1298.75
250.532	1217.75
250.765	1107.75
250.998	1155.75
251.231	1191.75
251.465	1267.75
251.698	1216.75
251.931	1182.75
252.164	1228.75
252.397	1267.75
252.63	1280.75
252.863	1108.75
253.096	1098.75
253.329	1142.75
253.562	1198.75
253.795	1328.75
254.028	1282.75
254.261	1206.75
254.494	1187.75
254.727	1102.75
254.96	1141.75
255.193	1256.75
255.426	1388.75
255.659	1655.75
255.892	1747.75
256.124	1402.75
256.357	1349.75
256.59	1408.75
256.823	1468.75
257.056	1438.75
257.289	1730.75
257.521	1939.75
257.754	1682.75
257.987	1615.75
258.22	1800.75
258.452	1756.75
258.685	1409.75
258.918	1341.75
259.151	1426.75
259.383	1308.75
259.616	1162.75
259.849	1246.75
260.081	1405.75
260.314	1538.75
260.547	1710.75
260.779	1737.75
261.012	1613.75
261.244	1465.75
261.477	1325.75
261.71	1450.75
261.942	1444.75
262.175	1368.75
262.407	1477.75
262.64	1396.75
262.872	1304.75
263.105	1281.75
263.337	1280.75
263.57	1269.75
263.802	1288.75
264.035	1222.75
264.267	1168.75
264.499	1121.75
264.732	1188.75
264.964	1318.75
265.197	1349.75
265.429	1404.75
265.661	1581.75
265.894	1782.75
266.126	1835.75
266.358	1632.75
266.591	1657.75
266.823	1805.75
267.055	1631.75
267.287	1590.75
267.52	1564.75
267.752	1558.75
267.984	1528.75
268.216	1656.75
268.448	1705.75
268.681	1681.75
268.913	1506.75
269.145	1428.75
269.377	1378.75
269.609	1520.75
269.841	1766.75
270.073	2019.75
270.306	2312.75
270.538	2465.75
270.77	2086.75
271.002	1765.75
271.234	1647.75
271.466	1616.75
271.698	1883.75
271.93	2246.75
272.162	2233.75
272.394	2000.75
272.626	1922.75
272.858	1694.75
273.09	1448.75
273.322	1406.75
273.553	1355.75
273.785	1376.75
274.017	1443.75
274.249	1578.75
274.481	1570.75
274.713	1444.75
274.945	1397.75
275.176	1404.75
275.408	1369.75
275.64	1347.75
275.872	1357.75
276.104	1422.75
276.335	1635.75
276.567	1865.75
276.799	1967.75
277.031	1738.75
277.262	1592.75
277.494	1634.75
277.726	1881.75
277.957	1866.75
278.189	1685.75
278.421	1536.75
278.652	1469.75
278.884	1470.75
279.115	1441.75
279.347	1517.75
279.579	1463.75
279.81	1442.75
280.042	1585.75
280.273	1774.75
280.505	1769.75
280.736	1832.75
280.968	1732.75
281.199	1502.75
281.431	1410.75
281.662	1422.75
281.894	1422.75
282.125	1461.75
282.356	1498.75
282.588	1536.75
282.819	1504.75
283.051	1641.75
283.282	1793.75
283.513	1759.75
283.745	1486.75
283.976	1404.75
284.207	1447.75
284.439	1449.75
284.67	1453.75
284.901	1509.75
285.132	1514.75
285.364	1500.75
285.595	1513.75
285.826	1482.75
286.057	1468.75
286.288	1474.75
286.52	1562.75
286.751	1705.75
286.982	1760.75
287.213	1622.75
287.444	1450.75
287.675	1402.75
287.906	1523.75
288.138	1653.75
288.369	1570.75
288.6	1511.75
288.831	1481.75
289.062	1465.75
289.293	1489.75
289.524	1469.75
289.755	1510.75
289.986	1529.75
290.217	1438.75
290.448	1467.75
290.679	1520.75
290.91	1511.75
291.141	1564.75
291.371	1618.75
291.602	1638.75
291.833	1592.75
292.064	1625.75
292.295	1601.75
292.526	1672.75
292.757	1718.75
292.987	1656.75
293.218	1532.75
293.449	1682.75
293.68	1863.75
293.91	2053.75
294.141	1922.75
294.372	1759.75
294.603	1802.75
294.833	1879.75
295.064	1820.75
295.295	1643.75
295.525	1575.75
295.756	1484.75
295.987	1404.75
296.217	1454.75
296.448	1496.75
296.679	1493.75
296.909	1506.75
297.14	1460.75
297.37	1476.75
297.601	1593.75
297.831	1708.75
298.062	1695.75
298.292	1592.75
298.523	1519.75
298.753	1481.75
298.984	1524.75
299.214	1554.75
299.445	1541.75
299.675	1586.75
299.905	1614.75
300.136	1568.75
300.366	1552.75
300.597	1489.75
300.827	1432.75
301.057	1522.75
301.288	1663.75
301.518	1592.75
301.748	1638.75
301.979	1735.75
302.209	1727.75
302.439	1877.75
302.669	1966.75
302.9	1828.75
303.13	1638.75
303.36	1650.75
303.59	1655.75
303.82	1647.75
304.051	1618.75
304.281	1627.75
304.511	1655.75
304.741	1705.75
304.971	1916.75
305.201	2103.75
305.431	1943.75
305.661	1582.75
305.891	1419.75
306.121	1397.75
306.352	1480.75
306.582	1568.75
306.812	1670.75
307.042	1804.75
307.272	1854.75
307.502	1864.75
307.731	2012.75
307.961	2143.75
308.191	1981.75
308.421	1695.75
308.651	1586.75
308.881	1516.75
309.111	1553.75
309.341	1534.75
309.571	1557.75
309.8	1564.75
310.03	1562.75
310.26	1530.75
310.49	1538.75
310.72	1571.75
310.949	1622.75
311.179	1663.75
311.409	1662.75
311.639	1584.75
311.868	1549.75
312.098	1602.75
312.328	1603.75
312.557	1558.75
312.787	1614.75
313.017	1634.75
313.246	1643.75
313.476	1622.75
313.706	1665.75
313.935	1610.75
314.165	1664.75
314.394	1701.75
314.624	1853.75
314.853	1909.75
315.083	1971.75
315.312	2018.75
315.542	1931.75
315.771	1680.75
316.001	1651.75
316.23	1779.75
316.46	1809.75
316.689	1754.75
316.919	1648.75
317.148	1596.75
317.377	1575.75
317.607	1719.75
317.836	1950.75
318.065	2048.75
318.295	1967.75
318.524	1891.75
318.753	1795.75
318.983	1764.75
319.212	1724.75
319.441	1698.75
319.67	1670.75
319.9	1718.75
320.129	1797.75
320.358	1908.75
320.587	1970.75
320.816	1900.75
321.046	1853.75
321.275	1775.75
321.504	1811.75
321.733	1930.75
321.962	1881.75
322.191	1750.75
322.42	1727.75
322.649	1675.75
322.878	1688.75
323.108	1677.75
323.337	1753.75
323.566	1788.75
323.795	1761.75
324.024	1789.75
324.253	1708.75
324.482	1790.75
324.71	1702.75
324.939	1597.75
325.168	1628.75
325.397	1682.75
325.626	1784.75
325.855	1784.75
326.084	1710.75
326.313	1704.75
326.542	1789.75
326.77	1779.75
326.999	1831.75
327.228	1711.75
327.457	1637.75
327.686	1613.75
327.914	1637.75
328.143	1712.75
328.372	1704.75
328.6	1718.75
328.829	1712.75
329.058	1656.75
329.287	1634.75
329.515	1698.75
329.744	1721.75
329.972	1804.75
330.201	1919.75
330.43	1897.75
330.658	1806.75
330.887	1760.75
331.115	1800.75
331.344	1821.75
331.572	1778.75
331.801	1791.75
332.03	1740.75
332.258	1776.75
332.486	1765.75
332.715	1853.75
332.943	1896.75
333.172	1750.75
333.4	1818.75
333.629	1871.75
333.857	1986.75
334.085	2165.75
334.314	2451.75
334.542	2741.75
334.771	2592.75
334.999	2217.75
335.227	2088.75
335.455	1967.75
335.684	1958.75
335.912	2020.75
336.14	2046.75
336.369	1978.75
336.597	1861.75
336.825	1829.75
337.053	1845.75
337.281	2019.75
337.51	2037.75
337.738	2183.75
337.966	2115.75
338.194	1918.75
338.422	1772.75
338.65	1790.75
338.878	1748.75
339.106	1723.75
339.334	1711.75
339.562	1685.75
339.79	1727.75
340.018	1849.75
340.246	1885.75
340.474	1901.75
340.702	1881.75
340.93	1912.75
341.158	1882.75
341.386	1840.75
341.614	1780.75
341.842	1753.75
342.07	1774.75
342.298	1788.75
342.526	1807.75
342.754	1746.75
342.981	1760.75
343.209	1757.75
343.437	1743.75
343.665	1741.75
343.893	1799.75
344.12	1905.75
344.348	1964.75
344.576	1852.75
344.804	1805.75
345.031	1768.75
345.259	1796.75
345.487	1737.75
345.714	1625.75
345.942	1554.75
346.17	1672.75
346.397	1678.75
346.625	1701.75
346.853	1618.75
347.08	1568.75
347.308	1617.75
347.535	1657.75
347.763	1678.75
347.99	1660.75
348.218	1583.75
348.445	1583.75
348.673	1622.75
348.9	1696.75
349.128	1776.75
349.355	1874.75
349.583	1809.75
349.81	1675.75
350.037	1583.75
350.265	1518.75
350.492	1593.75
350.72	1600.75
350.947	1667.75
351.174	1752.75
351.402	1648.75
351.629	1540.75
351.856	1508.75
352.083	1514.75
352.311	1550.75
352.538	1595.75
352.765	1679.75
352.992	1681.75
353.22	1660.75
353.447	1598.75
353.674	1609.75
353.901	1662.75
354.128	1602.75
354.355	1623.75
354.583	1667.75
354.81	1681.75
355.037	1721.75
355.264	1685.75
355.491	1658.75
355.718	1662.75
355.945	1664.75
356.172	1592.75
356.399	1558.75
356.626	1584.75
356.853	1633.75
357.08	1765.75
357.307	1949.75
357.534	1994.75
357.761	1726.75
357.988	1600.75
358.215	1538.75
358.441	1554.75
358.668	1539.75
358.895	1545.75
359.122	1658.75
359.349	1850.75
359.576	1865.75
359.802	1656.75
360.029	1588.75
360.256	1588.75
360.483	1577.75
360.709	1640.75
360.936	1712.75
361.163	1764.75
361.39	1929.75
361.616	2081.75
361.843	1997.75
362.07	1920.75
362.296	1647.75
362.523	1622.75
362.749	1604.75
362.976	1629.75
363.203	1670.75
363.429	1620.75
363.656	1601.75
363.882	1609.75
364.109	1821.75
364.335	1950.75
364.562	1824.75
364.788	1738.75
365.015	1670.75
365.241	1581.75
365.468	1636.75
365.694	1732.75
365.92	1806.75
366.147	1718.75
366.373	1589.75
366.599	1549.75
366.826	1555.75
367.052	1560.75
367.278	1598.75
367.505	1644.75
367.731	1670.75
367.957	1662.75
368.184	1700.75
368.41	1811.75
368.636	1799.75
368.862	1798.75
369.089	1842.75
369.315	1765.75
369.541	1709.75
369.767	1663.75
369.993	1600.75
370.219	1604.75
370.445	1655.75
370.672	1719.75
370.898	1826.75
371.124	1812.75
371.35	1728.75
371.576	1726.75
371.802	1837.75
372.028	1748.75
372.254	1705.75
372.48	1667.75
372.706	1577.75
372.932	1623.75
373.158	1632.75
373.384	1680.75
373.61	1703.75
373.835	1825.75
374.061	1754.75
374.287	1713.75
374.513	1684.75
374.739	1698.75
374.965	1721.75
375.191	1730.75
375.416	1793.75
375.642	1748.75
375.868	1858.75
376.094	1912.75
376.319	1808.75
376.545	1696.75
376.771	1734.75
376.997	1840.75
377.222	1820.75
377.448	1772.75
377.674	1788.75
377.899	1778.75
378.125	1912.75
378.35	1874.75
378.576	1699.75
378.802	1648.75
379.027	1631.75
379.253	1708.75
379.478	1697.75
379.704	1698.75
379.929	1629.75
380.155	1703.75
380.38	1710.75
380.606	1731.75
380.831	1677.75
381.057	1798.75
381.282	1821.75
381.507	1781.75
381.733	1896.75
381.958	1972.75
382.184	1811.75
382.409	1721.75
382.634	1777.75
382.86	1774.75
383.085	1764.75
383.31	1800.75
383.535	1954.75
383.761	2062.75
383.986	1992.75
384.211	1953.75
384.436	1887.75
384.662	1971.75
384.887	2064.75
385.112	1997.75
385.337	2004.75
385.562	1937.75
385.787	1949.75
386.013	1984.75
386.238	1961.75
386.463	1973.75
386.688	2057.75
386.913	2226.75
387.138	2166.75
387.363	1970.75
387.588	2057.75
387.813	2001.75
388.038	1996.75
388.263	2104.75
388.488	2048.75
388.713	1852.75
388.938	1864.75
389.163	1825.75
389.387	1904.75
389.612	1905.75
389.837	1954.75
390.062	1956.75
390.287	1933.75
390.512	1941.75
390.736	1904.75
390.961	1925.75
391.186	1814.75
391.411	1874.75
391.636	1900.75
391.86	1929.75
392.085	1909.75
392.31	1917.75
392.534	1924.75
392.759	1988.75
392.984	1952.75
393.208	1970.75
393.433	2029.75
393.658	2136.75
393.882	2130.75
394.107	2009.75
394.331	1927.75
394.556	1911.75
394.78	1965.75
395.005	2001.75
395.229	2111.75
395.454	2234.75
395.678	2264.75
395.903	2130.75
396.127	2055.75
396.352	2063.75
396.576	2133.75
396.801	2132.75
397.025	2169.75
397.249	2137.75
397.474	2093.75
397.698	2050.75
397.922	2124.75
398.147	2212.75
398.371	2344.75
398.595	2371.75
398.82	2192.75
399.044	2253.75
399.268	2373.75
399.492	2483.75
399.717	2602.75
399.941	2665.75
400.165	2544.75
400.389	2529.75
400.613	2464.75
400.837	2671.75
401.062	3121.75
401.286	2696.75
401.51	2409.75
401.734	2586.75
401.958	2469.75
402.182	2287.75
402.406	2218.75
402.63	2207.75
402.854	2186.75
403.078	2244.75
403.302	2262.75
403.526	2310.75
403.75	2267.75
403.974	2322.75
404.198	2279.75
404.422	2337.75
404.645	2494.75
404.869	2444.75
405.093	2238.75
405.317	2238.75
405.541	2263.75
405.765	2349.75
405.988	2325.75
406.212	2414.75
406.436	2423.75
406.66	2497.75
406.883	2503.75
407.107	2803.75
407.331	3027.75
407.555	3219.75
407.778	3056.75
408.002	2489.75
408.226	2452.75
408.449	2453.75
408.673	2357.75
408.896	2340.75
409.12	2425.75
409.344	2361.75
409.567	2255.75
409.791	2307.75
410.014	2358.75
410.238	2476.75
410.461	2591.75
410.685	2389.75
410.908	2256.75
411.132	2270.75
411.355	2316.75
411.578	2245.75
411.802	2218.75
412.025	2326.75
412.249	2224.75
412.472	2188.75
412.695	2165.75
412.919	2180.75
413.142	2194.75
413.365	2208.75
413.589	2298.75
413.812	2335.75
414.035	2436.75
414.258	2258.75
414.482	2185.75
414.705	2256.75
414.928	2148.75
415.151	2184.75
415.374	2191.75
415.597	2251.75
415.821	2247.75
416.044	2288.75
416.267	2312.75
416.49	2141.75
416.713	2094.75
416.936	2169.75
417.159	2257.75
417.382	2285.75
417.605	2168.75
417.828	2224.75
418.051	2262.75
418.274	2206.75
418.497	2093.75
418.72	2119.75
418.943	2141.75
419.166	2245.75
419.389	2365.75
419.611	2234.75
419.834	2128.75
420.057	2252.75
420.28	2144.75
420.503	2119.75
420.726	2152.75
420.948	2182.75
421.171	2121.75
421.394	2112.75
421.617	2217.75
421.839	2175.75
422.062	2119.75
422.285	2124.75
422.507	2109.75
422.73	2055.75
422.953	2030.75
423.175	2005.75
423.398	2094.75
423.621	2135.75
423.843	2143.75
424.066	2161.75
424.288	2265.75
424.511	2311.75
424.733	2246.75
424.956	1971.75
425.178	1990.75
425.401	2045.75
425.623	2075.75
425.846	2029.75
426.068	2140.75
426.291	2192.75
426.513	2164.75
426.735	2153.75
426.958	2290.75
427.18	2458.75
427.402	2235.75
427.625	2273.75
427.847	2302.75
428.069	2197.75
428.292	2105.75
428.514	2045.75
428.736	1986.75
428.958	2049.75
429.181	2045.75
429.403	2333.75
429.625	2937.75
429.847	2562.75
430.069	2143.75
430.292	2324.75
430.514	2421.75
430.736	2255.75
430.958	2348.75
431.18	2252.75
431.402	2056.75
431.624	2026.75
431.846	2057.75
432.068	1974.75
432.29	2021.75
432.512	2059.75
432.734	2096.75
432.956	2152.75
433.178	2207.75
433.4	2184.75
433.622	2243.75
433.844	2104.75
434.066	1972.75
434.287	2041.75
434.509	2123.75
434.731	2205.75
434.953	2339.75
435.175	2298.75
435.397	2191.75
435.618	2156.75
435.84	2164.75
436.062	2124.75
436.284	2174.75
436.505	2214.75
436.727	2209.75
436.949	2146.75
437.17	2067.75
437.392	2074.75
437.614	2104.75
437.835	2049.75
438.057	2174.75
438.278	2306.75
438.5	2119.75
438.721	2034.75
438.943	2047.75
439.165	2030.75
439.386	2005.75
439.608	1984.75
439.829	2042.75
440.05	2031.75
440.272	1990.75
440.493	2016.75
440.715	2019.75
440.936	2179.75
441.158	2431.75
441.379	2334.75
441.6	2267.75
441.822	2208.75
442.043	2172.75
442.264	2173.75
442.486	2035.75
442.707	2005.75
442.928	2009.75
443.149	2092.75
443.371	2254.75
443.592	2310.75
443.813	2270.75
444.034	2227.75
444.255	2246.75
444.476	2279.75
444.698	2362.75
444.919	2305.75
445.14	2382.75
445.361	2403.75
445.582	2510.75
445.803	2316.75
446.024	2222.75
446.245	2384.75
446.466	2245.75
446.687	2162.75
446.908	2164.75
447.129	2103.75
447.35	2118.75
447.571	2112.75
447.792	2079.75
448.013	1974.75
448.234	2050.75
448.455	2149.75
448.675	2192.75
448.896	1970.75
449.117	1909.75
449.338	2046.75
449.559	2104.75
449.779	2228.75
450	2440.75
450.221	2600.75
450.442	2558.75
450.662	2221.75
450.883	1954.75
451.104	1912.75
451.324	2008.75
451.545	2014.75
451.766	2025.75
451.986	1911.75
452.207	1926.75
452.428	1828.75
452.648	1797.75
452.869	1886.75
453.089	1988.75
453.31	2050.75
453.53	2036.75
453.751	2017.75
453.971	1882.75
454.192	1895.75
454.412	2096.75
454.633	1961.75
454.853	1918.75
455.073	1804.75
455.294	1783.75
455.514	1774.75
455.734	1803.75
455.955	1884.75
456.175	1802.75
456.395	1866.75
456.616	1885.75
456.836	1982.75
457.056	1896.75
457.276	1877.75
457.497	1849.75
457.717	1757.75
457.937	1810.75
458.157	1869.75
458.377	1827.75
458.598	1825.75
458.818	1844.75
459.038	1976.75
459.258	2109.75
459.478	2101.75
459.698	2021.75
459.918	2075.75
460.138	2120.75
460.358	2197.75
460.578	2198.75
460.798	2248.75
461.018	2425.75
461.238	2304.75
461.458	2199.75
461.678	2192.75
461.898	2142.75
462.118	2079.75
462.338	2206.75
462.558	2197.75
462.777	2160.75
462.997	2320.75
463.217	2470.75
463.437	2411.75
463.657	2243.75
463.876	2223.75
464.096	2202.75
464.316	2189.75
464.536	2290.75
464.755	2269.75
464.975	2334.75
465.195	2238.75
465.414	2347.75
465.634	2344.75
465.854	2210.75
466.073	2296.75
466.293	2269.75
466.512	2028.75
466.732	1996.75
466.951	2077.75
467.171	2103.75
467.391	2013.75
467.61	1911.75
467.829	1975.75
468.049	2193.75
468.268	2418.75
468.488	2241.75
468.707	2094.75
468.927	2052.75
469.146	2018.75
469.365	1995.75
469.585	2011.75
469.804	1976.75
470.023	1965.75
470.243	2076.75
470.462	2027.75
470.681	1922.75
470.901	2010.75
471.12	2037.75
471.339	1998.75
471.558	1902.75
471.777	1895.75
471.997	1969.75
472.216	1964.75
472.435	1890.75
472.654	1952.75
472.873	2066.75
473.092	2166.75
473.311	2024.75
473.53	1897.75
473.749	1862.75
473.968	1984.75
474.187	2086.75
474.406	2228.75
474.625	2100.75
474.844	2020.75
475.063	2022.75
475.282	2074.75
475.501	2068.75
475.72	2045.75
475.939	2180.75
476.158	2085.75
476.377	2048.75
476.596	2048.75
476.814	2146.75
477.033	2162.75
477.252	2224.75
477.471	2271.75
477.69	2131.75
477.908	2108.75
478.127	2211.75
478.346	2450.75
478.564	2448.75
478.783	2432.75
479.002	2462.75
479.22	2415.75
479.439	2482.75
479.658	2875.75
479.876	2740.75
480.095	2415.75
480.313	2362.75
480.532	2256.75
480.751	2271.75
480.969	2355.75
481.188	2258.75
481.406	2254.75
481.624	2205.75
481.843	2198.75
482.061	2307.75
482.28	2360.75
482.498	2335.75
482.717	2325.75
482.935	2216.75
483.153	2223.75
483.372	2246.75
483.59	2209.75
483.808	2239.75
484.027	2284.75
484.245	2486.75
484.463	2782.75
484.681	3260.75
484.9	2457.75
485.118	2257.75
485.336	2227.75
485.554	2324.75
485.772	2471.75
485.99	2449.75
486.209	2443.75
486.427	2430.75
486.645	2392.75
486.863	2344.75
487.081	2415.75
487.299	2499.75
487.517	2431.75
487.735	2365.75
487.953	2359.75
488.171	2332.75
488.389	2318.75
488.607	2328.75
488.825	2565.75
489.043	2636.75
489.261	2341.75
489.479	2480.75
489.696	2519.75
489.914	2502.75
490.132	2415.75
490.35	2363.75
490.568	2514.75
490.786	2400.75
491.003	2294.75
491.221	2388.75
491.439	2474.75
491.657	2424.75
491.874	2381.75
492.092	2448.75
492.31	2463.75
492.527	2455.75
492.745	2378.75
492.963	2402.75
493.18	2469.75
493.398	2674.75
493.615	2706.75
493.833	2506.75
494.05	2456.75
494.268	2437.75
494.485	2492.75
494.703	2499.75
494.92	2377.75
495.138	2431.75
495.355	2408.75
495.573	2534.75
495.79	2747.75
496.008	2742.75
496.225	2580.75
496.442	2530.75
496.66	2600.75
496.877	2538.75
497.094	2656.75
497.312	2715.75
497.529	2662.75
497.746	2704.75
497.963	3191.75
498.181	3563.75
498.398	3330.75
498.615	3180.75
498.832	3099.75
499.049	3080.75
499.267	3142.75
499.484	3296.75
499.701	3556.75
499.918	3597.75
500.135	3872.75
500.352	4224.75
500.569	4111.75
500.786	4307.75
501.003	4128.75
501.22	3652.75
501.437	3619.75
501.654	3596.75
501.871	3473.75
502.088	3067.75
502.305	3068.75
502.522	2994.75
502.739	2788.75
502.956	2720.75
503.172	2695.75
503.389	2595.75
503.606	2586.75
503.823	2612.75
504.04	2586.75
504.256	2539.75
504.473	2592.75
504.69	2680.75
504.907	2558.75
505.123	2436.75
505.34	2536.75
505.557	3338.75
505.773	2880.75
505.99	2394.75
506.207	2255.75
506.423	2172.75
506.64	2170.75
506.856	2197.75
507.073	2512.75
507.289	2732.75
507.506	2622.75
507.722	2233.75
507.939	2112.75
508.155	2090.75
508.372	2166.75
508.588	2073.75
508.805	2064.75
509.021	1973.75
509.238	1999.75
509.454	1954.75
509.67	2033.75
509.887	1993.75
510.103	2002.75
510.319	1977.75
510.536	2113.75
510.752	2214.75
510.968	2139.75
511.184	2318.75
511.401	2303.75
511.617	2035.75
511.833	1956.75
512.049	1913.75
512.265	1942.75
512.481	1917.75
512.698	2033.75
512.914	2131.75
513.13	2092.75
513.346	1977.75
513.562	1943.75
513.778	1993.75
513.994	2087.75
514.21	2151.75
514.426	2145.75
514.642	2372.75
514.858	2216.75
515.074	2047.75
515.29	1977.75
515.506	2009.75
515.721	2100.75
515.937	2048.75
516.153	2420.75
516.369	2274.75
516.585	2160.75
516.801	2025.75
517.016	2054.75
517.232	2105.75
517.448	2103.75
517.664	2138.75
517.879	2149.75
518.095	2293.75
518.311	2181.75
518.527	2055.75
518.742	2049.75
518.958	1962.75
519.173	1949.75
519.389	1983.75
519.605	2001.75
519.82	2041.75
520.036	2036.75
520.251	1993.75
520.467	1980.75
520.682	2148.75
520.898	2254.75
521.113	1968.75
521.329	1921.75
521.544	2116.75
521.76	2030.75
521.975	1908.75
522.19	1884.75
522.406	1826.75
522.621	2209.75
522.836	2302.75
523.052	1841.75
523.267	1840.75
523.482	1888.75
523.698	1800.75
523.913	1749.75
524.128	1816.75
524.343	1900.75
524.559	1982.75
524.774	1827.75
524.989	1800.75
525.204	1772.75
525.419	1723.75
525.634	1706.75
525.849	1792.75
526.064	1786.75
526.28	1781.75
526.495	1724.75
526.71	1712.75
526.925	1731.75
527.14	1702.75
527.355	1680.75
527.57	1675.75
527.785	1777.75
527.999	1683.75
528.214	1662.75
528.429	1664.75
528.644	1664.75
528.859	1717.75
529.074	1673.75
529.289	1688.75
529.503	1715.75
529.718	1737.75
529.933	1695.75
530.148	1628.75
530.363	1640.75
530.577	1692.75
530.792	1717.75
531.007	1724.75
531.221	1667.75
531.436	1750.75
531.651	1795.75
531.865	1834.75
532.08	1792.75
532.295	1671.75
532.509	1595.75
532.724	1614.75
532.938	1698.75
533.153	1823.75
533.367	1761.75
533.582	1724.75
533.796	1661.75
534.011	1661.75
534.225	1737.75
534.44	1645.75
534.654	1654.75
534.868	1593.75
535.083	1745.75
535.297	1749.75
535.511	1674.75
535.726	1648.75
535.94	1639.75
536.154	1636.75
536.369	1623.75
536.583	1627.75
536.797	1598.75
537.011	1708.75
537.225	1598.75
537.44	1543.75
537.654	1649.75
537.868	1618.75
538.082	1520.75
538.296	1513.75
538.51	1508.75
538.724	1546.75
538.938	1532.75
539.153	1579.75
539.367	1580.75
539.581	1596.75
539.795	1654.75
540.009	1643.75
540.222	1609.75
540.436	1642.75
540.65	1799.75
540.864	1794.75
541.078	1694.75
541.292	1561.75
541.506	1564.75
541.72	1612.75
541.934	1608.75
542.147	1625.75
542.361	1620.75
542.575	1553.75
542.789	1520.75
543.002	1487.75
543.216	1525.75
543.43	1634.75
543.644	1652.75
543.857	1715.75
544.071	1636.75
544.285	1598.75
544.498	1568.75
544.712	1585.75
544.925	1620.75
545.139	1612.75
545.352	1550.75
545.566	1497.75
545.779	1469.75
545.993	1536.75
546.206	1547.75
546.42	1488.75
546.633	1473.75
546.847	1461.75
547.06	1519.75
547.274	1497.75
547.487	1452.75
547.7	1487.75
547.914	1500.75
548.127	1522.75
548.34	1536.75
548.554	1514.75
548.767	1482.75
548.98	1493.75
549.193	1496.75
549.407	1547.75
549.62	1581.75
549.833	1487.75
550.046	1504.75
550.259	1496.75
550.473	1463.75
550.686	1460.75
550.899	1418.75
551.112	1408.75
551.325	1431.75
551.538	1501.75
551.751	1786.75
551.964	1456.75
552.177	1411.75
552.39	1414.75
552.603	1465.75
552.816	1458.75
553.029	1538.75
553.242	1585.75
553.455	1493.75
553.667	1478.75
553.88	1474.75
554.093	1448.75
554.306	1415.75
554.519	1372.75
554.732	1329.75
554.944	1357.75
555.157	1441.75
555.37	1340.75
555.583	1371.75
555.795	1379.75
556.008	1316.75
556.221	1287.75
556.433	1312.75
556.646	1266.75
556.859	1274.75
557.071	1262.75
557.284	1268.75
557.496	1267.75
557.709	1255.75
557.921	1242.75
558.134	1242.75
558.346	1223.75
558.559	1233.75
558.771	1220.75
558.984	1219.75
559.196	1137.75
559.409	1166.75
559.621	1204.75
559.833	1198.75
560.046	1260.75
560.258	1232.75
560.47	1222.75
560.683	1184.75
560.895	1204.75
561.107	1232.75
561.32	1217.75
561.532	1260.75
561.744	1224.75
561.956	1232.75
562.168	1178.75
562.381	1120.75
562.593	1169.75
562.805	1185.75
563.017	1181.75
563.229	1144.75
563.441	1229.75
563.653	1159.75
563.865	1188.75
564.077	1175.75
564.289	1189.75
564.501	1183.75
564.713	1250.75
564.925	1260.75
565.137	1354.75
565.349	1270.75
565.561	1262.75
565.773	1237.75
565.985	1300.75
566.197	1348.75
566.408	1442.75
566.62	1404.75
566.832	1427.75
567.044	1426.75
567.255	1475.75
567.467	1444.75
567.679	1480.75
567.891	1527.75
568.102	1496.75
568.314	1462.75
568.526	1341.75
568.737	1304.75
568.949	1273.75
569.161	1182.75
569.372	1178.75
569.584	1160.75
569.795	1139.75
570.007	1157.75
570.218	1102.75
570.43	1061.75
570.641	1088.75
570.853	1134.75
571.064	1098.75
571.276	1068.75
571.487	1042.75
571.698	1007.75
571.91	1025.75
572.121	999.75
572.333	992.75
572.544	976.75
572.755	954.75
572.966	940.75
573.178	983.75
573.389	921.75
573.6	1002.75
573.811	1060.75
574.023	988.75
574.234	970.75
574.445	929.75
574.656	890.75
574.867	906.75
575.078	916.75
575.289	936.75
575.501	930.75
575.712	869.75
575.923	881.75
576.134	898.75
576.345	888.75
576.556	858.75
576.767	883.75
576.978	871.75
577.188	841.75
577.399	858.75
577.61	838.75
577.821	807.75
578.032	826.75
578.243	836.75
578.454	833.75
578.665	811.75
578.875	788.75
579.086	773.75
579.297	829.75
579.508	866.75
579.718	849.75
579.929	826.75
580.14	812.75
580.35	789.75
580.561	828.75
580.772	885.75
580.982	829.75
581.193	804.75
581.403	774.75
581.614	770.75
581.825	780.75
582.035	791.75
582.246	789.75
582.456	813.75
582.667	776.75
582.877	778.75
583.087	774.75
583.298	773.75
583.508	749.75
583.719	736.75
583.929	774.75
584.139	764.75
584.35	756.75
584.56	725.75
584.77	756.75
584.981	790.75
585.191	775.75
585.401	793.75
585.611	757.75
585.821	753.75
586.032	745.75
586.242	730.75
586.452	719.75
586.662	741.75
586.872	754.75
587.082	748.75
587.292	762.75
587.502	738.75
587.713	764.75
587.923	737.75
588.133	740.75
588.343	737.75
588.553	758.75
588.762	723.75
588.972	724.75
589.182	751.75
589.392	763.75
589.602	736.75
589.812	740.75
590.022	697.75
590.232	714.75
590.441	758.75
590.651	718.75
590.861	710.75
591.071	712.75
591.281	675.75
591.49	719.75
591.7	697.75
591.91	725.75
592.119	706.75
592.329	750.75
592.539	749.75
592.748	717.75
592.958	758.75
593.167	748.75
593.377	724.75
593.587	757.75
593.796	752.75
594.006	727.75
594.215	737.75
594.424	737.75
594.634	734.75
594.843	720.75
595.053	741.75
595.262	719.75
595.472	688.75
595.681	726.75
595.89	694.75
596.1	663.75
596.309	676.75
596.518	657.75
596.727	678.75
596.937	674.75
597.146	648.75
597.355	623.75
597.564	628.75
597.774	628.75
597.983	645.75
598.192	650.75
598.401	644.75
598.61	618.75
598.819	604.75
599.028	634.75
599.237	617.75
599.446	588.75
599.655	601.75
599.864	572.75
600.073	604.75
600.282	589.75
600.491	606.75
600.7	600.75
600.909	586.75
601.118	570.75
601.327	581.75
601.536	607.75
601.745	594.75
601.953	572.75
602.162	578.75
602.371	581.75
602.58	586.75
602.789	590.75
602.997	592.75
603.206	595.75
603.415	576.75
603.623	571.75
603.832	578.75
604.041	563.75
604.249	538.75
604.458	566.75
604.666	564.75
604.875	564.75
605.084	565.75
605.292	567.75
605.501	572.75
605.709	579.75
605.918	546.75
606.126	529.75
606.334	522.75
606.543	552.75
606.751	541.75
606.96	540.75
607.168	543.75
607.376	530.75
607.585	565.75
607.793	538.75
608.001	532.75
608.21	546.75
608.418	534.75
608.626	546.75
608.834	530.75
609.043	502.75
609.251	537.75
609.459	515.75
609.667	522.75
609.875	522.75
610.083	562.75
610.291	550.75
610.499	539.75
610.707	542.75
610.916	497.75
611.124	504.75
611.332	505.75
611.54	523.75
611.748	516.75
611.955	501.75
612.163	490.75
612.371	514.75
612.579	508.75
612.787	492.75
612.995	510.75
613.203	548.75
613.411	516.75
613.618	508.75
613.826	510.75
614.034	521.75
614.242	480.75
614.449	502.75
614.657	512.75
614.865	516.75
615.072	514.75
615.28	500.75
615.488	517.75
615.695	528.75
615.903	512.75
616.111	501.75
616.318	514.75
616.526	519.75
616.733	504.75
616.941	479.75
617.148	494.75
617.356	496.75
617.563	496.75
617.771	488.75
617.978	492.75
618.185	473.75
618.393	493.75
618.6	478.75
618.807	468.75
619.015	493.75
619.222	477.75
619.429	464.75
619.637	479.75
619.844	480.75
620.051	467.75
620.258	464.75
620.466	469.75
620.673	453.75
620.88	444.75
621.087	439.75
621.294	435.75
621.501	459.75
621.708	456.75
621.915	468.75
622.122	459.75
622.329	460.75
622.536	458.75
622.743	461.75
622.95	456.75
623.157	440.75
623.364	457.75
623.571	437.75
623.778	452.75
623.985	443.75
624.192	425.75
624.399	442.75
624.606	426.75
624.812	402.75
625.019	435.75
625.226	434.75
625.433	404.75
625.639	414.75
625.846	410.75
626.053	387.75
626.259	408.75
626.466	397.75
626.673	400.75
626.879	417.75
627.086	396.75
627.293	389.75
627.499	411.75
627.706	405.75
627.912	405.75
628.119	408.75
628.325	409.75
628.532	395.75
628.738	403.75
628.945	404.75
629.151	418.75
629.357	396.75
629.564	384.75
629.77	398.75
629.976	391.75
630.183	394.75
630.389	388.75
630.595	394.75
630.802	385.75
631.008	392.75
631.214	376.75
631.42	373.75
631.627	391.75
631.833	372.75
632.039	375.75
632.245	366.75
632.451	372.75
632.657	356.75
632.863	376.75
633.069	382.75
633.275	353.75
633.481	358.75
633.688	355.75
633.893	371.75
634.099	353.75
634.305	348.75
634.511	350.75
634.717	344.75
634.923	340.75
635.129	338.75
635.335	317.75
635.541	346.75
635.747	380.75
635.952	374.75
636.158	355.75
636.364	328.75
636.57	349.75
636.775	338.75
636.981	361.75
637.187	328.75
637.392	312.75
637.598	332.75
637.804	326.75
638.009	354.75
638.215	336.75
638.421	324.75
638.626	327.75
638.832	310.75
639.037	325.75
639.243	324.75
639.448	321.75
639.654	323.75
639.859	312.75
640.065	331.75
640.27	324.75
640.475	320.75
640.681	331.75
640.886	325.75
641.091	318.75
641.297	309.75
641.502	318.75
641.707	311.75
641.913	318.75
642.118	322.75
642.323	319.75
642.528	327.75
642.733	325.75
642.939	308.75
643.144	325.75
643.349	328.75
643.554	327.75
643.759	330.75
643.964	308.75
644.169	326.75
644.374	294.75
644.579	308.75
644.784	318.75
644.989	310.75
645.194	297.75
645.399	306.75
645.604	305.75
645.809	300.75
646.014	330.75
646.219	316.75
646.423	302.75
646.628	303.75
646.833	311.75
647.038	296.75
647.243	309.75
647.447	306.75
647.652	298.75
647.857	316.75
648.062	312.75
648.266	318.75
648.471	305.75
648.676	308.75
648.88	321.75
649.085	303.75
649.289	306.75
649.494	309.75
649.698	313.75
649.903	281.75
650.107	281.75
650.312	293.75
650.516	282.75
650.721	287.75
650.925	301.75
651.13	280.75
651.334	269.75
651.539	256.75
651.743	266.75
651.947	261.75
652.152	261.75
652.356	257.75
652.56	263.75
652.764	240.75
652.969	238.75
653.173	255.75
653.377	252.75
653.581	256.75
653.785	233.75
653.99	264.75
654.194	240.75
654.398	224.75
654.602	230.75
654.806	230.75
655.01	229.75
655.214	224.75
655.418	233.75
655.622	234.75
655.826	229.75
656.03	242.75
656.234	242.75
656.438	253.75
656.642	247.75
656.846	236.75
657.049	212.75
657.253	227.75
657.457	212.75
657.661	181.75
657.865	187.75
658.068	162.75
658.272	165.75
658.476	154.75
658.68	156.75
658.883	139.75
659.087	140.75
659.291	136.75
659.494	135.75
659.698	128.75
659.901	113.75
660.105	106.75
660.309	119.75
660.512	122.75
660.716	115.75
660.919	118.75
661.123	115.75
661.326	113.75
661.53	99.75
661.733	89.75
661.936	94.75
662.14	88.75
662.343	95.75
662.546	100.75
662.75	95.75
662.953	101.75
663.156	78.75
663.36	89.75
663.563	94.75
663.766	86.75
663.969	83.75
664.173	91.75
664.376	72.75
664.579	80.75
664.782	83.75
664.985	83.75
665.188	86.75
665.391	76.75
665.594	71.75
665.797	72.75
666	81.75
666.203	76.75
666.406	83.75
666.609	89.75
666.812	72.75
667.015	70.75
667.218	79.75
667.421	80.75
667.624	74.75
667.827	80.75
668.03	88.75
668.232	78.75
668.435	93.75
668.638	83.75
668.841	89.75
669.043	72.75
669.246	82.75
669.449	64.75
669.651	81.75
669.854	89.75
670.057	88.75
670.259	79.75
670.462	85.75
670.665	72.75
670.867	77.75
671.07	79.75
671.272	85.75
671.475	80.75
671.677	87.75
671.88	76.75
672.082	68.75
672.284	80.75
672.487	68.75
672.689	86.75
672.892	95.75
