Data from WStandard_LampEnergy8_LIBS07252019.E.O._I.C._HRD10591_15-59-09-929.txt Node
Date: Thu Jul 25 15:59:09 EDT 2019
User: cochatt
Spectrometer: HR+D1059
Trigger mode: 1
Integration Time (sec): 1.000000E-1
Scans to average: 1
Electric dark correction enabled: true
Nonlinearity correction enabled: false
Boxcar width: 0
XAxis mode: Wavelengths
Number of Pixels in Spectrum: 2048
>>>>>Begin Spectral Data<<<<<
223.165	-12.94
223.4	-12.94
223.635	-12.94
223.869	-17.94
224.104	-6.94
224.338	4.06
224.573	-18.94
224.808	-10.94
225.042	-9.94
225.277	-9.94
225.511	-10.94
225.746	9.06
225.98	9.06
226.215	-11.94
226.449	22.06
226.683	16.06
226.918	26.06
227.152	24.06
227.387	38.06
227.621	36.06
227.856	36.06
228.09	37.06
228.324	63.06
228.559	57.06
228.793	100.06
229.027	203.06
229.262	207.06
229.496	191.06
229.73	216.06
229.964	254.06
230.199	248.06
230.433	278.06
230.667	289.06
230.901	287.06
231.136	270.06
231.37	262.06
231.604	252.06
231.838	262.06
232.072	264.06
232.306	253.06
232.541	275.06
232.775	310.06
233.009	347.06
233.243	304.06
233.477	290.06
233.711	316.06
233.945	311.06
234.179	296.06
234.413	314.06
234.647	317.06
234.881	311.06
235.115	299.06
235.349	288.06
235.583	299.06
235.817	294.06
236.051	279.06
236.285	288.06
236.519	301.06
236.753	354.06
236.987	367.06
237.221	354.06
237.455	378.06
237.689	374.06
237.922	341.06
238.156	341.06
238.39	322.06
238.624	373.06
238.858	384.06
239.091	414.06
239.325	407.06
239.559	454.06
239.793	492.06
240.027	498.06
240.26	486.06
240.494	408.06
240.728	385.06
240.961	370.06
241.195	400.06
241.429	415.06
241.662	420.06
241.896	387.06
242.13	410.06
242.363	423.06
242.597	447.06
242.83	443.06
243.064	452.06
243.298	487.06
243.531	470.06
243.765	460.06
243.998	471.06
244.232	392.06
244.465	391.06
244.699	405.06
244.932	439.06
245.166	526.06
245.399	487.06
245.633	465.06
245.866	446.06
246.099	461.06
246.333	499.06
246.566	498.06
246.8	533.06
247.033	558.06
247.266	546.06
247.5	517.06
247.733	536.06
247.966	557.06
248.2	590.06
248.433	599.06
248.666	605.06
248.899	669.06
249.133	770.06
249.366	796.06
249.599	675.06
249.832	614.06
250.066	618.06
250.299	631.06
250.532	582.06
250.765	527.06
250.998	581.06
251.231	597.06
251.465	600.06
251.698	558.06
251.931	553.06
252.164	585.06
252.397	605.06
252.63	607.06
252.863	540.06
253.096	538.06
253.329	581.06
253.562	572.06
253.795	595.06
254.028	622.06
254.261	584.06
254.494	566.06
254.727	552.06
254.96	565.06
255.193	656.06
255.426	695.06
255.659	758.06
255.892	745.06
256.124	674.06
256.357	654.06
256.59	674.06
256.823	684.06
257.056	707.06
257.289	814.06
257.521	870.06
257.754	812.06
257.987	769.06
258.22	813.06
258.452	794.06
258.685	668.06
258.918	685.06
259.151	656.06
259.383	635.06
259.616	590.06
259.849	626.06
260.081	676.06
260.314	756.06
260.547	815.06
260.779	798.06
261.012	728.06
261.244	674.06
261.477	678.06
261.71	695.06
261.942	684.06
262.175	662.06
262.407	697.06
262.64	672.06
262.872	648.06
263.105	602.06
263.337	644.06
263.57	635.06
263.802	612.06
264.035	597.06
264.267	564.06
264.499	568.06
264.732	616.06
264.964	631.06
265.197	664.06
265.429	693.06
265.661	796.06
265.894	841.06
266.126	867.06
266.358	778.06
266.591	790.06
266.823	869.06
267.055	760.06
267.287	766.06
267.52	768.06
267.752	755.06
267.984	742.06
268.216	792.06
268.448	818.06
268.681	763.06
268.913	730.06
269.145	678.06
269.377	696.06
269.609	765.06
269.841	868.06
270.073	1021.06
270.306	1082.06
270.538	1100.06
270.77	955.06
271.002	833.06
271.234	815.06
271.466	828.06
271.698	894.06
271.93	1042.06
272.162	1017.06
272.394	904.06
272.626	868.06
272.858	784.06
273.09	719.06
273.322	707.06
273.553	671.06
273.785	682.06
274.017	711.06
274.249	745.06
274.481	746.06
274.713	703.06
274.945	682.06
275.176	688.06
275.408	687.06
275.64	661.06
275.872	691.06
276.104	775.06
276.335	830.06
276.567	927.06
276.799	897.06
277.031	805.06
277.262	791.06
277.494	832.06
277.726	918.06
277.957	858.06
278.189	809.06
278.421	738.06
278.652	718.06
278.884	724.06
279.115	719.06
279.347	730.06
279.579	734.06
279.81	756.06
280.042	799.06
280.273	866.06
280.505	862.06
280.736	894.06
280.968	808.06
281.199	736.06
281.431	702.06
281.662	716.06
281.894	703.06
282.125	745.06
282.356	765.06
282.588	769.06
282.819	763.06
283.051	851.06
283.282	853.06
283.513	839.06
283.745	746.06
283.976	722.06
284.207	732.06
284.439	739.06
284.67	759.06
284.901	754.06
285.132	751.06
285.364	768.06
285.595	781.06
285.826	745.06
286.057	759.06
286.288	743.06
286.52	772.06
286.751	825.06
286.982	826.06
287.213	760.06
287.444	743.06
287.675	724.06
287.906	783.06
288.138	802.06
288.369	802.06
288.6	742.06
288.831	734.06
289.062	744.06
289.293	753.06
289.524	762.06
289.755	770.06
289.986	771.06
290.217	713.06
290.448	727.06
290.679	775.06
290.91	760.06
291.141	826.06
291.371	827.06
291.602	804.06
291.833	804.06
292.064	823.06
292.295	824.06
292.526	827.06
292.757	859.06
292.987	824.06
293.218	796.06
293.449	866.06
293.68	992.06
293.91	992.06
294.141	926.06
294.372	874.06
294.603	922.06
294.833	952.06
295.064	885.06
295.295	828.06
295.525	772.06
295.756	736.06
295.987	716.06
296.217	737.06
296.448	774.06
296.679	773.06
296.909	758.06
297.14	763.06
297.37	782.06
297.601	844.06
297.831	887.06
298.062	854.06
298.292	784.06
298.523	766.06
298.753	787.06
298.984	799.06
299.214	798.06
299.445	830.06
299.675	831.06
299.905	816.06
300.136	824.06
300.366	786.06
300.597	781.06
300.827	767.06
301.057	811.06
301.288	859.06
301.518	862.06
301.748	862.06
301.979	925.06
302.209	952.06
302.439	955.06
302.669	969.06
302.9	943.06
303.13	864.06
303.36	837.06
303.59	884.06
303.82	866.06
304.051	856.06
304.281	830.06
304.511	875.06
304.741	927.06
304.971	1000.06
305.201	1054.06
305.431	954.06
305.661	813.06
305.891	776.06
306.121	755.06
306.352	804.06
306.582	843.06
306.812	879.06
307.042	931.06
307.272	920.06
307.502	981.06
307.731	1040.06
307.961	1062.06
308.191	998.06
308.421	848.06
308.651	805.06
308.881	830.06
309.111	826.06
309.341	790.06
309.571	824.06
309.8	840.06
310.03	794.06
310.26	810.06
310.49	787.06
310.72	848.06
310.949	892.06
311.179	886.06
311.409	855.06
311.639	845.06
311.868	842.06
312.098	838.06
312.328	826.06
312.557	829.06
312.787	839.06
313.017	850.06
313.246	859.06
313.476	878.06
313.706	891.06
313.935	864.06
314.165	865.06
314.394	931.06
314.624	944.06
314.853	1026.06
315.083	1046.06
315.312	1047.06
315.542	972.06
315.771	910.06
316.001	902.06
316.23	955.06
316.46	944.06
316.689	925.06
316.919	863.06
317.148	844.06
317.377	886.06
317.607	968.06
317.836	1057.06
318.065	1069.06
318.295	1021.06
318.524	972.06
318.753	940.06
318.983	960.06
319.212	917.06
319.441	904.06
319.67	900.06
319.9	936.06
320.129	964.06
320.358	1017.06
320.587	1016.06
320.816	1038.06
321.046	972.06
321.275	968.06
321.504	966.06
321.733	1041.06
321.962	997.06
322.191	944.06
322.42	933.06
322.649	922.06
322.878	932.06
323.108	904.06
323.337	962.06
323.566	941.06
323.795	923.06
324.024	946.06
324.253	906.06
324.482	939.06
324.71	896.06
324.939	887.06
325.168	857.06
325.397	933.06
325.626	946.06
325.855	958.06
326.084	946.06
326.313	914.06
326.542	920.06
326.77	961.06
326.999	954.06
327.228	912.06
327.457	864.06
327.686	859.06
327.914	876.06
328.143	952.06
328.372	920.06
328.6	934.06
328.829	908.06
329.058	901.06
329.287	871.06
329.515	930.06
329.744	958.06
329.972	979.06
330.201	1049.06
330.43	985.06
330.658	965.06
330.887	972.06
331.115	985.06
331.344	999.06
331.572	962.06
331.801	975.06
332.03	999.06
332.258	978.06
332.486	987.06
332.715	999.06
332.943	1002.06
333.172	973.06
333.4	986.06
333.629	1038.06
333.857	1080.06
334.085	1235.06
334.314	1338.06
334.542	1399.06
334.771	1246.06
334.999	1139.06
335.227	1077.06
335.455	1045.06
335.684	1022.06
335.912	1103.06
336.14	1094.06
336.369	1035.06
336.597	988.06
336.825	968.06
337.053	1020.06
337.281	1091.06
337.51	1174.06
337.738	1132.06
337.966	1078.06
338.194	1016.06
338.422	970.06
338.65	937.06
338.878	939.06
339.106	950.06
339.334	936.06
339.562	946.06
339.79	942.06
340.018	995.06
340.246	1031.06
340.474	1059.06
340.702	1001.06
340.93	1010.06
341.158	999.06
341.386	992.06
341.614	996.06
341.842	978.06
342.07	965.06
342.298	976.06
342.526	986.06
342.754	990.06
342.981	949.06
343.209	941.06
343.437	965.06
343.665	969.06
343.893	991.06
344.12	1075.06
344.348	1028.06
344.576	986.06
344.804	946.06
345.031	953.06
345.259	967.06
345.487	973.06
345.714	916.06
345.942	906.06
346.17	913.06
346.397	917.06
346.625	908.06
346.853	896.06
347.08	922.06
347.308	886.06
347.535	920.06
347.763	955.06
347.99	902.06
348.218	890.06
348.445	921.06
348.673	919.06
348.9	965.06
349.128	975.06
349.355	998.06
349.583	965.06
349.81	914.06
350.037	835.06
350.265	853.06
350.492	881.06
350.72	896.06
350.947	944.06
351.174	950.06
351.402	884.06
351.629	860.06
351.856	818.06
352.083	838.06
352.311	852.06
352.538	878.06
352.765	940.06
352.992	936.06
353.22	899.06
353.447	886.06
353.674	913.06
353.901	899.06
354.128	903.06
354.355	867.06
354.583	943.06
354.81	970.06
355.037	947.06
355.264	942.06
355.491	911.06
355.718	895.06
355.945	900.06
356.172	893.06
356.399	870.06
356.626	908.06
356.853	930.06
357.08	1021.06
357.307	1091.06
357.534	1070.06
357.761	935.06
357.988	898.06
358.215	865.06
358.441	853.06
358.668	844.06
358.895	901.06
359.122	984.06
359.349	1058.06
359.576	1007.06
359.802	912.06
360.029	893.06
360.256	875.06
360.483	877.06
360.709	941.06
360.936	962.06
361.163	996.06
361.39	1109.06
361.616	1166.06
361.843	1125.06
362.07	1032.06
362.296	903.06
362.523	891.06
362.749	915.06
362.976	963.06
363.203	973.06
363.429	909.06
363.656	898.06
363.882	925.06
364.109	1027.06
364.335	1081.06
364.562	1021.06
364.788	978.06
365.015	939.06
365.241	907.06
365.468	937.06
365.694	986.06
365.92	973.06
366.147	954.06
366.373	908.06
366.599	902.06
366.826	901.06
367.052	911.06
367.278	915.06
367.505	937.06
367.731	953.06
367.957	928.06
368.184	990.06
368.41	1016.06
368.636	1054.06
368.862	1063.06
369.089	1044.06
369.315	1004.06
369.541	957.06
369.767	936.06
369.993	943.06
370.219	902.06
370.445	958.06
370.672	1005.06
370.898	1052.06
371.124	1028.06
371.35	984.06
371.576	1034.06
371.802	1030.06
372.028	999.06
372.254	934.06
372.48	926.06
372.706	902.06
372.932	886.06
373.158	957.06
373.384	979.06
373.61	1016.06
373.835	1035.06
374.061	973.06
374.287	974.06
374.513	986.06
374.739	967.06
374.965	996.06
375.191	989.06
375.416	1008.06
375.642	1037.06
375.868	1102.06
376.094	1070.06
376.319	1024.06
376.545	991.06
376.771	1010.06
376.997	1083.06
377.222	1060.06
377.448	1029.06
377.674	1018.06
377.899	1032.06
378.125	1083.06
378.35	1070.06
378.576	979.06
378.802	967.06
379.027	951.06
379.253	928.06
379.478	976.06
379.704	979.06
379.929	977.06
380.155	993.06
380.38	990.06
380.606	1002.06
380.831	1022.06
381.057	1022.06
381.282	1061.06
381.507	1064.06
381.733	1142.06
381.958	1092.06
382.184	1040.06
382.409	1051.06
382.634	1014.06
382.86	1014.06
383.085	1031.06
383.31	1056.06
383.535	1149.06
383.761	1174.06
383.986	1155.06
384.211	1115.06
384.436	1127.06
384.662	1170.06
384.887	1158.06
385.112	1128.06
385.337	1109.06
385.562	1103.06
385.787	1117.06
386.013	1146.06
386.238	1164.06
386.463	1131.06
386.688	1243.06
386.913	1292.06
387.138	1260.06
387.363	1140.06
387.588	1136.06
387.813	1154.06
388.038	1174.06
388.263	1216.06
388.488	1125.06
388.713	1036.06
388.938	1066.06
389.163	1049.06
389.387	1109.06
389.612	1108.06
389.837	1123.06
390.062	1120.06
390.287	1126.06
390.512	1114.06
390.736	1074.06
390.961	1080.06
391.186	1063.06
391.411	1089.06
391.636	1112.06
391.86	1144.06
392.085	1096.06
392.31	1116.06
392.534	1101.06
392.759	1131.06
392.984	1111.06
393.208	1146.06
393.433	1161.06
393.658	1226.06
393.882	1190.06
394.107	1142.06
394.331	1101.06
394.556	1108.06
394.78	1163.06
395.005	1174.06
395.229	1192.06
395.454	1297.06
395.678	1288.06
395.903	1236.06
396.127	1174.06
396.352	1186.06
396.576	1255.06
396.801	1260.06
397.025	1243.06
397.249	1206.06
397.474	1221.06
397.698	1204.06
397.922	1247.06
398.147	1292.06
398.371	1327.06
398.595	1332.06
398.82	1280.06
399.044	1304.06
399.268	1376.06
399.492	1429.06
399.717	1476.06
399.941	1490.06
400.165	1443.06
400.389	1404.06
400.613	1432.06
400.837	1595.06
401.062	1739.06
401.286	1505.06
401.51	1409.06
401.734	1453.06
401.958	1400.06
402.182	1302.06
402.406	1302.06
402.63	1272.06
402.854	1235.06
403.078	1285.06
403.302	1303.06
403.526	1322.06
403.75	1331.06
403.974	1366.06
404.198	1356.06
404.422	1402.06
404.645	1478.06
404.869	1387.06
405.093	1316.06
405.317	1282.06
405.541	1323.06
405.765	1347.06
405.988	1327.06
406.212	1384.06
406.436	1368.06
406.66	1423.06
406.883	1475.06
407.107	1667.06
407.331	1749.06
407.555	1856.06
407.778	1667.06
408.002	1395.06
408.226	1412.06
408.449	1379.06
408.673	1327.06
408.896	1340.06
409.12	1398.06
409.344	1372.06
409.567	1281.06
409.791	1375.06
410.014	1380.06
410.238	1472.06
410.461	1511.06
410.685	1351.06
410.908	1308.06
411.132	1321.06
411.355	1339.06
411.578	1301.06
411.802	1334.06
412.025	1341.06
412.249	1309.06
412.472	1275.06
412.695	1231.06
412.919	1283.06
413.142	1290.06
413.365	1287.06
413.589	1338.06
413.812	1414.06
414.035	1429.06
414.258	1349.06
414.482	1282.06
414.705	1304.06
414.928	1276.06
415.151	1262.06
415.374	1323.06
415.597	1321.06
415.821	1356.06
416.044	1333.06
416.267	1302.06
416.49	1254.06
416.713	1247.06
416.936	1294.06
417.159	1364.06
417.382	1354.06
417.605	1272.06
417.828	1310.06
418.051	1333.06
418.274	1296.06
418.497	1247.06
418.72	1234.06
418.943	1263.06
419.166	1314.06
419.389	1376.06
419.611	1302.06
419.834	1284.06
420.057	1273.06
420.28	1241.06
420.503	1273.06
420.726	1283.06
420.948	1314.06
421.171	1284.06
421.394	1258.06
421.617	1327.06
421.839	1325.06
422.062	1315.06
422.285	1268.06
422.507	1260.06
422.73	1232.06
422.953	1227.06
423.175	1168.06
423.398	1242.06
423.621	1240.06
423.843	1290.06
424.066	1325.06
424.288	1356.06
424.511	1397.06
424.733	1346.06
424.956	1238.06
425.178	1240.06
425.401	1212.06
425.623	1263.06
425.846	1237.06
426.068	1298.06
426.291	1291.06
426.513	1334.06
426.735	1314.06
426.958	1414.06
427.18	1480.06
427.402	1338.06
427.625	1393.06
427.847	1318.06
428.069	1239.06
428.292	1201.06
428.514	1222.06
428.736	1206.06
428.958	1227.06
429.181	1258.06
429.403	1461.06
429.625	1753.06
429.847	1463.06
430.069	1289.06
430.292	1448.06
430.514	1452.06
430.736	1333.06
430.958	1355.06
431.18	1284.06
431.402	1230.06
431.624	1196.06
431.846	1158.06
432.068	1109.06
432.29	1152.06
432.512	1158.06
432.734	1246.06
432.956	1270.06
433.178	1328.06
433.4	1274.06
433.622	1296.06
433.844	1239.06
434.066	1190.06
434.287	1149.06
434.509	1174.06
434.731	1259.06
434.953	1350.06
435.175	1337.06
435.397	1280.06
435.618	1242.06
435.84	1228.06
436.062	1220.06
436.284	1230.06
436.505	1262.06
436.727	1284.06
436.949	1239.06
437.17	1222.06
437.392	1205.06
437.614	1204.06
437.835	1147.06
438.057	1206.06
438.278	1251.06
438.5	1221.06
438.721	1179.06
438.943	1232.06
439.165	1209.06
439.386	1212.06
439.608	1231.06
439.829	1234.06
440.05	1268.06
440.272	1220.06
440.493	1203.06
440.715	1255.06
440.936	1348.06
441.158	1446.06
441.379	1373.06
441.6	1367.06
441.822	1369.06
442.043	1334.06
442.264	1322.06
442.486	1266.06
442.707	1276.06
442.928	1262.06
443.149	1255.06
443.371	1349.06
443.592	1351.06
443.813	1336.06
444.034	1376.06
444.255	1348.06
444.476	1370.06
444.698	1354.06
444.919	1403.06
445.14	1486.06
445.361	1428.06
445.582	1436.06
445.803	1394.06
446.024	1349.06
446.245	1391.06
446.466	1405.06
446.687	1330.06
446.908	1356.06
447.129	1294.06
447.35	1292.06
447.571	1276.06
447.792	1220.06
448.013	1234.06
448.234	1246.06
448.455	1300.06
448.675	1282.06
448.896	1193.06
449.117	1154.06
449.338	1211.06
449.559	1284.06
449.779	1298.06
450	1386.06
450.221	1476.06
450.442	1414.06
450.662	1291.06
450.883	1174.06
451.104	1160.06
451.324	1123.06
451.545	1214.06
451.766	1160.06
451.986	1149.06
452.207	1127.06
452.428	1093.06
452.648	1077.06
452.869	1127.06
453.089	1137.06
453.31	1146.06
453.53	1113.06
453.751	1092.06
453.971	1090.06
454.192	1081.06
454.412	1113.06
454.633	1155.06
454.853	1067.06
455.073	1071.06
455.294	1041.06
455.514	1058.06
455.734	1078.06
455.955	1119.06
456.175	1062.06
456.395	1049.06
456.616	1059.06
456.836	1083.06
457.056	1065.06
457.276	1050.06
457.497	1020.06
457.717	991.06
457.937	1010.06
458.157	1034.06
458.377	1038.06
458.598	1029.06
458.818	1041.06
459.038	1111.06
459.258	1128.06
459.478	1121.06
459.698	1091.06
459.918	1143.06
460.138	1212.06
460.358	1253.06
460.578	1214.06
460.798	1288.06
461.018	1352.06
461.238	1248.06
461.458	1274.06
461.678	1224.06
461.898	1194.06
462.118	1164.06
462.338	1253.06
462.558	1238.06
462.777	1238.06
462.997	1286.06
463.217	1348.06
463.437	1340.06
463.657	1303.06
463.876	1278.06
464.096	1244.06
464.316	1246.06
464.536	1294.06
464.755	1283.06
464.975	1288.06
465.195	1232.06
465.414	1300.06
465.634	1265.06
465.854	1257.06
466.073	1377.06
466.293	1344.06
466.512	1200.06
466.732	1189.06
466.951	1242.06
467.171	1230.06
467.391	1195.06
467.61	1166.06
467.829	1182.06
468.049	1307.06
468.268	1431.06
468.488	1292.06
468.707	1231.06
468.927	1230.06
469.146	1196.06
469.365	1202.06
469.585	1220.06
469.804	1219.06
470.023	1203.06
470.243	1244.06
470.462	1223.06
470.681	1238.06
470.901	1242.06
471.12	1247.06
471.339	1201.06
471.558	1180.06
471.777	1184.06
471.997	1213.06
472.216	1146.06
472.435	1091.06
472.654	1122.06
472.873	1175.06
473.092	1230.06
473.311	1176.06
473.53	1118.06
473.749	1143.06
473.968	1186.06
474.187	1198.06
474.406	1209.06
474.625	1207.06
474.844	1191.06
475.063	1181.06
475.282	1204.06
475.501	1198.06
475.72	1192.06
475.939	1251.06
476.158	1202.06
476.377	1205.06
476.596	1199.06
476.814	1227.06
477.033	1191.06
477.252	1230.06
477.471	1283.06
477.69	1246.06
477.908	1276.06
478.127	1327.06
478.346	1412.06
478.564	1398.06
478.783	1378.06
479.002	1428.06
479.22	1386.06
479.439	1414.06
479.658	1543.06
479.876	1508.06
480.095	1390.06
480.313	1327.06
480.532	1276.06
480.751	1308.06
480.969	1290.06
481.188	1252.06
481.406	1247.06
481.624	1222.06
481.843	1248.06
482.061	1259.06
482.28	1288.06
482.498	1301.06
482.717	1278.06
482.935	1314.06
483.153	1381.06
483.372	1393.06
483.59	1362.06
483.808	1335.06
484.027	1332.06
484.245	1424.06
484.463	1718.06
484.681	1859.06
484.9	1437.06
485.118	1376.06
485.336	1338.06
485.554	1346.06
485.772	1383.06
485.99	1367.06
486.209	1389.06
486.427	1377.06
486.645	1360.06
486.863	1398.06
487.081	1450.06
487.299	1476.06
487.517	1440.06
487.735	1418.06
487.953	1480.06
488.171	1507.06
488.389	1434.06
488.607	1382.06
488.825	1580.06
489.043	1536.06
489.261	1371.06
489.479	1444.06
489.696	1460.06
489.914	1441.06
490.132	1420.06
490.35	1427.06
490.568	1504.06
490.786	1458.06
491.003	1487.06
491.221	1544.06
491.439	1586.06
491.657	1576.06
491.874	1613.06
492.092	1627.06
492.31	1701.06
492.527	1645.06
492.745	1571.06
492.963	1563.06
493.18	1605.06
493.398	1677.06
493.615	1685.06
493.833	1563.06
494.05	1537.06
494.268	1538.06
494.485	1579.06
494.703	1542.06
494.92	1496.06
495.138	1501.06
495.355	1547.06
495.573	1552.06
495.79	1643.06
496.008	1659.06
496.225	1537.06
496.442	1597.06
496.66	1585.06
496.877	1554.06
497.094	1604.06
497.312	1613.06
497.529	1590.06
497.746	1629.06
497.963	1837.06
498.181	1930.06
498.398	1888.06
498.615	1811.06
498.832	1775.06
499.049	1750.06
499.267	1808.06
499.484	1911.06
499.701	1976.06
499.918	2047.06
500.135	2177.06
500.352	2341.06
500.569	2330.06
500.786	2479.06
501.003	2260.06
501.22	2102.06
501.437	2047.06
501.654	2067.06
501.871	1940.06
502.088	1748.06
502.305	1716.06
502.522	1686.06
502.739	1600.06
502.956	1564.06
503.172	1520.06
503.389	1451.06
503.606	1462.06
503.823	1446.06
504.04	1477.06
504.256	1464.06
504.473	1494.06
504.69	1525.06
504.907	1466.06
505.123	1376.06
505.34	1502.06
505.557	1983.06
505.773	1599.06
505.99	1362.06
506.207	1272.06
506.423	1268.06
506.64	1255.06
506.856	1303.06
507.073	1465.06
507.289	1556.06
507.506	1476.06
507.722	1292.06
507.939	1257.06
508.155	1227.06
508.372	1236.06
508.588	1227.06
508.805	1167.06
509.021	1172.06
509.238	1133.06
509.454	1146.06
509.67	1147.06
509.887	1133.06
510.103	1123.06
510.319	1164.06
510.536	1202.06
510.752	1222.06
510.968	1202.06
511.184	1254.06
511.401	1223.06
511.617	1106.06
511.833	1097.06
512.049	1078.06
512.265	1101.06
512.481	1084.06
512.698	1155.06
512.914	1202.06
513.13	1158.06
513.346	1134.06
513.562	1109.06
513.778	1091.06
513.994	1159.06
514.21	1172.06
514.426	1162.06
514.642	1306.06
514.858	1230.06
515.074	1119.06
515.29	1121.06
515.506	1123.06
515.721	1163.06
515.937	1199.06
516.153	1270.06
516.369	1242.06
516.585	1186.06
516.801	1166.06
517.016	1167.06
517.232	1165.06
517.448	1196.06
517.664	1185.06
517.879	1211.06
518.095	1261.06
518.311	1214.06
518.527	1136.06
518.742	1152.06
518.958	1134.06
519.173	1135.06
519.389	1148.06
519.605	1148.06
519.82	1147.06
520.036	1161.06
520.251	1155.06
520.467	1185.06
520.682	1219.06
520.898	1262.06
521.113	1130.06
521.329	1088.06
521.544	1158.06
521.76	1100.06
521.975	1099.06
522.19	1023.06
522.406	1104.06
522.621	1376.06
522.836	1316.06
523.052	1108.06
523.267	1101.06
523.482	1106.06
523.698	1007.06
523.913	1027.06
524.128	1078.06
524.343	1123.06
524.559	1146.06
524.774	1055.06
524.989	1064.06
525.204	1076.06
525.419	1034.06
525.634	1028.06
525.849	1077.06
526.064	1044.06
526.28	1031.06
526.495	988.06
526.71	1007.06
526.925	964.06
527.14	985.06
527.355	953.06
527.57	960.06
527.785	988.06
527.999	976.06
528.214	996.06
528.429	999.06
528.644	1018.06
528.859	1071.06
529.074	1079.06
529.289	1102.06
529.503	1115.06
529.718	1062.06
529.933	1026.06
530.148	957.06
530.363	958.06
530.577	956.06
530.792	982.06
531.007	983.06
531.221	942.06
531.436	965.06
531.651	1018.06
531.865	1060.06
532.08	1027.06
532.295	944.06
532.509	939.06
532.724	934.06
532.938	983.06
533.153	1063.06
533.367	1026.06
533.582	1003.06
533.796	1005.06
534.011	1016.06
534.225	1012.06
534.44	970.06
534.654	954.06
534.868	950.06
535.083	997.06
535.297	1039.06
535.511	979.06
535.726	983.06
535.94	971.06
536.154	970.06
536.369	937.06
536.583	922.06
536.797	927.06
537.011	954.06
537.225	908.06
537.44	912.06
537.654	971.06
537.868	942.06
538.082	863.06
538.296	896.06
538.51	902.06
538.724	918.06
538.938	929.06
539.153	994.06
539.367	976.06
539.581	965.06
539.795	986.06
540.009	949.06
540.222	941.06
540.436	979.06
540.65	1035.06
540.864	1052.06
541.078	1060.06
541.292	1003.06
541.506	1042.06
541.72	1081.06
541.934	1154.06
542.147	1171.06
542.361	1092.06
542.575	1070.06
542.789	1010.06
543.002	936.06
543.216	970.06
543.43	1010.06
543.644	1028.06
543.857	1071.06
544.071	1069.06
544.285	1090.06
544.498	1096.06
544.712	1063.06
544.925	1078.06
545.139	1116.06
545.352	1052.06
545.566	1040.06
545.779	1029.06
545.993	1082.06
546.206	1084.06
546.42	1050.06
546.633	1033.06
546.847	1030.06
547.06	1067.06
547.274	1030.06
547.487	1050.06
547.7	1083.06
547.914	1064.06
548.127	1080.06
548.34	1109.06
548.554	1046.06
548.767	1053.06
548.98	1050.06
549.193	1025.06
549.407	1094.06
549.62	1097.06
549.833	1073.06
550.046	1015.06
550.259	1059.06
550.473	1033.06
550.686	1032.06
550.899	975.06
551.112	993.06
551.325	962.06
551.538	1054.06
551.751	1152.06
551.964	923.06
552.177	918.06
552.39	950.06
552.603	995.06
552.816	978.06
553.029	1041.06
553.242	1053.06
553.455	1044.06
553.667	1036.06
553.88	1013.06
554.093	1016.06
554.306	989.06
554.519	982.06
554.732	960.06
554.944	970.06
555.157	988.06
555.37	934.06
555.583	941.06
555.795	921.06
556.008	908.06
556.221	872.06
556.433	887.06
556.646	855.06
556.859	862.06
557.071	861.06
557.284	848.06
557.496	861.06
557.709	861.06
557.921	878.06
558.134	868.06
558.346	842.06
558.559	813.06
558.771	830.06
558.984	805.06
559.196	780.06
559.409	800.06
559.621	798.06
559.833	818.06
560.046	847.06
560.258	778.06
560.47	837.06
560.683	808.06
560.895	799.06
561.107	784.06
561.32	781.06
561.532	823.06
561.744	819.06
561.956	809.06
562.168	794.06
562.381	784.06
562.593	778.06
562.805	792.06
563.017	766.06
563.229	787.06
563.441	808.06
563.653	772.06
563.865	775.06
564.077	772.06
564.289	765.06
564.501	774.06
564.713	788.06
564.925	800.06
565.137	874.06
565.349	775.06
565.561	798.06
565.773	789.06
565.985	791.06
566.197	854.06
566.408	879.06
566.62	902.06
566.832	906.06
567.044	893.06
567.255	918.06
567.467	883.06
567.679	910.06
567.891	904.06
568.102	860.06
568.314	827.06
568.526	792.06
568.737	751.06
568.949	732.06
569.161	697.06
569.372	686.06
569.584	654.06
569.795	668.06
570.007	649.06
570.218	653.06
570.43	642.06
570.641	658.06
570.853	660.06
571.064	684.06
571.276	646.06
571.487	640.06
571.698	630.06
571.91	612.06
572.121	613.06
572.333	626.06
572.544	601.06
572.755	546.06
572.966	581.06
573.178	567.06
573.389	565.06
573.6	604.06
573.811	632.06
574.023	571.06
574.234	568.06
574.445	554.06
574.656	562.06
574.867	552.06
575.078	572.06
575.289	577.06
575.501	569.06
575.712	557.06
575.923	545.06
576.134	544.06
576.345	556.06
576.556	571.06
576.767	539.06
576.978	555.06
577.188	519.06
577.399	523.06
577.61	509.06
577.821	514.06
578.032	515.06
578.243	521.06
578.454	507.06
578.665	517.06
578.875	483.06
579.086	479.06
579.297	519.06
579.508	536.06
579.718	507.06
579.929	505.06
580.14	488.06
580.35	494.06
580.561	492.06
580.772	553.06
580.982	520.06
581.193	495.06
581.403	477.06
581.614	488.06
581.825	459.06
582.035	446.06
582.246	475.06
582.456	508.06
582.667	482.06
582.877	470.06
583.087	471.06
583.298	449.06
583.508	452.06
583.719	473.06
583.929	498.06
584.139	477.06
584.35	428.06
584.56	451.06
584.77	461.06
584.981	468.06
585.191	477.06
585.401	473.06
585.611	462.06
585.821	440.06
586.032	456.06
586.242	451.06
586.452	420.06
586.662	452.06
586.872	463.06
587.082	430.06
587.292	456.06
587.502	464.06
587.713	462.06
587.923	437.06
588.133	462.06
588.343	465.06
588.553	451.06
588.762	452.06
588.972	453.06
589.182	459.06
589.392	447.06
589.602	445.06
589.812	451.06
590.022	429.06
590.232	425.06
590.441	467.06
590.651	455.06
590.861	438.06
591.071	432.06
591.281	416.06
591.49	427.06
591.7	425.06
591.91	423.06
592.119	436.06
592.329	455.06
592.539	455.06
592.748	456.06
592.958	430.06
593.167	468.06
593.377	468.06
593.587	476.06
593.796	472.06
594.006	460.06
594.215	477.06
594.424	467.06
594.634	460.06
594.843	471.06
595.053	484.06
595.262	426.06
595.472	451.06
595.681	441.06
595.89	439.06
596.1	415.06
596.309	429.06
596.518	442.06
596.727	423.06
596.937	394.06
597.146	416.06
597.355	418.06
597.564	402.06
597.774	413.06
597.983	405.06
598.192	412.06
598.401	401.06
598.61	388.06
598.819	385.06
599.028	376.06
599.237	400.06
599.446	375.06
599.655	374.06
599.864	393.06
600.073	362.06
600.282	380.06
600.491	382.06
600.7	362.06
600.909	386.06
601.118	395.06
601.327	414.06
601.536	437.06
601.745	407.06
601.953	417.06
602.162	408.06
602.371	428.06
602.58	416.06
602.789	413.06
602.997	398.06
603.206	428.06
603.415	386.06
603.623	391.06
603.832	408.06
604.041	407.06
604.249	399.06
604.458	370.06
604.666	396.06
604.875	383.06
605.084	394.06
605.292	416.06
605.501	412.06
605.709	422.06
605.918	408.06
606.126	394.06
606.334	390.06
606.543	388.06
606.751	415.06
606.96	408.06
607.168	377.06
607.376	405.06
607.585	399.06
607.793	415.06
608.001	405.06
608.21	403.06
608.418	409.06
608.626	422.06
608.834	396.06
609.043	410.06
609.251	413.06
609.459	381.06
609.667	392.06
609.875	413.06
610.083	401.06
610.291	412.06
610.499	404.06
610.707	409.06
610.916	419.06
611.124	389.06
611.332	385.06
611.54	404.06
611.748	389.06
611.955	394.06
612.163	388.06
612.371	382.06
612.579	355.06
612.787	380.06
612.995	386.06
613.203	390.06
613.411	375.06
613.618	388.06
613.826	389.06
614.034	393.06
614.242	395.06
614.449	398.06
614.657	392.06
614.865	374.06
615.072	395.06
615.28	378.06
615.488	374.06
615.695	409.06
615.903	382.06
616.111	399.06
616.318	390.06
616.526	382.06
616.733	376.06
616.941	390.06
617.148	386.06
617.356	363.06
617.563	386.06
617.771	374.06
617.978	364.06
618.185	402.06
618.393	367.06
618.6	365.06
618.807	381.06
619.015	372.06
619.222	369.06
619.429	359.06
619.637	352.06
619.844	347.06
620.051	350.06
620.258	370.06
620.466	356.06
620.673	340.06
620.88	357.06
621.087	336.06
621.294	340.06
621.501	352.06
621.708	348.06
621.915	348.06
622.122	341.06
622.329	370.06
622.536	344.06
622.743	358.06
622.95	347.06
623.157	341.06
623.364	336.06
623.571	332.06
623.778	346.06
623.985	357.06
624.192	361.06
624.399	338.06
624.606	360.06
624.812	356.06
625.019	334.06
625.226	315.06
625.433	324.06
625.639	322.06
625.846	295.06
626.053	308.06
626.259	312.06
626.466	283.06
626.673	309.06
626.879	296.06
627.086	286.06
627.293	300.06
627.499	308.06
627.706	328.06
627.912	334.06
628.119	325.06
628.325	324.06
628.532	315.06
628.738	329.06
628.945	323.06
629.151	326.06
629.357	309.06
629.564	313.06
629.77	296.06
629.976	301.06
630.183	306.06
630.389	310.06
630.595	302.06
630.802	314.06
631.008	304.06
631.214	314.06
631.42	293.06
631.627	296.06
631.833	295.06
632.039	295.06
632.245	279.06
632.451	283.06
632.657	309.06
632.863	293.06
633.069	287.06
633.275	292.06
633.481	278.06
633.688	273.06
633.893	279.06
634.099	298.06
634.305	270.06
634.511	280.06
634.717	245.06
634.923	267.06
635.129	282.06
635.335	267.06
635.541	276.06
635.747	278.06
635.952	278.06
636.158	283.06
636.364	266.06
636.57	279.06
636.775	278.06
636.981	280.06
637.187	284.06
637.392	285.06
637.598	276.06
637.804	265.06
638.009	287.06
638.215	284.06
638.421	283.06
638.626	273.06
638.832	267.06
639.037	268.06
639.243	257.06
639.448	262.06
639.654	283.06
639.859	282.06
640.065	247.06
640.27	276.06
640.475	266.06
640.681	265.06
640.886	262.06
641.091	251.06
641.297	263.06
641.502	272.06
641.707	246.06
641.913	259.06
642.118	268.06
642.323	260.06
642.528	259.06
642.733	253.06
642.939	259.06
643.144	256.06
643.349	266.06
643.554	261.06
643.759	260.06
643.964	234.06
644.169	246.06
644.374	260.06
644.579	250.06
644.784	251.06
644.989	249.06
645.194	262.06
645.399	262.06
645.604	255.06
645.809	263.06
646.014	262.06
646.219	263.06
646.423	260.06
646.628	249.06
646.833	261.06
647.038	267.06
647.243	250.06
647.447	261.06
647.652	267.06
647.857	246.06
648.062	244.06
648.266	263.06
648.471	266.06
648.676	238.06
648.88	255.06
649.085	235.06
649.289	269.06
649.494	245.06
649.698	263.06
649.903	248.06
650.107	251.06
650.312	258.06
650.516	248.06
650.721	246.06
650.925	253.06
651.13	248.06
651.334	233.06
651.539	236.06
651.743	237.06
651.947	224.06
652.152	229.06
652.356	224.06
652.56	227.06
652.764	238.06
652.969	228.06
653.173	231.06
653.377	227.06
653.581	234.06
653.785	239.06
653.99	213.06
654.194	222.06
654.398	211.06
654.602	219.06
654.806	230.06
655.01	216.06
655.214	210.06
655.418	239.06
655.622	218.06
655.826	234.06
656.03	234.06
656.234	232.06
656.438	235.06
656.642	261.06
656.846	236.06
657.049	232.06
657.253	224.06
657.457	212.06
657.661	202.06
657.865	200.06
658.068	172.06
658.272	175.06
658.476	164.06
658.68	165.06
658.883	165.06
659.087	143.06
659.291	150.06
659.494	139.06
659.698	126.06
659.901	155.06
660.105	136.06
660.309	119.06
660.512	125.06
660.716	118.06
660.919	121.06
661.123	123.06
661.326	108.06
661.53	108.06
661.733	124.06
661.936	109.06
662.14	108.06
662.343	93.06
662.546	106.06
662.75	85.06
662.953	89.06
663.156	88.06
663.36	92.06
663.563	93.06
663.766	74.06
663.969	90.06
664.173	89.06
664.376	86.06
664.579	82.06
664.782	85.06
664.985	92.06
665.188	82.06
665.391	87.06
665.594	78.06
665.797	83.06
666	84.06
666.203	78.06
666.406	78.06
666.609	95.06
666.812	92.06
667.015	88.06
667.218	68.06
667.421	90.06
667.624	85.06
667.827	84.06
668.03	87.06
668.232	80.06
668.435	85.06
668.638	87.06
668.841	78.06
669.043	87.06
669.246	95.06
669.449	92.06
669.651	80.06
669.854	94.06
670.057	84.06
670.259	85.06
670.462	88.06
670.665	89.06
670.867	90.06
671.07	85.06
671.272	80.06
671.475	71.06
671.677	88.06
671.88	95.06
672.082	70.06
672.284	95.06
672.487	87.06
672.689	66.06
672.892	78.06
