Data from WStandard_LampEnergy5.5LIBS07252019.E.O._I.C._HRD10591_16-07-40-920.txt Node
Date: Thu Jul 25 16:07:40 EDT 2019
User: cochatt
Spectrometer: HR+D1059
Trigger mode: 1
Integration Time (sec): 1.000000E-1
Scans to average: 1
Electric dark correction enabled: true
Nonlinearity correction enabled: false
Boxcar width: 0
XAxis mode: Wavelengths
Number of Pixels in Spectrum: 2048
>>>>>Begin Spectral Data<<<<<
223.165	-20.88
223.4	-20.88
223.635	-20.88
223.869	-4.88
224.104	-11.88
224.338	-8.88
224.573	-22.88
224.808	-11.88
225.042	-2.88
225.277	-14.88
225.511	0.12
225.746	9.12
225.98	4.12
226.215	7.12
226.449	13.12
226.683	14.12
226.918	25.12
227.152	26.12
227.387	35.12
227.621	32.12
227.856	40.12
228.09	32.12
228.324	52.12
228.559	43.12
228.793	138.12
229.027	381.12
229.262	378.12
229.496	387.12
229.73	404.12
229.964	461.12
230.199	487.12
230.433	488.12
230.667	524.12
230.901	524.12
231.136	486.12
231.37	469.12
231.604	492.12
231.838	473.12
232.072	476.12
232.306	469.12
232.541	513.12
232.775	576.12
233.009	639.12
233.243	595.12
233.477	541.12
233.711	559.12
233.945	613.12
234.179	556.12
234.413	617.12
234.647	622.12
234.881	595.12
235.115	565.12
235.349	581.12
235.583	573.12
235.817	577.12
236.051	533.12
236.285	559.12
236.519	601.12
236.753	668.12
236.987	711.12
237.221	707.12
237.455	787.12
237.689	727.12
237.922	707.12
238.156	667.12
238.39	691.12
238.624	723.12
238.858	749.12
239.091	818.12
239.325	841.12
239.559	981.12
239.793	979.12
240.027	1087.12
240.26	1065.12
240.494	815.12
240.728	727.12
240.961	757.12
241.195	761.12
241.429	840.12
241.662	849.12
241.896	773.12
242.13	802.12
242.363	860.12
242.597	923.12
242.83	892.12
243.064	929.12
243.298	989.12
243.531	938.12
243.765	975.12
243.998	950.12
244.232	835.12
244.465	805.12
244.699	805.12
244.932	910.12
245.166	1073.12
245.399	1023.12
245.633	922.12
245.866	896.12
246.099	957.12
246.333	996.12
246.566	1023.12
246.8	1066.12
247.033	1217.12
247.266	1092.12
247.5	1115.12
247.733	1113.12
247.966	1128.12
248.2	1289.12
248.433	1209.12
248.666	1236.12
248.899	1357.12
249.133	1625.12
249.366	1793.12
249.599	1494.12
249.832	1289.12
250.066	1326.12
250.299	1341.12
250.532	1279.12
250.765	1133.12
250.998	1181.12
251.231	1258.12
251.465	1275.12
251.698	1212.12
251.931	1205.12
252.164	1245.12
252.397	1309.12
252.63	1305.12
252.863	1144.12
253.096	1128.12
253.329	1176.12
253.562	1196.12
253.795	1360.12
254.028	1308.12
254.261	1223.12
254.494	1197.12
254.727	1143.12
254.96	1168.12
255.193	1267.12
255.426	1464.12
255.659	1715.12
255.892	1752.12
256.124	1424.12
256.357	1399.12
256.59	1476.12
256.823	1452.12
257.056	1435.12
257.289	1777.12
257.521	1973.12
257.754	1752.12
257.987	1629.12
258.22	1845.12
258.452	1837.12
258.685	1434.12
258.918	1411.12
259.151	1428.12
259.383	1364.12
259.616	1209.12
259.849	1251.12
260.081	1407.12
260.314	1623.12
260.547	1784.12
260.779	1826.12
261.012	1655.12
261.244	1512.12
261.477	1377.12
261.71	1465.12
261.942	1459.12
262.175	1409.12
262.407	1463.12
262.64	1426.12
262.872	1315.12
263.105	1281.12
263.337	1321.12
263.57	1337.12
263.802	1348.12
264.035	1259.12
264.267	1167.12
264.499	1176.12
264.732	1253.12
264.964	1338.12
265.197	1385.12
265.429	1427.12
265.661	1600.12
265.894	1834.12
266.126	1863.12
266.358	1631.12
266.591	1718.12
266.823	1865.12
267.055	1678.12
267.287	1636.12
267.52	1604.12
267.752	1572.12
267.984	1567.12
268.216	1677.12
268.448	1703.12
268.681	1668.12
268.913	1575.12
269.145	1459.12
269.377	1427.12
269.609	1558.12
269.841	1785.12
270.073	2100.12
270.306	2311.12
270.538	2539.12
270.77	2129.12
271.002	1763.12
271.234	1730.12
271.466	1679.12
271.698	1859.12
271.93	2288.12
272.162	2277.12
272.394	2077.12
272.626	1950.12
272.858	1733.12
273.09	1497.12
273.322	1494.12
273.553	1414.12
273.785	1440.12
274.017	1486.12
274.249	1635.12
274.481	1639.12
274.713	1508.12
274.945	1452.12
275.176	1473.12
275.408	1407.12
275.64	1435.12
275.872	1390.12
276.104	1458.12
276.335	1706.12
276.567	1901.12
276.799	1994.12
277.031	1764.12
277.262	1632.12
277.494	1706.12
277.726	1909.12
277.957	1890.12
278.189	1721.12
278.421	1592.12
278.652	1502.12
278.884	1531.12
279.115	1536.12
279.347	1552.12
279.579	1520.12
279.81	1516.12
280.042	1663.12
280.273	1855.12
280.505	1868.12
280.736	1873.12
280.968	1777.12
281.199	1546.12
281.431	1461.12
281.662	1493.12
281.894	1460.12
282.125	1538.12
282.356	1559.12
282.588	1620.12
282.819	1549.12
283.051	1692.12
283.282	1842.12
283.513	1793.12
283.745	1556.12
283.976	1468.12
284.207	1461.12
284.439	1508.12
284.67	1535.12
284.901	1578.12
285.132	1620.12
285.364	1585.12
285.595	1569.12
285.826	1547.12
286.057	1529.12
286.288	1507.12
286.52	1601.12
286.751	1751.12
286.982	1795.12
287.213	1605.12
287.444	1495.12
287.675	1483.12
287.906	1516.12
288.138	1686.12
288.369	1625.12
288.6	1540.12
288.831	1516.12
289.062	1549.12
289.293	1546.12
289.524	1561.12
289.755	1606.12
289.986	1614.12
290.217	1511.12
290.448	1516.12
290.679	1612.12
290.91	1581.12
291.141	1597.12
291.371	1662.12
291.602	1635.12
291.833	1618.12
292.064	1690.12
292.295	1644.12
292.526	1640.12
292.757	1771.12
292.987	1679.12
293.218	1559.12
293.449	1681.12
293.68	1975.12
293.91	2074.12
294.141	1964.12
294.372	1818.12
294.603	1867.12
294.833	1937.12
295.064	1849.12
295.295	1671.12
295.525	1660.12
295.756	1563.12
295.987	1428.12
296.217	1522.12
296.448	1516.12
296.679	1531.12
296.909	1538.12
297.14	1558.12
297.37	1522.12
297.601	1593.12
297.831	1787.12
298.062	1828.12
298.292	1594.12
298.523	1523.12
298.753	1588.12
298.984	1622.12
299.214	1586.12
299.445	1584.12
299.675	1655.12
299.905	1671.12
300.136	1605.12
300.366	1576.12
300.597	1500.12
300.827	1484.12
301.057	1573.12
301.288	1637.12
301.518	1647.12
301.748	1681.12
301.979	1779.12
302.209	1764.12
302.439	1935.12
302.669	2000.12
302.9	1899.12
303.13	1695.12
303.36	1665.12
303.59	1717.12
303.82	1692.12
304.051	1701.12
304.281	1693.12
304.511	1679.12
304.741	1744.12
304.971	1949.12
305.201	2145.12
305.431	2006.12
305.661	1651.12
305.891	1461.12
306.121	1478.12
306.352	1529.12
306.582	1611.12
306.812	1736.12
307.042	1884.12
307.272	1830.12
307.502	1908.12
307.731	2079.12
307.961	2231.12
308.191	2064.12
308.421	1762.12
308.651	1623.12
308.881	1596.12
309.111	1600.12
309.341	1575.12
309.571	1595.12
309.8	1617.12
310.03	1587.12
310.26	1575.12
310.49	1611.12
310.72	1648.12
310.949	1683.12
311.179	1735.12
311.409	1692.12
311.639	1625.12
311.868	1619.12
312.098	1655.12
312.328	1628.12
312.557	1617.12
312.787	1673.12
313.017	1710.12
313.246	1703.12
313.476	1675.12
313.706	1713.12
313.935	1705.12
314.165	1685.12
314.394	1711.12
314.624	1892.12
314.853	1995.12
315.083	2045.12
315.312	2095.12
315.542	1984.12
315.771	1783.12
316.001	1715.12
316.23	1868.12
316.46	1857.12
316.689	1826.12
316.919	1691.12
317.148	1638.12
317.377	1658.12
317.607	1778.12
317.836	2019.12
318.065	2075.12
318.295	1977.12
318.524	1958.12
318.753	1847.12
318.983	1787.12
319.212	1775.12
319.441	1743.12
319.67	1730.12
319.9	1796.12
320.129	1868.12
320.358	1907.12
320.587	1981.12
320.816	1963.12
321.046	1947.12
321.275	1800.12
321.504	1797.12
321.733	2017.12
321.962	1907.12
322.191	1765.12
322.42	1763.12
322.649	1746.12
322.878	1753.12
323.108	1788.12
323.337	1859.12
323.566	1838.12
323.795	1826.12
324.024	1805.12
324.253	1795.12
324.482	1810.12
324.71	1765.12
324.939	1660.12
325.168	1675.12
325.397	1761.12
325.626	1851.12
325.855	1853.12
326.084	1752.12
326.313	1817.12
326.542	1786.12
326.77	1839.12
326.999	1879.12
327.228	1759.12
327.457	1670.12
327.686	1641.12
327.914	1722.12
328.143	1754.12
328.372	1762.12
328.6	1740.12
328.829	1763.12
329.058	1731.12
329.287	1686.12
329.515	1826.12
329.744	1805.12
329.972	1870.12
330.201	1955.12
330.43	1925.12
330.658	1867.12
330.887	1817.12
331.115	1888.12
331.344	1913.12
331.572	1844.12
331.801	1861.12
332.03	1853.12
332.258	1847.12
332.486	1887.12
332.715	1881.12
332.943	1905.12
333.172	1871.12
333.4	1901.12
333.629	1920.12
333.857	2031.12
334.085	2238.12
334.314	2540.12
334.542	2807.12
334.771	2624.12
334.999	2231.12
335.227	2152.12
335.455	1991.12
335.684	1958.12
335.912	2026.12
336.14	2099.12
336.369	2076.12
336.597	1929.12
336.825	1887.12
337.053	1938.12
337.281	2041.12
337.51	2162.12
337.738	2255.12
337.966	2097.12
338.194	1910.12
338.422	1849.12
338.65	1831.12
338.878	1821.12
339.106	1802.12
339.334	1753.12
339.562	1703.12
339.79	1747.12
340.018	1886.12
340.246	1966.12
340.474	2017.12
340.702	1915.12
340.93	1944.12
341.158	1899.12
341.386	1880.12
341.614	1890.12
341.842	1833.12
342.07	1857.12
342.298	1864.12
342.526	1847.12
342.754	1839.12
342.981	1800.12
343.209	1819.12
343.437	1805.12
343.665	1806.12
343.893	1847.12
344.12	1931.12
344.348	1994.12
344.576	1935.12
344.804	1835.12
345.031	1815.12
345.259	1845.12
345.487	1813.12
345.714	1692.12
345.942	1703.12
346.17	1700.12
346.397	1725.12
346.625	1741.12
346.853	1672.12
347.08	1656.12
347.308	1640.12
347.535	1648.12
347.763	1782.12
347.99	1746.12
348.218	1621.12
348.445	1667.12
348.673	1734.12
348.9	1732.12
349.128	1828.12
349.355	1872.12
349.583	1788.12
349.81	1767.12
350.037	1628.12
350.265	1590.12
350.492	1623.12
350.72	1648.12
350.947	1729.12
351.174	1764.12
351.402	1702.12
351.629	1612.12
351.856	1585.12
352.083	1592.12
352.311	1594.12
352.538	1620.12
352.765	1664.12
352.992	1751.12
353.22	1668.12
353.447	1629.12
353.674	1647.12
353.901	1707.12
354.128	1659.12
354.355	1624.12
354.583	1672.12
354.81	1769.12
355.037	1786.12
355.264	1722.12
355.491	1695.12
355.718	1668.12
355.945	1737.12
356.172	1659.12
356.399	1624.12
356.626	1660.12
356.853	1715.12
357.08	1798.12
357.307	2022.12
357.534	2033.12
357.761	1758.12
357.988	1627.12
358.215	1596.12
358.441	1602.12
358.668	1605.12
358.895	1596.12
359.122	1695.12
359.349	1872.12
359.576	1860.12
359.802	1687.12
360.029	1637.12
360.256	1612.12
360.483	1655.12
360.709	1672.12
360.936	1727.12
361.163	1778.12
361.39	1945.12
361.616	2127.12
361.843	2070.12
362.07	1996.12
362.296	1736.12
362.523	1655.12
362.749	1652.12
362.976	1720.12
363.203	1716.12
363.429	1676.12
363.656	1615.12
363.882	1659.12
364.109	1831.12
364.335	2020.12
364.562	1894.12
364.788	1797.12
365.015	1717.12
365.241	1649.12
365.468	1669.12
365.694	1729.12
365.92	1842.12
366.147	1764.12
366.373	1659.12
366.599	1638.12
366.826	1640.12
367.052	1643.12
367.278	1652.12
367.505	1691.12
367.731	1731.12
367.957	1722.12
368.184	1769.12
368.41	1853.12
368.636	1835.12
368.862	1881.12
369.089	1923.12
369.315	1868.12
369.541	1770.12
369.767	1706.12
369.993	1622.12
370.219	1631.12
370.445	1694.12
370.672	1767.12
370.898	1877.12
371.124	1864.12
371.35	1733.12
371.576	1825.12
371.802	1908.12
372.028	1790.12
372.254	1730.12
372.48	1710.12
372.706	1699.12
372.932	1708.12
373.158	1715.12
373.384	1752.12
373.61	1765.12
373.835	1868.12
374.061	1796.12
374.287	1754.12
374.513	1746.12
374.739	1784.12
374.965	1777.12
375.191	1798.12
375.416	1820.12
375.642	1814.12
375.868	1912.12
376.094	1976.12
376.319	1904.12
376.545	1752.12
376.771	1793.12
376.997	1891.12
377.222	1869.12
377.448	1797.12
377.674	1841.12
377.899	1805.12
378.125	1929.12
378.35	1931.12
378.576	1776.12
378.802	1697.12
379.027	1736.12
379.253	1745.12
379.478	1762.12
379.704	1727.12
379.929	1745.12
380.155	1767.12
380.38	1747.12
380.606	1796.12
380.831	1762.12
381.057	1844.12
381.282	1869.12
381.507	1836.12
381.733	1947.12
381.958	2018.12
382.184	1874.12
382.409	1815.12
382.634	1871.12
382.86	1856.12
383.085	1852.12
383.31	1860.12
383.535	2026.12
383.761	2152.12
383.986	2084.12
384.211	1993.12
384.436	1951.12
384.662	2063.12
384.887	2157.12
385.112	2018.12
385.337	2001.12
385.562	2014.12
385.787	1991.12
386.013	2070.12
386.238	2073.12
386.463	2065.12
386.688	2159.12
386.913	2305.12
387.138	2245.12
387.363	2068.12
387.588	2101.12
387.813	2062.12
388.038	2059.12
388.263	2183.12
388.488	2118.12
388.713	1913.12
388.938	1902.12
389.163	1935.12
389.387	1978.12
389.612	1992.12
389.837	2021.12
390.062	2057.12
390.287	2034.12
390.512	2011.12
390.736	1952.12
390.961	1928.12
391.186	1916.12
391.411	1986.12
391.636	1948.12
391.86	1983.12
392.085	2009.12
392.31	1974.12
392.534	1999.12
392.759	2036.12
392.984	1978.12
393.208	2060.12
393.433	2115.12
393.658	2172.12
393.882	2179.12
394.107	2047.12
394.331	2020.12
394.556	2009.12
394.78	1974.12
395.005	2056.12
395.229	2136.12
395.454	2331.12
395.678	2313.12
395.903	2209.12
396.127	2116.12
396.352	2161.12
396.576	2188.12
396.801	2207.12
397.025	2204.12
397.249	2193.12
397.474	2167.12
397.698	2147.12
397.922	2191.12
398.147	2360.12
398.371	2373.12
398.595	2366.12
398.82	2311.12
399.044	2340.12
399.268	2437.12
399.492	2600.12
399.717	2705.12
399.941	2747.12
400.165	2643.12
400.389	2575.12
400.613	2525.12
400.837	2747.12
401.062	3217.12
401.286	2748.12
401.51	2531.12
401.734	2617.12
401.958	2555.12
402.182	2386.12
402.406	2310.12
402.63	2259.12
402.854	2248.12
403.078	2263.12
403.302	2391.12
403.526	2395.12
403.75	2339.12
403.974	2399.12
404.198	2420.12
404.422	2428.12
404.645	2581.12
404.869	2513.12
405.093	2347.12
405.317	2323.12
405.541	2402.12
405.765	2425.12
405.988	2405.12
406.212	2439.12
406.436	2471.12
406.66	2562.12
406.883	2591.12
407.107	2824.12
407.331	3119.12
407.555	3318.12
407.778	3193.12
408.002	2588.12
408.226	2527.12
408.449	2567.12
408.673	2517.12
408.896	2481.12
409.12	2533.12
409.344	2457.12
409.567	2366.12
409.791	2399.12
410.014	2464.12
410.238	2545.12
410.461	2692.12
410.685	2490.12
410.908	2344.12
411.132	2404.12
411.355	2374.12
411.578	2343.12
411.802	2360.12
412.025	2378.12
412.249	2340.12
412.472	2264.12
412.695	2261.12
412.919	2271.12
413.142	2254.12
413.365	2263.12
413.589	2346.12
413.812	2457.12
414.035	2546.12
414.258	2336.12
414.482	2263.12
414.705	2288.12
414.928	2258.12
415.151	2272.12
415.374	2357.12
415.597	2320.12
415.821	2327.12
416.044	2396.12
416.267	2433.12
416.49	2225.12
416.713	2170.12
416.936	2243.12
417.159	2303.12
417.382	2401.12
417.605	2210.12
417.828	2309.12
418.051	2353.12
418.274	2260.12
418.497	2197.12
418.72	2207.12
418.943	2216.12
419.166	2372.12
419.389	2480.12
419.611	2322.12
419.834	2303.12
420.057	2295.12
420.28	2199.12
420.503	2181.12
420.726	2245.12
420.948	2260.12
421.171	2152.12
421.394	2241.12
421.617	2230.12
421.839	2278.12
422.062	2198.12
422.285	2195.12
422.507	2166.12
422.73	2114.12
422.953	2125.12
423.175	2134.12
423.398	2175.12
423.621	2187.12
423.843	2171.12
424.066	2252.12
424.288	2313.12
424.511	2351.12
424.733	2313.12
424.956	2075.12
425.178	2073.12
425.401	2124.12
425.623	2165.12
425.846	2121.12
426.068	2257.12
426.291	2263.12
426.513	2240.12
426.735	2274.12
426.958	2330.12
427.18	2531.12
427.402	2317.12
427.625	2418.12
427.847	2423.12
428.069	2208.12
428.292	2145.12
428.514	2113.12
428.736	2130.12
428.958	2112.12
429.181	2111.12
429.403	2378.12
429.625	2934.12
429.847	2619.12
430.069	2213.12
430.292	2391.12
430.514	2503.12
430.736	2313.12
430.958	2400.12
431.18	2303.12
431.402	2135.12
431.624	2106.12
431.846	2106.12
432.068	2078.12
432.29	2125.12
432.512	2142.12
432.734	2178.12
432.956	2247.12
433.178	2314.12
433.4	2274.12
433.622	2235.12
433.844	2208.12
434.066	2067.12
434.287	2096.12
434.509	2161.12
434.731	2332.12
434.953	2417.12
435.175	2384.12
435.397	2275.12
435.618	2261.12
435.84	2249.12
436.062	2178.12
436.284	2209.12
436.505	2215.12
436.727	2268.12
436.949	2227.12
437.17	2137.12
437.392	2129.12
437.614	2173.12
437.835	2127.12
438.057	2267.12
438.278	2321.12
438.5	2201.12
438.721	2091.12
438.943	2141.12
439.165	2132.12
439.386	2076.12
439.608	2123.12
439.829	2125.12
440.05	2082.12
440.272	2068.12
440.493	2056.12
440.715	2100.12
440.936	2254.12
441.158	2481.12
441.379	2438.12
441.6	2375.12
441.822	2266.12
442.043	2319.12
442.264	2226.12
442.486	2117.12
442.707	2111.12
442.928	2126.12
443.149	2143.12
443.371	2336.12
443.592	2402.12
443.813	2351.12
444.034	2335.12
444.255	2331.12
444.476	2359.12
444.698	2438.12
444.919	2394.12
445.14	2465.12
445.361	2475.12
445.582	2591.12
445.803	2423.12
446.024	2313.12
446.245	2451.12
446.466	2359.12
446.687	2219.12
446.908	2248.12
447.129	2146.12
447.35	2197.12
447.571	2199.12
447.792	2080.12
448.013	2079.12
448.234	2123.12
448.455	2206.12
448.675	2240.12
448.896	2049.12
449.117	2016.12
449.338	2097.12
449.559	2175.12
449.779	2282.12
450	2502.12
450.221	2715.12
450.442	2617.12
450.662	2331.12
450.883	2028.12
451.104	1999.12
451.324	2007.12
451.545	2100.12
451.766	2114.12
451.986	1990.12
452.207	1985.12
452.428	1911.12
452.648	1915.12
452.869	1930.12
453.089	2060.12
453.31	2083.12
453.53	2120.12
453.751	2061.12
453.971	1899.12
454.192	1981.12
454.412	2107.12
454.633	2051.12
454.853	1974.12
455.073	1860.12
455.294	1836.12
455.514	1842.12
455.734	1873.12
455.955	1893.12
456.175	1907.12
456.395	1917.12
456.616	2031.12
456.836	2006.12
457.056	1933.12
457.276	1947.12
457.497	1875.12
457.717	1833.12
457.937	1874.12
458.157	1921.12
458.377	1941.12
458.598	1907.12
458.818	1883.12
459.038	2031.12
459.258	2171.12
459.478	2180.12
459.698	2070.12
459.918	2123.12
460.138	2249.12
460.358	2250.12
460.578	2292.12
460.798	2371.12
461.018	2563.12
461.238	2409.12
461.458	2233.12
461.678	2319.12
461.898	2215.12
462.118	2160.12
462.338	2293.12
462.558	2249.12
462.777	2259.12
462.997	2371.12
463.217	2534.12
463.437	2514.12
463.657	2326.12
463.876	2269.12
464.096	2271.12
464.316	2271.12
464.536	2364.12
464.755	2357.12
464.975	2389.12
465.195	2295.12
465.414	2439.12
465.634	2455.12
465.854	2301.12
466.073	2404.12
466.293	2381.12
466.512	2086.12
466.732	2083.12
466.951	2157.12
467.171	2181.12
467.391	2041.12
467.61	1999.12
467.829	2045.12
468.049	2227.12
468.268	2467.12
468.488	2313.12
468.707	2199.12
468.927	2124.12
469.146	2084.12
469.365	2037.12
469.585	2067.12
469.804	2057.12
470.023	2066.12
470.243	2082.12
470.462	2043.12
470.681	2004.12
470.901	2095.12
471.12	2097.12
471.339	2076.12
471.558	2008.12
471.777	2000.12
471.997	2035.12
472.216	2067.12
472.435	2000.12
472.654	2017.12
472.873	2097.12
473.092	2266.12
473.311	2126.12
473.53	1973.12
473.749	1965.12
473.968	2095.12
474.187	2101.12
474.406	2253.12
474.625	2175.12
474.844	2106.12
475.063	2073.12
475.282	2187.12
475.501	2111.12
475.72	2115.12
475.939	2299.12
476.158	2180.12
476.377	2149.12
476.596	2119.12
476.814	2183.12
477.033	2199.12
477.252	2300.12
477.471	2317.12
477.69	2232.12
477.908	2207.12
478.127	2325.12
478.346	2485.12
478.564	2511.12
478.783	2460.12
479.002	2574.12
479.22	2482.12
479.439	2576.12
479.658	2933.12
479.876	2962.12
480.095	2523.12
480.313	2472.12
480.532	2335.12
480.751	2333.12
480.969	2399.12
481.188	2352.12
481.406	2391.12
481.624	2274.12
481.843	2333.12
482.061	2378.12
482.28	2405.12
482.498	2434.12
482.717	2404.12
482.935	2285.12
483.153	2319.12
483.372	2340.12
483.59	2314.12
483.808	2320.12
484.027	2359.12
484.245	2516.12
484.463	2833.12
484.681	3369.12
484.9	2541.12
485.118	2409.12
485.336	2365.12
485.554	2459.12
485.772	2588.12
485.99	2546.12
486.209	2575.12
486.427	2537.12
486.645	2507.12
486.863	2498.12
487.081	2510.12
487.299	2599.12
487.517	2556.12
487.735	2404.12
487.953	2375.12
488.171	2404.12
488.389	2424.12
488.607	2441.12
488.825	2663.12
489.043	2712.12
489.261	2418.12
489.479	2552.12
489.696	2631.12
489.914	2593.12
490.132	2489.12
490.35	2449.12
490.568	2603.12
490.786	2407.12
491.003	2375.12
491.221	2389.12
491.439	2493.12
491.657	2508.12
491.874	2491.12
492.092	2523.12
492.31	2548.12
492.527	2479.12
492.745	2393.12
492.963	2439.12
493.18	2608.12
493.398	2729.12
493.615	2830.12
493.833	2584.12
494.05	2536.12
494.268	2540.12
494.485	2597.12
494.703	2561.12
494.92	2486.12
495.138	2498.12
495.355	2521.12
495.573	2639.12
495.79	2789.12
496.008	2866.12
496.225	2647.12
496.442	2633.12
496.66	2705.12
496.877	2659.12
497.094	2751.12
497.312	2798.12
497.529	2689.12
497.746	2837.12
497.963	3281.12
498.181	3756.12
498.398	3423.12
498.615	3385.12
498.832	3263.12
499.049	3292.12
499.267	3190.12
499.484	3418.12
499.701	3703.12
499.918	3763.12
500.135	4017.12
500.352	4316.12
500.569	4219.12
500.786	4489.12
501.003	4277.12
501.22	3835.12
501.437	3752.12
501.654	3735.12
501.871	3667.12
502.088	3249.12
502.305	3251.12
502.522	3092.12
502.739	2857.12
502.956	2801.12
503.172	2804.12
503.389	2740.12
503.606	2698.12
503.823	2697.12
504.04	2692.12
504.256	2715.12
504.473	2707.12
504.69	2836.12
504.907	2649.12
505.123	2501.12
505.34	2599.12
505.557	3356.12
505.773	2857.12
505.99	2464.12
506.207	2307.12
506.423	2283.12
506.64	2293.12
506.856	2335.12
507.073	2585.12
507.289	2808.12
507.506	2642.12
507.722	2361.12
507.939	2212.12
508.155	2188.12
508.372	2226.12
508.588	2153.12
508.805	2119.12
509.021	2104.12
509.238	2092.12
509.454	2015.12
509.67	2088.12
509.887	2056.12
510.103	2057.12
510.319	2118.12
510.536	2175.12
510.752	2242.12
510.968	2232.12
511.184	2391.12
511.401	2369.12
511.617	2080.12
511.833	1976.12
512.049	2009.12
512.265	2026.12
512.481	2004.12
512.698	2087.12
512.914	2200.12
513.13	2146.12
513.346	2037.12
513.562	1979.12
513.778	2010.12
513.994	2129.12
514.21	2221.12
514.426	2227.12
514.642	2457.12
514.858	2359.12
515.074	2135.12
515.29	2042.12
515.506	2134.12
515.721	2154.12
515.937	2183.12
516.153	2481.12
516.369	2376.12
516.585	2176.12
516.801	2090.12
517.016	2150.12
517.232	2167.12
517.448	2246.12
517.664	2231.12
517.879	2262.12
518.095	2375.12
518.311	2281.12
518.527	2126.12
518.742	2080.12
518.958	2019.12
519.173	2031.12
519.389	2050.12
519.605	2112.12
519.82	2082.12
520.036	2120.12
520.251	2051.12
520.467	2057.12
520.682	2220.12
520.898	2355.12
521.113	2041.12
521.329	2038.12
521.544	2217.12
521.76	2074.12
521.975	1988.12
522.19	1933.12
522.406	1938.12
522.621	2336.12
522.836	2343.12
523.052	1940.12
523.267	1923.12
523.482	1992.12
523.698	1836.12
523.913	1828.12
524.128	1872.12
524.343	1958.12
524.559	2007.12
524.774	1887.12
524.989	1867.12
525.204	1855.12
525.419	1830.12
525.634	1797.12
525.849	1884.12
526.064	1851.12
526.28	1896.12
526.495	1799.12
526.71	1794.12
526.925	1759.12
527.14	1788.12
527.355	1769.12
527.57	1749.12
527.785	1800.12
527.999	1734.12
528.214	1714.12
528.429	1711.12
528.644	1711.12
528.859	1759.12
529.074	1746.12
529.289	1796.12
529.503	1823.12
529.718	1807.12
529.933	1742.12
530.148	1704.12
530.363	1731.12
530.577	1777.12
530.792	1851.12
531.007	1808.12
531.221	1749.12
531.436	1802.12
531.651	1825.12
531.865	1896.12
532.08	1825.12
532.295	1733.12
532.509	1670.12
532.724	1674.12
532.938	1813.12
533.153	1875.12
533.367	1784.12
533.582	1763.12
533.796	1724.12
534.011	1739.12
534.225	1760.12
534.44	1690.12
534.654	1705.12
534.868	1707.12
535.083	1789.12
535.297	1762.12
535.511	1717.12
535.726	1721.12
535.94	1720.12
536.154	1700.12
536.369	1695.12
536.583	1661.12
536.797	1659.12
537.011	1774.12
537.225	1678.12
537.44	1609.12
537.654	1708.12
537.868	1677.12
538.082	1588.12
538.296	1567.12
538.51	1616.12
538.724	1563.12
538.938	1594.12
539.153	1637.12
539.367	1640.12
539.581	1619.12
539.795	1765.12
540.009	1661.12
540.222	1684.12
540.436	1697.12
540.65	1825.12
540.864	1833.12
541.078	1750.12
541.292	1597.12
541.506	1601.12
541.72	1650.12
541.934	1647.12
542.147	1689.12
542.361	1649.12
542.575	1616.12
542.789	1575.12
543.002	1570.12
543.216	1569.12
543.43	1660.12
543.644	1716.12
543.857	1773.12
544.071	1694.12
544.285	1641.12
544.498	1625.12
544.712	1616.12
544.925	1665.12
545.139	1693.12
545.352	1617.12
545.566	1536.12
545.779	1554.12
545.993	1574.12
546.206	1596.12
546.42	1565.12
546.633	1516.12
546.847	1533.12
547.06	1526.12
547.274	1568.12
547.487	1514.12
547.7	1536.12
547.914	1563.12
548.127	1564.12
548.34	1605.12
548.554	1552.12
548.767	1571.12
548.98	1504.12
549.193	1542.12
549.407	1589.12
549.62	1633.12
549.833	1557.12
550.046	1538.12
550.259	1511.12
550.473	1553.12
550.686	1564.12
550.899	1501.12
551.112	1480.12
551.325	1435.12
551.538	1580.12
551.751	1835.12
551.964	1493.12
552.177	1457.12
552.39	1483.12
552.603	1496.12
552.816	1547.12
553.029	1611.12
553.242	1619.12
553.455	1557.12
553.667	1528.12
553.88	1536.12
554.093	1513.12
554.306	1444.12
554.519	1421.12
554.732	1410.12
554.944	1456.12
555.157	1472.12
555.37	1465.12
555.583	1437.12
555.795	1413.12
556.008	1355.12
556.221	1322.12
556.433	1332.12
556.646	1329.12
556.859	1328.12
557.071	1311.12
557.284	1313.12
557.496	1312.12
557.709	1291.12
557.921	1264.12
558.134	1271.12
558.346	1287.12
558.559	1305.12
558.771	1265.12
558.984	1227.12
559.196	1233.12
559.409	1248.12
559.621	1240.12
559.833	1261.12
560.046	1299.12
560.258	1308.12
560.47	1291.12
560.683	1227.12
560.895	1264.12
561.107	1260.12
561.32	1278.12
561.532	1279.12
561.744	1223.12
561.956	1237.12
562.168	1237.12
562.381	1201.12
562.593	1213.12
562.805	1233.12
563.017	1218.12
563.229	1237.12
563.441	1257.12
563.653	1226.12
563.865	1266.12
564.077	1235.12
564.289	1222.12
564.501	1247.12
564.713	1247.12
564.925	1300.12
565.137	1399.12
565.349	1349.12
565.561	1320.12
565.773	1266.12
565.985	1305.12
566.197	1385.12
566.408	1483.12
566.62	1512.12
566.832	1466.12
567.044	1514.12
567.255	1453.12
567.467	1489.12
567.679	1565.12
567.891	1599.12
568.102	1555.12
568.314	1482.12
568.526	1439.12
568.737	1403.12
568.949	1304.12
569.161	1252.12
569.372	1188.12
569.584	1190.12
569.795	1215.12
570.007	1191.12
570.218	1158.12
570.43	1121.12
570.641	1124.12
570.853	1124.12
571.064	1136.12
571.276	1113.12
571.487	1037.12
571.698	1057.12
571.91	1052.12
572.121	1033.12
572.333	1039.12
572.544	1017.12
572.755	973.12
572.966	993.12
573.178	1002.12
573.389	1026.12
573.6	1027.12
573.811	1113.12
574.023	1019.12
574.234	993.12
574.445	973.12
574.656	943.12
574.867	917.12
575.078	957.12
575.289	969.12
575.501	933.12
575.712	927.12
575.923	926.12
576.134	937.12
576.345	927.12
576.556	891.12
576.767	928.12
576.978	904.12
577.188	879.12
577.399	871.12
577.61	894.12
577.821	878.12
578.032	860.12
578.243	840.12
578.454	854.12
578.665	869.12
578.875	848.12
579.086	856.12
579.297	836.12
579.508	915.12
579.718	854.12
579.929	866.12
580.14	805.12
580.35	812.12
580.561	853.12
580.772	923.12
580.982	859.12
581.193	825.12
581.403	779.12
581.614	806.12
581.825	782.12
582.035	817.12
582.246	809.12
582.456	840.12
582.667	827.12
582.877	801.12
583.087	787.12
583.298	793.12
583.508	824.12
583.719	812.12
583.929	786.12
584.139	811.12
584.35	754.12
584.56	771.12
584.77	754.12
584.981	800.12
585.191	812.12
585.401	809.12
585.611	791.12
585.821	789.12
586.032	769.12
586.242	767.12
586.452	745.12
586.662	762.12
586.872	746.12
587.082	754.12
587.292	781.12
587.502	800.12
587.713	776.12
587.923	749.12
588.133	731.12
588.343	773.12
588.553	758.12
588.762	771.12
588.972	737.12
589.182	767.12
589.392	769.12
589.602	775.12
589.812	764.12
590.022	716.12
590.232	727.12
590.441	762.12
590.651	737.12
590.861	739.12
591.071	742.12
591.281	736.12
591.49	723.12
591.7	742.12
591.91	739.12
592.119	753.12
592.329	760.12
592.539	754.12
592.748	785.12
592.958	745.12
593.167	753.12
593.377	780.12
593.587	795.12
593.796	806.12
594.006	805.12
594.215	813.12
594.424	776.12
594.634	782.12
594.843	768.12
595.053	795.12
595.262	761.12
595.472	727.12
595.681	739.12
595.89	718.12
596.1	715.12
596.309	740.12
596.518	695.12
596.727	707.12
596.937	691.12
597.146	667.12
597.355	666.12
597.564	680.12
597.774	652.12
597.983	645.12
598.192	642.12
598.401	635.12
598.61	624.12
598.819	647.12
599.028	645.12
599.237	654.12
599.446	636.12
599.655	606.12
599.864	591.12
600.073	596.12
600.282	611.12
600.491	625.12
600.7	606.12
600.909	603.12
601.118	621.12
601.327	631.12
601.536	644.12
601.745	624.12
601.953	590.12
602.162	593.12
602.371	610.12
602.58	615.12
602.789	578.12
602.997	593.12
603.206	577.12
603.415	562.12
603.623	590.12
603.832	599.12
604.041	560.12
604.249	567.12
604.458	580.12
604.666	592.12
604.875	570.12
605.084	591.12
605.292	608.12
605.501	560.12
605.709	575.12
605.918	566.12
606.126	573.12
606.334	573.12
606.543	551.12
606.751	563.12
606.96	583.12
607.168	567.12
607.376	560.12
607.585	543.12
607.793	556.12
608.001	535.12
608.21	545.12
608.418	547.12
608.626	570.12
608.834	551.12
609.043	551.12
609.251	577.12
609.459	545.12
609.667	540.12
609.875	542.12
610.083	551.12
610.291	570.12
610.499	550.12
610.707	567.12
610.916	523.12
611.124	547.12
611.332	540.12
611.54	543.12
611.748	519.12
611.955	517.12
612.163	533.12
612.371	553.12
612.579	538.12
612.787	523.12
612.995	553.12
613.203	543.12
613.411	524.12
613.618	508.12
613.826	525.12
614.034	554.12
614.242	516.12
614.449	503.12
614.657	538.12
614.865	529.12
615.072	523.12
615.28	512.12
615.488	538.12
615.695	567.12
615.903	544.12
616.111	518.12
616.318	533.12
616.526	517.12
616.733	515.12
616.941	524.12
617.148	523.12
617.356	534.12
617.563	508.12
617.771	517.12
617.978	504.12
618.185	514.12
618.393	517.12
618.6	526.12
618.807	509.12
619.015	508.12
619.222	480.12
619.429	461.12
619.637	490.12
619.844	481.12
620.051	489.12
620.258	480.12
620.466	480.12
620.673	489.12
620.88	465.12
621.087	471.12
621.294	469.12
621.501	460.12
621.708	467.12
621.915	465.12
622.122	485.12
622.329	482.12
622.536	471.12
622.743	460.12
622.95	458.12
623.157	458.12
623.364	449.12
623.571	462.12
623.778	450.12
623.985	461.12
624.192	450.12
624.399	452.12
624.606	425.12
624.812	434.12
625.019	432.12
625.226	428.12
625.433	439.12
625.639	437.12
625.846	443.12
626.053	415.12
626.259	412.12
626.466	417.12
626.673	413.12
626.879	428.12
627.086	416.12
627.293	407.12
627.499	427.12
627.706	414.12
627.912	425.12
628.119	416.12
628.325	412.12
628.532	400.12
628.738	407.12
628.945	415.12
629.151	393.12
629.357	394.12
629.564	431.12
629.77	383.12
629.976	393.12
630.183	408.12
630.389	407.12
630.595	391.12
630.802	394.12
631.008	383.12
631.214	396.12
631.42	381.12
631.627	369.12
631.833	392.12
632.039	384.12
632.245	400.12
632.451	374.12
632.657	381.12
632.863	374.12
633.069	380.12
633.275	371.12
633.481	372.12
633.688	369.12
633.893	364.12
634.099	371.12
634.305	373.12
634.511	353.12
634.717	347.12
634.923	354.12
635.129	369.12
635.335	348.12
635.541	355.12
635.747	353.12
635.952	348.12
636.158	352.12
636.364	348.12
636.57	343.12
636.775	347.12
636.981	361.12
637.187	362.12
637.392	351.12
637.598	355.12
637.804	366.12
638.009	341.12
638.215	353.12
638.421	342.12
638.626	362.12
638.832	363.12
639.037	343.12
639.243	340.12
639.448	332.12
639.654	347.12
639.859	341.12
640.065	347.12
640.27	356.12
640.475	333.12
640.681	338.12
640.886	340.12
641.091	324.12
641.297	330.12
641.502	339.12
641.707	319.12
641.913	330.12
642.118	325.12
642.323	343.12
642.528	332.12
642.733	336.12
642.939	313.12
643.144	326.12
643.349	345.12
643.554	328.12
643.759	308.12
643.964	316.12
644.169	334.12
644.374	318.12
644.579	329.12
644.784	332.12
644.989	309.12
645.194	314.12
645.399	325.12
645.604	314.12
645.809	316.12
646.014	327.12
646.219	341.12
646.423	326.12
646.628	309.12
646.833	318.12
647.038	301.12
647.243	296.12
647.447	295.12
647.652	323.12
647.857	320.12
648.062	320.12
648.266	317.12
648.471	312.12
648.676	318.12
648.88	343.12
649.085	312.12
649.289	296.12
649.494	313.12
649.698	316.12
649.903	305.12
650.107	304.12
650.312	306.12
650.516	304.12
650.721	284.12
650.925	274.12
651.13	284.12
651.334	282.12
651.539	276.12
651.743	273.12
651.947	273.12
652.152	277.12
652.356	258.12
652.56	275.12
652.764	264.12
652.969	265.12
653.173	248.12
653.377	240.12
653.581	257.12
653.785	245.12
653.99	248.12
654.194	258.12
654.398	246.12
654.602	242.12
654.806	224.12
655.01	234.12
655.214	250.12
655.418	235.12
655.622	242.12
655.826	255.12
656.03	247.12
656.234	272.12
656.438	269.12
656.642	268.12
656.846	253.12
657.049	262.12
657.253	230.12
657.457	202.12
657.661	212.12
657.865	181.12
658.068	194.12
658.272	160.12
658.476	157.12
658.68	157.12
658.883	145.12
659.087	161.12
659.291	139.12
659.494	135.12
659.698	145.12
659.901	128.12
660.105	131.12
660.309	116.12
660.512	122.12
660.716	115.12
660.919	106.12
661.123	113.12
661.326	111.12
661.53	103.12
661.733	108.12
661.936	100.12
662.14	91.12
662.343	106.12
662.546	103.12
662.75	103.12
662.953	104.12
663.156	99.12
663.36	88.12
663.563	87.12
663.766	86.12
663.969	82.12
664.173	100.12
664.376	95.12
664.579	93.12
664.782	84.12
664.985	76.12
665.188	83.12
665.391	89.12
665.594	76.12
665.797	73.12
666	93.12
666.203	81.12
666.406	85.12
666.609	72.12
666.812	83.12
667.015	96.12
667.218	84.12
667.421	93.12
667.624	78.12
667.827	89.12
668.03	90.12
668.232	90.12
668.435	69.12
668.638	79.12
668.841	79.12
669.043	77.12
669.246	93.12
669.449	84.12
669.651	91.12
669.854	88.12
670.057	73.12
670.259	82.12
670.462	97.12
670.665	84.12
670.867	69.12
671.07	76.12
671.272	81.12
671.475	85.12
671.677	89.12
671.88	85.12
672.082	83.12
672.284	84.12
672.487	92.12
672.689	93.12
672.892	85.12
