Data from WStandard_LampEnergy8_LIBS07252019.E.O._I.C._HRD10591_16-00-21-929.txt Node
Date: Thu Jul 25 16:00:21 EDT 2019
User: cochatt
Spectrometer: HR+D1059
Trigger mode: 1
Integration Time (sec): 1.000000E-1
Scans to average: 1
Electric dark correction enabled: true
Nonlinearity correction enabled: false
Boxcar width: 0
XAxis mode: Wavelengths
Number of Pixels in Spectrum: 2048
>>>>>Begin Spectral Data<<<<<
223.165	-16.38
223.4	-16.38
223.635	-16.38
223.869	-6.38
224.104	-21.38
224.338	-16.38
224.573	-15.38
224.808	-12.38
225.042	9.62
225.277	0.62
225.511	2.62
225.746	-4.38
225.98	-11.38
226.215	-11.38
226.449	16.62
226.683	28.62
226.918	25.62
227.152	31.62
227.387	32.62
227.621	37.62
227.856	44.62
228.09	48.62
228.324	49.62
228.559	56.62
228.793	79.62
229.027	206.62
229.262	204.62
229.496	220.62
229.73	219.62
229.964	238.62
230.199	238.62
230.433	269.62
230.667	268.62
230.901	290.62
231.136	259.62
231.37	255.62
231.604	256.62
231.838	258.62
232.072	262.62
232.306	242.62
232.541	264.62
232.775	286.62
233.009	312.62
233.243	306.62
233.477	291.62
233.711	299.62
233.945	287.62
234.179	313.62
234.413	313.62
234.647	318.62
234.881	299.62
235.115	280.62
235.349	300.62
235.583	283.62
235.817	277.62
236.051	276.62
236.285	289.62
236.519	315.62
236.753	335.62
236.987	358.62
237.221	340.62
237.455	382.62
237.689	366.62
237.922	341.62
238.156	341.62
238.39	334.62
238.624	347.62
238.858	368.62
239.091	397.62
239.325	417.62
239.559	468.62
239.793	482.62
240.027	473.62
240.26	478.62
240.494	382.62
240.728	370.62
240.961	353.62
241.195	386.62
241.429	406.62
241.662	404.62
241.896	393.62
242.13	384.62
242.363	427.62
242.597	441.62
242.83	451.62
243.064	436.62
243.298	474.62
243.531	458.62
243.765	446.62
243.998	453.62
244.232	379.62
244.465	399.62
244.699	412.62
244.932	454.62
245.166	494.62
245.399	467.62
245.633	458.62
245.866	439.62
246.099	442.62
246.333	462.62
246.566	511.62
246.8	517.62
247.033	562.62
247.266	521.62
247.5	518.62
247.733	510.62
247.966	566.62
248.2	591.62
248.433	588.62
248.666	597.62
248.899	644.62
249.133	723.62
249.366	789.62
249.599	656.62
249.832	575.62
250.066	589.62
250.299	619.62
250.532	569.62
250.765	524.62
250.998	567.62
251.231	561.62
251.465	592.62
251.698	567.62
251.931	542.62
252.164	578.62
252.397	592.62
252.63	602.62
252.863	531.62
253.096	533.62
253.329	559.62
253.562	556.62
253.795	603.62
254.028	599.62
254.261	561.62
254.494	554.62
254.727	530.62
254.96	547.62
255.193	647.62
255.426	675.62
255.659	765.62
255.892	769.62
256.124	657.62
256.357	639.62
256.59	665.62
256.823	672.62
257.056	697.62
257.289	821.62
257.521	883.62
257.754	759.62
257.987	756.62
258.22	792.62
258.452	787.62
258.685	667.62
258.918	645.62
259.151	662.62
259.383	629.62
259.616	570.62
259.849	592.62
260.081	646.62
260.314	720.62
260.547	794.62
260.779	795.62
261.012	728.62
261.244	692.62
261.477	631.62
261.71	672.62
261.942	676.62
262.175	643.62
262.407	683.62
262.64	655.62
262.872	628.62
263.105	602.62
263.337	601.62
263.57	627.62
263.802	604.62
264.035	580.62
264.267	548.62
264.499	556.62
264.732	585.62
264.964	610.62
265.197	643.62
265.429	696.62
265.661	727.62
265.894	811.62
266.126	822.62
266.358	760.62
266.591	790.62
266.823	832.62
267.055	757.62
267.287	747.62
267.52	735.62
267.752	727.62
267.984	742.62
268.216	786.62
268.448	786.62
268.681	756.62
268.913	699.62
269.145	690.62
269.377	691.62
269.609	733.62
269.841	845.62
270.073	978.62
270.306	1034.62
270.538	1059.62
270.77	937.62
271.002	807.62
271.234	766.62
271.466	809.62
271.698	875.62
271.93	1007.62
272.162	996.62
272.394	915.62
272.626	854.62
272.858	780.62
273.09	670.62
273.322	708.62
273.553	642.62
273.785	672.62
274.017	724.62
274.249	759.62
274.481	756.62
274.713	697.62
274.945	666.62
275.176	682.62
275.408	678.62
275.64	648.62
275.872	671.62
276.104	728.62
276.335	805.62
276.567	879.62
276.799	868.62
277.031	809.62
277.262	759.62
277.494	826.62
277.726	888.62
277.957	861.62
278.189	785.62
278.421	728.62
278.652	733.62
278.884	715.62
279.115	745.62
279.347	735.62
279.579	709.62
279.81	726.62
280.042	794.62
280.273	843.62
280.505	837.62
280.736	838.62
280.968	803.62
281.199	735.62
281.431	706.62
281.662	690.62
281.894	702.62
282.125	712.62
282.356	732.62
282.588	744.62
282.819	765.62
283.051	812.62
283.282	865.62
283.513	829.62
283.745	750.62
283.976	702.62
284.207	720.62
284.439	723.62
284.67	716.62
284.901	761.62
285.132	781.62
285.364	751.62
285.595	748.62
285.826	741.62
286.057	743.62
286.288	768.62
286.52	784.62
286.751	828.62
286.982	814.62
287.213	774.62
287.444	713.62
287.675	734.62
287.906	758.62
288.138	790.62
288.369	775.62
288.6	740.62
288.831	717.62
289.062	748.62
289.293	719.62
289.524	732.62
289.755	777.62
289.986	768.62
290.217	716.62
290.448	736.62
290.679	762.62
290.91	770.62
291.141	766.62
291.371	799.62
291.602	797.62
291.833	803.62
292.064	826.62
292.295	784.62
292.526	799.62
292.757	834.62
292.987	788.62
293.218	788.62
293.449	823.62
293.68	939.62
293.91	1000.62
294.141	922.62
294.372	879.62
294.603	900.62
294.833	932.62
295.064	894.62
295.295	812.62
295.525	788.62
295.756	733.62
295.987	714.62
296.217	737.62
296.448	757.62
296.679	787.62
296.909	763.62
297.14	740.62
297.37	785.62
297.601	827.62
297.831	856.62
298.062	842.62
298.292	779.62
298.523	770.62
298.753	757.62
298.984	791.62
299.214	832.62
299.445	807.62
299.675	831.62
299.905	823.62
300.136	779.62
300.366	758.62
300.597	751.62
300.827	745.62
301.057	811.62
301.288	826.62
301.518	830.62
301.748	865.62
301.979	876.62
302.209	916.62
302.439	976.62
302.669	967.62
302.9	904.62
303.13	838.62
303.36	837.62
303.59	856.62
303.82	850.62
304.051	818.62
304.281	839.62
304.511	871.62
304.741	916.62
304.971	994.62
305.201	1015.62
305.431	948.62
305.661	786.62
305.891	746.62
306.121	727.62
306.352	781.62
306.582	818.62
306.812	851.62
307.042	916.62
307.272	911.62
307.502	964.62
307.731	1037.62
307.961	1066.62
308.191	945.62
308.421	845.62
308.651	801.62
308.881	800.62
309.111	794.62
309.341	796.62
309.571	817.62
309.8	835.62
310.03	806.62
310.26	824.62
310.49	801.62
310.72	833.62
310.949	847.62
311.179	856.62
311.409	850.62
311.639	820.62
311.868	818.62
312.098	824.62
312.328	826.62
312.557	789.62
312.787	855.62
313.017	869.62
313.246	854.62
313.476	859.62
313.706	864.62
313.935	858.62
314.165	887.62
314.394	924.62
314.624	936.62
314.853	1012.62
315.083	1014.62
315.312	1045.62
315.542	950.62
315.771	894.62
316.001	877.62
316.23	940.62
316.46	903.62
316.689	905.62
316.919	867.62
317.148	843.62
317.377	871.62
317.607	943.62
317.836	1006.62
318.065	1029.62
318.295	1016.62
318.524	959.62
318.753	923.62
318.983	923.62
319.212	901.62
319.441	896.62
319.67	878.62
319.9	889.62
320.129	959.62
320.358	980.62
320.587	997.62
320.816	1008.62
321.046	978.62
321.275	939.62
321.504	952.62
321.733	1029.62
321.962	981.62
322.191	911.62
322.42	934.62
322.649	922.62
322.878	892.62
323.108	902.62
323.337	954.62
323.566	933.62
323.795	910.62
324.024	926.62
324.253	907.62
324.482	918.62
324.71	882.62
324.939	875.62
325.168	869.62
325.397	919.62
325.626	933.62
325.855	943.62
326.084	892.62
326.313	922.62
326.542	922.62
326.77	949.62
326.999	944.62
327.228	896.62
327.457	855.62
327.686	878.62
327.914	894.62
328.143	885.62
328.372	910.62
328.6	908.62
328.829	905.62
329.058	888.62
329.287	904.62
329.515	942.62
329.744	942.62
329.972	993.62
330.201	1011.62
330.43	974.62
330.658	963.62
330.887	962.62
331.115	966.62
331.344	946.62
331.572	946.62
331.801	946.62
332.03	952.62
332.258	971.62
332.486	970.62
332.715	969.62
332.943	986.62
333.172	998.62
333.4	947.62
333.629	1008.62
333.857	1078.62
334.085	1189.62
334.314	1356.62
334.542	1382.62
334.771	1246.62
334.999	1121.62
335.227	1072.62
335.455	1027.62
335.684	1058.62
335.912	1063.62
336.14	1055.62
336.369	1048.62
336.597	1008.62
336.825	981.62
337.053	1030.62
337.281	1102.62
337.51	1145.62
337.738	1132.62
337.966	1060.62
338.194	969.62
338.422	942.62
338.65	973.62
338.878	967.62
339.106	937.62
339.334	930.62
339.562	895.62
339.79	943.62
340.018	1024.62
340.246	1022.62
340.474	1006.62
340.702	996.62
340.93	980.62
341.158	971.62
341.386	978.62
341.614	972.62
341.842	971.62
342.07	976.62
342.298	975.62
342.526	980.62
342.754	979.62
342.981	952.62
343.209	948.62
343.437	959.62
343.665	983.62
343.893	977.62
344.12	1046.62
344.348	1013.62
344.576	984.62
344.804	969.62
345.031	970.62
345.259	951.62
345.487	940.62
345.714	908.62
345.942	887.62
346.17	923.62
346.397	921.62
346.625	931.62
346.853	892.62
347.08	867.62
347.308	887.62
347.535	873.62
347.763	944.62
347.99	912.62
348.218	874.62
348.445	886.62
348.673	921.62
348.9	952.62
349.128	986.62
349.355	986.62
349.583	960.62
349.81	926.62
350.037	847.62
350.265	841.62
350.492	851.62
350.72	891.62
350.947	921.62
351.174	929.62
351.402	898.62
351.629	878.62
351.856	848.62
352.083	832.62
352.311	843.62
352.538	866.62
352.765	931.62
352.992	904.62
353.22	870.62
353.447	844.62
353.674	889.62
353.901	905.62
354.128	889.62
354.355	908.62
354.583	916.62
354.81	933.62
355.037	952.62
355.264	936.62
355.491	896.62
355.718	893.62
355.945	891.62
356.172	886.62
356.399	874.62
356.626	879.62
356.853	915.62
357.08	1011.62
357.307	1040.62
357.534	1015.62
357.761	934.62
357.988	868.62
358.215	870.62
358.441	870.62
358.668	869.62
358.895	857.62
359.122	954.62
359.349	1017.62
359.576	987.62
359.802	930.62
360.029	854.62
360.256	864.62
360.483	889.62
360.709	922.62
360.936	960.62
361.163	1025.62
361.39	1089.62
361.616	1137.62
361.843	1106.62
362.07	1003.62
362.296	910.62
362.523	866.62
362.749	888.62
362.976	914.62
363.203	888.62
363.429	887.62
363.656	866.62
363.882	919.62
364.109	1010.62
364.335	1078.62
364.562	983.62
364.788	960.62
365.015	898.62
365.241	898.62
365.468	915.62
365.694	972.62
365.92	979.62
366.147	928.62
366.373	870.62
366.599	873.62
366.826	890.62
367.052	914.62
367.278	895.62
367.505	891.62
367.731	914.62
367.957	931.62
368.184	995.62
368.41	1054.62
368.636	1029.62
368.862	1044.62
369.089	1048.62
369.315	1003.62
369.541	952.62
369.767	917.62
369.993	887.62
370.219	898.62
370.445	920.62
370.672	994.62
370.898	1035.62
371.124	1007.62
371.35	950.62
371.576	972.62
371.802	1023.62
372.028	971.62
372.254	937.62
372.48	937.62
372.706	913.62
372.932	940.62
373.158	952.62
373.384	949.62
373.61	987.62
373.835	1015.62
374.061	998.62
374.287	968.62
374.513	951.62
374.739	947.62
374.965	974.62
375.191	1003.62
375.416	1026.62
375.642	1035.62
375.868	1071.62
376.094	1066.62
376.319	1024.62
376.545	987.62
376.771	1010.62
376.997	1042.62
377.222	1018.62
377.448	1002.62
377.674	1008.62
377.899	1024.62
378.125	1050.62
378.35	1074.62
378.576	967.62
378.802	895.62
379.027	962.62
379.253	978.62
379.478	978.62
379.704	968.62
379.929	958.62
380.155	987.62
380.38	986.62
380.606	1010.62
380.831	1029.62
381.057	1066.62
381.282	1042.62
381.507	1035.62
381.733	1081.62
381.958	1128.62
382.184	1029.62
382.409	1012.62
382.634	1024.62
382.86	1012.62
383.085	1029.62
383.31	1055.62
383.535	1153.62
383.761	1202.62
383.986	1132.62
384.211	1091.62
384.436	1088.62
384.662	1121.62
384.887	1149.62
385.112	1088.62
385.337	1093.62
385.562	1110.62
385.787	1081.62
386.013	1138.62
386.238	1116.62
386.463	1158.62
386.688	1230.62
386.913	1301.62
387.138	1214.62
387.363	1125.62
387.588	1144.62
387.813	1146.62
388.038	1172.62
388.263	1208.62
388.488	1140.62
388.713	1035.62
388.938	1072.62
389.163	1049.62
389.387	1090.62
389.612	1094.62
389.837	1126.62
390.062	1125.62
390.287	1141.62
390.512	1103.62
390.736	1113.62
390.961	1080.62
391.186	1073.62
391.411	1081.62
391.636	1097.62
391.86	1114.62
392.085	1107.62
392.31	1080.62
392.534	1100.62
392.759	1119.62
392.984	1124.62
393.208	1174.62
393.433	1160.62
393.658	1159.62
393.882	1184.62
394.107	1169.62
394.331	1132.62
394.556	1093.62
394.78	1146.62
395.005	1175.62
395.229	1207.62
395.454	1302.62
395.678	1275.62
395.903	1227.62
396.127	1181.62
396.352	1186.62
396.576	1218.62
396.801	1216.62
397.025	1165.62
397.249	1193.62
397.474	1222.62
397.698	1214.62
397.922	1249.62
398.147	1292.62
398.371	1337.62
398.595	1333.62
398.82	1242.62
399.044	1310.62
399.268	1346.62
399.492	1448.62
399.717	1458.62
399.941	1443.62
400.165	1444.62
400.389	1413.62
400.613	1450.62
400.837	1642.62
401.062	1756.62
401.286	1501.62
401.51	1407.62
401.734	1439.62
401.958	1363.62
402.182	1309.62
402.406	1242.62
402.63	1239.62
402.854	1270.62
403.078	1279.62
403.302	1279.62
403.526	1311.62
403.75	1338.62
403.974	1376.62
404.198	1334.62
404.422	1426.62
404.645	1430.62
404.869	1400.62
405.093	1310.62
405.317	1259.62
405.541	1293.62
405.765	1316.62
405.988	1335.62
406.212	1347.62
406.436	1368.62
406.66	1413.62
406.883	1456.62
407.107	1626.62
407.331	1756.62
407.555	1838.62
407.778	1674.62
408.002	1425.62
408.226	1432.62
408.449	1361.62
408.673	1351.62
408.896	1340.62
409.12	1393.62
409.344	1338.62
409.567	1302.62
409.791	1347.62
410.014	1379.62
410.238	1439.62
410.461	1510.62
410.685	1381.62
410.908	1328.62
411.132	1352.62
411.355	1341.62
411.578	1342.62
411.802	1352.62
412.025	1328.62
412.249	1307.62
412.472	1262.62
412.695	1286.62
412.919	1229.62
413.142	1286.62
413.365	1296.62
413.589	1321.62
413.812	1406.62
414.035	1416.62
414.258	1295.62
414.482	1278.62
414.705	1275.62
414.928	1267.62
415.151	1275.62
415.374	1298.62
415.597	1300.62
415.821	1285.62
416.044	1347.62
416.267	1333.62
416.49	1234.62
416.713	1279.62
416.936	1303.62
417.159	1329.62
417.382	1328.62
417.605	1249.62
417.828	1306.62
418.051	1306.62
418.274	1267.62
418.497	1247.62
418.72	1207.62
418.943	1274.62
419.166	1319.62
419.389	1320.62
419.611	1293.62
419.834	1255.62
420.057	1316.62
420.28	1280.62
420.503	1287.62
420.726	1305.62
420.948	1316.62
421.171	1237.62
421.394	1274.62
421.617	1296.62
421.839	1313.62
422.062	1262.62
422.285	1229.62
422.507	1247.62
422.73	1242.62
422.953	1182.62
423.175	1207.62
423.398	1223.62
423.621	1237.62
423.843	1245.62
424.066	1257.62
424.288	1341.62
424.511	1348.62
424.733	1291.62
424.956	1219.62
425.178	1223.62
425.401	1216.62
425.623	1228.62
425.846	1258.62
426.068	1321.62
426.291	1292.62
426.513	1293.62
426.735	1291.62
426.958	1409.62
427.18	1424.62
427.402	1316.62
427.625	1401.62
427.847	1385.62
428.069	1264.62
428.292	1234.62
428.514	1209.62
428.736	1193.62
428.958	1207.62
429.181	1238.62
429.403	1448.62
429.625	1723.62
429.847	1431.62
430.069	1273.62
430.292	1406.62
430.514	1425.62
430.736	1297.62
430.958	1300.62
431.18	1274.62
431.402	1185.62
431.624	1180.62
431.846	1164.62
432.068	1106.62
432.29	1112.62
432.512	1171.62
432.734	1210.62
432.956	1248.62
433.178	1338.62
433.4	1296.62
433.622	1281.62
433.844	1252.62
434.066	1182.62
434.287	1143.62
434.509	1163.62
434.731	1224.62
434.953	1355.62
435.175	1313.62
435.397	1271.62
435.618	1245.62
435.84	1220.62
436.062	1170.62
436.284	1220.62
436.505	1280.62
436.727	1331.62
436.949	1219.62
437.17	1219.62
437.392	1227.62
437.614	1185.62
437.835	1145.62
438.057	1218.62
438.278	1216.62
438.5	1179.62
438.721	1190.62
438.943	1196.62
439.165	1214.62
439.386	1206.62
439.608	1239.62
439.829	1196.62
440.05	1238.62
440.272	1239.62
440.493	1234.62
440.715	1246.62
440.936	1312.62
441.158	1433.62
441.379	1376.62
441.6	1353.62
441.822	1319.62
442.043	1327.62
442.264	1296.62
442.486	1248.62
442.707	1235.62
442.928	1243.62
443.149	1305.62
443.371	1326.62
443.592	1381.62
443.813	1336.62
444.034	1328.62
444.255	1314.62
444.476	1340.62
444.698	1369.62
444.919	1358.62
445.14	1442.62
445.361	1424.62
445.582	1411.62
445.803	1384.62
446.024	1337.62
446.245	1375.62
446.466	1332.62
446.687	1295.62
446.908	1298.62
447.129	1300.62
447.35	1264.62
447.571	1298.62
447.792	1221.62
448.013	1185.62
448.234	1274.62
448.455	1275.62
448.675	1273.62
448.896	1211.62
449.117	1177.62
449.338	1194.62
449.559	1268.62
449.779	1300.62
450	1409.62
450.221	1410.62
450.442	1350.62
450.662	1257.62
450.883	1146.62
451.104	1134.62
451.324	1157.62
451.545	1167.62
451.766	1160.62
451.986	1115.62
452.207	1127.62
452.428	1047.62
452.648	1078.62
452.869	1110.62
453.089	1097.62
453.31	1114.62
453.53	1112.62
453.751	1095.62
453.971	1059.62
454.192	1072.62
454.412	1134.62
454.633	1097.62
454.853	1074.62
455.073	1053.62
455.294	1033.62
455.514	1039.62
455.734	1037.62
455.955	1063.62
456.175	1077.62
456.395	1055.62
456.616	1097.62
456.836	1084.62
457.056	1057.62
457.276	1040.62
457.497	1052.62
457.717	990.62
457.937	1024.62
458.157	1016.62
458.377	1025.62
458.598	1016.62
458.818	1032.62
459.038	1061.62
459.258	1108.62
459.478	1119.62
459.698	1114.62
459.918	1148.62
460.138	1198.62
460.358	1206.62
460.578	1207.62
460.798	1276.62
461.018	1342.62
461.238	1267.62
461.458	1250.62
461.678	1262.62
461.898	1206.62
462.118	1191.62
462.338	1221.62
462.558	1219.62
462.777	1236.62
462.997	1304.62
463.217	1346.62
463.437	1304.62
463.657	1249.62
463.876	1229.62
464.096	1244.62
464.316	1240.62
464.536	1271.62
464.755	1297.62
464.975	1258.62
465.195	1276.62
465.414	1297.62
465.634	1277.62
465.854	1256.62
466.073	1354.62
466.293	1308.62
466.512	1186.62
466.732	1192.62
466.951	1231.62
467.171	1189.62
467.391	1159.62
467.61	1147.62
467.829	1192.62
468.049	1314.62
468.268	1415.62
468.488	1288.62
468.707	1225.62
468.927	1195.62
469.146	1204.62
469.365	1202.62
469.585	1190.62
469.804	1186.62
470.023	1212.62
470.243	1225.62
470.462	1211.62
470.681	1178.62
470.901	1207.62
471.12	1191.62
471.339	1199.62
471.558	1184.62
471.777	1155.62
471.997	1197.62
472.216	1139.62
472.435	1091.62
472.654	1118.62
472.873	1142.62
473.092	1181.62
473.311	1170.62
473.53	1130.62
473.749	1114.62
473.968	1147.62
474.187	1195.62
474.406	1213.62
474.625	1186.62
474.844	1201.62
475.063	1183.62
475.282	1195.62
475.501	1182.62
475.72	1174.62
475.939	1268.62
476.158	1211.62
476.377	1233.62
476.596	1185.62
476.814	1219.62
477.033	1187.62
477.252	1236.62
477.471	1238.62
477.69	1255.62
477.908	1246.62
478.127	1351.62
478.346	1387.62
478.564	1374.62
478.783	1368.62
479.002	1384.62
479.22	1388.62
479.439	1442.62
479.658	1513.62
479.876	1499.62
480.095	1359.62
480.313	1301.62
480.532	1280.62
480.751	1282.62
480.969	1307.62
481.188	1241.62
481.406	1240.62
481.624	1217.62
481.843	1233.62
482.061	1252.62
482.28	1318.62
482.498	1344.62
482.717	1298.62
482.935	1262.62
483.153	1335.62
483.372	1370.62
483.59	1329.62
483.808	1318.62
484.027	1348.62
484.245	1462.62
484.463	1710.62
484.681	1810.62
484.9	1447.62
485.118	1370.62
485.336	1320.62
485.554	1326.62
485.772	1368.62
485.99	1309.62
486.209	1366.62
486.427	1357.62
486.645	1358.62
486.863	1411.62
487.081	1448.62
487.299	1436.62
487.517	1402.62
487.735	1437.62
487.953	1435.62
488.171	1450.62
488.389	1432.62
488.607	1438.62
488.825	1570.62
489.043	1503.62
489.261	1353.62
489.479	1442.62
489.696	1458.62
489.914	1426.62
490.132	1407.62
490.35	1426.62
490.568	1527.62
490.786	1494.62
491.003	1433.62
491.221	1529.62
491.439	1525.62
491.657	1577.62
491.874	1598.62
492.092	1632.62
492.31	1673.62
492.527	1630.62
492.745	1548.62
492.963	1546.62
493.18	1572.62
493.398	1698.62
493.615	1654.62
493.833	1584.62
494.05	1517.62
494.268	1510.62
494.485	1534.62
494.703	1566.62
494.92	1490.62
495.138	1506.62
495.355	1536.62
495.573	1560.62
495.79	1640.62
496.008	1659.62
496.225	1548.62
496.442	1575.62
496.66	1562.62
496.877	1522.62
497.094	1634.62
497.312	1593.62
497.529	1565.62
497.746	1615.62
497.963	1843.62
498.181	1953.62
498.398	1881.62
498.615	1800.62
498.832	1736.62
499.049	1714.62
499.267	1793.62
499.484	1854.62
499.701	1950.62
499.918	2019.62
500.135	2168.62
500.352	2303.62
500.569	2282.62
500.786	2462.62
501.003	2264.62
501.22	2094.62
501.437	2006.62
501.654	2067.62
501.871	1978.62
502.088	1723.62
502.305	1739.62
502.522	1668.62
502.739	1552.62
502.956	1509.62
503.172	1528.62
503.389	1502.62
503.606	1470.62
503.823	1459.62
504.04	1451.62
504.256	1457.62
504.473	1449.62
504.69	1516.62
504.907	1451.62
505.123	1422.62
505.34	1515.62
505.557	1907.62
505.773	1601.62
505.99	1363.62
506.207	1304.62
506.423	1295.62
506.64	1244.62
506.856	1268.62
507.073	1484.62
507.289	1548.62
507.506	1476.62
507.722	1233.62
507.939	1226.62
508.155	1235.62
508.372	1215.62
508.588	1159.62
508.805	1155.62
509.021	1176.62
509.238	1132.62
509.454	1156.62
509.67	1144.62
509.887	1117.62
510.103	1094.62
510.319	1117.62
510.536	1169.62
510.752	1211.62
510.968	1191.62
511.184	1235.62
511.401	1189.62
511.617	1102.62
511.833	1101.62
512.049	1057.62
512.265	1101.62
512.481	1099.62
512.698	1107.62
512.914	1204.62
513.13	1158.62
513.346	1112.62
513.562	1112.62
513.778	1084.62
513.994	1148.62
514.21	1161.62
514.426	1201.62
514.642	1250.62
514.858	1208.62
515.074	1094.62
515.29	1074.62
515.506	1139.62
515.721	1153.62
515.937	1191.62
516.153	1234.62
516.369	1251.62
516.585	1178.62
516.801	1140.62
517.016	1137.62
517.232	1157.62
517.448	1179.62
517.664	1198.62
517.879	1195.62
518.095	1259.62
518.311	1190.62
518.527	1110.62
518.742	1154.62
518.958	1123.62
519.173	1140.62
519.389	1148.62
519.605	1186.62
519.82	1131.62
520.036	1163.62
520.251	1146.62
520.467	1143.62
520.682	1221.62
520.898	1193.62
521.113	1075.62
521.329	1075.62
521.544	1145.62
521.76	1099.62
521.975	1061.62
522.19	1058.62
522.406	1089.62
522.621	1370.62
522.836	1278.62
523.052	1059.62
523.267	1098.62
523.482	1095.62
523.698	1076.62
523.913	1052.62
524.128	1081.62
524.343	1124.62
524.559	1122.62
524.774	1062.62
524.989	1060.62
525.204	1033.62
525.419	1017.62
525.634	1052.62
525.849	1061.62
526.064	1040.62
526.28	1031.62
526.495	981.62
526.71	997.62
526.925	971.62
527.14	960.62
527.355	962.62
527.57	944.62
527.785	990.62
527.999	986.62
528.214	976.62
528.429	969.62
528.644	1014.62
528.859	1038.62
529.074	1029.62
529.289	1093.62
529.503	1110.62
529.718	1074.62
529.933	1045.62
530.148	953.62
530.363	963.62
530.577	970.62
530.792	954.62
531.007	963.62
531.221	975.62
531.436	987.62
531.651	985.62
531.865	1048.62
532.08	991.62
532.295	962.62
532.509	925.62
532.724	955.62
532.938	962.62
533.153	1042.62
533.367	1007.62
533.582	1026.62
533.796	967.62
534.011	1018.62
534.225	976.62
534.44	948.62
534.654	945.62
534.868	934.62
535.083	999.62
535.297	995.62
535.511	976.62
535.726	1004.62
535.94	965.62
536.154	954.62
536.369	937.62
536.583	910.62
536.797	912.62
537.011	925.62
537.225	919.62
537.44	888.62
537.654	924.62
537.868	901.62
538.082	878.62
538.296	875.62
538.51	898.62
538.724	933.62
538.938	932.62
539.153	991.62
539.367	976.62
539.581	960.62
539.795	964.62
540.009	925.62
540.222	904.62
540.436	962.62
540.65	1045.62
540.864	1070.62
541.078	1034.62
541.292	1020.62
541.506	1043.62
541.72	1094.62
541.934	1094.62
542.147	1161.62
542.361	1106.62
542.575	1054.62
542.789	1005.62
543.002	965.62
543.216	967.62
543.43	978.62
543.644	1027.62
543.857	1066.62
544.071	1086.62
544.285	1074.62
544.498	1058.62
544.712	1062.62
544.925	1110.62
545.139	1091.62
545.352	1059.62
545.566	1003.62
545.779	1035.62
545.993	1060.62
546.206	1083.62
546.42	1076.62
546.633	1012.62
546.847	1023.62
547.06	1006.62
547.274	1088.62
547.487	1050.62
547.7	1068.62
547.914	1065.62
548.127	1075.62
548.34	1083.62
548.554	1077.62
548.767	1035.62
548.98	1046.62
549.193	1049.62
549.407	1064.62
549.62	1067.62
549.833	1053.62
550.046	1041.62
550.259	1026.62
550.473	1014.62
550.686	1029.62
550.899	979.62
551.112	969.62
551.325	936.62
551.538	1013.62
551.751	1117.62
551.964	922.62
552.177	903.62
552.39	948.62
552.603	996.62
552.816	990.62
553.029	1036.62
553.242	1066.62
553.455	1030.62
553.667	1043.62
553.88	1008.62
554.093	1000.62
554.306	970.62
554.519	943.62
554.732	938.62
554.944	959.62
555.157	953.62
555.37	936.62
555.583	917.62
555.795	912.62
556.008	887.62
556.221	865.62
556.433	842.62
556.646	858.62
556.859	864.62
557.071	842.62
557.284	866.62
557.496	833.62
557.709	849.62
557.921	843.62
558.134	840.62
558.346	867.62
558.559	838.62
558.771	872.62
558.984	799.62
559.196	823.62
559.409	807.62
559.621	831.62
559.833	797.62
560.046	808.62
560.258	798.62
560.47	792.62
560.683	796.62
560.895	794.62
561.107	836.62
561.32	795.62
561.532	829.62
561.744	803.62
561.956	830.62
562.168	788.62
562.381	768.62
562.593	775.62
562.805	768.62
563.017	771.62
563.229	789.62
563.441	805.62
563.653	784.62
563.865	792.62
564.077	768.62
564.289	783.62
564.501	784.62
564.713	781.62
564.925	809.62
565.137	882.62
565.349	818.62
565.561	813.62
565.773	798.62
565.985	816.62
566.197	850.62
566.408	881.62
566.62	867.62
566.832	883.62
567.044	872.62
567.255	874.62
567.467	858.62
567.679	916.62
567.891	916.62
568.102	863.62
568.314	841.62
568.526	786.62
568.737	753.62
568.949	734.62
569.161	713.62
569.372	689.62
569.584	665.62
569.795	671.62
570.007	678.62
570.218	639.62
570.43	637.62
570.641	656.62
570.853	638.62
571.064	659.62
571.276	668.62
571.487	651.62
571.698	624.62
571.91	631.62
572.121	605.62
572.333	603.62
572.544	601.62
572.755	552.62
572.966	537.62
573.178	584.62
573.389	587.62
573.6	581.62
573.811	644.62
574.023	590.62
574.234	565.62
574.445	552.62
574.656	535.62
574.867	536.62
575.078	565.62
575.289	576.62
575.501	550.62
575.712	530.62
575.923	561.62
576.134	539.62
576.345	563.62
576.556	563.62
576.767	560.62
576.978	518.62
577.188	537.62
577.399	528.62
577.61	533.62
577.821	515.62
578.032	507.62
578.243	524.62
578.454	522.62
578.665	496.62
578.875	487.62
579.086	481.62
579.297	488.62
579.508	495.62
579.718	522.62
579.929	487.62
580.14	487.62
580.35	479.62
580.561	508.62
580.772	552.62
580.982	490.62
581.193	470.62
581.403	460.62
581.614	491.62
581.825	464.62
582.035	474.62
582.246	479.62
582.456	497.62
582.667	481.62
582.877	473.62
583.087	476.62
583.298	463.62
583.508	490.62
583.719	451.62
583.929	468.62
584.139	455.62
584.35	443.62
584.56	427.62
584.77	455.62
584.981	445.62
585.191	454.62
585.401	465.62
585.611	467.62
585.821	461.62
586.032	438.62
586.242	434.62
586.452	464.62
586.662	442.62
586.872	456.62
587.082	438.62
587.292	442.62
587.502	448.62
587.713	465.62
587.923	436.62
588.133	454.62
588.343	455.62
588.553	424.62
588.762	420.62
588.972	434.62
589.182	452.62
589.392	441.62
589.602	449.62
589.812	438.62
590.022	422.62
590.232	428.62
590.441	446.62
590.651	432.62
590.861	449.62
591.071	432.62
591.281	428.62
591.49	448.62
591.7	433.62
591.91	416.62
592.119	439.62
592.329	443.62
592.539	471.62
592.748	475.62
592.958	445.62
593.167	440.62
593.377	463.62
593.587	476.62
593.796	460.62
594.006	443.62
594.215	470.62
594.424	466.62
594.634	467.62
594.843	448.62
595.053	451.62
595.262	437.62
595.472	458.62
595.681	449.62
595.89	414.62
596.1	406.62
596.309	435.62
596.518	414.62
596.727	434.62
596.937	432.62
597.146	420.62
597.355	383.62
597.564	395.62
597.774	395.62
597.983	383.62
598.192	392.62
598.401	387.62
598.61	402.62
598.819	375.62
599.028	402.62
599.237	418.62
599.446	374.62
599.655	379.62
599.864	374.62
600.073	373.62
600.282	376.62
600.491	377.62
600.7	397.62
600.909	386.62
601.118	376.62
601.327	397.62
601.536	409.62
601.745	410.62
601.953	404.62
602.162	420.62
602.371	403.62
602.58	390.62
602.789	386.62
602.997	383.62
603.206	414.62
603.415	400.62
603.623	417.62
603.832	406.62
604.041	373.62
604.249	370.62
604.458	373.62
604.666	373.62
604.875	382.62
605.084	376.62
605.292	381.62
605.501	420.62
605.709	400.62
605.918	392.62
606.126	414.62
606.334	395.62
606.543	394.62
606.751	417.62
606.96	387.62
607.168	372.62
607.376	383.62
607.585	392.62
607.793	376.62
608.001	404.62
608.21	386.62
608.418	398.62
608.626	395.62
608.834	393.62
609.043	407.62
609.251	396.62
609.459	394.62
609.667	397.62
609.875	402.62
610.083	408.62
610.291	402.62
610.499	435.62
610.707	401.62
610.916	395.62
611.124	391.62
611.332	400.62
611.54	393.62
611.748	395.62
611.955	398.62
612.163	373.62
612.371	379.62
612.579	378.62
612.787	378.62
612.995	377.62
613.203	393.62
613.411	385.62
613.618	395.62
613.826	392.62
614.034	370.62
614.242	377.62
614.449	395.62
614.657	388.62
614.865	388.62
615.072	374.62
615.28	395.62
615.488	390.62
615.695	398.62
615.903	390.62
616.111	376.62
616.318	397.62
616.526	389.62
616.733	401.62
616.941	382.62
617.148	366.62
617.356	375.62
617.563	371.62
617.771	386.62
617.978	360.62
618.185	354.62
618.393	366.62
618.6	385.62
618.807	368.62
619.015	373.62
619.222	371.62
619.429	367.62
619.637	355.62
619.844	337.62
620.051	356.62
620.258	361.62
620.466	340.62
620.673	343.62
620.88	345.62
621.087	345.62
621.294	345.62
621.501	318.62
621.708	350.62
621.915	335.62
622.122	359.62
622.329	352.62
622.536	372.62
622.743	333.62
622.95	340.62
623.157	337.62
623.364	335.62
623.571	352.62
623.778	342.62
623.985	339.62
624.192	357.62
624.399	335.62
624.606	322.62
624.812	332.62
625.019	330.62
625.226	323.62
625.433	326.62
625.639	323.62
625.846	332.62
626.053	290.62
626.259	292.62
626.466	290.62
626.673	286.62
626.879	281.62
627.086	292.62
627.293	290.62
627.499	312.62
627.706	307.62
627.912	312.62
628.119	317.62
628.325	311.62
628.532	330.62
628.738	307.62
628.945	320.62
629.151	307.62
629.357	307.62
629.564	313.62
629.77	276.62
629.976	277.62
630.183	291.62
630.389	286.62
630.595	317.62
630.802	304.62
631.008	293.62
631.214	300.62
631.42	277.62
631.627	288.62
631.833	275.62
632.039	286.62
632.245	274.62
632.451	288.62
632.657	297.62
632.863	284.62
633.069	283.62
633.275	280.62
633.481	262.62
633.688	272.62
633.893	274.62
634.099	287.62
634.305	278.62
634.511	281.62
634.717	267.62
634.923	266.62
635.129	260.62
635.335	265.62
635.541	275.62
635.747	248.62
635.952	269.62
636.158	283.62
636.364	281.62
636.57	304.62
636.775	272.62
636.981	288.62
637.187	278.62
637.392	264.62
637.598	270.62
637.804	279.62
638.009	282.62
638.215	287.62
638.421	283.62
638.626	275.62
638.832	260.62
639.037	267.62
639.243	241.62
639.448	260.62
639.654	256.62
639.859	256.62
640.065	257.62
640.27	261.62
640.475	257.62
640.681	258.62
640.886	251.62
641.091	265.62
641.297	267.62
641.502	266.62
641.707	267.62
641.913	275.62
642.118	262.62
642.323	264.62
642.528	262.62
642.733	269.62
642.939	267.62
643.144	262.62
643.349	255.62
643.554	250.62
643.759	257.62
643.964	243.62
644.169	247.62
644.374	237.62
644.579	260.62
644.784	258.62
644.989	236.62
645.194	240.62
645.399	262.62
645.604	266.62
645.809	266.62
646.014	249.62
646.219	247.62
646.423	267.62
646.628	251.62
646.833	257.62
647.038	250.62
647.243	249.62
647.447	245.62
647.652	244.62
647.857	249.62
648.062	258.62
648.266	246.62
648.471	256.62
648.676	266.62
648.88	236.62
649.085	241.62
649.289	273.62
649.494	250.62
649.698	242.62
649.903	251.62
650.107	231.62
650.312	229.62
650.516	243.62
650.721	229.62
650.925	252.62
651.13	231.62
651.334	210.62
651.539	221.62
651.743	235.62
651.947	241.62
652.152	228.62
652.356	240.62
652.56	238.62
652.764	233.62
652.969	243.62
653.173	239.62
653.377	227.62
653.581	222.62
653.785	234.62
653.99	199.62
654.194	224.62
654.398	210.62
654.602	225.62
654.806	211.62
655.01	230.62
655.214	216.62
655.418	205.62
655.622	222.62
655.826	232.62
656.03	229.62
656.234	241.62
656.438	265.62
656.642	254.62
656.846	264.62
657.049	237.62
657.253	227.62
657.457	202.62
657.661	187.62
657.865	192.62
658.068	163.62
658.272	164.62
658.476	185.62
658.68	157.62
658.883	152.62
659.087	146.62
659.291	120.62
659.494	144.62
659.698	138.62
659.901	136.62
660.105	134.62
660.309	132.62
660.512	131.62
660.716	123.62
660.919	100.62
661.123	130.62
661.326	107.62
661.53	112.62
661.733	94.62
661.936	91.62
662.14	94.62
662.343	92.62
662.546	89.62
662.75	104.62
662.953	87.62
663.156	87.62
663.36	93.62
663.563	97.62
663.766	89.62
663.969	90.62
664.173	76.62
664.376	86.62
664.579	75.62
664.782	83.62
664.985	85.62
665.188	88.62
665.391	86.62
665.594	86.62
665.797	73.62
666	83.62
666.203	72.62
666.406	82.62
666.609	80.62
666.812	76.62
667.015	88.62
667.218	84.62
667.421	77.62
667.624	72.62
667.827	75.62
668.03	68.62
668.232	92.62
668.435	85.62
668.638	90.62
668.841	81.62
669.043	80.62
669.246	90.62
669.449	89.62
669.651	93.62
669.854	83.62
670.057	89.62
670.259	76.62
670.462	89.62
670.665	87.62
670.867	85.62
671.07	77.62
671.272	80.62
671.475	82.62
671.677	81.62
671.88	86.62
672.082	89.62
672.284	74.62
672.487	78.62
672.689	75.62
672.892	88.62
