Data from WStandard_LampEnergy10_LIBS07252019.E.O._I.C._HRD10591_15-54-37-928.txt Node
Date: Thu Jul 25 15:54:37 EDT 2019
User: cochatt
Spectrometer: HR+D1059
Trigger mode: 1
Integration Time (sec): 1.000000E-1
Scans to average: 1
Electric dark correction enabled: true
Nonlinearity correction enabled: false
Boxcar width: 0
XAxis mode: Wavelengths
Number of Pixels in Spectrum: 2048
>>>>>Begin Spectral Data<<<<<
223.165	-12.44
223.4	-12.44
223.635	-12.44
223.869	-25.44
224.104	-11.44
224.338	-16.44
224.573	-14.44
224.808	-15.44
225.042	1.56
225.277	-16.44
225.511	-7.44
225.746	-6.44
225.98	6.56
226.215	13.56
226.449	26.56
226.683	19.56
226.918	25.56
227.152	32.56
227.387	33.56
227.621	31.56
227.856	48.56
228.09	34.56
228.324	44.56
228.559	48.56
228.793	78.56
229.027	133.56
229.262	134.56
229.496	140.56
229.73	148.56
229.964	153.56
230.199	152.56
230.433	179.56
230.667	196.56
230.901	193.56
231.136	170.56
231.37	173.56
231.604	158.56
231.838	169.56
232.072	168.56
232.306	166.56
232.541	176.56
232.775	186.56
233.009	216.56
233.243	205.56
233.477	200.56
233.711	210.56
233.945	200.56
234.179	205.56
234.413	206.56
234.647	205.56
234.881	197.56
235.115	186.56
235.349	177.56
235.583	191.56
235.817	186.56
236.051	191.56
236.285	212.56
236.519	216.56
236.753	214.56
236.987	204.56
237.221	208.56
237.455	233.56
237.689	222.56
237.922	222.56
238.156	198.56
238.39	212.56
238.624	236.56
238.858	241.56
239.091	250.56
239.325	245.56
239.559	271.56
239.793	268.56
240.027	318.56
240.26	286.56
240.494	240.56
240.728	232.56
240.961	238.56
241.195	238.56
241.429	272.56
241.662	244.56
241.896	246.56
242.13	230.56
242.363	265.56
242.597	274.56
242.83	272.56
243.064	296.56
243.298	272.56
243.531	277.56
243.765	260.56
243.998	294.56
244.232	254.56
244.465	242.56
244.699	253.56
244.932	287.56
245.166	309.56
245.399	289.56
245.633	281.56
245.866	270.56
246.099	269.56
246.333	292.56
246.566	288.56
246.8	316.56
247.033	354.56
247.266	318.56
247.5	305.56
247.733	316.56
247.966	318.56
248.2	361.56
248.433	356.56
248.666	370.56
248.899	386.56
249.133	452.56
249.366	464.56
249.599	359.56
249.832	370.56
250.066	351.56
250.299	364.56
250.532	349.56
250.765	316.56
250.998	337.56
251.231	347.56
251.465	338.56
251.698	344.56
251.931	327.56
252.164	344.56
252.397	360.56
252.63	354.56
252.863	320.56
253.096	318.56
253.329	326.56
253.562	343.56
253.795	364.56
254.028	347.56
254.261	335.56
254.494	301.56
254.727	327.56
254.96	335.56
255.193	370.56
255.426	390.56
255.659	428.56
255.892	418.56
256.124	398.56
256.357	380.56
256.59	396.56
256.823	402.56
257.056	414.56
257.289	455.56
257.521	505.56
257.754	481.56
257.987	440.56
258.22	473.56
258.452	449.56
258.685	406.56
258.918	390.56
259.151	407.56
259.383	369.56
259.616	349.56
259.849	378.56
260.081	392.56
260.314	436.56
260.547	438.56
260.779	465.56
261.012	429.56
261.244	409.56
261.477	396.56
261.71	385.56
261.942	385.56
262.175	376.56
262.407	386.56
262.64	373.56
262.872	354.56
263.105	345.56
263.337	357.56
263.57	360.56
263.802	364.56
264.035	359.56
264.267	328.56
264.499	331.56
264.732	353.56
264.964	374.56
265.197	392.56
265.429	427.56
265.661	461.56
265.894	468.56
266.126	471.56
266.358	456.56
266.591	478.56
266.823	486.56
267.055	452.56
267.287	440.56
267.52	425.56
267.752	435.56
267.984	451.56
268.216	456.56
268.448	481.56
268.681	443.56
268.913	412.56
269.145	411.56
269.377	412.56
269.609	423.56
269.841	519.56
270.073	570.56
270.306	616.56
270.538	606.56
270.77	544.56
271.002	497.56
271.234	458.56
271.466	461.56
271.698	536.56
271.93	605.56
272.162	599.56
272.394	545.56
272.626	502.56
272.858	451.56
273.09	403.56
273.322	407.56
273.553	396.56
273.785	386.56
274.017	419.56
274.249	412.56
274.481	420.56
274.713	400.56
274.945	404.56
275.176	429.56
275.408	385.56
275.64	394.56
275.872	400.56
276.104	443.56
276.335	477.56
276.567	523.56
276.799	515.56
277.031	481.56
277.262	462.56
277.494	500.56
277.726	529.56
277.957	518.56
278.189	460.56
278.421	439.56
278.652	419.56
278.884	439.56
279.115	427.56
279.347	415.56
279.579	410.56
279.81	438.56
280.042	461.56
280.273	518.56
280.505	501.56
280.736	496.56
280.968	459.56
281.199	435.56
281.431	407.56
281.662	422.56
281.894	405.56
282.125	440.56
282.356	451.56
282.588	447.56
282.819	438.56
283.051	494.56
283.282	512.56
283.513	514.56
283.745	446.56
283.976	409.56
284.207	419.56
284.439	425.56
284.67	443.56
284.901	468.56
285.132	462.56
285.364	458.56
285.595	452.56
285.826	450.56
286.057	459.56
286.288	441.56
286.52	464.56
286.751	493.56
286.982	500.56
287.213	454.56
287.444	440.56
287.675	431.56
287.906	456.56
288.138	475.56
288.369	482.56
288.6	440.56
288.831	439.56
289.062	453.56
289.293	458.56
289.524	451.56
289.755	470.56
289.986	454.56
290.217	455.56
290.448	454.56
290.679	445.56
290.91	477.56
291.141	482.56
291.371	488.56
291.602	487.56
291.833	462.56
292.064	502.56
292.295	506.56
292.526	505.56
292.757	515.56
292.987	486.56
293.218	484.56
293.449	512.56
293.68	565.56
293.91	572.56
294.141	547.56
294.372	545.56
294.603	564.56
294.833	554.56
295.064	518.56
295.295	486.56
295.525	476.56
295.756	460.56
295.987	431.56
296.217	453.56
296.448	444.56
296.679	458.56
296.909	469.56
297.14	440.56
297.37	468.56
297.601	487.56
297.831	520.56
298.062	519.56
298.292	466.56
298.523	474.56
298.753	449.56
298.984	462.56
299.214	486.56
299.445	480.56
299.675	518.56
299.905	516.56
300.136	462.56
300.366	462.56
300.597	463.56
300.827	472.56
301.057	492.56
301.288	512.56
301.518	528.56
301.748	547.56
301.979	556.56
302.209	576.56
302.439	604.56
302.669	577.56
302.9	561.56
303.13	506.56
303.36	508.56
303.59	516.56
303.82	515.56
304.051	511.56
304.281	530.56
304.511	530.56
304.741	566.56
304.971	608.56
305.201	601.56
305.431	558.56
305.661	487.56
305.891	473.56
306.121	437.56
306.352	465.56
306.582	516.56
306.812	538.56
307.042	584.56
307.272	575.56
307.502	605.56
307.731	638.56
307.961	648.56
308.191	605.56
308.421	533.56
308.651	510.56
308.881	512.56
309.111	512.56
309.341	513.56
309.571	492.56
309.8	494.56
310.03	485.56
310.26	487.56
310.49	481.56
310.72	524.56
310.949	533.56
311.179	507.56
311.409	516.56
311.639	508.56
311.868	481.56
312.098	514.56
312.328	504.56
312.557	498.56
312.787	517.56
313.017	527.56
313.246	512.56
313.476	528.56
313.706	517.56
313.935	506.56
314.165	532.56
314.394	554.56
314.624	596.56
314.853	614.56
315.083	624.56
315.312	620.56
315.542	573.56
315.771	536.56
316.001	542.56
316.23	588.56
316.46	577.56
316.689	560.56
316.919	522.56
317.148	546.56
317.377	538.56
317.607	591.56
317.836	644.56
318.065	620.56
318.295	598.56
318.524	576.56
318.753	556.56
318.983	576.56
319.212	563.56
319.441	557.56
319.67	562.56
319.9	579.56
320.129	602.56
320.358	617.56
320.587	620.56
320.816	601.56
321.046	596.56
321.275	606.56
321.504	585.56
321.733	626.56
321.962	590.56
322.191	553.56
322.42	542.56
322.649	549.56
322.878	536.56
323.108	575.56
323.337	583.56
323.566	579.56
323.795	565.56
324.024	574.56
324.253	570.56
324.482	551.56
324.71	523.56
324.939	518.56
325.168	558.56
325.397	558.56
325.626	604.56
325.855	563.56
326.084	550.56
326.313	574.56
326.542	597.56
326.77	600.56
326.999	563.56
327.228	557.56
327.457	532.56
327.686	540.56
327.914	530.56
328.143	561.56
328.372	551.56
328.6	554.56
328.829	566.56
329.058	545.56
329.287	554.56
329.515	572.56
329.744	576.56
329.972	600.56
330.201	617.56
330.43	614.56
330.658	578.56
330.887	599.56
331.115	595.56
331.344	607.56
331.572	596.56
331.801	570.56
332.03	594.56
332.258	600.56
332.486	592.56
332.715	616.56
332.943	593.56
333.172	589.56
333.4	610.56
333.629	613.56
333.857	644.56
334.085	748.56
334.314	817.56
334.542	841.56
334.771	735.56
334.999	700.56
335.227	656.56
335.455	626.56
335.684	630.56
335.912	670.56
336.14	650.56
336.369	634.56
336.597	605.56
336.825	589.56
337.053	640.56
337.281	660.56
337.51	725.56
337.738	685.56
337.966	651.56
338.194	613.56
338.422	616.56
338.65	604.56
338.878	588.56
339.106	580.56
339.334	568.56
339.562	593.56
339.79	573.56
340.018	646.56
340.246	635.56
340.474	629.56
340.702	622.56
340.93	633.56
341.158	607.56
341.386	582.56
341.614	608.56
341.842	608.56
342.07	621.56
342.298	609.56
342.526	584.56
342.754	576.56
342.981	597.56
343.209	568.56
343.437	578.56
343.665	597.56
343.893	624.56
344.12	628.56
344.348	642.56
344.576	593.56
344.804	622.56
345.031	603.56
345.259	597.56
345.487	589.56
345.714	556.56
345.942	561.56
346.17	578.56
346.397	590.56
346.625	594.56
346.853	524.56
347.08	530.56
347.308	553.56
347.535	567.56
347.763	589.56
347.99	568.56
348.218	584.56
348.445	556.56
348.673	601.56
348.9	586.56
349.128	607.56
349.355	610.56
349.583	570.56
349.81	541.56
350.037	541.56
350.265	543.56
350.492	533.56
350.72	578.56
350.947	592.56
351.174	574.56
351.402	552.56
351.629	536.56
351.856	531.56
352.083	518.56
352.311	534.56
352.538	534.56
352.765	576.56
352.992	568.56
353.22	537.56
353.447	541.56
353.674	573.56
353.901	549.56
354.128	546.56
354.355	566.56
354.583	581.56
354.81	598.56
355.037	585.56
355.264	576.56
355.491	585.56
355.718	549.56
355.945	576.56
356.172	538.56
356.399	535.56
356.626	528.56
356.853	600.56
357.08	634.56
357.307	693.56
357.534	663.56
357.761	572.56
357.988	549.56
358.215	545.56
358.441	556.56
358.668	516.56
358.895	564.56
359.122	627.56
359.349	634.56
359.576	624.56
359.802	568.56
360.029	560.56
360.256	543.56
360.483	564.56
360.709	598.56
360.936	629.56
361.163	608.56
361.39	672.56
361.616	707.56
361.843	704.56
362.07	653.56
362.296	577.56
362.523	564.56
362.749	592.56
362.976	576.56
363.203	569.56
363.429	570.56
363.656	560.56
363.882	600.56
364.109	647.56
364.335	677.56
364.562	596.56
364.788	604.56
365.015	578.56
365.241	542.56
365.468	568.56
365.694	611.56
365.92	626.56
366.147	596.56
366.373	554.56
366.599	573.56
366.826	564.56
367.052	548.56
367.278	572.56
367.505	598.56
367.731	597.56
367.957	593.56
368.184	633.56
368.41	686.56
368.636	654.56
368.862	677.56
369.089	673.56
369.315	633.56
369.541	614.56
369.767	584.56
369.993	576.56
370.219	583.56
370.445	617.56
370.672	645.56
370.898	674.56
371.124	649.56
371.35	626.56
371.576	669.56
371.802	678.56
372.028	653.56
372.254	623.56
372.48	616.56
372.706	634.56
372.932	599.56
373.158	590.56
373.384	622.56
373.61	656.56
373.835	669.56
374.061	613.56
374.287	635.56
374.513	638.56
374.739	634.56
374.965	655.56
375.191	650.56
375.416	664.56
375.642	682.56
375.868	710.56
376.094	701.56
376.319	639.56
376.545	638.56
376.771	654.56
376.997	692.56
377.222	679.56
377.448	652.56
377.674	652.56
377.899	695.56
378.125	735.56
378.35	695.56
378.576	647.56
378.802	623.56
379.027	634.56
379.253	637.56
379.478	647.56
379.704	651.56
379.929	644.56
380.155	654.56
380.38	638.56
380.606	672.56
380.831	676.56
381.057	686.56
381.282	692.56
381.507	712.56
381.733	720.56
381.958	744.56
382.184	721.56
382.409	691.56
382.634	692.56
382.86	672.56
383.085	680.56
383.31	741.56
383.535	768.56
383.761	800.56
383.986	750.56
384.211	757.56
384.436	749.56
384.662	760.56
384.887	762.56
385.112	717.56
385.337	710.56
385.562	749.56
385.787	756.56
386.013	754.56
386.238	758.56
386.463	753.56
386.688	841.56
386.913	870.56
387.138	804.56
387.363	784.56
387.588	773.56
387.813	784.56
388.038	773.56
388.263	796.56
388.488	780.56
388.713	727.56
388.938	711.56
389.163	728.56
389.387	754.56
389.612	757.56
389.837	724.56
390.062	766.56
390.287	758.56
390.512	732.56
390.736	740.56
390.961	734.56
391.186	709.56
391.411	749.56
391.636	749.56
391.86	764.56
392.085	770.56
392.31	758.56
392.534	744.56
392.759	778.56
392.984	768.56
393.208	780.56
393.433	790.56
393.658	838.56
393.882	815.56
394.107	757.56
394.331	764.56
394.556	752.56
394.78	790.56
395.005	805.56
395.229	825.56
395.454	876.56
395.678	877.56
395.903	817.56
396.127	787.56
396.352	824.56
396.576	863.56
396.801	854.56
397.025	863.56
397.249	857.56
397.474	845.56
397.698	829.56
397.922	865.56
398.147	906.56
398.371	922.56
398.595	897.56
398.82	882.56
399.044	892.56
399.268	938.56
399.492	963.56
399.717	995.56
399.941	989.56
400.165	981.56
400.389	954.56
400.613	1015.56
400.837	1143.56
401.062	1191.56
401.286	1026.56
401.51	976.56
401.734	997.56
401.958	937.56
402.182	895.56
402.406	887.56
402.63	859.56
402.854	886.56
403.078	889.56
403.302	912.56
403.526	914.56
403.75	924.56
403.974	919.56
404.198	924.56
404.422	981.56
404.645	1005.56
404.869	972.56
405.093	914.56
405.317	929.56
405.541	952.56
405.765	927.56
405.988	928.56
406.212	951.56
406.436	954.56
406.66	996.56
406.883	1032.56
407.107	1135.56
407.331	1201.56
407.555	1270.56
407.778	1159.56
408.002	993.56
408.226	965.56
408.449	977.56
408.673	961.56
408.896	957.56
409.12	968.56
409.344	948.56
409.567	926.56
409.791	969.56
410.014	981.56
410.238	1048.56
410.461	1052.56
410.685	950.56
410.908	935.56
411.132	953.56
411.355	949.56
411.578	892.56
411.802	949.56
412.025	928.56
412.249	940.56
412.472	905.56
412.695	924.56
412.919	911.56
413.142	920.56
413.365	924.56
413.589	961.56
413.812	987.56
414.035	1003.56
414.258	935.56
414.482	910.56
414.705	915.56
414.928	949.56
415.151	923.56
415.374	926.56
415.597	956.56
415.821	930.56
416.044	928.56
416.267	959.56
416.49	889.56
416.713	923.56
416.936	965.56
417.159	981.56
417.382	968.56
417.605	925.56
417.828	908.56
418.051	954.56
418.274	935.56
418.497	932.56
418.72	926.56
418.943	935.56
419.166	950.56
419.389	1017.56
419.611	952.56
419.834	969.56
420.057	940.56
420.28	916.56
420.503	943.56
420.726	967.56
420.948	974.56
421.171	928.56
421.394	944.56
421.617	1004.56
421.839	989.56
422.062	995.56
422.285	940.56
422.507	927.56
422.73	892.56
422.953	903.56
423.175	886.56
423.398	902.56
423.621	952.56
423.843	969.56
424.066	997.56
424.288	1019.56
424.511	1037.56
424.733	989.56
424.956	916.56
425.178	936.56
425.401	925.56
425.623	928.56
425.846	947.56
426.068	1004.56
426.291	975.56
426.513	951.56
426.735	956.56
426.958	1047.56
427.18	1071.56
427.402	992.56
427.625	1031.56
427.847	1000.56
428.069	940.56
428.292	916.56
428.514	892.56
428.736	912.56
428.958	914.56
429.181	964.56
429.403	1062.56
429.625	1214.56
429.847	1028.56
430.069	960.56
430.292	1034.56
430.514	1034.56
430.736	990.56
430.958	969.56
431.18	931.56
431.402	889.56
431.624	869.56
431.846	795.56
432.068	750.56
432.29	737.56
432.512	805.56
432.734	894.56
432.956	930.56
433.178	974.56
433.4	987.56
433.622	940.56
433.844	914.56
434.066	837.56
434.287	807.56
434.509	829.56
434.731	832.56
434.953	919.56
435.175	918.56
435.397	909.56
435.618	885.56
435.84	860.56
436.062	850.56
436.284	888.56
436.505	940.56
436.727	956.56
436.949	899.56
437.17	882.56
437.392	900.56
437.614	864.56
437.835	814.56
438.057	845.56
438.278	868.56
438.5	839.56
438.721	888.56
438.943	921.56
439.165	917.56
439.386	934.56
439.608	969.56
439.829	956.56
440.05	936.56
440.272	964.56
440.493	951.56
440.715	974.56
440.936	1032.56
441.158	1079.56
441.379	1053.56
441.6	1026.56
441.822	1018.56
442.043	1000.56
442.264	990.56
442.486	966.56
442.707	953.56
442.928	943.56
443.149	960.56
443.371	1013.56
443.592	1015.56
443.813	1015.56
444.034	1002.56
444.255	1008.56
444.476	1034.56
444.698	1033.56
444.919	1045.56
445.14	1139.56
445.361	1113.56
445.582	1058.56
445.803	1072.56
446.024	1037.56
446.245	1057.56
446.466	1030.56
446.687	1026.56
446.908	1050.56
447.129	1029.56
447.35	1010.56
447.571	1009.56
447.792	953.56
448.013	954.56
448.234	959.56
448.455	1002.56
448.675	991.56
448.896	946.56
449.117	906.56
449.338	909.56
449.559	948.56
449.779	948.56
450	1018.56
450.221	1041.56
450.442	1005.56
450.662	933.56
450.883	871.56
451.104	896.56
451.324	887.56
451.545	892.56
451.766	859.56
451.986	840.56
452.207	830.56
452.428	796.56
452.648	789.56
452.869	806.56
453.089	774.56
453.31	778.56
453.53	791.56
453.751	725.56
453.971	699.56
454.192	741.56
454.412	772.56
454.633	795.56
454.853	788.56
455.073	779.56
455.294	770.56
455.514	768.56
455.734	768.56
455.955	764.56
456.175	738.56
456.395	738.56
456.616	738.56
456.836	744.56
457.056	720.56
457.276	713.56
457.497	713.56
457.717	710.56
457.937	722.56
458.157	719.56
458.377	709.56
458.598	704.56
458.818	677.56
459.038	705.56
459.258	712.56
459.478	687.56
459.698	689.56
459.918	716.56
460.138	801.56
460.358	848.56
460.578	815.56
460.798	872.56
461.018	907.56
461.238	886.56
461.458	846.56
461.678	822.56
461.898	809.56
462.118	770.56
462.338	855.56
462.558	848.56
462.777	843.56
462.997	875.56
463.217	916.56
463.437	864.56
463.657	859.56
463.876	841.56
464.096	846.56
464.316	835.56
464.536	892.56
464.755	882.56
464.975	895.56
465.195	868.56
465.414	907.56
465.634	870.56
465.854	904.56
466.073	945.56
466.293	952.56
466.512	884.56
466.732	911.56
466.951	915.56
467.171	880.56
467.391	877.56
467.61	872.56
467.829	882.56
468.049	997.56
468.268	1072.56
468.488	984.56
468.707	926.56
468.927	897.56
469.146	877.56
469.365	926.56
469.585	944.56
469.804	947.56
470.023	959.56
470.243	964.56
470.462	906.56
470.681	927.56
470.901	905.56
471.12	904.56
471.339	938.56
471.558	909.56
471.777	894.56
471.997	902.56
472.216	869.56
472.435	768.56
472.654	746.56
472.873	772.56
473.092	828.56
473.311	839.56
473.53	823.56
473.749	844.56
473.968	848.56
474.187	829.56
474.406	877.56
474.625	860.56
474.844	884.56
475.063	865.56
475.282	860.56
475.501	828.56
475.72	830.56
475.939	897.56
476.158	871.56
476.377	860.56
476.596	854.56
476.814	837.56
477.033	827.56
477.252	831.56
477.471	915.56
477.69	914.56
477.908	950.56
478.127	981.56
478.346	1020.56
478.564	997.56
478.783	993.56
479.002	1022.56
479.22	1011.56
479.439	1027.56
479.658	1049.56
479.876	1000.56
480.095	924.56
480.313	900.56
480.532	896.56
480.751	871.56
480.969	819.56
481.188	781.56
481.406	784.56
481.624	777.56
481.843	800.56
482.061	821.56
482.28	876.56
482.498	904.56
482.717	861.56
482.935	896.56
483.153	984.56
483.372	1052.56
483.59	1022.56
483.808	969.56
484.027	970.56
484.245	1030.56
484.463	1249.56
484.681	1299.56
484.9	1052.56
485.118	959.56
485.336	958.56
485.554	926.56
485.772	917.56
485.99	906.56
486.209	936.56
486.427	926.56
486.645	947.56
486.863	1018.56
487.081	1040.56
487.299	1037.56
487.517	1034.56
487.735	1120.56
487.953	1209.56
488.171	1174.56
488.389	1132.56
488.607	1102.56
488.825	1148.56
489.043	1085.56
489.261	978.56
489.479	1015.56
489.696	1044.56
489.914	1040.56
490.132	1063.56
490.35	1068.56
490.568	1176.56
490.786	1200.56
491.003	1188.56
491.221	1265.56
491.439	1286.56
491.657	1330.56
491.874	1355.56
492.092	1433.56
492.31	1517.56
492.527	1466.56
492.745	1379.56
492.963	1343.56
493.18	1298.56
493.398	1369.56
493.615	1302.56
493.833	1286.56
494.05	1237.56
494.268	1216.56
494.485	1225.56
494.703	1225.56
494.92	1211.56
495.138	1228.56
495.355	1216.56
495.573	1274.56
495.79	1313.56
496.008	1282.56
496.225	1249.56
496.442	1206.56
496.66	1246.56
496.877	1206.56
497.094	1241.56
497.312	1226.56
497.529	1211.56
497.746	1187.56
497.963	1289.56
498.181	1336.56
498.398	1256.56
498.615	1204.56
498.832	1184.56
499.049	1164.56
499.267	1190.56
499.484	1278.56
499.701	1367.56
499.918	1384.56
500.135	1479.56
500.352	1573.56
500.569	1597.56
500.786	1721.56
501.003	1551.56
501.22	1447.56
501.437	1416.56
501.654	1418.56
501.871	1375.56
502.088	1204.56
502.305	1210.56
502.522	1154.56
502.739	1121.56
502.956	1077.56
503.172	1048.56
503.389	1013.56
503.606	1017.56
503.823	1000.56
504.04	1012.56
504.256	1012.56
504.473	998.56
504.69	1033.56
504.907	984.56
505.123	996.56
505.34	1065.56
505.557	1380.56
505.773	1128.56
505.99	943.56
506.207	927.56
506.423	890.56
506.64	896.56
506.856	925.56
507.073	1060.56
507.289	1090.56
507.506	1064.56
507.722	900.56
507.939	883.56
508.155	856.56
508.372	868.56
508.588	831.56
508.805	803.56
509.021	793.56
509.238	776.56
509.454	795.56
509.67	776.56
509.887	744.56
510.103	759.56
510.319	742.56
510.536	801.56
510.752	784.56
510.968	773.56
511.184	806.56
511.401	750.56
511.617	704.56
511.833	691.56
512.049	695.56
512.265	715.56
512.481	712.56
512.698	744.56
512.914	781.56
513.13	734.56
513.346	737.56
513.562	691.56
513.778	695.56
513.994	729.56
514.21	748.56
514.426	787.56
514.642	840.56
514.858	789.56
515.074	720.56
515.29	732.56
515.506	734.56
515.721	743.56
515.937	729.56
516.153	800.56
516.369	773.56
516.585	725.56
516.801	721.56
517.016	725.56
517.232	788.56
517.448	792.56
517.664	813.56
517.879	812.56
518.095	810.56
518.311	788.56
518.527	775.56
518.742	760.56
518.958	771.56
519.173	751.56
519.389	749.56
519.605	789.56
519.82	814.56
520.036	792.56
520.251	751.56
520.467	816.56
520.682	802.56
520.898	822.56
521.113	705.56
521.329	733.56
521.544	747.56
521.76	744.56
521.975	730.56
522.19	725.56
522.406	751.56
522.621	970.56
522.836	881.56
523.052	768.56
523.267	759.56
523.482	742.56
523.698	748.56
523.913	747.56
524.128	764.56
524.343	818.56
524.559	836.56
524.774	761.56
524.989	772.56
525.204	745.56
525.419	768.56
525.634	716.56
525.849	747.56
526.064	737.56
526.28	716.56
526.495	658.56
526.71	640.56
526.925	634.56
527.14	632.56
527.355	654.56
527.57	649.56
527.785	664.56
527.999	648.56
528.214	667.56
528.429	724.56
528.644	752.56
528.859	788.56
529.074	818.56
529.289	893.56
529.503	876.56
529.718	799.56
529.933	741.56
530.148	665.56
530.363	653.56
530.577	648.56
530.792	660.56
531.007	648.56
531.221	633.56
531.436	630.56
531.651	655.56
531.865	692.56
532.08	658.56
532.295	639.56
532.509	632.56
532.724	617.56
532.938	646.56
533.153	696.56
533.367	728.56
533.582	735.56
533.796	712.56
534.011	706.56
534.225	682.56
534.44	644.56
534.654	618.56
534.868	667.56
535.083	669.56
535.297	702.56
535.511	704.56
535.726	688.56
535.94	669.56
536.154	648.56
536.369	616.56
536.583	599.56
536.797	616.56
537.011	616.56
537.225	615.56
537.44	614.56
537.654	631.56
537.868	610.56
538.082	579.56
538.296	642.56
538.51	625.56
538.724	669.56
538.938	699.56
539.153	741.56
539.367	715.56
539.581	678.56
539.795	692.56
540.009	646.56
540.222	645.56
540.436	668.56
540.65	722.56
540.864	798.56
541.078	829.56
541.292	828.56
541.506	889.56
541.72	968.56
541.934	1038.56
542.147	1088.56
542.361	1008.56
542.575	938.56
542.789	821.56
543.002	779.56
543.216	758.56
543.43	756.56
543.644	820.56
543.857	885.56
544.071	914.56
544.285	909.56
544.498	905.56
544.712	939.56
544.925	949.56
545.139	977.56
545.352	960.56
545.566	906.56
545.779	953.56
545.993	946.56
546.206	941.56
546.42	952.56
546.633	942.56
546.847	937.56
547.06	937.56
547.274	969.56
547.487	994.56
547.7	1001.56
547.914	949.56
548.127	970.56
548.34	934.56
548.554	920.56
548.767	920.56
548.98	952.56
549.193	924.56
549.407	999.56
549.62	958.56
549.833	922.56
550.046	878.56
550.259	884.56
550.473	888.56
550.686	886.56
550.899	855.56
551.112	841.56
551.325	827.56
551.538	823.56
551.751	857.56
551.964	703.56
552.177	730.56
552.39	788.56
552.603	846.56
552.816	890.56
553.029	899.56
553.242	900.56
553.455	897.56
553.667	887.56
553.88	912.56
554.093	890.56
554.306	850.56
554.519	860.56
554.732	833.56
554.944	831.56
555.157	822.56
555.37	803.56
555.583	796.56
555.795	760.56
556.008	734.56
556.221	723.56
556.433	722.56
556.646	746.56
556.859	732.56
557.071	743.56
557.284	754.56
557.496	760.56
557.709	740.56
557.921	739.56
558.134	728.56
558.346	740.56
558.559	726.56
558.771	713.56
558.984	699.56
559.196	664.56
559.409	693.56
559.621	682.56
559.833	661.56
560.046	673.56
560.258	683.56
560.47	682.56
560.683	681.56
560.895	670.56
561.107	680.56
561.32	678.56
561.532	685.56
561.744	658.56
561.956	692.56
562.168	651.56
562.381	660.56
562.593	648.56
562.805	638.56
563.017	609.56
563.229	660.56
563.441	648.56
563.653	618.56
563.865	661.56
564.077	601.56
564.289	629.56
564.501	608.56
564.713	620.56
564.925	640.56
565.137	662.56
565.349	599.56
565.561	614.56
565.773	633.56
565.985	632.56
566.197	642.56
566.408	650.56
566.62	662.56
566.832	682.56
567.044	672.56
567.255	652.56
567.467	642.56
567.679	660.56
567.891	667.56
568.102	617.56
568.314	575.56
568.526	537.56
568.737	512.56
568.949	487.56
569.161	480.56
569.372	462.56
569.584	463.56
569.795	442.56
570.007	454.56
570.218	452.56
570.43	430.56
570.641	462.56
570.853	466.56
571.064	486.56
571.276	470.56
571.487	470.56
571.698	474.56
571.91	463.56
572.121	472.56
572.333	464.56
572.544	456.56
572.755	405.56
572.966	409.56
573.178	411.56
573.389	390.56
573.6	398.56
573.811	439.56
574.023	408.56
574.234	384.56
574.445	383.56
574.656	403.56
574.867	400.56
575.078	398.56
575.289	420.56
575.501	397.56
575.712	395.56
575.923	390.56
576.134	397.56
576.345	405.56
576.556	400.56
576.767	404.56
576.978	399.56
577.188	384.56
577.399	382.56
577.61	379.56
577.821	357.56
578.032	370.56
578.243	368.56
578.454	344.56
578.665	353.56
578.875	340.56
579.086	335.56
579.297	311.56
579.508	356.56
579.718	335.56
579.929	360.56
580.14	306.56
580.35	336.56
580.561	364.56
580.772	389.56
580.982	364.56
581.193	356.56
581.403	351.56
581.614	351.56
581.825	350.56
582.035	335.56
582.246	334.56
582.456	347.56
582.667	349.56
582.877	347.56
583.087	322.56
583.298	341.56
583.508	339.56
583.719	351.56
583.929	341.56
584.139	328.56
584.35	327.56
584.56	324.56
584.77	310.56
584.981	327.56
585.191	343.56
585.401	369.56
585.611	344.56
585.821	322.56
586.032	318.56
586.242	314.56
586.452	308.56
586.662	313.56
586.872	308.56
587.082	313.56
587.292	300.56
587.502	323.56
587.713	329.56
587.923	308.56
588.133	312.56
588.343	312.56
588.553	304.56
588.762	310.56
588.972	296.56
589.182	320.56
589.392	307.56
589.602	324.56
589.812	316.56
590.022	306.56
590.232	306.56
590.441	316.56
590.651	308.56
590.861	319.56
591.071	312.56
591.281	300.56
591.49	295.56
591.7	301.56
591.91	330.56
592.119	320.56
592.329	317.56
592.539	327.56
592.748	307.56
592.958	328.56
593.167	317.56
593.377	320.56
593.587	341.56
593.796	288.56
594.006	334.56
594.215	345.56
594.424	315.56
594.634	324.56
594.843	352.56
595.053	347.56
595.262	343.56
595.472	325.56
595.681	307.56
595.89	313.56
596.1	324.56
596.309	314.56
596.518	315.56
596.727	327.56
596.937	302.56
597.146	326.56
597.355	318.56
597.564	312.56
597.774	293.56
597.983	288.56
598.192	277.56
598.401	291.56
598.61	284.56
598.819	298.56
599.028	307.56
599.237	286.56
599.446	302.56
599.655	292.56
599.864	285.56
600.073	292.56
600.282	282.56
600.491	277.56
600.7	304.56
600.909	296.56
601.118	312.56
601.327	327.56
601.536	338.56
601.745	353.56
601.953	346.56
602.162	339.56
602.371	363.56
602.58	346.56
602.789	322.56
602.997	346.56
603.206	355.56
603.415	357.56
603.623	355.56
603.832	346.56
604.041	332.56
604.249	319.56
604.458	285.56
604.666	303.56
604.875	306.56
605.084	306.56
605.292	335.56
605.501	349.56
605.709	379.56
605.918	366.56
606.126	365.56
606.334	360.56
606.543	352.56
606.751	360.56
606.96	354.56
607.168	361.56
607.376	339.56
607.585	344.56
607.793	350.56
608.001	353.56
608.21	389.56
608.418	368.56
608.626	372.56
608.834	357.56
609.043	361.56
609.251	338.56
609.459	360.56
609.667	366.56
609.875	372.56
610.083	366.56
610.291	362.56
610.499	346.56
610.707	374.56
610.916	350.56
611.124	359.56
611.332	353.56
611.54	356.56
611.748	364.56
611.955	364.56
612.163	377.56
612.371	348.56
612.579	344.56
612.787	344.56
612.995	351.56
613.203	358.56
613.411	351.56
613.618	357.56
613.826	338.56
614.034	340.56
614.242	357.56
614.449	346.56
614.657	356.56
614.865	369.56
615.072	345.56
615.28	356.56
615.488	345.56
615.695	372.56
615.903	355.56
616.111	344.56
616.318	364.56
616.526	348.56
616.733	366.56
616.941	357.56
617.148	361.56
617.356	326.56
617.563	362.56
617.771	346.56
617.978	333.56
618.185	329.56
618.393	339.56
618.6	352.56
618.807	339.56
619.015	330.56
619.222	330.56
619.429	333.56
619.637	291.56
619.844	281.56
620.051	309.56
620.258	319.56
620.466	319.56
620.673	311.56
620.88	319.56
621.087	309.56
621.294	320.56
621.501	307.56
621.708	314.56
621.915	302.56
622.122	308.56
622.329	331.56
622.536	329.56
622.743	332.56
622.95	311.56
623.157	323.56
623.364	332.56
623.571	339.56
623.778	313.56
623.985	320.56
624.192	319.56
624.399	331.56
624.606	316.56
624.812	318.56
625.019	295.56
625.226	293.56
625.433	281.56
625.639	266.56
625.846	257.56
626.053	252.56
626.259	247.56
626.466	256.56
626.673	262.56
626.879	237.56
627.086	241.56
627.293	265.56
627.499	290.56
627.706	285.56
627.912	318.56
628.119	298.56
628.325	302.56
628.532	306.56
628.738	292.56
628.945	270.56
629.151	280.56
629.357	280.56
629.564	285.56
629.77	284.56
629.976	272.56
630.183	262.56
630.389	258.56
630.595	287.56
630.802	290.56
631.008	276.56
631.214	284.56
631.42	273.56
631.627	264.56
631.833	252.56
632.039	271.56
632.245	269.56
632.451	289.56
632.657	262.56
632.863	250.56
633.069	260.56
633.275	233.56
633.481	250.56
633.688	245.56
633.893	260.56
634.099	261.56
634.305	254.56
634.511	253.56
634.717	227.56
634.923	225.56
635.129	233.56
635.335	230.56
635.541	253.56
635.747	265.56
635.952	254.56
636.158	243.56
636.364	260.56
636.57	274.56
636.775	251.56
636.981	263.56
637.187	279.56
637.392	258.56
637.598	254.56
637.804	277.56
638.009	258.56
638.215	249.56
638.421	269.56
638.626	254.56
638.832	246.56
639.037	243.56
639.243	256.56
639.448	242.56
639.654	236.56
639.859	236.56
640.065	253.56
640.27	260.56
640.475	237.56
640.681	242.56
640.886	243.56
641.091	236.56
641.297	266.56
641.502	234.56
641.707	239.56
641.913	240.56
642.118	230.56
642.323	248.56
642.528	249.56
642.733	246.56
642.939	232.56
643.144	213.56
643.349	212.56
643.554	229.56
643.759	232.56
643.964	237.56
644.169	240.56
644.374	243.56
644.579	233.56
644.784	218.56
644.989	242.56
645.194	225.56
645.399	233.56
645.604	227.56
645.809	221.56
646.014	238.56
646.219	241.56
646.423	237.56
646.628	247.56
646.833	239.56
647.038	246.56
647.243	225.56
647.447	230.56
647.652	250.56
647.857	245.56
648.062	249.56
648.266	235.56
648.471	244.56
648.676	222.56
648.88	252.56
649.085	232.56
649.289	236.56
649.494	223.56
649.698	230.56
649.903	247.56
650.107	240.56
650.312	214.56
650.516	225.56
650.721	220.56
650.925	233.56
651.13	220.56
651.334	221.56
651.539	225.56
651.743	218.56
651.947	208.56
652.152	214.56
652.356	213.56
652.56	204.56
652.764	214.56
652.969	217.56
653.173	210.56
653.377	191.56
653.581	217.56
653.785	197.56
653.99	197.56
654.194	207.56
654.398	198.56
654.602	197.56
654.806	204.56
655.01	221.56
655.214	219.56
655.418	200.56
655.622	203.56
655.826	200.56
656.03	225.56
656.234	217.56
656.438	230.56
656.642	229.56
656.846	206.56
657.049	201.56
657.253	187.56
657.457	194.56
657.661	165.56
657.865	172.56
658.068	172.56
658.272	165.56
658.476	147.56
658.68	132.56
658.883	147.56
659.087	143.56
659.291	143.56
659.494	137.56
659.698	132.56
659.901	128.56
660.105	134.56
660.309	124.56
660.512	116.56
660.716	128.56
660.919	122.56
661.123	118.56
661.326	99.56
661.53	103.56
661.733	98.56
661.936	102.56
662.14	95.56
662.343	99.56
662.546	82.56
662.75	88.56
662.953	94.56
663.156	84.56
663.36	78.56
663.563	88.56
663.766	86.56
663.969	87.56
664.173	81.56
664.376	87.56
664.579	88.56
664.782	70.56
664.985	93.56
665.188	94.56
665.391	98.56
665.594	85.56
665.797	83.56
666	72.56
666.203	79.56
666.406	85.56
666.609	74.56
666.812	85.56
667.015	69.56
667.218	96.56
667.421	79.56
667.624	89.56
667.827	82.56
668.03	89.56
668.232	76.56
668.435	67.56
668.638	72.56
668.841	89.56
669.043	85.56
669.246	79.56
669.449	83.56
669.651	91.56
669.854	66.56
670.057	73.56
670.259	57.56
670.462	80.56
670.665	71.56
670.867	81.56
671.07	82.56
671.272	83.56
671.475	76.56
671.677	72.56
671.88	79.56
672.082	78.56
672.284	84.56
672.487	83.56
672.689	86.56
672.892	88.56
