Data from WStandard_LampEnergy10_LIBS07252019.E.O._I.C._HRD10591_15-54-21-927.txt Node
Date: Thu Jul 25 15:54:21 EDT 2019
User: cochatt
Spectrometer: HR+D1059
Trigger mode: 1
Integration Time (sec): 1.000000E-1
Scans to average: 1
Electric dark correction enabled: true
Nonlinearity correction enabled: false
Boxcar width: 0
XAxis mode: Wavelengths
Number of Pixels in Spectrum: 2048
>>>>>Begin Spectral Data<<<<<
223.165	-5.88
223.4	-5.88
223.635	-5.88
223.869	-19.88
224.104	-13.88
224.338	-8.88
224.573	-8.88
224.808	-13.88
225.042	-7.88
225.277	-12.88
225.511	-18.88
225.746	-0.88
225.98	13.12
226.215	-7.88
226.449	25.12
226.683	23.12
226.918	27.12
227.152	31.12
227.387	23.12
227.621	36.12
227.856	32.12
228.09	50.12
228.324	46.12
228.559	47.12
228.793	84.12
229.027	131.12
229.262	169.12
229.496	149.12
229.73	159.12
229.964	151.12
230.199	147.12
230.433	179.12
230.667	166.12
230.901	187.12
231.136	153.12
231.37	167.12
231.604	177.12
231.838	165.12
232.072	176.12
232.306	191.12
232.541	181.12
232.775	201.12
233.009	194.12
233.243	195.12
233.477	192.12
233.711	196.12
233.945	205.12
234.179	212.12
234.413	208.12
234.647	211.12
234.881	189.12
235.115	210.12
235.349	192.12
235.583	205.12
235.817	199.12
236.051	188.12
236.285	203.12
236.519	206.12
236.753	234.12
236.987	226.12
237.221	221.12
237.455	239.12
237.689	240.12
237.922	220.12
238.156	211.12
238.39	220.12
238.624	218.12
238.858	244.12
239.091	260.12
239.325	261.12
239.559	300.12
239.793	278.12
240.027	294.12
240.26	293.12
240.494	251.12
240.728	234.12
240.961	240.12
241.195	236.12
241.429	260.12
241.662	271.12
241.896	249.12
242.13	243.12
242.363	259.12
242.597	283.12
242.83	277.12
243.064	287.12
243.298	284.12
243.531	266.12
243.765	287.12
243.998	274.12
244.232	243.12
244.465	245.12
244.699	243.12
244.932	285.12
245.166	314.12
245.399	293.12
245.633	276.12
245.866	263.12
246.099	293.12
246.333	296.12
246.566	298.12
246.8	313.12
247.033	337.12
247.266	312.12
247.5	315.12
247.733	326.12
247.966	343.12
248.2	349.12
248.433	348.12
248.666	349.12
248.899	385.12
249.133	422.12
249.366	473.12
249.599	401.12
249.832	376.12
250.066	374.12
250.299	375.12
250.532	362.12
250.765	330.12
250.998	344.12
251.231	331.12
251.465	334.12
251.698	319.12
251.931	348.12
252.164	345.12
252.397	353.12
252.63	375.12
252.863	335.12
253.096	319.12
253.329	337.12
253.562	361.12
253.795	374.12
254.028	365.12
254.261	343.12
254.494	335.12
254.727	349.12
254.96	354.12
255.193	367.12
255.426	418.12
255.659	449.12
255.892	440.12
256.124	394.12
256.357	381.12
256.59	404.12
256.823	398.12
257.056	415.12
257.289	466.12
257.521	476.12
257.754	461.12
257.987	468.12
258.22	463.12
258.452	445.12
258.685	419.12
258.918	393.12
259.151	397.12
259.383	386.12
259.616	348.12
259.849	390.12
260.081	415.12
260.314	460.12
260.547	495.12
260.779	469.12
261.012	438.12
261.244	397.12
261.477	380.12
261.71	387.12
261.942	391.12
262.175	379.12
262.407	402.12
262.64	385.12
262.872	389.12
263.105	361.12
263.337	387.12
263.57	371.12
263.802	364.12
264.035	360.12
264.267	346.12
264.499	332.12
264.732	383.12
264.964	403.12
265.197	402.12
265.429	412.12
265.661	452.12
265.894	479.12
266.126	492.12
266.358	475.12
266.591	506.12
266.823	483.12
267.055	467.12
267.287	449.12
267.52	450.12
267.752	443.12
267.984	448.12
268.216	481.12
268.448	480.12
268.681	482.12
268.913	438.12
269.145	422.12
269.377	427.12
269.609	441.12
269.841	500.12
270.073	598.12
270.306	639.12
270.538	621.12
270.77	525.12
271.002	488.12
271.234	476.12
271.466	479.12
271.698	546.12
271.93	602.12
272.162	585.12
272.394	543.12
272.626	529.12
272.858	456.12
273.09	408.12
273.322	420.12
273.553	387.12
273.785	416.12
274.017	419.12
274.249	449.12
274.481	449.12
274.713	411.12
274.945	405.12
275.176	383.12
275.408	419.12
275.64	405.12
275.872	389.12
276.104	438.12
276.335	489.12
276.567	543.12
276.799	551.12
277.031	495.12
277.262	467.12
277.494	492.12
277.726	517.12
277.957	506.12
278.189	481.12
278.421	429.12
278.652	441.12
278.884	435.12
279.115	427.12
279.347	419.12
279.579	450.12
279.81	437.12
280.042	477.12
280.273	514.12
280.505	492.12
280.736	513.12
280.968	500.12
281.199	445.12
281.431	413.12
281.662	443.12
281.894	434.12
282.125	431.12
282.356	458.12
282.588	464.12
282.819	447.12
283.051	489.12
283.282	526.12
283.513	495.12
283.745	436.12
283.976	438.12
284.207	446.12
284.439	451.12
284.67	459.12
284.901	459.12
285.132	473.12
285.364	467.12
285.595	461.12
285.826	456.12
286.057	436.12
286.288	445.12
286.52	485.12
286.751	484.12
286.982	500.12
287.213	460.12
287.444	449.12
287.675	439.12
287.906	465.12
288.138	480.12
288.369	461.12
288.6	458.12
288.831	430.12
289.062	455.12
289.293	444.12
289.524	464.12
289.755	466.12
289.986	472.12
290.217	445.12
290.448	444.12
290.679	476.12
290.91	464.12
291.141	484.12
291.371	492.12
291.602	502.12
291.833	485.12
292.064	495.12
292.295	485.12
292.526	501.12
292.757	518.12
292.987	489.12
293.218	453.12
293.449	525.12
293.68	581.12
293.91	596.12
294.141	569.12
294.372	544.12
294.603	579.12
294.833	549.12
295.064	555.12
295.295	506.12
295.525	467.12
295.756	467.12
295.987	438.12
296.217	441.12
296.448	471.12
296.679	449.12
296.909	485.12
297.14	475.12
297.37	480.12
297.601	496.12
297.831	529.12
298.062	512.12
298.292	495.12
298.523	485.12
298.753	482.12
298.984	480.12
299.214	480.12
299.445	489.12
299.675	513.12
299.905	508.12
300.136	484.12
300.366	473.12
300.597	460.12
300.827	473.12
301.057	484.12
301.288	518.12
301.518	516.12
301.748	517.12
301.979	551.12
302.209	573.12
302.439	606.12
302.669	597.12
302.9	559.12
303.13	501.12
303.36	486.12
303.59	514.12
303.82	515.12
304.051	520.12
304.281	521.12
304.511	536.12
304.741	555.12
304.971	612.12
305.201	609.12
305.431	565.12
305.661	485.12
305.891	450.12
306.121	465.12
306.352	475.12
306.582	506.12
306.812	550.12
307.042	572.12
307.272	577.12
307.502	592.12
307.731	619.12
307.961	632.12
308.191	596.12
308.421	520.12
308.651	503.12
308.881	507.12
309.111	515.12
309.341	483.12
309.571	490.12
309.8	480.12
310.03	496.12
310.26	497.12
310.49	513.12
310.72	499.12
310.949	555.12
311.179	541.12
311.409	518.12
311.639	513.12
311.868	500.12
312.098	503.12
312.328	507.12
312.557	515.12
312.787	518.12
313.017	548.12
313.246	496.12
313.476	501.12
313.706	540.12
313.935	508.12
314.165	535.12
314.394	559.12
314.624	576.12
314.853	620.12
315.083	621.12
315.312	613.12
315.542	589.12
315.771	535.12
316.001	543.12
316.23	575.12
316.46	596.12
316.689	560.12
316.919	517.12
317.148	529.12
317.377	540.12
317.607	605.12
317.836	662.12
318.065	633.12
318.295	619.12
318.524	586.12
318.753	564.12
318.983	578.12
319.212	549.12
319.441	563.12
319.67	575.12
319.9	581.12
320.129	632.12
320.358	631.12
320.587	629.12
320.816	629.12
321.046	599.12
321.275	585.12
321.504	603.12
321.733	632.12
321.962	594.12
322.191	563.12
322.42	566.12
322.649	559.12
322.878	566.12
323.108	567.12
323.337	597.12
323.566	568.12
323.795	569.12
324.024	578.12
324.253	558.12
324.482	548.12
324.71	532.12
324.939	529.12
325.168	557.12
325.397	559.12
325.626	579.12
325.855	572.12
326.084	556.12
326.313	568.12
326.542	583.12
326.77	595.12
326.999	575.12
327.228	574.12
327.457	533.12
327.686	527.12
327.914	584.12
328.143	573.12
328.372	588.12
328.6	581.12
328.829	555.12
329.058	559.12
329.287	550.12
329.515	595.12
329.744	607.12
329.972	633.12
330.201	646.12
330.43	599.12
330.658	579.12
330.887	588.12
331.115	581.12
331.344	618.12
331.572	589.12
331.801	585.12
332.03	599.12
332.258	616.12
332.486	600.12
332.715	637.12
332.943	617.12
333.172	611.12
333.4	603.12
333.629	635.12
333.857	690.12
334.085	742.12
334.314	817.12
334.542	835.12
334.771	773.12
334.999	681.12
335.227	652.12
335.455	639.12
335.684	653.12
335.912	656.12
336.14	661.12
336.369	623.12
336.597	630.12
336.825	606.12
337.053	635.12
337.281	656.12
337.51	706.12
337.738	685.12
337.966	679.12
338.194	631.12
338.422	603.12
338.65	589.12
338.878	603.12
339.106	568.12
339.334	555.12
339.562	567.12
339.79	583.12
340.018	631.12
340.246	616.12
340.474	629.12
340.702	617.12
340.93	639.12
341.158	600.12
341.386	616.12
341.614	614.12
341.842	613.12
342.07	613.12
342.298	624.12
342.526	589.12
342.754	589.12
342.981	584.12
343.209	583.12
343.437	603.12
343.665	620.12
343.893	641.12
344.12	647.12
344.348	633.12
344.576	614.12
344.804	611.12
345.031	584.12
345.259	603.12
345.487	581.12
345.714	578.12
345.942	551.12
346.17	560.12
346.397	585.12
346.625	539.12
346.853	554.12
347.08	563.12
347.308	548.12
347.535	562.12
347.763	574.12
347.99	574.12
348.218	582.12
348.445	554.12
348.673	561.12
348.9	577.12
349.128	606.12
349.355	609.12
349.583	585.12
349.81	568.12
350.037	535.12
350.265	545.12
350.492	547.12
350.72	561.12
350.947	594.12
351.174	604.12
351.402	554.12
351.629	532.12
351.856	533.12
352.083	545.12
352.311	546.12
352.538	564.12
352.765	577.12
352.992	576.12
353.22	553.12
353.447	558.12
353.674	565.12
353.901	568.12
354.128	573.12
354.355	568.12
354.583	577.12
354.81	604.12
355.037	595.12
355.264	597.12
355.491	578.12
355.718	590.12
355.945	553.12
356.172	553.12
356.399	553.12
356.626	546.12
356.853	597.12
357.08	667.12
357.307	698.12
357.534	661.12
357.761	577.12
357.988	553.12
358.215	546.12
358.441	555.12
358.668	525.12
358.895	553.12
359.122	624.12
359.349	649.12
359.576	611.12
359.802	599.12
360.029	547.12
360.256	549.12
360.483	589.12
360.709	619.12
360.936	596.12
361.163	641.12
361.39	688.12
361.616	725.12
361.843	708.12
362.07	647.12
362.296	567.12
362.523	556.12
362.749	590.12
362.976	595.12
363.203	607.12
363.429	558.12
363.656	546.12
363.882	604.12
364.109	668.12
364.335	677.12
364.562	642.12
364.788	601.12
365.015	561.12
365.241	589.12
365.468	603.12
365.694	620.12
365.92	633.12
366.147	587.12
366.373	575.12
366.599	571.12
366.826	553.12
367.052	567.12
367.278	586.12
367.505	613.12
367.731	612.12
367.957	622.12
368.184	663.12
368.41	679.12
368.636	697.12
368.862	645.12
369.089	666.12
369.315	647.12
369.541	613.12
369.767	614.12
369.993	611.12
370.219	594.12
370.445	621.12
370.672	677.12
370.898	659.12
371.124	664.12
371.35	635.12
371.576	629.12
371.802	627.12
372.028	625.12
372.254	620.12
372.48	613.12
372.706	612.12
372.932	611.12
373.158	616.12
373.384	615.12
373.61	673.12
373.835	681.12
374.061	636.12
374.287	609.12
374.513	624.12
374.739	661.12
374.965	637.12
375.191	636.12
375.416	665.12
375.642	677.12
375.868	715.12
376.094	706.12
376.319	667.12
376.545	672.12
376.771	689.12
376.997	718.12
377.222	696.12
377.448	663.12
377.674	662.12
377.899	700.12
378.125	731.12
378.35	692.12
378.576	645.12
378.802	641.12
379.027	627.12
379.253	612.12
379.478	659.12
379.704	634.12
379.929	615.12
380.155	650.12
380.38	639.12
380.606	653.12
380.831	643.12
381.057	718.12
381.282	714.12
381.507	701.12
381.733	736.12
381.958	747.12
382.184	692.12
382.409	668.12
382.634	693.12
382.86	666.12
383.085	702.12
383.31	733.12
383.535	778.12
383.761	821.12
383.986	763.12
384.211	711.12
384.436	736.12
384.662	787.12
384.887	801.12
385.112	756.12
385.337	727.12
385.562	741.12
385.787	736.12
386.013	776.12
386.238	768.12
386.463	743.12
386.688	837.12
386.913	866.12
387.138	800.12
387.363	785.12
387.588	742.12
387.813	751.12
388.038	803.12
388.263	824.12
388.488	776.12
388.713	725.12
388.938	731.12
389.163	738.12
389.387	745.12
389.612	755.12
389.837	769.12
390.062	752.12
390.287	753.12
390.512	753.12
390.736	735.12
390.961	755.12
391.186	730.12
391.411	723.12
391.636	759.12
391.86	748.12
392.085	756.12
392.31	767.12
392.534	747.12
392.759	785.12
392.984	780.12
393.208	802.12
393.433	815.12
393.658	855.12
393.882	826.12
394.107	807.12
394.331	773.12
394.556	777.12
394.78	775.12
395.005	802.12
395.229	843.12
395.454	890.12
395.678	864.12
395.903	821.12
396.127	817.12
396.352	805.12
396.576	864.12
396.801	860.12
397.025	831.12
397.249	813.12
397.474	821.12
397.698	844.12
397.922	873.12
398.147	880.12
398.371	965.12
398.595	913.12
398.82	871.12
399.044	873.12
399.268	902.12
399.492	985.12
399.717	983.12
399.941	970.12
400.165	1013.12
400.389	954.12
400.613	999.12
400.837	1136.12
401.062	1181.12
401.286	1024.12
401.51	987.12
401.734	986.12
401.958	941.12
402.182	883.12
402.406	892.12
402.63	885.12
402.854	866.12
403.078	877.12
403.302	893.12
403.526	913.12
403.75	905.12
403.974	945.12
404.198	964.12
404.422	977.12
404.645	1023.12
404.869	962.12
405.093	917.12
405.317	907.12
405.541	903.12
405.765	941.12
405.988	925.12
406.212	934.12
406.436	960.12
406.66	1019.12
406.883	1000.12
407.107	1151.12
407.331	1220.12
407.555	1263.12
407.778	1145.12
408.002	992.12
408.226	967.12
408.449	952.12
408.673	957.12
408.896	979.12
409.12	938.12
409.344	979.12
409.567	928.12
409.791	947.12
410.014	940.12
410.238	1043.12
410.461	1049.12
410.685	945.12
410.908	935.12
411.132	941.12
411.355	955.12
411.578	907.12
411.802	932.12
412.025	949.12
412.249	955.12
412.472	913.12
412.695	919.12
412.919	905.12
413.142	872.12
413.365	931.12
413.589	959.12
413.812	1001.12
414.035	1013.12
414.258	949.12
414.482	950.12
414.705	915.12
414.928	904.12
415.151	894.12
415.374	971.12
415.597	942.12
415.821	947.12
416.044	922.12
416.267	950.12
416.49	915.12
416.713	923.12
416.936	965.12
417.159	981.12
417.382	971.12
417.605	928.12
417.828	941.12
418.051	938.12
418.274	980.12
418.497	930.12
418.72	934.12
418.943	930.12
419.166	985.12
419.389	996.12
419.611	947.12
419.834	950.12
420.057	951.12
420.28	937.12
420.503	932.12
420.726	954.12
420.948	923.12
421.171	914.12
421.394	943.12
421.617	986.12
421.839	1005.12
422.062	975.12
422.285	968.12
422.507	927.12
422.73	918.12
422.953	893.12
423.175	891.12
423.398	935.12
423.621	929.12
423.843	948.12
424.066	972.12
424.288	1011.12
424.511	1056.12
424.733	983.12
424.956	914.12
425.178	922.12
425.401	955.12
425.623	946.12
425.846	912.12
426.068	960.12
426.291	986.12
426.513	957.12
426.735	976.12
426.958	1064.12
427.18	1091.12
427.402	985.12
427.625	1058.12
427.847	994.12
428.069	918.12
428.292	905.12
428.514	923.12
428.736	905.12
428.958	919.12
429.181	942.12
429.403	1084.12
429.625	1259.12
429.847	1035.12
430.069	945.12
430.292	1068.12
430.514	1023.12
430.736	1001.12
430.958	968.12
431.18	935.12
431.402	880.12
431.624	826.12
431.846	796.12
432.068	749.12
432.29	719.12
432.512	808.12
432.734	903.12
432.956	947.12
433.178	977.12
433.4	949.12
433.622	973.12
433.844	924.12
434.066	872.12
434.287	819.12
434.509	754.12
434.731	830.12
434.953	913.12
435.175	913.12
435.397	899.12
435.618	868.12
435.84	818.12
436.062	843.12
436.284	906.12
436.505	934.12
436.727	933.12
436.949	923.12
437.17	889.12
437.392	902.12
437.614	856.12
437.835	815.12
438.057	833.12
438.278	864.12
438.5	830.12
438.721	880.12
438.943	917.12
439.165	914.12
439.386	936.12
439.608	980.12
439.829	959.12
440.05	963.12
440.272	930.12
440.493	908.12
440.715	963.12
440.936	1050.12
441.158	1054.12
441.379	1044.12
441.6	1064.12
441.822	1052.12
442.043	1023.12
442.264	1007.12
442.486	957.12
442.707	971.12
442.928	969.12
443.149	988.12
443.371	985.12
443.592	1052.12
443.813	1051.12
444.034	1033.12
444.255	1026.12
444.476	1047.12
444.698	1076.12
444.919	1031.12
445.14	1175.12
445.361	1098.12
445.582	1090.12
445.803	1071.12
446.024	1021.12
446.245	1059.12
446.466	1054.12
446.687	1046.12
446.908	1073.12
447.129	1018.12
447.35	1029.12
447.571	1002.12
447.792	986.12
448.013	936.12
448.234	971.12
448.455	975.12
448.675	997.12
448.896	917.12
449.117	921.12
449.338	937.12
449.559	978.12
449.779	993.12
450	1050.12
450.221	1052.12
450.442	983.12
450.662	935.12
450.883	889.12
451.104	875.12
451.324	893.12
451.545	909.12
451.766	890.12
451.986	841.12
452.207	815.12
452.428	795.12
452.648	790.12
452.869	816.12
453.089	795.12
453.31	774.12
453.53	795.12
453.751	740.12
453.971	701.12
454.192	748.12
454.412	766.12
454.633	799.12
454.853	789.12
455.073	774.12
455.294	760.12
455.514	772.12
455.734	762.12
455.955	782.12
456.175	748.12
456.395	743.12
456.616	743.12
456.836	736.12
457.056	730.12
457.276	724.12
457.497	720.12
457.717	699.12
457.937	708.12
458.157	716.12
458.377	713.12
458.598	685.12
458.818	690.12
459.038	699.12
459.258	697.12
459.478	711.12
459.698	706.12
459.918	742.12
460.138	811.12
460.358	823.12
460.578	840.12
460.798	831.12
461.018	909.12
461.238	860.12
461.458	862.12
461.678	845.12
461.898	831.12
462.118	819.12
462.338	828.12
462.558	867.12
462.777	834.12
462.997	871.12
463.217	915.12
463.437	881.12
463.657	817.12
463.876	828.12
464.096	825.12
464.316	836.12
464.536	881.12
464.755	879.12
464.975	877.12
465.195	891.12
465.414	881.12
465.634	880.12
465.854	900.12
466.073	954.12
466.293	959.12
466.512	871.12
466.732	880.12
466.951	908.12
467.171	884.12
467.391	891.12
467.61	884.12
467.829	904.12
468.049	1000.12
468.268	1053.12
468.488	964.12
468.707	904.12
468.927	889.12
469.146	880.12
469.365	904.12
469.585	965.12
469.804	927.12
470.023	929.12
470.243	929.12
470.462	949.12
470.681	915.12
470.901	938.12
471.12	932.12
471.339	948.12
471.558	911.12
471.777	905.12
471.997	905.12
472.216	868.12
472.435	792.12
472.654	768.12
472.873	760.12
473.092	806.12
473.311	824.12
473.53	806.12
473.749	829.12
473.968	855.12
474.187	849.12
474.406	861.12
474.625	880.12
474.844	882.12
475.063	860.12
475.282	872.12
475.501	820.12
475.72	839.12
475.939	896.12
476.158	879.12
476.377	884.12
476.596	853.12
476.814	825.12
477.033	839.12
477.252	848.12
477.471	925.12
477.69	943.12
477.908	955.12
478.127	976.12
478.346	1021.12
478.564	998.12
478.783	1032.12
479.002	1023.12
479.22	1026.12
479.439	1061.12
479.658	1066.12
479.876	1009.12
480.095	902.12
480.313	911.12
480.532	902.12
480.751	887.12
480.969	828.12
481.188	786.12
481.406	780.12
481.624	780.12
481.843	777.12
482.061	832.12
482.28	888.12
482.498	911.12
482.717	864.12
482.935	902.12
483.153	967.12
483.372	1018.12
483.59	1016.12
483.808	968.12
484.027	938.12
484.245	984.12
484.463	1238.12
484.681	1307.12
484.9	1029.12
485.118	970.12
485.336	913.12
485.554	919.12
485.772	882.12
485.99	895.12
486.209	903.12
486.427	914.12
486.645	943.12
486.863	1005.12
487.081	1051.12
487.299	1031.12
487.517	1023.12
487.735	1095.12
487.953	1190.12
488.171	1203.12
488.389	1139.12
488.607	1108.12
488.825	1146.12
489.043	1059.12
489.261	1009.12
489.479	1048.12
489.696	1076.12
489.914	1032.12
490.132	1041.12
490.35	1093.12
490.568	1189.12
490.786	1204.12
491.003	1183.12
491.221	1229.12
491.439	1273.12
491.657	1308.12
491.874	1385.12
492.092	1449.12
492.31	1524.12
492.527	1474.12
492.745	1365.12
492.963	1281.12
493.18	1300.12
493.398	1363.12
493.615	1344.12
493.833	1291.12
494.05	1238.12
494.268	1228.12
494.485	1253.12
494.703	1227.12
494.92	1231.12
495.138	1233.12
495.355	1267.12
495.573	1275.12
495.79	1285.12
496.008	1287.12
496.225	1243.12
496.442	1253.12
496.66	1223.12
496.877	1203.12
497.094	1215.12
497.312	1216.12
497.529	1207.12
497.746	1224.12
497.963	1326.12
498.181	1317.12
498.398	1295.12
498.615	1225.12
498.832	1185.12
499.049	1173.12
499.267	1192.12
499.484	1277.12
499.701	1364.12
499.918	1386.12
500.135	1520.12
500.352	1553.12
500.569	1588.12
500.786	1702.12
501.003	1543.12
501.22	1429.12
501.437	1415.12
501.654	1459.12
501.871	1359.12
502.088	1229.12
502.305	1200.12
502.522	1131.12
502.739	1093.12
502.956	1048.12
503.172	1050.12
503.389	1011.12
503.606	1009.12
503.823	994.12
504.04	1018.12
504.256	1007.12
504.473	1009.12
504.69	1011.12
504.907	1000.12
505.123	982.12
505.34	1080.12
505.557	1399.12
505.773	1143.12
505.99	948.12
506.207	899.12
506.423	899.12
506.64	903.12
506.856	907.12
507.073	1066.12
507.289	1067.12
507.506	1037.12
507.722	882.12
507.939	866.12
508.155	874.12
508.372	873.12
508.588	807.12
508.805	795.12
509.021	797.12
509.238	779.12
509.454	765.12
509.67	742.12
509.887	755.12
510.103	727.12
510.319	742.12
510.536	762.12
510.752	794.12
510.968	752.12
511.184	795.12
511.401	748.12
511.617	727.12
511.833	697.12
512.049	717.12
512.265	714.12
512.481	738.12
512.698	756.12
512.914	758.12
513.13	771.12
513.346	729.12
513.562	713.12
513.778	731.12
513.994	750.12
514.21	759.12
514.426	757.12
514.642	813.12
514.858	773.12
515.074	730.12
515.29	717.12
515.506	737.12
515.721	739.12
515.937	755.12
516.153	798.12
516.369	809.12
516.585	755.12
516.801	724.12
517.016	751.12
517.232	769.12
517.448	795.12
517.664	784.12
517.879	799.12
518.095	820.12
518.311	781.12
518.527	773.12
518.742	755.12
518.958	737.12
519.173	744.12
519.389	811.12
519.605	799.12
519.82	805.12
520.036	779.12
520.251	771.12
520.467	800.12
520.682	817.12
520.898	807.12
521.113	748.12
521.329	730.12
521.544	766.12
521.76	746.12
521.975	716.12
522.19	723.12
522.406	739.12
522.621	939.12
522.836	852.12
523.052	734.12
523.267	745.12
523.482	744.12
523.698	745.12
523.913	738.12
524.128	788.12
524.343	806.12
524.559	809.12
524.774	762.12
524.989	758.12
525.204	789.12
525.419	738.12
525.634	749.12
525.849	747.12
526.064	729.12
526.28	725.12
526.495	679.12
526.71	651.12
526.925	660.12
527.14	625.12
527.355	618.12
527.57	609.12
527.785	672.12
527.999	673.12
528.214	683.12
528.429	691.12
528.644	723.12
528.859	809.12
529.074	854.12
529.289	874.12
529.503	884.12
529.718	809.12
529.933	735.12
530.148	697.12
530.363	643.12
530.577	643.12
530.792	639.12
531.007	620.12
531.221	659.12
531.436	636.12
531.651	659.12
531.865	691.12
532.08	668.12
532.295	654.12
532.509	591.12
532.724	618.12
532.938	639.12
533.153	705.12
533.367	741.12
533.582	774.12
533.796	737.12
534.011	738.12
534.225	691.12
534.44	641.12
534.654	659.12
534.868	665.12
535.083	685.12
535.297	693.12
535.511	670.12
535.726	707.12
535.94	699.12
536.154	665.12
536.369	635.12
536.583	592.12
536.797	628.12
537.011	635.12
537.225	603.12
537.44	608.12
537.654	666.12
537.868	642.12
538.082	602.12
538.296	609.12
538.51	628.12
538.724	690.12
538.938	723.12
539.153	738.12
539.367	755.12
539.581	682.12
539.795	698.12
540.009	668.12
540.222	665.12
540.436	678.12
540.65	743.12
540.864	783.12
541.078	823.12
541.292	819.12
541.506	897.12
541.72	959.12
541.934	1020.12
542.147	1067.12
542.361	1033.12
542.575	914.12
542.789	838.12
543.002	769.12
543.216	753.12
543.43	757.12
543.644	828.12
543.857	877.12
544.071	919.12
544.285	931.12
544.498	924.12
544.712	931.12
544.925	963.12
545.139	988.12
545.352	959.12
545.566	939.12
545.779	929.12
545.993	937.12
546.206	963.12
546.42	969.12
546.633	977.12
546.847	970.12
547.06	950.12
547.274	984.12
547.487	998.12
547.7	1002.12
547.914	991.12
548.127	960.12
548.34	922.12
548.554	935.12
548.767	909.12
548.98	929.12
549.193	912.12
549.407	956.12
549.62	953.12
549.833	937.12
550.046	921.12
550.259	920.12
550.473	892.12
550.686	908.12
550.899	866.12
551.112	844.12
551.325	825.12
551.538	823.12
551.751	841.12
551.964	698.12
552.177	751.12
552.39	781.12
552.603	876.12
552.816	869.12
553.029	930.12
553.242	921.12
553.455	902.12
553.667	895.12
553.88	892.12
554.093	865.12
554.306	870.12
554.519	820.12
554.732	820.12
554.944	838.12
555.157	867.12
555.37	814.12
555.583	819.12
555.795	781.12
556.008	733.12
556.221	712.12
556.433	730.12
556.646	725.12
556.859	723.12
557.071	721.12
557.284	749.12
557.496	778.12
557.709	743.12
557.921	745.12
558.134	754.12
558.346	736.12
558.559	733.12
558.771	735.12
558.984	695.12
559.196	655.12
559.409	691.12
559.621	656.12
559.833	651.12
560.046	680.12
560.258	665.12
560.47	669.12
560.683	663.12
560.895	692.12
561.107	674.12
561.32	683.12
561.532	693.12
561.744	695.12
561.956	687.12
562.168	689.12
562.381	649.12
562.593	650.12
562.805	645.12
563.017	635.12
563.229	630.12
563.441	635.12
563.653	619.12
563.865	614.12
564.077	623.12
564.289	611.12
564.501	635.12
564.713	631.12
564.925	657.12
565.137	690.12
565.349	629.12
565.561	609.12
565.773	632.12
565.985	653.12
566.197	655.12
566.408	672.12
566.62	663.12
566.832	683.12
567.044	701.12
567.255	670.12
567.467	668.12
567.679	699.12
567.891	653.12
568.102	596.12
568.314	587.12
568.526	551.12
568.737	531.12
568.949	483.12
569.161	465.12
569.372	459.12
569.584	466.12
569.795	466.12
570.007	456.12
570.218	447.12
570.43	422.12
570.641	457.12
570.853	453.12
571.064	474.12
571.276	487.12
571.487	491.12
571.698	469.12
571.91	458.12
572.121	453.12
572.333	456.12
572.544	466.12
572.755	418.12
572.966	403.12
573.178	400.12
573.389	431.12
573.6	416.12
573.811	437.12
574.023	387.12
574.234	394.12
574.445	407.12
574.656	402.12
574.867	408.12
575.078	396.12
575.289	415.12
575.501	387.12
575.712	388.12
575.923	411.12
576.134	397.12
576.345	402.12
576.556	395.12
576.767	390.12
576.978	406.12
577.188	404.12
577.399	400.12
577.61	390.12
577.821	385.12
578.032	373.12
578.243	378.12
578.454	370.12
578.665	354.12
578.875	342.12
579.086	360.12
579.297	331.12
579.508	332.12
579.718	349.12
579.929	357.12
580.14	338.12
580.35	329.12
580.561	374.12
580.772	395.12
580.982	370.12
581.193	352.12
581.403	359.12
581.614	349.12
581.825	332.12
582.035	351.12
582.246	332.12
582.456	373.12
582.667	359.12
582.877	357.12
583.087	343.12
583.298	335.12
583.508	339.12
583.719	331.12
583.929	336.12
584.139	306.12
584.35	314.12
584.56	321.12
584.77	323.12
584.981	314.12
585.191	317.12
585.401	328.12
585.611	321.12
585.821	336.12
586.032	328.12
586.242	298.12
586.452	323.12
586.662	332.12
586.872	299.12
587.082	296.12
587.292	329.12
587.502	324.12
587.713	316.12
587.923	323.12
588.133	336.12
588.343	321.12
588.553	332.12
588.762	309.12
588.972	312.12
589.182	305.12
589.392	309.12
589.602	332.12
589.812	309.12
590.022	299.12
590.232	296.12
590.441	303.12
590.651	320.12
590.861	309.12
591.071	308.12
591.281	297.12
591.49	323.12
591.7	307.12
591.91	313.12
592.119	315.12
592.329	298.12
592.539	337.12
592.748	319.12
592.958	321.12
593.167	330.12
593.377	326.12
593.587	324.12
593.796	321.12
594.006	335.12
594.215	319.12
594.424	336.12
594.634	343.12
594.843	331.12
595.053	342.12
595.262	345.12
595.472	336.12
595.681	341.12
595.89	315.12
596.1	314.12
596.309	313.12
596.518	338.12
596.727	343.12
596.937	331.12
597.146	315.12
597.355	316.12
597.564	303.12
597.774	290.12
597.983	291.12
598.192	296.12
598.401	279.12
598.61	283.12
598.819	285.12
599.028	301.12
599.237	307.12
599.446	299.12
599.655	285.12
599.864	293.12
600.073	299.12
600.282	305.12
600.491	288.12
600.7	296.12
600.909	292.12
601.118	305.12
601.327	336.12
601.536	330.12
601.745	328.12
601.953	351.12
602.162	359.12
602.371	355.12
602.58	353.12
602.789	332.12
602.997	355.12
603.206	356.12
603.415	333.12
603.623	357.12
603.832	346.12
604.041	323.12
604.249	316.12
604.458	321.12
604.666	323.12
604.875	287.12
605.084	325.12
605.292	326.12
605.501	360.12
605.709	352.12
605.918	360.12
606.126	354.12
606.334	350.12
606.543	356.12
606.751	364.12
606.96	352.12
607.168	361.12
607.376	373.12
607.585	348.12
607.793	359.12
608.001	368.12
608.21	348.12
608.418	356.12
608.626	354.12
608.834	372.12
609.043	371.12
609.251	355.12
609.459	369.12
609.667	354.12
609.875	365.12
610.083	369.12
610.291	383.12
610.499	371.12
610.707	379.12
610.916	368.12
611.124	372.12
611.332	368.12
611.54	381.12
611.748	355.12
611.955	357.12
612.163	360.12
612.371	342.12
612.579	340.12
612.787	352.12
612.995	368.12
613.203	357.12
613.411	367.12
613.618	356.12
613.826	356.12
614.034	347.12
614.242	369.12
614.449	349.12
614.657	351.12
614.865	375.12
615.072	346.12
615.28	365.12
615.488	359.12
615.695	379.12
615.903	366.12
616.111	351.12
616.318	356.12
616.526	361.12
616.733	367.12
616.941	357.12
617.148	341.12
617.356	344.12
617.563	345.12
617.771	351.12
617.978	311.12
618.185	323.12
618.393	369.12
618.6	354.12
618.807	347.12
619.015	355.12
619.222	343.12
619.429	314.12
619.637	308.12
619.844	312.12
620.051	311.12
620.258	322.12
620.466	338.12
620.673	317.12
620.88	327.12
621.087	299.12
621.294	314.12
621.501	292.12
621.708	296.12
621.915	304.12
622.122	328.12
622.329	318.12
622.536	320.12
622.743	311.12
622.95	323.12
623.157	328.12
623.364	340.12
623.571	337.12
623.778	329.12
623.985	324.12
624.192	316.12
624.399	325.12
624.606	316.12
624.812	312.12
625.019	309.12
625.226	283.12
625.433	275.12
625.639	264.12
625.846	270.12
626.053	244.12
626.259	250.12
626.466	265.12
626.673	236.12
626.879	230.12
627.086	265.12
627.293	284.12
627.499	289.12
627.706	294.12
627.912	297.12
628.119	297.12
628.325	313.12
628.532	297.12
628.738	305.12
628.945	288.12
629.151	272.12
629.357	292.12
629.564	295.12
629.77	283.12
629.976	288.12
630.183	262.12
630.389	277.12
630.595	264.12
630.802	277.12
631.008	280.12
631.214	276.12
631.42	279.12
631.627	244.12
631.833	261.12
632.039	268.12
632.245	268.12
632.451	279.12
632.657	250.12
632.863	268.12
633.069	283.12
633.275	265.12
633.481	258.12
633.688	255.12
633.893	260.12
634.099	257.12
634.305	261.12
634.511	237.12
634.717	260.12
634.923	241.12
635.129	256.12
635.335	230.12
635.541	235.12
635.747	234.12
635.952	244.12
636.158	253.12
636.364	263.12
636.57	269.12
636.775	271.12
636.981	268.12
637.187	275.12
637.392	257.12
637.598	273.12
637.804	272.12
638.009	272.12
638.215	258.12
638.421	275.12
638.626	260.12
638.832	255.12
639.037	258.12
639.243	267.12
639.448	257.12
639.654	252.12
639.859	239.12
640.065	250.12
640.27	260.12
640.475	243.12
640.681	257.12
640.886	257.12
641.091	256.12
641.297	266.12
641.502	249.12
641.707	239.12
641.913	242.12
642.118	259.12
642.323	258.12
642.528	245.12
642.733	256.12
642.939	242.12
643.144	253.12
643.349	247.12
643.554	239.12
643.759	254.12
643.964	225.12
644.169	243.12
644.374	230.12
644.579	239.12
644.784	253.12
644.989	257.12
645.194	267.12
645.399	245.12
645.604	236.12
645.809	237.12
646.014	237.12
646.219	243.12
646.423	232.12
646.628	242.12
646.833	253.12
647.038	246.12
647.243	244.12
647.447	224.12
647.652	225.12
647.857	228.12
648.062	234.12
648.266	243.12
648.471	249.12
648.676	236.12
648.88	246.12
649.085	230.12
649.289	235.12
649.494	252.12
649.698	233.12
649.903	253.12
650.107	239.12
650.312	219.12
650.516	246.12
650.721	222.12
650.925	224.12
651.13	226.12
651.334	217.12
651.539	232.12
651.743	214.12
651.947	222.12
652.152	225.12
652.356	232.12
652.56	216.12
652.764	220.12
652.969	201.12
653.173	223.12
653.377	205.12
653.581	200.12
653.785	200.12
653.99	195.12
654.194	199.12
654.398	201.12
654.602	222.12
654.806	198.12
655.01	218.12
655.214	216.12
655.418	194.12
655.622	217.12
655.826	219.12
656.03	220.12
656.234	216.12
656.438	238.12
656.642	231.12
656.846	232.12
657.049	200.12
657.253	192.12
657.457	191.12
657.661	172.12
657.865	179.12
658.068	187.12
658.272	173.12
658.476	150.12
658.68	145.12
658.883	139.12
659.087	143.12
659.291	160.12
659.494	151.12
659.698	128.12
659.901	136.12
660.105	128.12
660.309	125.12
660.512	127.12
660.716	120.12
660.919	116.12
661.123	118.12
661.326	107.12
661.53	98.12
661.733	114.12
661.936	107.12
662.14	95.12
662.343	97.12
662.546	105.12
662.75	101.12
662.953	83.12
663.156	81.12
663.36	100.12
663.563	91.12
663.766	99.12
663.969	99.12
664.173	96.12
664.376	93.12
664.579	84.12
664.782	76.12
664.985	91.12
665.188	82.12
665.391	72.12
665.594	77.12
665.797	71.12
666	86.12
666.203	75.12
666.406	82.12
666.609	71.12
666.812	88.12
667.015	77.12
667.218	79.12
667.421	90.12
667.624	77.12
667.827	89.12
668.03	89.12
668.232	72.12
668.435	80.12
668.638	73.12
668.841	62.12
669.043	66.12
669.246	77.12
669.449	88.12
669.651	81.12
669.854	71.12
670.057	93.12
670.259	92.12
670.462	82.12
670.665	76.12
670.867	83.12
671.07	77.12
671.272	77.12
671.475	91.12
671.677	85.12
671.88	92.12
672.082	64.12
672.284	76.12
672.487	77.12
672.689	73.12
672.892	84.12
