Data from WStandard_LampEnergy10_LIBS07252019.E.O._I.C._HRD10591_15-53-47-928.txt Node
Date: Thu Jul 25 15:53:47 EDT 2019
User: cochatt
Spectrometer: HR+D1059
Trigger mode: 1
Integration Time (sec): 1.000000E-1
Scans to average: 1
Electric dark correction enabled: true
Nonlinearity correction enabled: false
Boxcar width: 0
XAxis mode: Wavelengths
Number of Pixels in Spectrum: 2048
>>>>>Begin Spectral Data<<<<<
223.165	-13.12
223.4	-13.12
223.635	-13.12
223.869	-17.12
224.104	-28.12
224.338	-6.12
224.573	-14.12
224.808	-18.12
225.042	0.88
225.277	-20.12
225.511	0.88
225.746	-2.12
225.98	3.88
226.215	17.88
226.449	17.88
226.683	24.88
226.918	17.88
227.152	34.88
227.387	40.88
227.621	41.88
227.856	35.88
228.09	48.88
228.324	52.88
228.559	49.88
228.793	79.88
229.027	135.88
229.262	141.88
229.496	147.88
229.73	158.88
229.964	164.88
230.199	155.88
230.433	163.88
230.667	177.88
230.901	186.88
231.136	181.88
231.37	171.88
231.604	166.88
231.838	161.88
232.072	194.88
232.306	189.88
232.541	195.88
232.775	200.88
233.009	201.88
233.243	200.88
233.477	200.88
233.711	208.88
233.945	201.88
234.179	189.88
234.413	196.88
234.647	215.88
234.881	214.88
235.115	197.88
235.349	203.88
235.583	203.88
235.817	200.88
236.051	200.88
236.285	201.88
236.519	208.88
236.753	196.88
236.987	230.88
237.221	232.88
237.455	243.88
237.689	226.88
237.922	215.88
238.156	216.88
238.39	231.88
238.624	238.88
238.858	245.88
239.091	235.88
239.325	265.88
239.559	287.88
239.793	293.88
240.027	313.88
240.26	285.88
240.494	245.88
240.728	230.88
240.961	239.88
241.195	251.88
241.429	269.88
241.662	242.88
241.896	237.88
242.13	272.88
242.363	265.88
242.597	265.88
242.83	279.88
243.064	295.88
243.298	272.88
243.531	296.88
243.765	262.88
243.998	276.88
244.232	269.88
244.465	238.88
244.699	259.88
244.932	284.88
245.166	318.88
245.399	298.88
245.633	288.88
245.866	263.88
246.099	297.88
246.333	295.88
246.566	306.88
246.8	337.88
247.033	367.88
247.266	339.88
247.5	317.88
247.733	320.88
247.966	338.88
248.2	353.88
248.433	338.88
248.666	378.88
248.899	399.88
249.133	460.88
249.366	460.88
249.599	402.88
249.832	374.88
250.066	363.88
250.299	375.88
250.532	351.88
250.765	318.88
250.998	333.88
251.231	377.88
251.465	355.88
251.698	362.88
251.931	350.88
252.164	354.88
252.397	366.88
252.63	348.88
252.863	319.88
253.096	327.88
253.329	330.88
253.562	350.88
253.795	367.88
254.028	371.88
254.261	360.88
254.494	343.88
254.727	342.88
254.96	359.88
255.193	378.88
255.426	421.88
255.659	454.88
255.892	454.88
256.124	390.88
256.357	374.88
256.59	420.88
256.823	422.88
257.056	408.88
257.289	488.88
257.521	529.88
257.754	473.88
257.987	450.88
258.22	480.88
258.452	445.88
258.685	400.88
258.918	413.88
259.151	391.88
259.383	378.88
259.616	331.88
259.849	375.88
260.081	410.88
260.314	452.88
260.547	482.88
260.779	468.88
261.012	447.88
261.244	419.88
261.477	413.88
261.71	409.88
261.942	401.88
262.175	421.88
262.407	406.88
262.64	383.88
262.872	390.88
263.105	376.88
263.337	404.88
263.57	365.88
263.802	381.88
264.035	344.88
264.267	339.88
264.499	370.88
264.732	373.88
264.964	411.88
265.197	397.88
265.429	406.88
265.661	458.88
265.894	485.88
266.126	480.88
266.358	471.88
266.591	472.88
266.823	493.88
267.055	465.88
267.287	447.88
267.52	442.88
267.752	444.88
267.984	475.88
268.216	496.88
268.448	474.88
268.681	469.88
268.913	419.88
269.145	411.88
269.377	409.88
269.609	449.88
269.841	505.88
270.073	567.88
270.306	634.88
270.538	608.88
270.77	549.88
271.002	481.88
271.234	477.88
271.466	479.88
271.698	546.88
271.93	607.88
272.162	609.88
272.394	541.88
272.626	490.88
272.858	456.88
273.09	438.88
273.322	423.88
273.553	418.88
273.785	404.88
274.017	451.88
274.249	446.88
274.481	436.88
274.713	416.88
274.945	409.88
275.176	415.88
275.408	414.88
275.64	420.88
275.872	401.88
276.104	459.88
276.335	474.88
276.567	523.88
276.799	544.88
277.031	495.88
277.262	474.88
277.494	500.88
277.726	531.88
277.957	535.88
278.189	478.88
278.421	459.88
278.652	439.88
278.884	424.88
279.115	413.88
279.347	448.88
279.579	437.88
279.81	455.88
280.042	479.88
280.273	520.88
280.505	523.88
280.736	528.88
280.968	479.88
281.199	426.88
281.431	415.88
281.662	439.88
281.894	445.88
282.125	438.88
282.356	454.88
282.588	475.88
282.819	485.88
283.051	515.88
283.282	503.88
283.513	483.88
283.745	473.88
283.976	430.88
284.207	426.88
284.439	439.88
284.67	463.88
284.901	438.88
285.132	434.88
285.364	453.88
285.595	455.88
285.826	472.88
286.057	458.88
286.288	465.88
286.52	466.88
286.751	493.88
286.982	486.88
287.213	459.88
287.444	421.88
287.675	452.88
287.906	471.88
288.138	479.88
288.369	455.88
288.6	448.88
288.831	409.88
289.062	450.88
289.293	442.88
289.524	452.88
289.755	481.88
289.986	464.88
290.217	441.88
290.448	435.88
290.679	464.88
290.91	467.88
291.141	485.88
291.371	487.88
291.602	489.88
291.833	482.88
292.064	493.88
292.295	495.88
292.526	514.88
292.757	504.88
292.987	482.88
293.218	489.88
293.449	532.88
293.68	571.88
293.91	601.88
294.141	562.88
294.372	546.88
294.603	557.88
294.833	541.88
295.064	537.88
295.295	501.88
295.525	467.88
295.756	451.88
295.987	455.88
296.217	442.88
296.448	467.88
296.679	445.88
296.909	458.88
297.14	473.88
297.37	474.88
297.601	505.88
297.831	550.88
298.062	534.88
298.292	494.88
298.523	462.88
298.753	447.88
298.984	468.88
299.214	489.88
299.445	500.88
299.675	519.88
299.905	511.88
300.136	501.88
300.366	461.88
300.597	472.88
300.827	482.88
301.057	473.88
301.288	532.88
301.518	529.88
301.748	529.88
301.979	565.88
302.209	554.88
302.439	579.88
302.669	599.88
302.9	565.88
303.13	513.88
303.36	515.88
303.59	539.88
303.82	500.88
304.051	503.88
304.281	525.88
304.511	541.88
304.741	580.88
304.971	604.88
305.201	608.88
305.431	585.88
305.661	500.88
305.891	439.88
306.121	449.88
306.352	470.88
306.582	513.88
306.812	550.88
307.042	587.88
307.272	595.88
307.502	606.88
307.731	601.88
307.961	647.88
308.191	588.88
308.421	543.88
308.651	490.88
308.881	510.88
309.111	499.88
309.341	502.88
309.571	496.88
309.8	496.88
310.03	491.88
310.26	500.88
310.49	487.88
310.72	525.88
310.949	533.88
311.179	530.88
311.409	523.88
311.639	522.88
311.868	522.88
312.098	510.88
312.328	518.88
312.557	486.88
312.787	523.88
313.017	539.88
313.246	513.88
313.476	530.88
313.706	548.88
313.935	534.88
314.165	523.88
314.394	587.88
314.624	606.88
314.853	618.88
315.083	642.88
315.312	647.88
315.542	571.88
315.771	549.88
316.001	552.88
316.23	585.88
316.46	570.88
316.689	563.88
316.919	525.88
317.148	522.88
317.377	550.88
317.607	578.88
317.836	638.88
318.065	655.88
318.295	606.88
318.524	607.88
318.753	576.88
318.983	578.88
319.212	571.88
319.441	560.88
319.67	564.88
319.9	574.88
320.129	594.88
320.358	631.88
320.587	631.88
320.816	637.88
321.046	641.88
321.275	594.88
321.504	606.88
321.733	618.88
321.962	593.88
322.191	561.88
322.42	555.88
322.649	568.88
322.878	558.88
323.108	562.88
323.337	593.88
323.566	597.88
323.795	584.88
324.024	566.88
324.253	577.88
324.482	568.88
324.71	568.88
324.939	553.88
325.168	551.88
325.397	565.88
325.626	592.88
325.855	575.88
326.084	578.88
326.313	568.88
326.542	585.88
326.77	579.88
326.999	596.88
327.228	544.88
327.457	536.88
327.686	543.88
327.914	529.88
328.143	569.88
328.372	548.88
328.6	575.88
328.829	553.88
329.058	539.88
329.287	555.88
329.515	577.88
329.744	608.88
329.972	638.88
330.201	615.88
330.43	605.88
330.658	601.88
330.887	582.88
331.115	589.88
331.344	584.88
331.572	601.88
331.801	581.88
332.03	576.88
332.258	624.88
332.486	625.88
332.715	597.88
332.943	613.88
333.172	618.88
333.4	611.88
333.629	617.88
333.857	674.88
334.085	754.88
334.314	817.88
334.542	854.88
334.771	794.88
334.999	697.88
335.227	641.88
335.455	646.88
335.684	650.88
335.912	661.88
336.14	682.88
336.369	616.88
336.597	616.88
336.825	591.88
337.053	655.88
337.281	681.88
337.51	707.88
337.738	709.88
337.966	651.88
338.194	592.88
338.422	616.88
338.65	578.88
338.878	576.88
339.106	586.88
339.334	583.88
339.562	559.88
339.79	592.88
340.018	635.88
340.246	656.88
340.474	637.88
340.702	638.88
340.93	626.88
341.158	633.88
341.386	605.88
341.614	610.88
341.842	619.88
342.07	596.88
342.298	596.88
342.526	604.88
342.754	607.88
342.981	615.88
343.209	590.88
343.437	579.88
343.665	589.88
343.893	619.88
344.12	642.88
344.348	618.88
344.576	611.88
344.804	601.88
345.031	595.88
345.259	610.88
345.487	577.88
345.714	545.88
345.942	576.88
346.17	574.88
346.397	582.88
346.625	579.88
346.853	539.88
347.08	545.88
347.308	569.88
347.535	586.88
347.763	600.88
347.99	580.88
348.218	547.88
348.445	551.88
348.673	577.88
348.9	603.88
349.128	628.88
349.355	623.88
349.583	590.88
349.81	571.88
350.037	532.88
350.265	522.88
350.492	557.88
350.72	544.88
350.947	595.88
351.174	594.88
351.402	559.88
351.629	554.88
351.856	525.88
352.083	532.88
352.311	571.88
352.538	555.88
352.765	585.88
352.992	594.88
353.22	573.88
353.447	539.88
353.674	558.88
353.901	569.88
354.128	565.88
354.355	582.88
354.583	589.88
354.81	613.88
355.037	590.88
355.264	595.88
355.491	577.88
355.718	575.88
355.945	560.88
356.172	558.88
356.399	561.88
356.626	548.88
356.853	577.88
357.08	643.88
357.307	702.88
357.534	660.88
357.761	587.88
357.988	550.88
358.215	555.88
358.441	551.88
358.668	566.88
358.895	570.88
359.122	603.88
359.349	646.88
359.576	609.88
359.802	571.88
360.029	570.88
360.256	548.88
360.483	570.88
360.709	602.88
360.936	616.88
361.163	647.88
361.39	693.88
361.616	727.88
361.843	729.88
362.07	660.88
362.296	591.88
362.523	582.88
362.749	565.88
362.976	591.88
363.203	584.88
363.429	573.88
363.656	570.88
363.882	598.88
364.109	679.88
364.335	683.88
364.562	655.88
364.788	599.88
365.015	591.88
365.241	577.88
365.468	595.88
365.694	626.88
365.92	620.88
366.147	601.88
366.373	584.88
366.599	564.88
366.826	559.88
367.052	576.88
367.278	574.88
367.505	592.88
367.731	611.88
367.957	614.88
368.184	671.88
368.41	670.88
368.636	663.88
368.862	669.88
369.089	669.88
369.315	658.88
369.541	634.88
369.767	590.88
369.993	563.88
370.219	594.88
370.445	603.88
370.672	663.88
370.898	667.88
371.124	658.88
371.35	651.88
371.576	662.88
371.802	654.88
372.028	621.88
372.254	624.88
372.48	607.88
372.706	598.88
372.932	607.88
373.158	613.88
373.384	650.88
373.61	658.88
373.835	670.88
374.061	655.88
374.287	629.88
374.513	633.88
374.739	648.88
374.965	663.88
375.191	669.88
375.416	639.88
375.642	659.88
375.868	707.88
376.094	719.88
376.319	699.88
376.545	655.88
376.771	683.88
376.997	688.88
377.222	663.88
377.448	665.88
377.674	696.88
377.899	726.88
378.125	723.88
378.35	693.88
378.576	632.88
378.802	631.88
379.027	633.88
379.253	677.88
379.478	634.88
379.704	661.88
379.929	633.88
380.155	658.88
380.38	661.88
380.606	661.88
380.831	666.88
381.057	711.88
381.282	681.88
381.507	710.88
381.733	769.88
381.958	757.88
382.184	685.88
382.409	698.88
382.634	667.88
382.86	680.88
383.085	705.88
383.31	715.88
383.535	790.88
383.761	817.88
383.986	797.88
384.211	748.88
384.436	737.88
384.662	769.88
384.887	792.88
385.112	743.88
385.337	733.88
385.562	720.88
385.787	733.88
386.013	780.88
386.238	778.88
386.463	783.88
386.688	827.88
386.913	868.88
387.138	836.88
387.363	789.88
387.588	778.88
387.813	775.88
388.038	816.88
388.263	825.88
388.488	786.88
388.713	731.88
388.938	736.88
389.163	744.88
389.387	731.88
389.612	767.88
389.837	738.88
390.062	753.88
390.287	743.88
390.512	765.88
390.736	723.88
390.961	733.88
391.186	721.88
391.411	730.88
391.636	732.88
391.86	747.88
392.085	766.88
392.31	737.88
392.534	777.88
392.759	770.88
392.984	777.88
393.208	786.88
393.433	805.88
393.658	834.88
393.882	811.88
394.107	809.88
394.331	767.88
394.556	779.88
394.78	783.88
395.005	826.88
395.229	853.88
395.454	887.88
395.678	858.88
395.903	821.88
396.127	837.88
396.352	864.88
396.576	866.88
396.801	866.88
397.025	854.88
397.249	843.88
397.474	876.88
397.698	857.88
397.922	857.88
398.147	897.88
398.371	936.88
398.595	909.88
398.82	898.88
399.044	904.88
399.268	955.88
399.492	980.88
399.717	991.88
399.941	1008.88
400.165	975.88
400.389	983.88
400.613	980.88
400.837	1125.88
401.062	1200.88
401.286	1027.88
401.51	995.88
401.734	994.88
401.958	998.88
402.182	923.88
402.406	888.88
402.63	895.88
402.854	901.88
403.078	922.88
403.302	910.88
403.526	944.88
403.75	945.88
403.974	964.88
404.198	961.88
404.422	989.88
404.645	1027.88
404.869	968.88
405.093	929.88
405.317	909.88
405.541	928.88
405.765	954.88
405.988	947.88
406.212	964.88
406.436	996.88
406.66	1006.88
406.883	1052.88
407.107	1162.88
407.331	1235.88
407.555	1297.88
407.778	1133.88
408.002	990.88
408.226	994.88
408.449	974.88
408.673	947.88
408.896	984.88
409.12	952.88
409.344	954.88
409.567	945.88
409.791	956.88
410.014	990.88
410.238	1023.88
410.461	1063.88
410.685	960.88
410.908	945.88
411.132	953.88
411.355	945.88
411.578	934.88
411.802	945.88
412.025	953.88
412.249	939.88
412.472	912.88
412.695	925.88
412.919	913.88
413.142	927.88
413.365	954.88
413.589	990.88
413.812	1023.88
414.035	1009.88
414.258	945.88
414.482	915.88
414.705	937.88
414.928	923.88
415.151	914.88
415.374	957.88
415.597	934.88
415.821	929.88
416.044	964.88
416.267	946.88
416.49	897.88
416.713	911.88
416.936	957.88
417.159	982.88
417.382	988.88
417.605	940.88
417.828	939.88
418.051	950.88
418.274	961.88
418.497	941.88
418.72	930.88
418.943	930.88
419.166	989.88
419.389	979.88
419.611	963.88
419.834	951.88
420.057	924.88
420.28	907.88
420.503	936.88
420.726	941.88
420.948	943.88
421.171	916.88
421.394	963.88
421.617	985.88
421.839	973.88
422.062	961.88
422.285	961.88
422.507	945.88
422.73	950.88
422.953	905.88
423.175	885.88
423.398	915.88
423.621	916.88
423.843	926.88
424.066	978.88
424.288	1010.88
424.511	1065.88
424.733	1021.88
424.956	931.88
425.178	936.88
425.401	960.88
425.623	956.88
425.846	960.88
426.068	979.88
426.291	1006.88
426.513	934.88
426.735	967.88
426.958	1074.88
427.18	1097.88
427.402	977.88
427.625	1031.88
427.847	1020.88
428.069	951.88
428.292	919.88
428.514	916.88
428.736	935.88
428.958	936.88
429.181	941.88
429.403	1076.88
429.625	1250.88
429.847	1087.88
430.069	977.88
430.292	1053.88
430.514	1062.88
430.736	1028.88
430.958	988.88
431.18	946.88
431.402	867.88
431.624	872.88
431.846	804.88
432.068	713.88
432.29	716.88
432.512	818.88
432.734	896.88
432.956	930.88
433.178	966.88
433.4	979.88
433.622	955.88
433.844	911.88
434.066	868.88
434.287	819.88
434.509	819.88
434.731	817.88
434.953	913.88
435.175	923.88
435.397	902.88
435.618	902.88
435.84	865.88
436.062	838.88
436.284	932.88
436.505	939.88
436.727	961.88
436.949	913.88
437.17	926.88
437.392	881.88
437.614	858.88
437.835	800.88
438.057	824.88
438.278	872.88
438.5	879.88
438.721	914.88
438.943	935.88
439.165	941.88
439.386	951.88
439.608	955.88
439.829	955.88
440.05	948.88
440.272	969.88
440.493	974.88
440.715	1008.88
440.936	1060.88
441.158	1095.88
441.379	1047.88
441.6	1063.88
441.822	1027.88
442.043	1015.88
442.264	1001.88
442.486	976.88
442.707	970.88
442.928	955.88
443.149	981.88
443.371	1022.88
443.592	1036.88
443.813	1021.88
444.034	1035.88
444.255	1016.88
444.476	1030.88
444.698	1057.88
444.919	1047.88
445.14	1115.88
445.361	1108.88
445.582	1084.88
445.803	1067.88
446.024	1080.88
446.245	1074.88
446.466	1083.88
446.687	1041.88
446.908	1061.88
447.129	1022.88
447.35	1037.88
447.571	999.88
447.792	965.88
448.013	979.88
448.234	986.88
448.455	997.88
448.675	1014.88
448.896	919.88
449.117	925.88
449.338	923.88
449.559	950.88
449.779	978.88
450	1042.88
450.221	1034.88
450.442	1030.88
450.662	954.88
450.883	876.88
451.104	853.88
451.324	881.88
451.545	903.88
451.766	879.88
451.986	861.88
452.207	845.88
452.428	787.88
452.648	802.88
452.869	814.88
453.089	798.88
453.31	799.88
453.53	792.88
453.751	735.88
453.971	706.88
454.192	730.88
454.412	789.88
454.633	807.88
454.853	815.88
455.073	786.88
455.294	809.88
455.514	774.88
455.734	799.88
455.955	779.88
456.175	738.88
456.395	737.88
456.616	751.88
456.836	753.88
457.056	725.88
457.276	749.88
457.497	727.88
457.717	693.88
457.937	718.88
458.157	712.88
458.377	699.88
458.598	678.88
458.818	689.88
459.038	709.88
459.258	712.88
459.478	714.88
459.698	724.88
459.918	757.88
460.138	807.88
460.358	819.88
460.578	833.88
460.798	879.88
461.018	887.88
461.238	887.88
461.458	882.88
461.678	843.88
461.898	826.88
462.118	820.88
462.338	862.88
462.558	842.88
462.777	850.88
462.997	856.88
463.217	900.88
463.437	881.88
463.657	865.88
463.876	848.88
464.096	841.88
464.316	852.88
464.536	849.88
464.755	918.88
464.975	890.88
465.195	886.88
465.414	898.88
465.634	885.88
465.854	898.88
466.073	994.88
466.293	973.88
466.512	868.88
466.732	895.88
466.951	923.88
467.171	899.88
467.391	908.88
467.61	867.88
467.829	893.88
468.049	1007.88
468.268	1070.88
468.488	983.88
468.707	929.88
468.927	920.88
469.146	901.88
469.365	901.88
469.585	937.88
469.804	921.88
470.023	963.88
470.243	957.88
470.462	929.88
470.681	940.88
470.901	944.88
471.12	937.88
471.339	963.88
471.558	941.88
471.777	901.88
471.997	910.88
472.216	871.88
472.435	797.88
472.654	767.88
472.873	799.88
473.092	843.88
473.311	817.88
473.53	835.88
473.749	850.88
473.968	848.88
474.187	878.88
474.406	855.88
474.625	864.88
474.844	885.88
475.063	907.88
475.282	880.88
475.501	816.88
475.72	824.88
475.939	927.88
476.158	895.88
476.377	891.88
476.596	875.88
476.814	848.88
477.033	832.88
477.252	838.88
477.471	898.88
477.69	922.88
477.908	959.88
478.127	986.88
478.346	1041.88
478.564	1009.88
478.783	1031.88
479.002	1034.88
479.22	1006.88
479.439	1035.88
479.658	1058.88
479.876	1030.88
480.095	920.88
480.313	908.88
480.532	878.88
480.751	882.88
480.969	846.88
481.188	801.88
481.406	793.88
481.624	788.88
481.843	797.88
482.061	836.88
482.28	905.88
482.498	894.88
482.717	845.88
482.935	874.88
483.153	1000.88
483.372	1033.88
483.59	1043.88
483.808	1016.88
484.027	993.88
484.245	1008.88
484.463	1217.88
484.681	1337.88
484.9	1045.88
485.118	999.88
485.336	944.88
485.554	897.88
485.772	912.88
485.99	896.88
486.209	931.88
486.427	936.88
486.645	968.88
486.863	1008.88
487.081	1054.88
487.299	1012.88
487.517	1034.88
487.735	1121.88
487.953	1209.88
488.171	1173.88
488.389	1154.88
488.607	1128.88
488.825	1175.88
489.043	1077.88
489.261	998.88
489.479	1034.88
489.696	1110.88
489.914	1045.88
490.132	1028.88
490.35	1099.88
490.568	1189.88
490.786	1186.88
491.003	1204.88
491.221	1273.88
491.439	1321.88
491.657	1335.88
491.874	1387.88
492.092	1440.88
492.31	1509.88
492.527	1483.88
492.745	1385.88
492.963	1320.88
493.18	1339.88
493.398	1357.88
493.615	1341.88
493.833	1281.88
494.05	1282.88
494.268	1242.88
494.485	1265.88
494.703	1246.88
494.92	1216.88
495.138	1246.88
495.355	1208.88
495.573	1235.88
495.79	1285.88
496.008	1313.88
496.225	1219.88
496.442	1270.88
496.66	1258.88
496.877	1216.88
497.094	1241.88
497.312	1246.88
497.529	1213.88
497.746	1233.88
497.963	1284.88
498.181	1333.88
498.398	1261.88
498.615	1256.88
498.832	1143.88
499.049	1153.88
499.267	1171.88
499.484	1261.88
499.701	1358.88
499.918	1391.88
500.135	1523.88
500.352	1591.88
500.569	1585.88
500.786	1754.88
501.003	1578.88
501.22	1451.88
501.437	1442.88
501.654	1436.88
501.871	1389.88
502.088	1219.88
502.305	1207.88
502.522	1155.88
502.739	1127.88
502.956	1044.88
503.172	1073.88
503.389	1030.88
503.606	1015.88
503.823	1009.88
504.04	990.88
504.256	1013.88
504.473	1002.88
504.69	1047.88
504.907	1018.88
505.123	975.88
505.34	1081.88
505.557	1391.88
505.773	1176.88
505.99	963.88
506.207	905.88
506.423	900.88
506.64	905.88
506.856	922.88
507.073	1075.88
507.289	1091.88
507.506	1039.88
507.722	915.88
507.939	878.88
508.155	869.88
508.372	855.88
508.588	832.88
508.805	803.88
509.021	807.88
509.238	792.88
509.454	775.88
509.67	769.88
509.887	727.88
510.103	725.88
510.319	768.88
510.536	786.88
510.752	798.88
510.968	769.88
511.184	830.88
511.401	794.88
511.617	712.88
511.833	699.88
512.049	713.88
512.265	720.88
512.481	744.88
512.698	743.88
512.914	752.88
513.13	755.88
513.346	712.88
513.562	704.88
513.778	709.88
513.994	782.88
514.21	757.88
514.426	798.88
514.642	809.88
514.858	801.88
515.074	734.88
515.29	731.88
515.506	746.88
515.721	746.88
515.937	750.88
516.153	810.88
516.369	814.88
516.585	746.88
516.801	737.88
517.016	751.88
517.232	752.88
517.448	789.88
517.664	795.88
517.879	798.88
518.095	823.88
518.311	794.88
518.527	782.88
518.742	753.88
518.958	773.88
519.173	759.88
519.389	779.88
519.605	808.88
519.82	818.88
520.036	769.88
520.251	790.88
520.467	808.88
520.682	817.88
520.898	799.88
521.113	750.88
521.329	734.88
521.544	788.88
521.76	707.88
521.975	703.88
522.19	721.88
522.406	758.88
522.621	941.88
522.836	872.88
523.052	744.88
523.267	729.88
523.482	739.88
523.698	743.88
523.913	735.88
524.128	782.88
524.343	823.88
524.559	841.88
524.774	777.88
524.989	776.88
525.204	788.88
525.419	767.88
525.634	761.88
525.849	707.88
526.064	738.88
526.28	702.88
526.495	659.88
526.71	658.88
526.925	643.88
527.14	622.88
527.355	623.88
527.57	641.88
527.785	676.88
527.999	673.88
528.214	677.88
528.429	711.88
528.644	730.88
528.859	801.88
529.074	837.88
529.289	889.88
529.503	882.88
529.718	828.88
529.933	726.88
530.148	678.88
530.363	661.88
530.577	645.88
530.792	657.88
531.007	627.88
531.221	617.88
531.436	636.88
531.651	654.88
531.865	692.88
532.08	660.88
532.295	639.88
532.509	612.88
532.724	621.88
532.938	659.88
533.153	704.88
533.367	734.88
533.582	734.88
533.796	735.88
534.011	721.88
534.225	666.88
534.44	647.88
534.654	630.88
534.868	669.88
535.083	705.88
535.297	721.88
535.511	677.88
535.726	699.88
535.94	698.88
536.154	657.88
536.369	615.88
536.583	635.88
536.797	586.88
537.011	623.88
537.225	605.88
537.44	611.88
537.654	655.88
537.868	641.88
538.082	595.88
538.296	614.88
538.51	659.88
538.724	695.88
538.938	694.88
539.153	758.88
539.367	739.88
539.581	708.88
539.795	673.88
540.009	642.88
540.222	637.88
540.436	662.88
540.65	771.88
540.864	794.88
541.078	828.88
541.292	838.88
541.506	929.88
541.72	958.88
541.934	1043.88
542.147	1082.88
542.361	1033.88
542.575	949.88
542.789	862.88
543.002	754.88
543.216	732.88
543.43	780.88
543.644	840.88
543.857	895.88
544.071	913.88
544.285	937.88
544.498	949.88
544.712	952.88
544.925	961.88
545.139	977.88
545.352	956.88
545.566	965.88
545.779	943.88
545.993	973.88
546.206	987.88
546.42	979.88
546.633	930.88
546.847	960.88
547.06	961.88
547.274	983.88
547.487	981.88
547.7	1007.88
547.914	987.88
548.127	977.88
548.34	954.88
548.554	943.88
548.767	944.88
548.98	964.88
549.193	943.88
549.407	980.88
549.62	1009.88
549.833	909.88
550.046	927.88
550.259	943.88
550.473	883.88
550.686	878.88
550.899	894.88
551.112	826.88
551.325	838.88
551.538	829.88
551.751	892.88
551.964	741.88
552.177	741.88
552.39	790.88
552.603	856.88
552.816	905.88
553.029	913.88
553.242	905.88
553.455	936.88
553.667	914.88
553.88	882.88
554.093	888.88
554.306	862.88
554.519	853.88
554.732	851.88
554.944	850.88
555.157	810.88
555.37	800.88
555.583	830.88
555.795	769.88
556.008	753.88
556.221	752.88
556.433	719.88
556.646	715.88
556.859	736.88
557.071	750.88
557.284	747.88
557.496	744.88
557.709	769.88
557.921	743.88
558.134	749.88
558.346	740.88
558.559	735.88
558.771	731.88
558.984	702.88
559.196	669.88
559.409	691.88
559.621	679.88
559.833	678.88
560.046	662.88
560.258	677.88
560.47	689.88
560.683	710.88
560.895	670.88
561.107	694.88
561.32	693.88
561.532	693.88
561.744	675.88
561.956	689.88
562.168	667.88
562.381	669.88
562.593	643.88
562.805	647.88
563.017	626.88
563.229	647.88
563.441	630.88
563.653	621.88
563.865	620.88
564.077	626.88
564.289	622.88
564.501	630.88
564.713	618.88
564.925	643.88
565.137	659.88
565.349	650.88
565.561	644.88
565.773	642.88
565.985	637.88
566.197	640.88
566.408	665.88
566.62	695.88
566.832	691.88
567.044	674.88
567.255	648.88
567.467	661.88
567.679	666.88
567.891	654.88
568.102	631.88
568.314	604.88
568.526	565.88
568.737	522.88
568.949	508.88
569.161	477.88
569.372	473.88
569.584	462.88
569.795	469.88
570.007	439.88
570.218	445.88
570.43	450.88
570.641	466.88
570.853	471.88
571.064	508.88
571.276	471.88
571.487	489.88
571.698	466.88
571.91	460.88
572.121	471.88
572.333	457.88
572.544	460.88
572.755	416.88
572.966	405.88
573.178	373.88
573.389	393.88
573.6	409.88
573.811	449.88
574.023	400.88
574.234	383.88
574.445	406.88
574.656	386.88
574.867	393.88
575.078	439.88
575.289	394.88
575.501	406.88
575.712	374.88
575.923	406.88
576.134	413.88
576.345	394.88
576.556	420.88
576.767	395.88
576.978	391.88
577.188	403.88
577.399	373.88
577.61	372.88
577.821	381.88
578.032	375.88
578.243	373.88
578.454	386.88
578.665	368.88
578.875	335.88
579.086	346.88
579.297	345.88
579.508	353.88
579.718	330.88
579.929	352.88
580.14	326.88
580.35	352.88
580.561	343.88
580.772	380.88
580.982	365.88
581.193	348.88
581.403	347.88
581.614	347.88
581.825	352.88
582.035	331.88
582.246	345.88
582.456	360.88
582.667	345.88
582.877	349.88
583.087	351.88
583.298	339.88
583.508	338.88
583.719	337.88
583.929	326.88
584.139	320.88
584.35	320.88
584.56	323.88
584.77	328.88
584.981	319.88
585.191	333.88
585.401	365.88
585.611	318.88
585.821	351.88
586.032	312.88
586.242	322.88
586.452	327.88
586.662	331.88
586.872	316.88
587.082	305.88
587.292	323.88
587.502	314.88
587.713	335.88
587.923	294.88
588.133	313.88
588.343	313.88
588.553	314.88
588.762	311.88
588.972	313.88
589.182	324.88
589.392	320.88
589.602	313.88
589.812	310.88
590.022	321.88
590.232	292.88
590.441	313.88
590.651	322.88
590.861	303.88
591.071	297.88
591.281	323.88
591.49	314.88
591.7	314.88
591.91	312.88
592.119	310.88
592.329	317.88
592.539	329.88
592.748	319.88
592.958	337.88
593.167	328.88
593.377	331.88
593.587	339.88
593.796	317.88
594.006	330.88
594.215	328.88
594.424	352.88
594.634	313.88
594.843	328.88
595.053	349.88
595.262	333.88
595.472	336.88
595.681	314.88
595.89	306.88
596.1	312.88
596.309	339.88
596.518	345.88
596.727	321.88
596.937	326.88
597.146	313.88
597.355	305.88
597.564	325.88
597.774	305.88
597.983	298.88
598.192	267.88
598.401	279.88
598.61	296.88
598.819	303.88
599.028	289.88
599.237	312.88
599.446	309.88
599.655	288.88
599.864	282.88
600.073	271.88
600.282	297.88
600.491	287.88
600.7	298.88
600.909	297.88
601.118	314.88
601.327	335.88
601.536	355.88
601.745	352.88
601.953	343.88
602.162	338.88
602.371	345.88
602.58	334.88
602.789	357.88
602.997	361.88
603.206	369.88
603.415	346.88
603.623	365.88
603.832	373.88
604.041	335.88
604.249	313.88
604.458	313.88
604.666	292.88
604.875	298.88
605.084	283.88
605.292	327.88
605.501	345.88
605.709	369.88
605.918	365.88
606.126	382.88
606.334	372.88
606.543	369.88
606.751	370.88
606.96	375.88
607.168	354.88
607.376	373.88
607.585	348.88
607.793	369.88
608.001	351.88
608.21	352.88
608.418	362.88
608.626	360.88
608.834	354.88
609.043	361.88
609.251	375.88
609.459	371.88
609.667	362.88
609.875	374.88
610.083	377.88
610.291	374.88
610.499	381.88
610.707	359.88
610.916	365.88
611.124	376.88
611.332	370.88
611.54	361.88
611.748	374.88
611.955	365.88
612.163	365.88
612.371	365.88
612.579	353.88
612.787	343.88
612.995	367.88
613.203	368.88
613.411	360.88
613.618	360.88
613.826	377.88
614.034	356.88
614.242	357.88
614.449	370.88
614.657	382.88
614.865	370.88
615.072	346.88
615.28	360.88
615.488	373.88
615.695	348.88
615.903	357.88
616.111	351.88
616.318	374.88
616.526	356.88
616.733	366.88
616.941	365.88
617.148	370.88
617.356	342.88
617.563	347.88
617.771	322.88
617.978	328.88
618.185	344.88
618.393	359.88
618.6	353.88
618.807	357.88
619.015	346.88
619.222	350.88
619.429	342.88
619.637	302.88
619.844	287.88
620.051	305.88
620.258	312.88
620.466	347.88
620.673	347.88
620.88	331.88
621.087	327.88
621.294	314.88
621.501	301.88
621.708	276.88
621.915	315.88
622.122	320.88
622.329	338.88
622.536	331.88
622.743	330.88
622.95	323.88
623.157	317.88
623.364	331.88
623.571	331.88
623.778	332.88
623.985	336.88
624.192	317.88
624.399	325.88
624.606	312.88
624.812	322.88
625.019	303.88
625.226	311.88
625.433	306.88
625.639	302.88
625.846	258.88
626.053	274.88
626.259	249.88
626.466	257.88
626.673	228.88
626.879	248.88
627.086	275.88
627.293	272.88
627.499	286.88
627.706	299.88
627.912	282.88
628.119	307.88
628.325	287.88
628.532	289.88
628.738	295.88
628.945	291.88
629.151	279.88
629.357	280.88
629.564	268.88
629.77	266.88
629.976	270.88
630.183	271.88
630.389	258.88
630.595	263.88
630.802	288.88
631.008	279.88
631.214	290.88
631.42	270.88
631.627	266.88
631.833	263.88
632.039	267.88
632.245	265.88
632.451	277.88
632.657	260.88
632.863	267.88
633.069	260.88
633.275	277.88
633.481	263.88
633.688	247.88
633.893	263.88
634.099	246.88
634.305	261.88
634.511	258.88
634.717	239.88
634.923	247.88
635.129	238.88
635.335	246.88
635.541	245.88
635.747	237.88
635.952	244.88
636.158	261.88
636.364	264.88
636.57	264.88
636.775	256.88
636.981	273.88
637.187	270.88
637.392	263.88
637.598	282.88
637.804	250.88
638.009	255.88
638.215	256.88
638.421	271.88
638.626	262.88
638.832	267.88
639.037	237.88
639.243	239.88
639.448	250.88
639.654	234.88
639.859	245.88
640.065	234.88
640.27	247.88
640.475	257.88
640.681	258.88
640.886	248.88
641.091	253.88
641.297	257.88
641.502	239.88
641.707	241.88
641.913	246.88
642.118	253.88
642.323	248.88
642.528	260.88
642.733	233.88
642.939	242.88
643.144	245.88
643.349	248.88
643.554	246.88
643.759	250.88
643.964	238.88
644.169	249.88
644.374	238.88
644.579	254.88
644.784	239.88
644.989	233.88
645.194	246.88
645.399	239.88
645.604	240.88
645.809	255.88
646.014	252.88
646.219	242.88
646.423	228.88
646.628	239.88
646.833	224.88
647.038	237.88
647.243	241.88
647.447	226.88
647.652	241.88
647.857	248.88
648.062	238.88
648.266	257.88
648.471	253.88
648.676	252.88
648.88	242.88
649.085	254.88
649.289	238.88
649.494	245.88
649.698	233.88
649.903	245.88
650.107	246.88
650.312	234.88
650.516	224.88
650.721	222.88
650.925	224.88
651.13	231.88
651.334	234.88
651.539	229.88
651.743	238.88
651.947	240.88
652.152	213.88
652.356	213.88
652.56	215.88
652.764	221.88
652.969	215.88
653.173	212.88
653.377	218.88
653.581	217.88
653.785	205.88
653.99	198.88
654.194	211.88
654.398	193.88
654.602	201.88
654.806	180.88
655.01	186.88
655.214	201.88
655.418	206.88
655.622	194.88
655.826	216.88
656.03	205.88
656.234	222.88
656.438	217.88
656.642	233.88
656.846	224.88
657.049	214.88
657.253	191.88
657.457	180.88
657.661	180.88
657.865	159.88
658.068	157.88
658.272	157.88
658.476	160.88
658.68	137.88
658.883	160.88
659.087	147.88
659.291	143.88
659.494	144.88
659.698	125.88
659.901	136.88
660.105	121.88
660.309	119.88
660.512	126.88
660.716	120.88
660.919	111.88
661.123	129.88
661.326	123.88
661.53	118.88
661.733	94.88
661.936	99.88
662.14	93.88
662.343	103.88
662.546	97.88
662.75	102.88
662.953	94.88
663.156	85.88
663.36	75.88
663.563	67.88
663.766	91.88
663.969	104.88
664.173	91.88
664.376	80.88
664.579	95.88
664.782	78.88
664.985	89.88
665.188	83.88
665.391	93.88
665.594	83.88
665.797	87.88
666	83.88
666.203	77.88
666.406	83.88
666.609	96.88
666.812	63.88
667.015	83.88
667.218	86.88
667.421	74.88
667.624	88.88
667.827	75.88
668.03	81.88
668.232	73.88
668.435	99.88
668.638	72.88
668.841	73.88
669.043	81.88
669.246	73.88
669.449	58.88
669.651	81.88
669.854	93.88
670.057	81.88
670.259	82.88
670.462	83.88
670.665	78.88
670.867	74.88
671.07	78.88
671.272	72.88
671.475	82.88
671.677	81.88
671.88	87.88
672.082	75.88
672.284	87.88
672.487	79.88
672.689	83.88
672.892	82.88
