Data from WStandard_LampEnergy10_LIBS07252019.E.O._I.C._HRD10591_15-55-35-928.txt Node
Date: Thu Jul 25 15:55:35 EDT 2019
User: cochatt
Spectrometer: HR+D1059
Trigger mode: 1
Integration Time (sec): 1.000000E-1
Scans to average: 1
Electric dark correction enabled: true
Nonlinearity correction enabled: false
Boxcar width: 0
XAxis mode: Wavelengths
Number of Pixels in Spectrum: 2048
>>>>>Begin Spectral Data<<<<<
223.165	-21.25
223.4	-21.25
223.635	-21.25
223.869	-23.25
224.104	-24.25
224.338	-7.25
224.573	-13.25
224.808	-14.25
225.042	-6.25
225.277	1.75
225.511	-3.25
225.746	6.75
225.98	7.75
226.215	22.75
226.449	10.75
226.683	14.75
226.918	29.75
227.152	18.75
227.387	19.75
227.621	39.75
227.856	38.75
228.09	29.75
228.324	40.75
228.559	41.75
228.793	75.75
229.027	131.75
229.262	131.75
229.496	134.75
229.73	154.75
229.964	153.75
230.199	167.75
230.433	187.75
230.667	179.75
230.901	189.75
231.136	172.75
231.37	156.75
231.604	174.75
231.838	178.75
232.072	157.75
232.306	166.75
232.541	173.75
232.775	199.75
233.009	202.75
233.243	208.75
233.477	196.75
233.711	181.75
233.945	196.75
234.179	185.75
234.413	187.75
234.647	208.75
234.881	183.75
235.115	188.75
235.349	191.75
235.583	194.75
235.817	203.75
236.051	190.75
236.285	181.75
236.519	191.75
236.753	201.75
236.987	232.75
237.221	205.75
237.455	215.75
237.689	205.75
237.922	211.75
238.156	197.75
238.39	222.75
238.624	213.75
238.858	238.75
239.091	228.75
239.325	261.75
239.559	282.75
239.793	303.75
240.027	306.75
240.26	286.75
240.494	227.75
240.728	231.75
240.961	218.75
241.195	233.75
241.429	239.75
241.662	255.75
241.896	246.75
242.13	254.75
242.363	266.75
242.597	259.75
242.83	268.75
243.064	275.75
243.298	269.75
243.531	269.75
243.765	277.75
243.998	281.75
244.232	256.75
244.465	247.75
244.699	254.75
244.932	276.75
245.166	303.75
245.399	281.75
245.633	259.75
245.866	278.75
246.099	293.75
246.333	272.75
246.566	287.75
246.8	324.75
247.033	332.75
247.266	311.75
247.5	290.75
247.733	316.75
247.966	324.75
248.2	339.75
248.433	350.75
248.666	333.75
248.899	374.75
249.133	406.75
249.366	453.75
249.599	387.75
249.832	350.75
250.066	341.75
250.299	351.75
250.532	329.75
250.765	316.75
250.998	331.75
251.231	331.75
251.465	353.75
251.698	327.75
251.931	345.75
252.164	334.75
252.397	357.75
252.63	349.75
252.863	320.75
253.096	337.75
253.329	332.75
253.562	337.75
253.795	343.75
254.028	327.75
254.261	306.75
254.494	325.75
254.727	333.75
254.96	329.75
255.193	367.75
255.426	411.75
255.659	440.75
255.892	425.75
256.124	401.75
256.357	371.75
256.59	380.75
256.823	407.75
257.056	426.75
257.289	472.75
257.521	517.75
257.754	441.75
257.987	429.75
258.22	439.75
258.452	440.75
258.685	391.75
258.918	366.75
259.151	366.75
259.383	370.75
259.616	344.75
259.849	338.75
260.081	401.75
260.314	452.75
260.547	471.75
260.779	469.75
261.012	425.75
261.244	369.75
261.477	400.75
261.71	389.75
261.942	378.75
262.175	387.75
262.407	401.75
262.64	369.75
262.872	360.75
263.105	351.75
263.337	359.75
263.57	365.75
263.802	369.75
264.035	328.75
264.267	325.75
264.499	337.75
264.732	357.75
264.964	389.75
265.197	397.75
265.429	401.75
265.661	451.75
265.894	459.75
266.126	487.75
266.358	455.75
266.591	463.75
266.823	458.75
267.055	443.75
267.287	422.75
267.52	421.75
267.752	434.75
267.984	444.75
268.216	449.75
268.448	467.75
268.681	463.75
268.913	441.75
269.145	408.75
269.377	413.75
269.609	415.75
269.841	490.75
270.073	576.75
270.306	594.75
270.538	600.75
270.77	532.75
271.002	471.75
271.234	434.75
271.466	463.75
271.698	515.75
271.93	581.75
272.162	573.75
272.394	511.75
272.626	484.75
272.858	465.75
273.09	385.75
273.322	388.75
273.553	373.75
273.785	395.75
274.017	396.75
274.249	433.75
274.481	429.75
274.713	393.75
274.945	408.75
275.176	414.75
275.408	384.75
275.64	375.75
275.872	391.75
276.104	434.75
276.335	478.75
276.567	509.75
276.799	505.75
277.031	464.75
277.262	456.75
277.494	470.75
277.726	479.75
277.957	500.75
278.189	443.75
278.421	429.75
278.652	425.75
278.884	411.75
279.115	432.75
279.347	434.75
279.579	407.75
279.81	434.75
280.042	467.75
280.273	504.75
280.505	497.75
280.736	500.75
280.968	451.75
281.199	419.75
281.431	426.75
281.662	426.75
281.894	410.75
282.125	431.75
282.356	436.75
282.588	421.75
282.819	450.75
283.051	476.75
283.282	485.75
283.513	474.75
283.745	458.75
283.976	417.75
284.207	410.75
284.439	426.75
284.67	432.75
284.901	439.75
285.132	465.75
285.364	456.75
285.595	438.75
285.826	450.75
286.057	432.75
286.288	436.75
286.52	456.75
286.751	500.75
286.982	482.75
287.213	441.75
287.444	431.75
287.675	430.75
287.906	455.75
288.138	475.75
288.369	467.75
288.6	444.75
288.831	421.75
289.062	431.75
289.293	458.75
289.524	445.75
289.755	449.75
289.986	460.75
290.217	450.75
290.448	417.75
290.679	445.75
290.91	464.75
291.141	463.75
291.371	453.75
291.602	477.75
291.833	463.75
292.064	465.75
292.295	462.75
292.526	498.75
292.757	493.75
292.987	475.75
293.218	468.75
293.449	533.75
293.68	546.75
293.91	576.75
294.141	529.75
294.372	522.75
294.603	544.75
294.833	561.75
295.064	533.75
295.295	479.75
295.525	467.75
295.756	459.75
295.987	438.75
296.217	449.75
296.448	451.75
296.679	443.75
296.909	482.75
297.14	457.75
297.37	448.75
297.601	478.75
297.831	489.75
298.062	488.75
298.292	490.75
298.523	483.75
298.753	474.75
298.984	481.75
299.214	502.75
299.445	479.75
299.675	472.75
299.905	501.75
300.136	462.75
300.366	443.75
300.597	443.75
300.827	456.75
301.057	473.75
301.288	505.75
301.518	488.75
301.748	517.75
301.979	553.75
302.209	562.75
302.439	574.75
302.669	564.75
302.9	544.75
303.13	494.75
303.36	509.75
303.59	505.75
303.82	503.75
304.051	499.75
304.281	496.75
304.511	539.75
304.741	570.75
304.971	610.75
305.201	598.75
305.431	523.75
305.661	471.75
305.891	452.75
306.121	430.75
306.352	466.75
306.582	512.75
306.812	519.75
307.042	547.75
307.272	537.75
307.502	576.75
307.731	637.75
307.961	584.75
308.191	554.75
308.421	501.75
308.651	491.75
308.881	473.75
309.111	474.75
309.341	482.75
309.571	486.75
309.8	474.75
310.03	480.75
310.26	513.75
310.49	480.75
310.72	496.75
310.949	526.75
311.179	526.75
311.409	538.75
311.639	508.75
311.868	481.75
312.098	487.75
312.328	487.75
312.557	507.75
312.787	498.75
313.017	521.75
313.246	522.75
313.476	504.75
313.706	506.75
313.935	516.75
314.165	521.75
314.394	548.75
314.624	571.75
314.853	618.75
315.083	603.75
315.312	597.75
315.542	583.75
315.771	544.75
316.001	551.75
316.23	566.75
316.46	522.75
316.689	537.75
316.919	518.75
317.148	519.75
317.377	542.75
317.607	579.75
317.836	607.75
318.065	630.75
318.295	599.75
318.524	555.75
318.753	547.75
318.983	554.75
319.212	550.75
319.441	534.75
319.67	537.75
319.9	549.75
320.129	591.75
320.358	612.75
320.587	598.75
320.816	585.75
321.046	572.75
321.275	587.75
321.504	585.75
321.733	624.75
321.962	585.75
322.191	561.75
322.42	550.75
322.649	527.75
322.878	520.75
323.108	575.75
323.337	561.75
323.566	569.75
323.795	560.75
324.024	555.75
324.253	551.75
324.482	538.75
324.71	523.75
324.939	529.75
325.168	546.75
325.397	576.75
325.626	560.75
325.855	558.75
326.084	539.75
326.313	577.75
326.542	559.75
326.77	546.75
326.999	559.75
327.228	543.75
327.457	514.75
327.686	522.75
327.914	547.75
328.143	552.75
328.372	583.75
328.6	557.75
328.829	549.75
329.058	543.75
329.287	541.75
329.515	541.75
329.744	564.75
329.972	597.75
330.201	609.75
330.43	591.75
330.658	591.75
330.887	598.75
331.115	597.75
331.344	618.75
331.572	606.75
331.801	587.75
332.03	577.75
332.258	572.75
332.486	595.75
332.715	598.75
332.943	599.75
333.172	588.75
333.4	591.75
333.629	613.75
333.857	681.75
334.085	726.75
334.314	813.75
334.542	813.75
334.771	720.75
334.999	677.75
335.227	659.75
335.455	640.75
335.684	633.75
335.912	646.75
336.14	619.75
336.369	618.75
336.597	593.75
336.825	594.75
337.053	623.75
337.281	649.75
337.51	685.75
337.738	663.75
337.966	631.75
338.194	575.75
338.422	593.75
338.65	578.75
338.878	571.75
339.106	581.75
339.334	558.75
339.562	540.75
339.79	576.75
340.018	601.75
340.246	616.75
340.474	623.75
340.702	606.75
340.93	608.75
341.158	632.75
341.386	595.75
341.614	599.75
341.842	583.75
342.07	602.75
342.298	576.75
342.526	599.75
342.754	597.75
342.981	595.75
343.209	597.75
343.437	580.75
343.665	587.75
343.893	598.75
344.12	607.75
344.348	605.75
344.576	595.75
344.804	575.75
345.031	574.75
345.259	582.75
345.487	541.75
345.714	531.75
345.942	552.75
346.17	559.75
346.397	561.75
346.625	576.75
346.853	555.75
347.08	527.75
347.308	566.75
347.535	543.75
347.763	553.75
347.99	570.75
348.218	559.75
348.445	538.75
348.673	566.75
348.9	585.75
349.128	591.75
349.355	580.75
349.583	574.75
349.81	521.75
350.037	520.75
350.265	511.75
350.492	547.75
350.72	560.75
350.947	567.75
351.174	582.75
351.402	533.75
351.629	515.75
351.856	521.75
352.083	496.75
352.311	512.75
352.538	558.75
352.765	557.75
352.992	585.75
353.22	529.75
353.447	545.75
353.674	567.75
353.901	567.75
354.128	546.75
354.355	554.75
354.583	563.75
354.81	590.75
355.037	557.75
355.264	571.75
355.491	576.75
355.718	561.75
355.945	527.75
356.172	531.75
356.399	534.75
356.626	543.75
356.853	590.75
357.08	613.75
357.307	675.75
357.534	629.75
357.761	570.75
357.988	521.75
358.215	518.75
358.441	524.75
358.668	544.75
358.895	576.75
359.122	579.75
359.349	619.75
359.576	586.75
359.802	581.75
360.029	545.75
360.256	530.75
360.483	550.75
360.709	575.75
360.936	607.75
361.163	613.75
361.39	668.75
361.616	699.75
361.843	680.75
362.07	647.75
362.296	572.75
362.523	540.75
362.749	575.75
362.976	559.75
363.203	562.75
363.429	565.75
363.656	557.75
363.882	574.75
364.109	655.75
364.335	649.75
364.562	611.75
364.788	596.75
365.015	563.75
365.241	584.75
365.468	577.75
365.694	612.75
365.92	607.75
366.147	560.75
366.373	564.75
366.599	544.75
366.826	563.75
367.052	548.75
367.278	560.75
367.505	583.75
367.731	597.75
367.957	603.75
368.184	631.75
368.41	638.75
368.636	669.75
368.862	664.75
369.089	665.75
369.315	626.75
369.541	581.75
369.767	600.75
369.993	581.75
370.219	579.75
370.445	592.75
370.672	630.75
370.898	663.75
371.124	632.75
371.35	618.75
371.576	628.75
371.802	655.75
372.028	637.75
372.254	599.75
372.48	583.75
372.706	578.75
372.932	598.75
373.158	599.75
373.384	617.75
373.61	619.75
373.835	654.75
374.061	615.75
374.287	629.75
374.513	625.75
374.739	628.75
374.965	608.75
375.191	619.75
375.416	625.75
375.642	643.75
375.868	711.75
376.094	709.75
376.319	649.75
376.545	625.75
376.771	658.75
376.997	682.75
377.222	682.75
377.448	637.75
377.674	653.75
377.899	654.75
378.125	716.75
378.35	696.75
378.576	629.75
378.802	620.75
379.027	602.75
379.253	641.75
379.478	631.75
379.704	617.75
379.929	633.75
380.155	653.75
380.38	630.75
380.606	658.75
380.831	663.75
381.057	694.75
381.282	689.75
381.507	683.75
381.733	731.75
381.958	737.75
382.184	673.75
382.409	707.75
382.634	676.75
382.86	655.75
383.085	652.75
383.31	697.75
383.535	747.75
383.761	765.75
383.986	742.75
384.211	723.75
384.436	736.75
384.662	737.75
384.887	758.75
385.112	707.75
385.337	715.75
385.562	711.75
385.787	692.75
386.013	755.75
386.238	765.75
386.463	757.75
386.688	823.75
386.913	835.75
387.138	815.75
387.363	776.75
387.588	749.75
387.813	754.75
388.038	796.75
388.263	769.75
388.488	758.75
388.713	713.75
388.938	711.75
389.163	681.75
389.387	732.75
389.612	745.75
389.837	744.75
390.062	745.75
390.287	754.75
390.512	733.75
390.736	741.75
390.961	749.75
391.186	696.75
391.411	721.75
391.636	754.75
391.86	723.75
392.085	723.75
392.31	738.75
392.534	727.75
392.759	768.75
392.984	736.75
393.208	777.75
393.433	803.75
393.658	823.75
393.882	815.75
394.107	782.75
394.331	740.75
394.556	749.75
394.78	775.75
395.005	815.75
395.229	825.75
395.454	846.75
395.678	840.75
395.903	819.75
396.127	801.75
396.352	795.75
396.576	834.75
396.801	833.75
397.025	814.75
397.249	831.75
397.474	815.75
397.698	825.75
397.922	841.75
398.147	874.75
398.371	902.75
398.595	874.75
398.82	831.75
399.044	859.75
399.268	930.75
399.492	925.75
399.717	968.75
399.941	973.75
400.165	955.75
400.389	929.75
400.613	974.75
400.837	1093.75
401.062	1185.75
401.286	999.75
401.51	977.75
401.734	981.75
401.958	937.75
402.182	882.75
402.406	870.75
402.63	857.75
402.854	864.75
403.078	871.75
403.302	883.75
403.526	893.75
403.75	898.75
403.974	943.75
404.198	940.75
404.422	972.75
404.645	992.75
404.869	942.75
405.093	928.75
405.317	872.75
405.541	888.75
405.765	929.75
405.988	919.75
406.212	925.75
406.436	930.75
406.66	969.75
406.883	1027.75
407.107	1105.75
407.331	1198.75
407.555	1266.75
407.778	1100.75
408.002	978.75
408.226	946.75
408.449	959.75
408.673	902.75
408.896	926.75
409.12	929.75
409.344	944.75
409.567	899.75
409.791	935.75
410.014	948.75
410.238	1000.75
410.461	1014.75
410.685	931.75
410.908	893.75
411.132	953.75
411.355	933.75
411.578	911.75
411.802	926.75
412.025	952.75
412.249	909.75
412.472	888.75
412.695	919.75
412.919	892.75
413.142	915.75
413.365	932.75
413.589	946.75
413.812	977.75
414.035	975.75
414.258	908.75
414.482	931.75
414.705	892.75
414.928	918.75
415.151	920.75
415.374	899.75
415.597	923.75
415.821	925.75
416.044	924.75
416.267	937.75
416.49	895.75
416.713	902.75
416.936	932.75
417.159	962.75
417.382	931.75
417.605	897.75
417.828	918.75
418.051	923.75
418.274	926.75
418.497	922.75
418.72	927.75
418.943	902.75
419.166	938.75
419.389	964.75
419.611	937.75
419.834	927.75
420.057	947.75
420.28	907.75
420.503	910.75
420.726	941.75
420.948	935.75
421.171	910.75
421.394	935.75
421.617	964.75
421.839	958.75
422.062	957.75
422.285	929.75
422.507	887.75
422.73	881.75
422.953	865.75
423.175	872.75
423.398	904.75
423.621	884.75
423.843	922.75
424.066	918.75
424.288	990.75
424.511	1022.75
424.733	970.75
424.956	941.75
425.178	917.75
425.401	908.75
425.623	921.75
425.846	911.75
426.068	938.75
426.291	949.75
426.513	931.75
426.735	943.75
426.958	1038.75
427.18	1066.75
427.402	995.75
427.625	1009.75
427.847	982.75
428.069	895.75
428.292	930.75
428.514	892.75
428.736	872.75
428.958	922.75
429.181	888.75
429.403	1053.75
429.625	1199.75
429.847	1039.75
430.069	929.75
430.292	1039.75
430.514	999.75
430.736	973.75
430.958	972.75
431.18	905.75
431.402	893.75
431.624	848.75
431.846	785.75
432.068	736.75
432.29	730.75
432.512	805.75
432.734	855.75
432.956	918.75
433.178	949.75
433.4	963.75
433.622	929.75
433.844	905.75
434.066	842.75
434.287	768.75
434.509	763.75
434.731	797.75
434.953	905.75
435.175	926.75
435.397	891.75
435.618	863.75
435.84	840.75
436.062	816.75
436.284	893.75
436.505	915.75
436.727	933.75
436.949	896.75
437.17	909.75
437.392	872.75
437.614	835.75
437.835	785.75
438.057	797.75
438.278	845.75
438.5	846.75
438.721	885.75
438.943	909.75
439.165	898.75
439.386	920.75
439.608	925.75
439.829	925.75
440.05	933.75
440.272	915.75
440.493	938.75
440.715	977.75
440.936	1011.75
441.158	1050.75
441.379	1045.75
441.6	1037.75
441.822	993.75
442.043	971.75
442.264	975.75
442.486	904.75
442.707	910.75
442.928	899.75
443.149	948.75
443.371	984.75
443.592	1015.75
443.813	1024.75
444.034	1025.75
444.255	999.75
444.476	1007.75
444.698	1009.75
444.919	1031.75
445.14	1111.75
445.361	1075.75
445.582	1055.75
445.803	1043.75
446.024	1011.75
446.245	1066.75
446.466	1049.75
446.687	995.75
446.908	1020.75
447.129	992.75
447.35	1007.75
447.571	976.75
447.792	957.75
448.013	941.75
448.234	954.75
448.455	998.75
448.675	949.75
448.896	930.75
449.117	899.75
449.338	915.75
449.559	946.75
449.779	981.75
450	991.75
450.221	1043.75
450.442	1008.75
450.662	925.75
450.883	877.75
451.104	871.75
451.324	874.75
451.545	874.75
451.766	854.75
451.986	814.75
452.207	812.75
452.428	783.75
452.648	760.75
452.869	794.75
453.089	755.75
453.31	776.75
453.53	748.75
453.751	734.75
453.971	683.75
454.192	704.75
454.412	758.75
454.633	767.75
454.853	787.75
455.073	765.75
455.294	750.75
455.514	772.75
455.734	791.75
455.955	746.75
456.175	732.75
456.395	714.75
456.616	754.75
456.836	742.75
457.056	736.75
457.276	722.75
457.497	673.75
457.717	676.75
457.937	697.75
458.157	713.75
458.377	693.75
458.598	654.75
458.818	651.75
459.038	701.75
459.258	694.75
459.478	697.75
459.698	689.75
459.918	723.75
460.138	778.75
460.358	838.75
460.578	840.75
460.798	842.75
461.018	882.75
461.238	856.75
461.458	835.75
461.678	825.75
461.898	837.75
462.118	834.75
462.338	836.75
462.558	821.75
462.777	848.75
462.997	835.75
463.217	881.75
463.437	859.75
463.657	845.75
463.876	815.75
464.096	806.75
464.316	837.75
464.536	863.75
464.755	863.75
464.975	882.75
465.195	857.75
465.414	879.75
465.634	859.75
465.854	877.75
466.073	930.75
466.293	905.75
466.512	848.75
466.732	864.75
466.951	898.75
467.171	895.75
467.391	857.75
467.61	871.75
467.829	870.75
468.049	979.75
468.268	1027.75
468.488	964.75
468.707	941.75
468.927	870.75
469.146	888.75
469.365	905.75
469.585	920.75
469.804	924.75
470.023	912.75
470.243	960.75
470.462	909.75
470.681	903.75
470.901	887.75
471.12	903.75
471.339	928.75
471.558	908.75
471.777	902.75
471.997	851.75
472.216	849.75
472.435	768.75
472.654	764.75
472.873	743.75
473.092	827.75
473.311	799.75
473.53	825.75
473.749	818.75
473.968	867.75
474.187	812.75
474.406	826.75
474.625	832.75
474.844	866.75
475.063	891.75
475.282	855.75
475.501	804.75
475.72	840.75
475.939	890.75
476.158	889.75
476.377	863.75
476.596	806.75
476.814	822.75
477.033	791.75
477.252	802.75
477.471	899.75
477.69	925.75
477.908	936.75
478.127	975.75
478.346	1010.75
478.564	976.75
478.783	996.75
479.002	993.75
479.22	988.75
479.439	1018.75
479.658	1045.75
479.876	933.75
480.095	903.75
480.313	877.75
480.532	859.75
480.751	840.75
480.969	796.75
481.188	800.75
481.406	785.75
481.624	778.75
481.843	763.75
482.061	793.75
482.28	875.75
482.498	901.75
482.717	834.75
482.935	894.75
483.153	947.75
483.372	1020.75
483.59	1007.75
483.808	938.75
484.027	936.75
484.245	997.75
484.463	1199.75
484.681	1262.75
484.9	986.75
485.118	917.75
485.336	924.75
485.554	915.75
485.772	886.75
485.99	852.75
486.209	886.75
486.427	909.75
486.645	911.75
486.863	984.75
487.081	1043.75
487.299	1016.75
487.517	987.75
487.735	1095.75
487.953	1169.75
488.171	1178.75
488.389	1114.75
488.607	1057.75
488.825	1153.75
489.043	1064.75
489.261	977.75
489.479	1033.75
489.696	1047.75
489.914	991.75
490.132	1018.75
490.35	1069.75
490.568	1145.75
490.786	1175.75
491.003	1236.75
491.221	1241.75
491.439	1286.75
491.657	1295.75
491.874	1317.75
492.092	1398.75
492.31	1484.75
492.527	1437.75
492.745	1324.75
492.963	1313.75
493.18	1281.75
493.398	1314.75
493.615	1345.75
493.833	1264.75
494.05	1226.75
494.268	1239.75
494.485	1219.75
494.703	1197.75
494.92	1209.75
495.138	1229.75
495.355	1249.75
495.573	1245.75
495.79	1284.75
496.008	1248.75
496.225	1190.75
496.442	1230.75
496.66	1224.75
496.877	1195.75
497.094	1245.75
497.312	1237.75
497.529	1181.75
497.746	1178.75
497.963	1233.75
498.181	1318.75
498.398	1295.75
498.615	1211.75
498.832	1123.75
499.049	1142.75
499.267	1181.75
499.484	1221.75
499.701	1316.75
499.918	1385.75
500.135	1480.75
500.352	1575.75
500.569	1549.75
500.786	1675.75
501.003	1542.75
501.22	1443.75
501.437	1389.75
501.654	1401.75
501.871	1333.75
502.088	1176.75
502.305	1189.75
502.522	1135.75
502.739	1111.75
502.956	1045.75
503.172	1048.75
503.389	1009.75
503.606	1004.75
503.823	947.75
504.04	1009.75
504.256	1002.75
504.473	977.75
504.69	1010.75
504.907	1005.75
505.123	956.75
505.34	1062.75
505.557	1348.75
505.773	1117.75
505.99	926.75
506.207	888.75
506.423	877.75
506.64	893.75
506.856	909.75
507.073	1021.75
507.289	1085.75
507.506	983.75
507.722	886.75
507.939	836.75
508.155	830.75
508.372	847.75
508.588	805.75
508.805	785.75
509.021	797.75
509.238	755.75
509.454	762.75
509.67	771.75
509.887	723.75
510.103	715.75
510.319	765.75
510.536	769.75
510.752	779.75
510.968	745.75
511.184	769.75
511.401	723.75
511.617	701.75
511.833	713.75
512.049	689.75
512.265	705.75
512.481	739.75
512.698	713.75
512.914	759.75
513.13	731.75
513.346	721.75
513.562	685.75
513.778	696.75
513.994	725.75
514.21	747.75
514.426	760.75
514.642	821.75
514.858	769.75
515.074	704.75
515.29	712.75
515.506	729.75
515.721	732.75
515.937	740.75
516.153	777.75
516.369	767.75
516.585	733.75
516.801	741.75
517.016	719.75
517.232	735.75
517.448	767.75
517.664	778.75
517.879	767.75
518.095	807.75
518.311	757.75
518.527	740.75
518.742	753.75
518.958	748.75
519.173	753.75
519.389	779.75
519.605	770.75
519.82	799.75
520.036	782.75
520.251	771.75
520.467	771.75
520.682	803.75
520.898	782.75
521.113	707.75
521.329	717.75
521.544	754.75
521.76	709.75
521.975	715.75
522.19	718.75
522.406	745.75
522.621	897.75
522.836	829.75
523.052	718.75
523.267	738.75
523.482	761.75
523.698	745.75
523.913	700.75
524.128	737.75
524.343	810.75
524.559	793.75
524.774	766.75
524.989	773.75
525.204	726.75
525.419	715.75
525.634	727.75
525.849	714.75
526.064	722.75
526.28	689.75
526.495	646.75
526.71	613.75
526.925	629.75
527.14	621.75
527.355	624.75
527.57	635.75
527.785	660.75
527.999	657.75
528.214	674.75
528.429	688.75
528.644	759.75
528.859	806.75
529.074	831.75
529.289	867.75
529.503	847.75
529.718	775.75
529.933	732.75
530.148	672.75
530.363	658.75
530.577	636.75
530.792	618.75
531.007	610.75
531.221	608.75
531.436	610.75
531.651	647.75
531.865	671.75
532.08	628.75
532.295	623.75
532.509	618.75
532.724	617.75
532.938	655.75
533.153	702.75
533.367	715.75
533.582	715.75
533.796	711.75
534.011	695.75
534.225	654.75
534.44	636.75
534.654	613.75
534.868	625.75
535.083	667.75
535.297	662.75
535.511	665.75
535.726	664.75
535.94	674.75
536.154	656.75
536.369	621.75
536.583	605.75
536.797	600.75
537.011	595.75
537.225	598.75
537.44	605.75
537.654	627.75
537.868	598.75
538.082	588.75
538.296	586.75
538.51	638.75
538.724	644.75
538.938	682.75
539.153	763.75
539.367	724.75
539.581	675.75
539.795	665.75
540.009	633.75
540.222	644.75
540.436	672.75
540.65	741.75
540.864	788.75
541.078	789.75
541.292	831.75
541.506	864.75
541.72	935.75
541.934	1002.75
542.147	1054.75
542.361	991.75
542.575	887.75
542.789	801.75
543.002	741.75
543.216	742.75
543.43	729.75
543.644	777.75
543.857	864.75
544.071	890.75
544.285	906.75
544.498	900.75
544.712	906.75
544.925	932.75
545.139	945.75
545.352	949.75
545.566	914.75
545.779	917.75
545.993	941.75
546.206	975.75
546.42	958.75
546.633	932.75
546.847	919.75
547.06	947.75
547.274	937.75
547.487	965.75
547.7	999.75
547.914	961.75
548.127	953.75
548.34	915.75
548.554	944.75
548.767	914.75
548.98	914.75
549.193	928.75
549.407	949.75
549.62	929.75
549.833	893.75
550.046	903.75
550.259	898.75
550.473	864.75
550.686	866.75
550.899	858.75
551.112	830.75
551.325	815.75
551.538	857.75
551.751	862.75
551.964	690.75
552.177	733.75
552.39	759.75
552.603	838.75
552.816	843.75
553.029	895.75
553.242	889.75
553.455	896.75
553.667	885.75
553.88	891.75
554.093	873.75
554.306	824.75
554.519	836.75
554.732	827.75
554.944	809.75
555.157	829.75
555.37	804.75
555.583	774.75
555.795	791.75
556.008	740.75
556.221	711.75
556.433	750.75
556.646	714.75
556.859	728.75
557.071	741.75
557.284	714.75
557.496	740.75
557.709	721.75
557.921	726.75
558.134	728.75
558.346	716.75
558.559	726.75
558.771	699.75
558.984	680.75
559.196	664.75
559.409	656.75
559.621	665.75
559.833	651.75
560.046	668.75
560.258	645.75
560.47	657.75
560.683	680.75
560.895	664.75
561.107	676.75
561.32	652.75
561.532	645.75
561.744	674.75
561.956	672.75
562.168	641.75
562.381	623.75
562.593	624.75
562.805	645.75
563.017	643.75
563.229	618.75
563.441	623.75
563.653	616.75
563.865	601.75
564.077	607.75
564.289	617.75
564.501	611.75
564.713	628.75
564.925	614.75
565.137	657.75
565.349	602.75
565.561	621.75
565.773	620.75
565.985	615.75
566.197	653.75
566.408	657.75
566.62	669.75
566.832	668.75
567.044	686.75
567.255	647.75
567.467	647.75
567.679	646.75
567.891	638.75
568.102	626.75
568.314	575.75
568.526	568.75
568.737	521.75
568.949	471.75
569.161	465.75
569.372	472.75
569.584	454.75
569.795	446.75
570.007	446.75
570.218	412.75
570.43	413.75
570.641	437.75
570.853	451.75
571.064	479.75
571.276	477.75
571.487	456.75
571.698	462.75
571.91	467.75
572.121	447.75
572.333	466.75
572.544	435.75
572.755	402.75
572.966	399.75
573.178	387.75
573.389	370.75
573.6	409.75
573.811	411.75
574.023	395.75
574.234	376.75
574.445	385.75
574.656	393.75
574.867	379.75
575.078	385.75
575.289	396.75
575.501	412.75
575.712	366.75
575.923	374.75
576.134	393.75
576.345	400.75
576.556	396.75
576.767	408.75
576.978	402.75
577.188	391.75
577.399	369.75
577.61	386.75
577.821	366.75
578.032	373.75
578.243	369.75
578.454	349.75
578.665	326.75
578.875	351.75
579.086	331.75
579.297	357.75
579.508	348.75
579.718	337.75
579.929	340.75
580.14	324.75
580.35	318.75
580.561	340.75
580.772	390.75
580.982	375.75
581.193	349.75
581.403	352.75
581.614	338.75
581.825	342.75
582.035	351.75
582.246	331.75
582.456	351.75
582.667	348.75
582.877	342.75
583.087	331.75
583.298	344.75
583.508	319.75
583.719	323.75
583.929	326.75
584.139	315.75
584.35	320.75
584.56	322.75
584.77	327.75
584.981	332.75
585.191	316.75
585.401	327.75
585.611	346.75
585.821	321.75
586.032	335.75
586.242	309.75
586.452	313.75
586.662	320.75
586.872	311.75
587.082	308.75
587.292	330.75
587.502	313.75
587.713	318.75
587.923	321.75
588.133	317.75
588.343	326.75
588.553	295.75
588.762	324.75
588.972	317.75
589.182	318.75
589.392	284.75
589.602	305.75
589.812	308.75
590.022	292.75
590.232	301.75
590.441	309.75
590.651	314.75
590.861	303.75
591.071	287.75
591.281	309.75
591.49	304.75
591.7	294.75
591.91	319.75
592.119	307.75
592.329	310.75
592.539	318.75
592.748	308.75
592.958	332.75
593.167	338.75
593.377	311.75
593.587	341.75
593.796	336.75
594.006	332.75
594.215	330.75
594.424	322.75
594.634	325.75
594.843	348.75
595.053	337.75
595.262	298.75
595.472	317.75
595.681	303.75
595.89	312.75
596.1	303.75
596.309	309.75
596.518	307.75
596.727	313.75
596.937	313.75
597.146	307.75
597.355	289.75
597.564	298.75
597.774	294.75
597.983	279.75
598.192	273.75
598.401	289.75
598.61	288.75
598.819	275.75
599.028	298.75
599.237	297.75
599.446	296.75
599.655	258.75
599.864	273.75
600.073	278.75
600.282	297.75
600.491	311.75
600.7	287.75
600.909	295.75
601.118	306.75
601.327	325.75
601.536	329.75
601.745	347.75
601.953	337.75
602.162	342.75
602.371	353.75
602.58	346.75
602.789	335.75
602.997	352.75
603.206	338.75
603.415	346.75
603.623	359.75
603.832	325.75
604.041	328.75
604.249	318.75
604.458	305.75
604.666	301.75
604.875	296.75
605.084	324.75
605.292	323.75
605.501	340.75
605.709	351.75
605.918	341.75
606.126	348.75
606.334	345.75
606.543	355.75
606.751	362.75
606.96	353.75
607.168	335.75
607.376	360.75
607.585	355.75
607.793	338.75
608.001	355.75
608.21	343.75
608.418	362.75
608.626	346.75
608.834	340.75
609.043	352.75
609.251	345.75
609.459	342.75
609.667	352.75
609.875	373.75
610.083	371.75
610.291	357.75
610.499	369.75
610.707	350.75
610.916	368.75
611.124	355.75
611.332	367.75
611.54	377.75
611.748	347.75
611.955	387.75
612.163	355.75
612.371	359.75
612.579	366.75
612.787	359.75
612.995	365.75
613.203	361.75
613.411	330.75
613.618	354.75
613.826	344.75
614.034	344.75
614.242	338.75
614.449	355.75
614.657	347.75
614.865	362.75
615.072	348.75
615.28	374.75
615.488	361.75
615.695	359.75
615.903	366.75
616.111	360.75
616.318	332.75
616.526	359.75
616.733	340.75
616.941	326.75
617.148	345.75
617.356	331.75
617.563	336.75
617.771	325.75
617.978	334.75
618.185	319.75
618.393	334.75
618.6	321.75
618.807	347.75
619.015	330.75
619.222	338.75
619.429	327.75
619.637	310.75
619.844	301.75
620.051	307.75
620.258	320.75
620.466	313.75
620.673	307.75
620.88	317.75
621.087	313.75
621.294	292.75
621.501	297.75
621.708	282.75
621.915	315.75
622.122	339.75
622.329	319.75
622.536	333.75
622.743	304.75
622.95	312.75
623.157	314.75
623.364	322.75
623.571	315.75
623.778	337.75
623.985	325.75
624.192	323.75
624.399	322.75
624.606	296.75
624.812	317.75
625.019	295.75
625.226	282.75
625.433	258.75
625.639	281.75
625.846	255.75
626.053	261.75
626.259	248.75
626.466	249.75
626.673	216.75
626.879	229.75
627.086	257.75
627.293	267.75
627.499	291.75
627.706	291.75
627.912	299.75
628.119	296.75
628.325	306.75
628.532	287.75
628.738	316.75
628.945	266.75
629.151	262.75
629.357	281.75
629.564	282.75
629.77	273.75
629.976	264.75
630.183	257.75
630.389	254.75
630.595	269.75
630.802	273.75
631.008	280.75
631.214	272.75
631.42	272.75
631.627	251.75
631.833	237.75
632.039	267.75
632.245	246.75
632.451	274.75
632.657	257.75
632.863	258.75
633.069	274.75
633.275	256.75
633.481	238.75
633.688	242.75
633.893	249.75
634.099	237.75
634.305	253.75
634.511	242.75
634.717	230.75
634.923	226.75
635.129	232.75
635.335	245.75
635.541	225.75
635.747	234.75
635.952	249.75
636.158	243.75
636.364	234.75
636.57	247.75
636.775	264.75
636.981	238.75
637.187	251.75
637.392	252.75
637.598	242.75
637.804	245.75
638.009	262.75
638.215	260.75
638.421	240.75
638.626	264.75
638.832	265.75
639.037	235.75
639.243	253.75
639.448	241.75
639.654	231.75
639.859	253.75
640.065	255.75
640.27	250.75
640.475	225.75
640.681	247.75
640.886	228.75
641.091	242.75
641.297	248.75
641.502	244.75
641.707	253.75
641.913	249.75
642.118	251.75
642.323	236.75
642.528	241.75
642.733	227.75
642.939	233.75
643.144	248.75
643.349	235.75
643.554	238.75
643.759	234.75
643.964	235.75
644.169	227.75
644.374	221.75
644.579	233.75
644.784	244.75
644.989	243.75
645.194	259.75
645.399	226.75
645.604	237.75
645.809	245.75
646.014	241.75
646.219	234.75
646.423	231.75
646.628	244.75
646.833	226.75
647.038	240.75
647.243	227.75
647.447	229.75
647.652	237.75
647.857	227.75
648.062	213.75
648.266	232.75
648.471	240.75
648.676	245.75
648.88	235.75
649.085	214.75
649.289	225.75
649.494	227.75
649.698	230.75
649.903	226.75
650.107	221.75
650.312	216.75
650.516	233.75
650.721	228.75
650.925	223.75
651.13	234.75
651.334	220.75
651.539	224.75
651.743	213.75
651.947	215.75
652.152	212.75
652.356	221.75
652.56	219.75
652.764	212.75
652.969	211.75
653.173	196.75
653.377	226.75
653.581	213.75
653.785	209.75
653.99	203.75
654.194	192.75
654.398	191.75
654.602	194.75
654.806	201.75
655.01	186.75
655.214	202.75
655.418	205.75
655.622	194.75
655.826	201.75
656.03	208.75
656.234	216.75
656.438	227.75
656.642	237.75
656.846	231.75
657.049	201.75
657.253	185.75
657.457	195.75
657.661	180.75
657.865	170.75
658.068	157.75
658.272	159.75
658.476	152.75
658.68	147.75
658.883	140.75
659.087	135.75
659.291	141.75
659.494	127.75
659.698	125.75
659.901	122.75
660.105	126.75
660.309	120.75
660.512	121.75
660.716	118.75
660.919	113.75
661.123	116.75
661.326	103.75
661.53	115.75
661.733	103.75
661.936	111.75
662.14	100.75
662.343	89.75
662.546	91.75
662.75	91.75
662.953	92.75
663.156	94.75
663.36	83.75
663.563	71.75
663.766	87.75
663.969	69.75
664.173	84.75
664.376	72.75
664.579	79.75
664.782	85.75
664.985	93.75
665.188	85.75
665.391	84.75
665.594	90.75
665.797	76.75
666	83.75
666.203	80.75
666.406	80.75
666.609	83.75
666.812	92.75
667.015	88.75
667.218	80.75
667.421	69.75
667.624	82.75
667.827	78.75
668.03	76.75
668.232	74.75
668.435	88.75
668.638	83.75
668.841	81.75
669.043	75.75
669.246	83.75
669.449	85.75
669.651	61.75
669.854	92.75
670.057	69.75
670.259	80.75
670.462	80.75
670.665	97.75
670.867	77.75
671.07	70.75
671.272	84.75
671.475	79.75
671.677	65.75
671.88	78.75
672.082	86.75
672.284	72.75
672.487	74.75
672.689	74.75
672.892	84.75
