Data from WStandard_LampEnergy10_LIBS07252019.E.O._I.C._HRD10591_15-55-30-929.txt Node
Date: Thu Jul 25 15:55:30 EDT 2019
User: cochatt
Spectrometer: HR+D1059
Trigger mode: 1
Integration Time (sec): 1.000000E-1
Scans to average: 1
Electric dark correction enabled: true
Nonlinearity correction enabled: false
Boxcar width: 0
XAxis mode: Wavelengths
Number of Pixels in Spectrum: 2048
>>>>>Begin Spectral Data<<<<<
223.165	-21.38
223.4	-21.38
223.635	-21.38
223.869	-8.38
224.104	-31.38
224.338	-10.38
224.573	-8.38
224.808	-9.38
225.042	-33.38
225.277	-3.38
225.511	-8.38
225.746	2.62
225.98	5.62
226.215	2.62
226.449	20.62
226.683	34.62
226.918	35.62
227.152	32.62
227.387	37.62
227.621	44.62
227.856	31.62
228.09	43.62
228.324	56.62
228.559	52.62
228.793	91.62
229.027	131.62
229.262	127.62
229.496	151.62
229.73	153.62
229.964	155.62
230.199	158.62
230.433	159.62
230.667	166.62
230.901	177.62
231.136	192.62
231.37	159.62
231.604	187.62
231.838	168.62
232.072	166.62
232.306	165.62
232.541	172.62
232.775	196.62
233.009	204.62
233.243	211.62
233.477	198.62
233.711	208.62
233.945	199.62
234.179	190.62
234.413	193.62
234.647	196.62
234.881	203.62
235.115	181.62
235.349	200.62
235.583	199.62
235.817	197.62
236.051	201.62
236.285	203.62
236.519	202.62
236.753	214.62
236.987	213.62
237.221	219.62
237.455	243.62
237.689	233.62
237.922	231.62
238.156	204.62
238.39	235.62
238.624	232.62
238.858	239.62
239.091	245.62
239.325	242.62
239.559	288.62
239.793	287.62
240.027	285.62
240.26	293.62
240.494	255.62
240.728	227.62
240.961	225.62
241.195	235.62
241.429	256.62
241.662	247.62
241.896	233.62
242.13	257.62
242.363	246.62
242.597	285.62
242.83	262.62
243.064	272.62
243.298	303.62
243.531	280.62
243.765	263.62
243.998	244.62
244.232	267.62
244.465	258.62
244.699	264.62
244.932	272.62
245.166	297.62
245.399	274.62
245.633	260.62
245.866	281.62
246.099	288.62
246.333	277.62
246.566	272.62
246.8	307.62
247.033	349.62
247.266	299.62
247.5	303.62
247.733	322.62
247.966	328.62
248.2	367.62
248.433	359.62
248.666	366.62
248.899	389.62
249.133	448.62
249.366	440.62
249.599	396.62
249.832	352.62
250.066	368.62
250.299	366.62
250.532	342.62
250.765	312.62
250.998	335.62
251.231	340.62
251.465	331.62
251.698	340.62
251.931	352.62
252.164	325.62
252.397	347.62
252.63	348.62
252.863	327.62
253.096	332.62
253.329	356.62
253.562	330.62
253.795	352.62
254.028	360.62
254.261	344.62
254.494	337.62
254.727	343.62
254.96	361.62
255.193	361.62
255.426	400.62
255.659	450.62
255.892	436.62
256.124	384.62
256.357	370.62
256.59	393.62
256.823	398.62
257.056	421.62
257.289	465.62
257.521	510.62
257.754	456.62
257.987	430.62
258.22	487.62
258.452	457.62
258.685	392.62
258.918	382.62
259.151	369.62
259.383	372.62
259.616	361.62
259.849	355.62
260.081	403.62
260.314	445.62
260.547	465.62
260.779	486.62
261.012	424.62
261.244	426.62
261.477	384.62
261.71	419.62
261.942	391.62
262.175	402.62
262.407	423.62
262.64	376.62
262.872	383.62
263.105	356.62
263.337	376.62
263.57	347.62
263.802	374.62
264.035	378.62
264.267	319.62
264.499	338.62
264.732	378.62
264.964	389.62
265.197	385.62
265.429	403.62
265.661	451.62
265.894	474.62
266.126	474.62
266.358	456.62
266.591	457.62
266.823	483.62
267.055	457.62
267.287	454.62
267.52	444.62
267.752	447.62
267.984	445.62
268.216	455.62
268.448	466.62
268.681	420.62
268.913	424.62
269.145	392.62
269.377	403.62
269.609	436.62
269.841	504.62
270.073	572.62
270.306	615.62
270.538	616.62
270.77	523.62
271.002	482.62
271.234	453.62
271.466	475.62
271.698	526.62
271.93	591.62
272.162	586.62
272.394	533.62
272.626	491.62
272.858	460.62
273.09	407.62
273.322	403.62
273.553	383.62
273.785	404.62
274.017	423.62
274.249	425.62
274.481	428.62
274.713	422.62
274.945	409.62
275.176	399.62
275.408	386.62
275.64	402.62
275.872	378.62
276.104	428.62
276.335	488.62
276.567	524.62
276.799	528.62
277.031	487.62
277.262	472.62
277.494	477.62
277.726	521.62
277.957	517.62
278.189	443.62
278.421	430.62
278.652	421.62
278.884	423.62
279.115	418.62
279.347	420.62
279.579	407.62
279.81	436.62
280.042	454.62
280.273	511.62
280.505	523.62
280.736	514.62
280.968	458.62
281.199	417.62
281.431	405.62
281.662	419.62
281.894	442.62
282.125	435.62
282.356	448.62
282.588	458.62
282.819	440.62
283.051	472.62
283.282	516.62
283.513	487.62
283.745	415.62
283.976	401.62
284.207	408.62
284.439	451.62
284.67	440.62
284.901	448.62
285.132	466.62
285.364	450.62
285.595	470.62
285.826	456.62
286.057	434.62
286.288	446.62
286.52	471.62
286.751	489.62
286.982	470.62
287.213	459.62
287.444	438.62
287.675	421.62
287.906	462.62
288.138	466.62
288.369	456.62
288.6	427.62
288.831	418.62
289.062	454.62
289.293	452.62
289.524	458.62
289.755	461.62
289.986	450.62
290.217	436.62
290.448	428.62
290.679	452.62
290.91	458.62
291.141	480.62
291.371	469.62
291.602	483.62
291.833	486.62
292.064	464.62
292.295	468.62
292.526	519.62
292.757	506.62
292.987	476.62
293.218	471.62
293.449	539.62
293.68	575.62
293.91	566.62
294.141	531.62
294.372	523.62
294.603	554.62
294.833	583.62
295.064	522.62
295.295	474.62
295.525	470.62
295.756	440.62
295.987	436.62
296.217	443.62
296.448	451.62
296.679	461.62
296.909	460.62
297.14	465.62
297.37	474.62
297.601	491.62
297.831	514.62
298.062	497.62
298.292	460.62
298.523	469.62
298.753	456.62
298.984	444.62
299.214	464.62
299.445	466.62
299.675	494.62
299.905	486.62
300.136	494.62
300.366	456.62
300.597	477.62
300.827	457.62
301.057	489.62
301.288	496.62
301.518	497.62
301.748	505.62
301.979	548.62
302.209	560.62
302.439	563.62
302.669	583.62
302.9	555.62
303.13	510.62
303.36	500.62
303.59	526.62
303.82	488.62
304.051	540.62
304.281	511.62
304.511	522.62
304.741	558.62
304.971	597.62
305.201	602.62
305.431	547.62
305.661	508.62
305.891	462.62
306.121	460.62
306.352	477.62
306.582	519.62
306.812	520.62
307.042	561.62
307.272	570.62
307.502	596.62
307.731	642.62
307.961	628.62
308.191	582.62
308.421	502.62
308.651	503.62
308.881	498.62
309.111	499.62
309.341	494.62
309.571	496.62
309.8	498.62
310.03	465.62
310.26	467.62
310.49	502.62
310.72	487.62
310.949	512.62
311.179	525.62
311.409	500.62
311.639	499.62
311.868	505.62
312.098	475.62
312.328	517.62
312.557	501.62
312.787	521.62
313.017	493.62
313.246	496.62
313.476	521.62
313.706	526.62
313.935	544.62
314.165	532.62
314.394	541.62
314.624	579.62
314.853	591.62
315.083	609.62
315.312	627.62
315.542	567.62
315.771	529.62
316.001	549.62
316.23	568.62
316.46	560.62
316.689	540.62
316.919	505.62
317.148	499.62
317.377	532.62
317.607	590.62
317.836	633.62
318.065	630.62
318.295	619.62
318.524	595.62
318.753	548.62
318.983	560.62
319.212	565.62
319.441	539.62
319.67	564.62
319.9	539.62
320.129	563.62
320.358	591.62
320.587	610.62
320.816	616.62
321.046	593.62
321.275	564.62
321.504	590.62
321.733	603.62
321.962	580.62
322.191	556.62
322.42	544.62
322.649	554.62
322.878	560.62
323.108	540.62
323.337	575.62
323.566	556.62
323.795	539.62
324.024	556.62
324.253	566.62
324.482	568.62
324.71	522.62
324.939	530.62
325.168	523.62
325.397	549.62
325.626	554.62
325.855	566.62
326.084	562.62
326.313	559.62
326.542	552.62
326.77	572.62
326.999	558.62
327.228	551.62
327.457	517.62
327.686	516.62
327.914	544.62
328.143	539.62
328.372	556.62
328.6	562.62
328.829	559.62
329.058	530.62
329.287	527.62
329.515	574.62
329.744	576.62
329.972	586.62
330.201	597.62
330.43	614.62
330.658	587.62
330.887	586.62
331.115	581.62
331.344	603.62
331.572	584.62
331.801	577.62
332.03	563.62
332.258	593.62
332.486	601.62
332.715	584.62
332.943	594.62
333.172	545.62
333.4	581.62
333.629	601.62
333.857	673.62
334.085	755.62
334.314	818.62
334.542	804.62
334.771	740.62
334.999	667.62
335.227	626.62
335.455	604.62
335.684	592.62
335.912	647.62
336.14	650.62
336.369	596.62
336.597	599.62
336.825	588.62
337.053	620.62
337.281	649.62
337.51	648.62
337.738	686.62
337.966	641.62
338.194	597.62
338.422	584.62
338.65	572.62
338.878	561.62
339.106	570.62
339.334	554.62
339.562	537.62
339.79	586.62
340.018	615.62
340.246	612.62
340.474	644.62
340.702	622.62
340.93	598.62
341.158	596.62
341.386	584.62
341.614	582.62
341.842	578.62
342.07	585.62
342.298	585.62
342.526	593.62
342.754	588.62
342.981	582.62
343.209	553.62
343.437	549.62
343.665	601.62
343.893	599.62
344.12	635.62
344.348	622.62
344.576	583.62
344.804	594.62
345.031	588.62
345.259	577.62
345.487	573.62
345.714	574.62
345.942	546.62
346.17	551.62
346.397	562.62
346.625	576.62
346.853	544.62
347.08	532.62
347.308	558.62
347.535	540.62
347.763	560.62
347.99	581.62
348.218	565.62
348.445	543.62
348.673	549.62
348.9	589.62
349.128	608.62
349.355	599.62
349.583	576.62
349.81	563.62
350.037	527.62
350.265	490.62
350.492	525.62
350.72	561.62
350.947	584.62
351.174	564.62
351.402	527.62
351.629	542.62
351.856	524.62
352.083	514.62
352.311	543.62
352.538	560.62
352.765	602.62
352.992	567.62
353.22	547.62
353.447	542.62
353.674	561.62
353.901	568.62
354.128	540.62
354.355	554.62
354.583	597.62
354.81	590.62
355.037	573.62
355.264	563.62
355.491	566.62
355.718	562.62
355.945	550.62
356.172	533.62
356.399	537.62
356.626	536.62
356.853	568.62
357.08	634.62
357.307	638.62
357.534	631.62
357.761	560.62
357.988	516.62
358.215	512.62
358.441	543.62
358.668	511.62
358.895	549.62
359.122	596.62
359.349	630.62
359.576	596.62
359.802	572.62
360.029	546.62
360.256	544.62
360.483	567.62
360.709	570.62
360.936	577.62
361.163	619.62
361.39	679.62
361.616	692.62
361.843	670.62
362.07	633.62
362.296	550.62
362.523	551.62
362.749	562.62
362.976	567.62
363.203	555.62
363.429	553.62
363.656	530.62
363.882	599.62
364.109	640.62
364.335	658.62
364.562	585.62
364.788	576.62
365.015	566.62
365.241	545.62
365.468	562.62
365.694	590.62
365.92	594.62
366.147	588.62
366.373	563.62
366.599	554.62
366.826	529.62
367.052	547.62
367.278	580.62
367.505	568.62
367.731	617.62
367.957	600.62
368.184	638.62
368.41	644.62
368.636	661.62
368.862	638.62
369.089	664.62
369.315	610.62
369.541	598.62
369.767	609.62
369.993	578.62
370.219	592.62
370.445	607.62
370.672	650.62
370.898	674.62
371.124	630.62
371.35	600.62
371.576	645.62
371.802	642.62
372.028	625.62
372.254	616.62
372.48	568.62
372.706	601.62
372.932	594.62
373.158	601.62
373.384	614.62
373.61	626.62
373.835	628.62
374.061	609.62
374.287	636.62
374.513	601.62
374.739	621.62
374.965	655.62
375.191	652.62
375.416	622.62
375.642	651.62
375.868	695.62
376.094	706.62
376.319	675.62
376.545	639.62
376.771	631.62
376.997	663.62
377.222	680.62
377.448	644.62
377.674	678.62
377.899	659.62
378.125	693.62
378.35	685.62
378.576	618.62
378.802	619.62
379.027	603.62
379.253	641.62
379.478	622.62
379.704	631.62
379.929	632.62
380.155	626.62
380.38	633.62
380.606	656.62
380.831	671.62
381.057	686.62
381.282	676.62
381.507	688.62
381.733	715.62
381.958	711.62
382.184	669.62
382.409	672.62
382.634	656.62
382.86	661.62
383.085	662.62
383.31	713.62
383.535	770.62
383.761	785.62
383.986	765.62
384.211	704.62
384.436	725.62
384.662	750.62
384.887	754.62
385.112	706.62
385.337	720.62
385.562	709.62
385.787	705.62
386.013	739.62
386.238	744.62
386.463	742.62
386.688	802.62
386.913	807.62
387.138	793.62
387.363	778.62
387.588	751.62
387.813	753.62
388.038	779.62
388.263	793.62
388.488	769.62
388.713	697.62
388.938	756.62
389.163	718.62
389.387	730.62
389.612	703.62
389.837	730.62
390.062	732.62
390.287	727.62
390.512	741.62
390.736	728.62
390.961	708.62
391.186	729.62
391.411	723.62
391.636	730.62
391.86	728.62
392.085	706.62
392.31	753.62
392.534	754.62
392.759	736.62
392.984	752.62
393.208	754.62
393.433	783.62
393.658	818.62
393.882	770.62
394.107	767.62
394.331	738.62
394.556	727.62
394.78	791.62
395.005	783.62
395.229	840.62
395.454	845.62
395.678	865.62
395.903	827.62
396.127	784.62
396.352	802.62
396.576	845.62
396.801	842.62
397.025	835.62
397.249	823.62
397.474	816.62
397.698	811.62
397.922	851.62
398.147	864.62
398.371	886.62
398.595	887.62
398.82	825.62
399.044	872.62
399.268	917.62
399.492	953.62
399.717	950.62
399.941	979.62
400.165	969.62
400.389	942.62
400.613	978.62
400.837	1108.62
401.062	1166.62
401.286	986.62
401.51	939.62
401.734	974.62
401.958	914.62
402.182	895.62
402.406	859.62
402.63	884.62
402.854	862.62
403.078	852.62
403.302	916.62
403.526	900.62
403.75	912.62
403.974	920.62
404.198	915.62
404.422	986.62
404.645	987.62
404.869	912.62
405.093	901.62
405.317	897.62
405.541	912.62
405.765	920.62
405.988	904.62
406.212	933.62
406.436	944.62
406.66	995.62
406.883	997.62
407.107	1109.62
407.331	1185.62
407.555	1270.62
407.778	1105.62
408.002	957.62
408.226	928.62
408.449	949.62
408.673	930.62
408.896	914.62
409.12	950.62
409.344	927.62
409.567	926.62
409.791	920.62
410.014	943.62
410.238	1008.62
410.461	1032.62
410.685	945.62
410.908	917.62
411.132	948.62
411.355	899.62
411.578	912.62
411.802	932.62
412.025	920.62
412.249	922.62
412.472	896.62
412.695	892.62
412.919	896.62
413.142	888.62
413.365	916.62
413.589	956.62
413.812	978.62
414.035	1009.62
414.258	900.62
414.482	894.62
414.705	911.62
414.928	918.62
415.151	910.62
415.374	933.62
415.597	929.62
415.821	932.62
416.044	918.62
416.267	949.62
416.49	899.62
416.713	901.62
416.936	947.62
417.159	969.62
417.382	978.62
417.605	900.62
417.828	940.62
418.051	966.62
418.274	926.62
418.497	909.62
418.72	920.62
418.943	911.62
419.166	966.62
419.389	992.62
419.611	939.62
419.834	915.62
420.057	939.62
420.28	918.62
420.503	932.62
420.726	948.62
420.948	909.62
421.171	907.62
421.394	915.62
421.617	945.62
421.839	972.62
422.062	958.62
422.285	925.62
422.507	901.62
422.73	874.62
422.953	851.62
423.175	871.62
423.398	872.62
423.621	915.62
423.843	934.62
424.066	944.62
424.288	982.62
424.511	1024.62
424.733	966.62
424.956	934.62
425.178	934.62
425.401	936.62
425.623	938.62
425.846	929.62
426.068	946.62
426.291	978.62
426.513	918.62
426.735	954.62
426.958	1009.62
427.18	1036.62
427.402	981.62
427.625	1006.62
427.847	986.62
428.069	914.62
428.292	930.62
428.514	875.62
428.736	870.62
428.958	913.62
429.181	920.62
429.403	1047.62
429.625	1198.62
429.847	1020.62
430.069	950.62
430.292	1012.62
430.514	1022.62
430.736	964.62
430.958	965.62
431.18	902.62
431.402	892.62
431.624	827.62
431.846	804.62
432.068	719.62
432.29	735.62
432.512	779.62
432.734	855.62
432.956	908.62
433.178	956.62
433.4	958.62
433.622	952.62
433.844	896.62
434.066	828.62
434.287	817.62
434.509	766.62
434.731	802.62
434.953	905.62
435.175	906.62
435.397	911.62
435.618	874.62
435.84	850.62
436.062	850.62
436.284	874.62
436.505	921.62
436.727	957.62
436.949	898.62
437.17	875.62
437.392	854.62
437.614	828.62
437.835	791.62
438.057	798.62
438.278	808.62
438.5	833.62
438.721	875.62
438.943	913.62
439.165	911.62
439.386	917.62
439.608	926.62
439.829	953.62
440.05	931.62
440.272	938.62
440.493	949.62
440.715	956.62
440.936	995.62
441.158	1027.62
441.379	1038.62
441.6	1000.62
441.822	1010.62
442.043	970.62
442.264	981.62
442.486	934.62
442.707	957.62
442.928	960.62
443.149	966.62
443.371	985.62
443.592	995.62
443.813	948.62
444.034	992.62
444.255	994.62
444.476	1003.62
444.698	1019.62
444.919	1044.62
445.14	1114.62
445.361	1076.62
445.582	1043.62
445.803	1055.62
446.024	1019.62
446.245	1062.62
446.466	1028.62
446.687	1032.62
446.908	1024.62
447.129	1013.62
447.35	966.62
447.571	977.62
447.792	952.62
448.013	930.62
448.234	922.62
448.455	987.62
448.675	993.62
448.896	907.62
449.117	884.62
449.338	896.62
449.559	964.62
449.779	967.62
450	1015.62
450.221	1011.62
450.442	1011.62
450.662	911.62
450.883	873.62
451.104	866.62
451.324	874.62
451.545	896.62
451.766	865.62
451.986	824.62
452.207	817.62
452.428	789.62
452.648	760.62
452.869	755.62
453.089	789.62
453.31	741.62
453.53	756.62
453.751	720.62
453.971	693.62
454.192	697.62
454.412	747.62
454.633	766.62
454.853	753.62
455.073	739.62
455.294	782.62
455.514	770.62
455.734	728.62
455.955	734.62
456.175	728.62
456.395	732.62
456.616	721.62
456.836	735.62
457.056	712.62
457.276	707.62
457.497	689.62
457.717	689.62
457.937	679.62
458.157	674.62
458.377	678.62
458.598	649.62
458.818	671.62
459.038	708.62
459.258	734.62
459.478	716.62
459.698	689.62
459.918	709.62
460.138	769.62
460.358	802.62
460.578	832.62
460.798	853.62
461.018	864.62
461.238	852.62
461.458	820.62
461.678	806.62
461.898	799.62
462.118	802.62
462.338	824.62
462.558	823.62
462.777	823.62
462.997	855.62
463.217	875.62
463.437	879.62
463.657	829.62
463.876	799.62
464.096	806.62
464.316	810.62
464.536	850.62
464.755	845.62
464.975	852.62
465.195	866.62
465.414	868.62
465.634	883.62
465.854	840.62
466.073	939.62
466.293	906.62
466.512	853.62
466.732	890.62
466.951	880.62
467.171	885.62
467.391	890.62
467.61	867.62
467.829	891.62
468.049	960.62
468.268	1037.62
468.488	926.62
468.707	915.62
468.927	918.62
469.146	892.62
469.365	907.62
469.585	904.62
469.804	896.62
470.023	901.62
470.243	932.62
470.462	939.62
470.681	894.62
470.901	922.62
471.12	924.62
471.339	914.62
471.558	903.62
471.777	906.62
471.997	902.62
472.216	849.62
472.435	766.62
472.654	738.62
472.873	780.62
473.092	821.62
473.311	807.62
473.53	775.62
473.749	807.62
473.968	828.62
474.187	842.62
474.406	837.62
474.625	814.62
474.844	864.62
475.063	851.62
475.282	849.62
475.501	818.62
475.72	826.62
475.939	899.62
476.158	878.62
476.377	862.62
476.596	850.62
476.814	822.62
477.033	786.62
477.252	826.62
477.471	899.62
477.69	904.62
477.908	934.62
478.127	950.62
478.346	1010.62
478.564	987.62
478.783	987.62
479.002	1004.62
479.22	976.62
479.439	984.62
479.658	1029.62
479.876	955.62
480.095	912.62
480.313	894.62
480.532	866.62
480.751	840.62
480.969	840.62
481.188	803.62
481.406	778.62
481.624	795.62
481.843	782.62
482.061	819.62
482.28	855.62
482.498	893.62
482.717	825.62
482.935	868.62
483.153	975.62
483.372	1024.62
483.59	1004.62
483.808	962.62
484.027	943.62
484.245	992.62
484.463	1193.62
484.681	1288.62
484.9	1008.62
485.118	953.62
485.336	908.62
485.554	901.62
485.772	910.62
485.99	883.62
486.209	867.62
486.427	887.62
486.645	934.62
486.863	991.62
487.081	1024.62
487.299	1005.62
487.517	1042.62
487.735	1074.62
487.953	1204.62
488.171	1162.62
488.389	1115.62
488.607	1064.62
488.825	1141.62
489.043	1050.62
489.261	966.62
489.479	1039.62
489.696	1031.62
489.914	1011.62
490.132	1003.62
490.35	1056.62
490.568	1137.62
490.786	1164.62
491.003	1182.62
491.221	1214.62
491.439	1281.62
491.657	1289.62
491.874	1336.62
492.092	1416.62
492.31	1481.62
492.527	1445.62
492.745	1355.62
492.963	1294.62
493.18	1297.62
493.398	1305.62
493.615	1298.62
493.833	1259.62
494.05	1222.62
494.268	1226.62
494.485	1205.62
494.703	1208.62
494.92	1215.62
495.138	1218.62
495.355	1232.62
495.573	1255.62
495.79	1273.62
496.008	1252.62
496.225	1220.62
496.442	1236.62
496.66	1198.62
496.877	1199.62
497.094	1225.62
497.312	1232.62
497.529	1154.62
497.746	1171.62
497.963	1251.62
498.181	1309.62
498.398	1208.62
498.615	1162.62
498.832	1127.62
499.049	1145.62
499.267	1150.62
499.484	1236.62
499.701	1312.62
499.918	1360.62
500.135	1426.62
500.352	1534.62
500.569	1536.62
500.786	1667.62
501.003	1492.62
501.22	1421.62
501.437	1385.62
501.654	1379.62
501.871	1307.62
502.088	1175.62
502.305	1175.62
502.522	1124.62
502.739	1094.62
502.956	1049.62
503.172	1040.62
503.389	995.62
503.606	973.62
503.823	991.62
504.04	982.62
504.256	973.62
504.473	964.62
504.69	1016.62
504.907	979.62
505.123	956.62
505.34	1054.62
505.557	1315.62
505.773	1085.62
505.99	936.62
506.207	888.62
506.423	885.62
506.64	868.62
506.856	896.62
507.073	1057.62
507.289	1060.62
507.506	984.62
507.722	876.62
507.939	856.62
508.155	828.62
508.372	821.62
508.588	803.62
508.805	777.62
509.021	769.62
509.238	739.62
509.454	770.62
509.67	755.62
509.887	721.62
510.103	702.62
510.319	731.62
510.536	764.62
510.752	778.62
510.968	774.62
511.184	785.62
511.401	746.62
511.617	712.62
511.833	692.62
512.049	693.62
512.265	684.62
512.481	720.62
512.698	726.62
512.914	748.62
513.13	742.62
513.346	694.62
513.562	678.62
513.778	690.62
513.994	743.62
514.21	731.62
514.426	761.62
514.642	818.62
514.858	754.62
515.074	716.62
515.29	698.62
515.506	750.62
515.721	728.62
515.937	720.62
516.153	793.62
516.369	788.62
516.585	727.62
516.801	711.62
517.016	718.62
517.232	747.62
517.448	746.62
517.664	763.62
517.879	790.62
518.095	800.62
518.311	779.62
518.527	738.62
518.742	740.62
518.958	735.62
519.173	755.62
519.389	802.62
519.605	779.62
519.82	767.62
520.036	796.62
520.251	762.62
520.467	762.62
520.682	791.62
520.898	775.62
521.113	730.62
521.329	736.62
521.544	749.62
521.76	743.62
521.975	696.62
522.19	688.62
522.406	736.62
522.621	913.62
522.836	841.62
523.052	729.62
523.267	728.62
523.482	773.62
523.698	725.62
523.913	736.62
524.128	740.62
524.343	802.62
524.559	798.62
524.774	777.62
524.989	761.62
525.204	746.62
525.419	732.62
525.634	715.62
525.849	740.62
526.064	745.62
526.28	716.62
526.495	643.62
526.71	634.62
526.925	623.62
527.14	608.62
527.355	636.62
527.57	626.62
527.785	629.62
527.999	663.62
528.214	661.62
528.429	710.62
528.644	722.62
528.859	785.62
529.074	801.62
529.289	847.62
529.503	884.62
529.718	798.62
529.933	733.62
530.148	664.62
530.363	640.62
530.577	607.62
530.792	609.62
531.007	626.62
531.221	618.62
531.436	631.62
531.651	634.62
531.865	675.62
532.08	641.62
532.295	628.62
532.509	620.62
532.724	603.62
532.938	643.62
533.153	688.62
533.367	691.62
533.582	731.62
533.796	734.62
534.011	700.62
534.225	654.62
534.44	602.62
534.654	618.62
534.868	635.62
535.083	660.62
535.297	667.62
535.511	659.62
535.726	670.62
535.94	654.62
536.154	647.62
536.369	604.62
536.583	598.62
536.797	585.62
537.011	592.62
537.225	576.62
537.44	585.62
537.654	627.62
537.868	611.62
538.082	585.62
538.296	608.62
538.51	634.62
538.724	664.62
538.938	700.62
539.153	700.62
539.367	689.62
539.581	681.62
539.795	649.62
540.009	644.62
540.222	623.62
540.436	684.62
540.65	745.62
540.864	757.62
541.078	803.62
541.292	800.62
541.506	869.62
541.72	918.62
541.934	1012.62
542.147	1075.62
542.361	960.62
542.575	899.62
542.789	843.62
543.002	761.62
543.216	712.62
543.43	741.62
543.644	792.62
543.857	879.62
544.071	909.62
544.285	918.62
544.498	908.62
544.712	895.62
544.925	913.62
545.139	965.62
545.352	926.62
545.566	915.62
545.779	944.62
545.993	933.62
546.206	949.62
546.42	942.62
546.633	934.62
546.847	937.62
547.06	922.62
547.274	965.62
547.487	964.62
547.7	980.62
547.914	966.62
548.127	931.62
548.34	932.62
548.554	905.62
548.767	908.62
548.98	920.62
549.193	909.62
549.407	978.62
549.62	923.62
549.833	916.62
550.046	878.62
550.259	905.62
550.473	857.62
550.686	858.62
550.899	840.62
551.112	815.62
551.325	797.62
551.538	802.62
551.751	882.62
551.964	696.62
552.177	721.62
552.39	764.62
552.603	815.62
552.816	851.62
553.029	903.62
553.242	914.62
553.455	910.62
553.667	886.62
553.88	851.62
554.093	823.62
554.306	815.62
554.519	843.62
554.732	822.62
554.944	823.62
555.157	817.62
555.37	801.62
555.583	794.62
555.795	773.62
556.008	753.62
556.221	715.62
556.433	715.62
556.646	719.62
556.859	726.62
557.071	716.62
557.284	764.62
557.496	772.62
557.709	725.62
557.921	725.62
558.134	729.62
558.346	708.62
558.559	711.62
558.771	705.62
558.984	680.62
559.196	653.62
559.409	668.62
559.621	652.62
559.833	654.62
560.046	653.62
560.258	673.62
560.47	687.62
560.683	687.62
560.895	663.62
561.107	656.62
561.32	663.62
561.532	697.62
561.744	664.62
561.956	667.62
562.168	654.62
562.381	652.62
562.593	621.62
562.805	635.62
563.017	615.62
563.229	628.62
563.441	644.62
563.653	627.62
563.865	620.62
564.077	616.62
564.289	598.62
564.501	603.62
564.713	612.62
564.925	654.62
565.137	657.62
565.349	592.62
565.561	610.62
565.773	611.62
565.985	603.62
566.197	642.62
566.408	656.62
566.62	662.62
566.832	667.62
567.044	680.62
567.255	663.62
567.467	658.62
567.679	638.62
567.891	634.62
568.102	610.62
568.314	567.62
568.526	518.62
568.737	526.62
568.949	498.62
569.161	452.62
569.372	436.62
569.584	450.62
569.795	441.62
570.007	470.62
570.218	424.62
570.43	418.62
570.641	435.62
570.853	479.62
571.064	448.62
571.276	467.62
571.487	459.62
571.698	483.62
571.91	465.62
572.121	458.62
572.333	438.62
572.544	442.62
572.755	416.62
572.966	376.62
573.178	386.62
573.389	392.62
573.6	404.62
573.811	431.62
574.023	403.62
574.234	386.62
574.445	378.62
574.656	376.62
574.867	375.62
575.078	390.62
575.289	401.62
575.501	398.62
575.712	411.62
575.923	377.62
576.134	395.62
576.345	391.62
576.556	406.62
576.767	386.62
576.978	402.62
577.188	393.62
577.399	364.62
577.61	366.62
577.821	374.62
578.032	352.62
578.243	373.62
578.454	371.62
578.665	360.62
578.875	348.62
579.086	348.62
579.297	337.62
579.508	347.62
579.718	344.62
579.929	332.62
580.14	335.62
580.35	334.62
580.561	349.62
580.772	358.62
580.982	348.62
581.193	368.62
581.403	363.62
581.614	357.62
581.825	354.62
582.035	339.62
582.246	336.62
582.456	346.62
582.667	349.62
582.877	337.62
583.087	338.62
583.298	322.62
583.508	331.62
583.719	312.62
583.929	326.62
584.139	330.62
584.35	303.62
584.56	336.62
584.77	320.62
584.981	327.62
585.191	337.62
585.401	315.62
585.611	323.62
585.821	337.62
586.032	316.62
586.242	309.62
586.452	311.62
586.662	320.62
586.872	290.62
587.082	310.62
587.292	309.62
587.502	323.62
587.713	313.62
587.923	311.62
588.133	310.62
588.343	320.62
588.553	308.62
588.762	305.62
588.972	303.62
589.182	313.62
589.392	309.62
589.602	312.62
589.812	319.62
590.022	297.62
590.232	308.62
590.441	320.62
590.651	311.62
590.861	294.62
591.071	296.62
591.281	302.62
591.49	316.62
591.7	309.62
591.91	303.62
592.119	315.62
592.329	332.62
592.539	314.62
592.748	302.62
592.958	330.62
593.167	319.62
593.377	318.62
593.587	325.62
593.796	299.62
594.006	319.62
594.215	328.62
594.424	324.62
594.634	311.62
594.843	348.62
595.053	357.62
595.262	353.62
595.472	322.62
595.681	330.62
595.89	303.62
596.1	307.62
596.309	312.62
596.518	319.62
596.727	324.62
596.937	317.62
597.146	316.62
597.355	308.62
597.564	303.62
597.774	295.62
597.983	268.62
598.192	281.62
598.401	285.62
598.61	286.62
598.819	280.62
599.028	287.62
599.237	295.62
599.446	284.62
599.655	296.62
599.864	287.62
600.073	276.62
600.282	278.62
600.491	274.62
600.7	299.62
600.909	297.62
601.118	308.62
601.327	307.62
601.536	327.62
601.745	327.62
601.953	330.62
602.162	344.62
602.371	365.62
602.58	343.62
602.789	351.62
602.997	355.62
603.206	346.62
603.415	346.62
603.623	371.62
603.832	361.62
604.041	332.62
604.249	303.62
604.458	313.62
604.666	305.62
604.875	289.62
605.084	314.62
605.292	327.62
605.501	333.62
605.709	366.62
605.918	372.62
606.126	352.62
606.334	363.62
606.543	364.62
606.751	348.62
606.96	351.62
607.168	344.62
607.376	346.62
607.585	339.62
607.793	346.62
608.001	368.62
608.21	355.62
608.418	370.62
608.626	369.62
608.834	366.62
609.043	373.62
609.251	355.62
609.459	349.62
609.667	352.62
609.875	365.62
610.083	371.62
610.291	367.62
610.499	358.62
610.707	350.62
610.916	349.62
611.124	345.62
611.332	363.62
611.54	336.62
611.748	352.62
611.955	353.62
612.163	355.62
612.371	356.62
612.579	355.62
612.787	358.62
612.995	348.62
613.203	360.62
613.411	365.62
613.618	360.62
613.826	366.62
614.034	348.62
614.242	361.62
614.449	355.62
614.657	331.62
614.865	344.62
615.072	362.62
615.28	355.62
615.488	352.62
615.695	361.62
615.903	343.62
616.111	328.62
616.318	352.62
616.526	345.62
616.733	325.62
616.941	343.62
617.148	366.62
617.356	344.62
617.563	339.62
617.771	326.62
617.978	346.62
618.185	328.62
618.393	348.62
618.6	322.62
618.807	336.62
619.015	347.62
619.222	331.62
619.429	329.62
619.637	290.62
619.844	276.62
620.051	299.62
620.258	315.62
620.466	324.62
620.673	325.62
620.88	309.62
621.087	317.62
621.294	294.62
621.501	294.62
621.708	310.62
621.915	318.62
622.122	316.62
622.329	337.62
622.536	312.62
622.743	324.62
622.95	316.62
623.157	304.62
623.364	312.62
623.571	302.62
623.778	308.62
623.985	324.62
624.192	344.62
624.399	322.62
624.606	312.62
624.812	306.62
625.019	309.62
625.226	290.62
625.433	287.62
625.639	273.62
625.846	282.62
626.053	241.62
626.259	251.62
626.466	243.62
626.673	237.62
626.879	227.62
627.086	228.62
627.293	284.62
627.499	279.62
627.706	294.62
627.912	302.62
628.119	295.62
628.325	297.62
628.532	296.62
628.738	292.62
628.945	288.62
629.151	279.62
629.357	290.62
629.564	294.62
629.77	282.62
629.976	283.62
630.183	268.62
630.389	259.62
630.595	280.62
630.802	278.62
631.008	270.62
631.214	260.62
631.42	262.62
631.627	270.62
631.833	254.62
632.039	267.62
632.245	276.62
632.451	248.62
632.657	256.62
632.863	267.62
633.069	258.62
633.275	254.62
633.481	239.62
633.688	247.62
633.893	247.62
634.099	249.62
634.305	257.62
634.511	234.62
634.717	239.62
634.923	232.62
635.129	228.62
635.335	226.62
635.541	239.62
635.747	227.62
635.952	256.62
636.158	255.62
636.364	268.62
636.57	260.62
636.775	265.62
636.981	256.62
637.187	251.62
637.392	263.62
637.598	268.62
637.804	266.62
638.009	252.62
638.215	264.62
638.421	259.62
638.626	245.62
638.832	266.62
639.037	251.62
639.243	246.62
639.448	259.62
639.654	236.62
639.859	221.62
640.065	225.62
640.27	240.62
640.475	243.62
640.681	252.62
640.886	245.62
641.091	231.62
641.297	250.62
641.502	260.62
641.707	258.62
641.913	258.62
642.118	267.62
642.323	243.62
642.528	247.62
642.733	238.62
642.939	246.62
643.144	233.62
643.349	239.62
643.554	264.62
643.759	215.62
643.964	238.62
644.169	236.62
644.374	235.62
644.579	236.62
644.784	240.62
644.989	254.62
645.194	246.62
645.399	247.62
645.604	234.62
645.809	235.62
646.014	238.62
646.219	238.62
646.423	234.62
646.628	225.62
646.833	250.62
647.038	234.62
647.243	239.62
647.447	246.62
647.652	220.62
647.857	224.62
648.062	225.62
648.266	222.62
648.471	230.62
648.676	238.62
648.88	235.62
649.085	244.62
649.289	246.62
649.494	230.62
649.698	230.62
649.903	229.62
650.107	250.62
650.312	221.62
650.516	222.62
650.721	224.62
650.925	239.62
651.13	211.62
651.334	219.62
651.539	221.62
651.743	225.62
651.947	212.62
652.152	211.62
652.356	215.62
652.56	205.62
652.764	199.62
652.969	209.62
653.173	218.62
653.377	216.62
653.581	197.62
653.785	197.62
653.99	202.62
654.194	207.62
654.398	200.62
654.602	202.62
654.806	186.62
655.01	207.62
655.214	183.62
655.418	202.62
655.622	194.62
655.826	204.62
656.03	207.62
656.234	228.62
656.438	241.62
656.642	215.62
656.846	202.62
657.049	213.62
657.253	187.62
657.457	185.62
657.661	178.62
657.865	176.62
658.068	161.62
658.272	152.62
658.476	165.62
658.68	164.62
658.883	143.62
659.087	148.62
659.291	127.62
659.494	136.62
659.698	127.62
659.901	135.62
660.105	124.62
660.309	121.62
660.512	100.62
660.716	112.62
660.919	104.62
661.123	115.62
661.326	116.62
661.53	110.62
661.733	112.62
661.936	98.62
662.14	92.62
662.343	98.62
662.546	93.62
662.75	95.62
662.953	84.62
663.156	79.62
663.36	92.62
663.563	85.62
663.766	98.62
663.969	92.62
664.173	83.62
664.376	79.62
664.579	92.62
664.782	84.62
664.985	82.62
665.188	85.62
665.391	92.62
665.594	93.62
665.797	96.62
666	73.62
666.203	87.62
666.406	73.62
666.609	78.62
666.812	83.62
667.015	82.62
667.218	70.62
667.421	83.62
667.624	84.62
667.827	83.62
668.03	73.62
668.232	83.62
668.435	87.62
668.638	85.62
668.841	91.62
669.043	75.62
669.246	100.62
669.449	86.62
669.651	82.62
669.854	85.62
670.057	78.62
670.259	71.62
670.462	74.62
670.665	75.62
670.867	75.62
671.07	89.62
671.272	88.62
671.475	79.62
671.677	79.62
671.88	75.62
672.082	79.62
672.284	80.62
672.487	92.62
672.689	88.62
672.892	79.62
