Data from WStandard_LampEnergy5.5LIBS07252019.E.O._I.C._HRD10591_16-06-45-920.txt Node
Date: Thu Jul 25 16:06:45 EDT 2019
User: cochatt
Spectrometer: HR+D1059
Trigger mode: 1
Integration Time (sec): 1.000000E-1
Scans to average: 1
Electric dark correction enabled: true
Nonlinearity correction enabled: false
Boxcar width: 0
XAxis mode: Wavelengths
Number of Pixels in Spectrum: 2048
>>>>>Begin Spectral Data<<<<<
223.165	-23.81
223.4	-23.81
223.635	-23.81
223.869	-5.81
224.104	-21.81
224.338	-3.81
224.573	-11.81
224.808	-19.81
225.042	-3.81
225.277	-16.81
225.511	0.19
225.746	17.19
225.98	7.19
226.215	13.19
226.449	1.19
226.683	13.19
226.918	23.19
227.152	32.19
227.387	38.19
227.621	45.19
227.856	42.19
228.09	54.19
228.324	57.19
228.559	62.19
228.793	144.19
229.027	364.19
229.262	378.19
229.496	383.19
229.73	393.19
229.964	445.19
230.199	456.19
230.433	479.19
230.667	508.19
230.901	544.19
231.136	490.19
231.37	466.19
231.604	466.19
231.838	465.19
232.072	489.19
232.306	462.19
232.541	487.19
232.775	585.19
233.009	625.19
233.243	585.19
233.477	536.19
233.711	548.19
233.945	580.19
234.179	565.19
234.413	596.19
234.647	661.19
234.881	613.19
235.115	550.19
235.349	577.19
235.583	573.19
235.817	579.19
236.051	545.19
236.285	558.19
236.519	610.19
236.753	694.19
236.987	675.19
237.221	691.19
237.455	745.19
237.689	745.19
237.922	696.19
238.156	660.19
238.39	691.19
238.624	706.19
238.858	771.19
239.091	796.19
239.325	829.19
239.559	947.19
239.793	969.19
240.027	1039.19
240.26	1060.19
240.494	783.19
240.728	711.19
240.961	767.19
241.195	763.19
241.429	829.19
241.662	841.19
241.896	762.19
242.13	783.19
242.363	870.19
242.597	940.19
242.83	885.19
243.064	899.19
243.298	974.19
243.531	952.19
243.765	954.19
243.998	950.19
244.232	825.19
244.465	777.19
244.699	784.19
244.932	896.19
245.166	1068.19
245.399	1025.19
245.633	922.19
245.866	891.19
246.099	952.19
246.333	954.19
246.566	979.19
246.8	1024.19
247.033	1193.19
247.266	1138.19
247.5	1093.19
247.733	1092.19
247.966	1136.19
248.2	1254.19
248.433	1194.19
248.666	1244.19
248.899	1337.19
249.133	1565.19
249.366	1775.19
249.599	1462.19
249.832	1280.19
250.066	1288.19
250.299	1311.19
250.532	1200.19
250.765	1122.19
250.998	1185.19
251.231	1216.19
251.465	1276.19
251.698	1187.19
251.931	1187.19
252.164	1240.19
252.397	1270.19
252.63	1256.19
252.863	1110.19
253.096	1112.19
253.329	1148.19
253.562	1232.19
253.795	1321.19
254.028	1300.19
254.261	1176.19
254.494	1184.19
254.727	1108.19
254.96	1174.19
255.193	1268.19
255.426	1413.19
255.659	1641.19
255.892	1742.19
256.124	1396.19
256.357	1330.19
256.59	1446.19
256.823	1472.19
257.056	1397.19
257.289	1744.19
257.521	1938.19
257.754	1716.19
257.987	1562.19
258.22	1780.19
258.452	1784.19
258.685	1464.19
258.918	1392.19
259.151	1427.19
259.383	1348.19
259.616	1202.19
259.849	1242.19
260.081	1428.19
260.314	1565.19
260.547	1720.19
260.779	1743.19
261.012	1633.19
261.244	1456.19
261.477	1376.19
261.71	1428.19
261.942	1396.19
262.175	1374.19
262.407	1474.19
262.64	1413.19
262.872	1270.19
263.105	1265.19
263.337	1282.19
263.57	1305.19
263.802	1316.19
264.035	1268.19
264.267	1149.19
264.499	1137.19
264.732	1226.19
264.964	1333.19
265.197	1402.19
265.429	1401.19
265.661	1596.19
265.894	1753.19
266.126	1878.19
266.358	1623.19
266.591	1664.19
266.823	1835.19
267.055	1675.19
267.287	1621.19
267.52	1588.19
267.752	1570.19
267.984	1572.19
268.216	1638.19
268.448	1650.19
268.681	1659.19
268.913	1515.19
269.145	1437.19
269.377	1408.19
269.609	1520.19
269.841	1778.19
270.073	2023.19
270.306	2290.19
270.538	2468.19
270.77	2090.19
271.002	1753.19
271.234	1670.19
271.466	1635.19
271.698	1849.19
271.93	2247.19
272.162	2281.19
272.394	1991.19
272.626	1915.19
272.858	1718.19
273.09	1461.19
273.322	1461.19
273.553	1370.19
273.785	1366.19
274.017	1454.19
274.249	1589.19
274.481	1600.19
274.713	1459.19
274.945	1405.19
275.176	1444.19
275.408	1434.19
275.64	1405.19
275.872	1403.19
276.104	1463.19
276.335	1699.19
276.567	1961.19
276.799	1942.19
277.031	1691.19
277.262	1621.19
277.494	1702.19
277.726	1894.19
277.957	1855.19
278.189	1685.19
278.421	1606.19
278.652	1488.19
278.884	1477.19
279.115	1476.19
279.347	1528.19
279.579	1472.19
279.81	1492.19
280.042	1649.19
280.273	1804.19
280.505	1796.19
280.736	1860.19
280.968	1768.19
281.199	1509.19
281.431	1458.19
281.662	1446.19
281.894	1441.19
282.125	1493.19
282.356	1551.19
282.588	1580.19
282.819	1556.19
283.051	1677.19
283.282	1829.19
283.513	1801.19
283.745	1527.19
283.976	1444.19
284.207	1432.19
284.439	1442.19
284.67	1490.19
284.901	1506.19
285.132	1570.19
285.364	1507.19
285.595	1535.19
285.826	1509.19
286.057	1540.19
286.288	1482.19
286.52	1587.19
286.751	1679.19
286.982	1794.19
287.213	1613.19
287.444	1505.19
287.675	1485.19
287.906	1537.19
288.138	1652.19
288.369	1609.19
288.6	1556.19
288.831	1458.19
289.062	1494.19
289.293	1518.19
289.524	1528.19
289.755	1572.19
289.986	1589.19
290.217	1480.19
290.448	1504.19
290.679	1525.19
290.91	1513.19
291.141	1542.19
291.371	1627.19
291.602	1643.19
291.833	1588.19
292.064	1641.19
292.295	1614.19
292.526	1659.19
292.757	1722.19
292.987	1649.19
293.218	1554.19
293.449	1688.19
293.68	1933.19
293.91	2066.19
294.141	1918.19
294.372	1813.19
294.603	1800.19
294.833	1942.19
295.064	1833.19
295.295	1669.19
295.525	1625.19
295.756	1500.19
295.987	1412.19
296.217	1460.19
296.448	1480.19
296.679	1520.19
296.909	1515.19
297.14	1478.19
297.37	1502.19
297.601	1604.19
297.831	1757.19
298.062	1800.19
298.292	1590.19
298.523	1512.19
298.753	1531.19
298.984	1566.19
299.214	1550.19
299.445	1595.19
299.675	1622.19
299.905	1617.19
300.136	1595.19
300.366	1582.19
300.597	1501.19
300.827	1491.19
301.057	1549.19
301.288	1656.19
301.518	1612.19
301.748	1637.19
301.979	1736.19
302.209	1726.19
302.439	1894.19
302.669	1987.19
302.9	1831.19
303.13	1689.19
303.36	1612.19
303.59	1671.19
303.82	1654.19
304.051	1622.19
304.281	1659.19
304.511	1662.19
304.741	1741.19
304.971	1924.19
305.201	2088.19
305.431	1985.19
305.661	1581.19
305.891	1470.19
306.121	1453.19
306.352	1486.19
306.582	1597.19
306.812	1704.19
307.042	1867.19
307.272	1832.19
307.502	1861.19
307.731	2025.19
307.961	2186.19
308.191	2050.19
308.421	1731.19
308.651	1615.19
308.881	1620.19
309.111	1582.19
309.341	1548.19
309.571	1584.19
309.8	1601.19
310.03	1571.19
310.26	1564.19
310.49	1566.19
310.72	1627.19
310.949	1679.19
311.179	1683.19
311.409	1713.19
311.639	1605.19
311.868	1591.19
312.098	1596.19
312.328	1617.19
312.557	1600.19
312.787	1618.19
313.017	1688.19
313.246	1659.19
313.476	1672.19
313.706	1722.19
313.935	1705.19
314.165	1717.19
314.394	1765.19
314.624	1856.19
314.853	1968.19
315.083	2008.19
315.312	2087.19
315.542	1974.19
315.771	1720.19
316.001	1697.19
316.23	1826.19
316.46	1813.19
316.689	1798.19
316.919	1687.19
317.148	1634.19
317.377	1630.19
317.607	1774.19
317.836	1937.19
318.065	2054.19
318.295	2008.19
318.524	1893.19
318.753	1827.19
318.983	1795.19
319.212	1813.19
319.441	1757.19
319.67	1733.19
319.9	1723.19
320.129	1824.19
320.358	1920.19
320.587	1974.19
320.816	1983.19
321.046	1909.19
321.275	1762.19
321.504	1817.19
321.733	1980.19
321.962	1921.19
322.191	1758.19
322.42	1756.19
322.649	1693.19
322.878	1712.19
323.108	1705.19
323.337	1790.19
323.566	1822.19
323.795	1826.19
324.024	1798.19
324.253	1733.19
324.482	1768.19
324.71	1747.19
324.939	1657.19
325.168	1668.19
325.397	1709.19
325.626	1804.19
325.855	1810.19
326.084	1720.19
326.313	1738.19
326.542	1740.19
326.77	1860.19
326.999	1850.19
327.228	1760.19
327.457	1701.19
327.686	1671.19
327.914	1692.19
328.143	1733.19
328.372	1731.19
328.6	1715.19
328.829	1749.19
329.058	1677.19
329.287	1677.19
329.515	1744.19
329.744	1759.19
329.972	1841.19
330.201	1922.19
330.43	1883.19
330.658	1848.19
330.887	1847.19
331.115	1832.19
331.344	1868.19
331.572	1846.19
331.801	1804.19
332.03	1816.19
332.258	1845.19
332.486	1846.19
332.715	1880.19
332.943	1877.19
333.172	1830.19
333.4	1851.19
333.629	1933.19
333.857	2024.19
334.085	2186.19
334.314	2481.19
334.542	2808.19
334.771	2542.19
334.999	2224.19
335.227	2130.19
335.455	1960.19
335.684	1984.19
335.912	1995.19
336.14	2045.19
336.369	2038.19
336.597	1904.19
336.825	1855.19
337.053	1933.19
337.281	1994.19
337.51	2121.19
337.738	2204.19
337.966	2094.19
338.194	1939.19
338.422	1861.19
338.65	1829.19
338.878	1811.19
339.106	1773.19
339.334	1732.19
339.562	1744.19
339.79	1780.19
340.018	1848.19
340.246	1895.19
340.474	1929.19
340.702	1883.19
340.93	1857.19
341.158	1869.19
341.386	1843.19
341.614	1816.19
341.842	1819.19
342.07	1797.19
342.298	1844.19
342.526	1821.19
342.754	1760.19
342.981	1730.19
343.209	1791.19
343.437	1769.19
343.665	1798.19
343.893	1817.19
344.12	1955.19
344.348	1988.19
344.576	1930.19
344.804	1813.19
345.031	1808.19
345.259	1827.19
345.487	1742.19
345.714	1683.19
345.942	1658.19
346.17	1674.19
346.397	1744.19
346.625	1743.19
346.853	1656.19
347.08	1620.19
347.308	1663.19
347.535	1646.19
347.763	1765.19
347.99	1701.19
348.218	1633.19
348.445	1661.19
348.673	1669.19
348.9	1721.19
349.128	1800.19
349.355	1859.19
349.583	1787.19
349.81	1698.19
350.037	1594.19
350.265	1553.19
350.492	1602.19
350.72	1630.19
350.947	1698.19
351.174	1758.19
351.402	1658.19
351.629	1563.19
351.856	1599.19
352.083	1531.19
352.311	1578.19
352.538	1613.19
352.765	1692.19
352.992	1744.19
353.22	1703.19
353.447	1619.19
353.674	1601.19
353.901	1730.19
354.128	1618.19
354.355	1609.19
354.583	1674.19
354.81	1742.19
355.037	1744.19
355.264	1754.19
355.491	1705.19
355.718	1697.19
355.945	1649.19
356.172	1636.19
356.399	1613.19
356.626	1586.19
356.853	1658.19
357.08	1821.19
357.307	1972.19
357.534	2048.19
357.761	1765.19
357.988	1625.19
358.215	1570.19
358.441	1613.19
358.668	1615.19
358.895	1596.19
359.122	1694.19
359.349	1865.19
359.576	1902.19
359.802	1677.19
360.029	1626.19
360.256	1590.19
360.483	1617.19
360.709	1649.19
360.936	1738.19
361.163	1741.19
361.39	1955.19
361.616	2125.19
361.843	2023.19
362.07	1922.19
362.296	1669.19
362.523	1604.19
362.749	1627.19
362.976	1656.19
363.203	1668.19
363.429	1651.19
363.656	1600.19
363.882	1628.19
364.109	1825.19
364.335	2044.19
364.562	1889.19
364.788	1800.19
365.015	1737.19
365.241	1607.19
365.468	1696.19
365.694	1730.19
365.92	1826.19
366.147	1757.19
366.373	1634.19
366.599	1627.19
366.826	1604.19
367.052	1634.19
367.278	1651.19
367.505	1622.19
367.731	1685.19
367.957	1704.19
368.184	1717.19
368.41	1863.19
368.636	1866.19
368.862	1885.19
369.089	1911.19
369.315	1837.19
369.541	1736.19
369.767	1679.19
369.993	1615.19
370.219	1641.19
370.445	1643.19
370.672	1774.19
370.898	1885.19
371.124	1868.19
371.35	1732.19
371.576	1798.19
371.802	1864.19
372.028	1836.19
372.254	1709.19
372.48	1688.19
372.706	1666.19
372.932	1650.19
373.158	1667.19
373.384	1699.19
373.61	1761.19
373.835	1869.19
374.061	1797.19
374.287	1718.19
374.513	1704.19
374.739	1736.19
374.965	1750.19
375.191	1744.19
375.416	1800.19
375.642	1808.19
375.868	1890.19
376.094	1968.19
376.319	1883.19
376.545	1712.19
376.771	1797.19
376.997	1885.19
377.222	1858.19
377.448	1796.19
377.674	1838.19
377.899	1810.19
378.125	1912.19
378.35	1923.19
378.576	1749.19
378.802	1678.19
379.027	1666.19
379.253	1692.19
379.478	1778.19
379.704	1744.19
379.929	1705.19
380.155	1723.19
380.38	1761.19
380.606	1757.19
380.831	1787.19
381.057	1821.19
381.282	1905.19
381.507	1773.19
381.733	1917.19
381.958	2002.19
382.184	1844.19
382.409	1782.19
382.634	1813.19
382.86	1804.19
383.085	1776.19
383.31	1853.19
383.535	2015.19
383.761	2108.19
383.986	2022.19
384.211	1974.19
384.436	1923.19
384.662	2013.19
384.887	2082.19
385.112	1952.19
385.337	2038.19
385.562	2032.19
385.787	2003.19
386.013	2040.19
386.238	2082.19
386.463	2005.19
386.688	2157.19
386.913	2237.19
387.138	2204.19
387.363	2048.19
387.588	2047.19
387.813	2052.19
388.038	2076.19
388.263	2116.19
388.488	2017.19
388.713	1897.19
388.938	1872.19
389.163	1906.19
389.387	1941.19
389.612	1970.19
389.837	2027.19
390.062	2045.19
390.287	1998.19
390.512	1974.19
390.736	1950.19
390.961	1908.19
391.186	1885.19
391.411	1878.19
391.636	1960.19
391.86	2008.19
392.085	1942.19
392.31	1974.19
392.534	2045.19
392.759	2037.19
392.984	2036.19
393.208	2010.19
393.433	2066.19
393.658	2150.19
393.882	2172.19
394.107	1999.19
394.331	1961.19
394.556	1955.19
394.78	1997.19
395.005	2071.19
395.229	2113.19
395.454	2302.19
395.678	2292.19
395.903	2184.19
396.127	2109.19
396.352	2121.19
396.576	2177.19
396.801	2240.19
397.025	2207.19
397.249	2177.19
397.474	2128.19
397.698	2108.19
397.922	2167.19
398.147	2266.19
398.371	2394.19
398.595	2395.19
398.82	2255.19
399.044	2324.19
399.268	2403.19
399.492	2555.19
399.717	2641.19
399.941	2713.19
400.165	2657.19
400.389	2615.19
400.613	2492.19
400.837	2747.19
401.062	3143.19
401.286	2709.19
401.51	2450.19
401.734	2592.19
401.958	2526.19
402.182	2358.19
402.406	2296.19
402.63	2263.19
402.854	2254.19
403.078	2242.19
403.302	2349.19
403.526	2378.19
403.75	2383.19
403.974	2404.19
404.198	2330.19
404.422	2457.19
404.645	2536.19
404.869	2530.19
405.093	2304.19
405.317	2311.19
405.541	2395.19
405.765	2398.19
405.988	2352.19
406.212	2401.19
406.436	2469.19
406.66	2544.19
406.883	2548.19
407.107	2822.19
407.331	3104.19
407.555	3350.19
407.778	3094.19
408.002	2581.19
408.226	2497.19
408.449	2425.19
408.673	2397.19
408.896	2424.19
409.12	2459.19
409.344	2388.19
409.567	2329.19
409.791	2377.19
410.014	2401.19
410.238	2514.19
410.461	2700.19
410.685	2429.19
410.908	2314.19
411.132	2336.19
411.355	2333.19
411.578	2284.19
411.802	2311.19
412.025	2349.19
412.249	2290.19
412.472	2239.19
412.695	2227.19
412.919	2242.19
413.142	2244.19
413.365	2304.19
413.589	2314.19
413.812	2408.19
414.035	2543.19
414.258	2294.19
414.482	2214.19
414.705	2293.19
414.928	2252.19
415.151	2240.19
415.374	2229.19
415.597	2296.19
415.821	2342.19
416.044	2418.19
416.267	2410.19
416.49	2189.19
416.713	2149.19
416.936	2242.19
417.159	2334.19
417.382	2372.19
417.605	2212.19
417.828	2280.19
418.051	2334.19
418.274	2254.19
418.497	2180.19
418.72	2176.19
418.943	2205.19
419.166	2332.19
419.389	2435.19
419.611	2282.19
419.834	2237.19
420.057	2251.19
420.28	2195.19
420.503	2149.19
420.726	2210.19
420.948	2248.19
421.171	2169.19
421.394	2195.19
421.617	2237.19
421.839	2210.19
422.062	2171.19
422.285	2137.19
422.507	2166.19
422.73	2146.19
422.953	2075.19
423.175	2060.19
423.398	2168.19
423.621	2178.19
423.843	2165.19
424.066	2221.19
424.288	2283.19
424.511	2331.19
424.733	2306.19
424.956	2100.19
425.178	2019.19
425.401	2078.19
425.623	2124.19
425.846	2121.19
426.068	2216.19
426.291	2300.19
426.513	2217.19
426.735	2180.19
426.958	2355.19
427.18	2504.19
427.402	2362.19
427.625	2369.19
427.847	2394.19
428.069	2221.19
428.292	2140.19
428.514	2072.19
428.736	2041.19
428.958	2122.19
429.181	2131.19
429.403	2325.19
429.625	2937.19
429.847	2558.19
430.069	2173.19
430.292	2349.19
430.514	2442.19
430.736	2240.19
430.958	2374.19
431.18	2301.19
431.402	2130.19
431.624	2127.19
431.846	2099.19
432.068	2030.19
432.29	2112.19
432.512	2122.19
432.734	2160.19
432.956	2194.19
433.178	2278.19
433.4	2256.19
433.622	2263.19
433.844	2139.19
434.066	2087.19
434.287	2075.19
434.509	2106.19
434.731	2274.19
434.953	2445.19
435.175	2402.19
435.397	2209.19
435.618	2188.19
435.84	2220.19
436.062	2259.19
436.284	2185.19
436.505	2216.19
436.727	2296.19
436.949	2235.19
437.17	2124.19
437.392	2117.19
437.614	2149.19
437.835	2096.19
438.057	2210.19
438.278	2284.19
438.5	2138.19
438.721	2094.19
438.943	2095.19
439.165	2072.19
439.386	2043.19
439.608	2098.19
439.829	2092.19
440.05	2101.19
440.272	2042.19
440.493	2023.19
440.715	2072.19
440.936	2261.19
441.158	2462.19
441.379	2392.19
441.6	2312.19
441.822	2270.19
442.043	2290.19
442.264	2155.19
442.486	2132.19
442.707	2093.19
442.928	2077.19
443.149	2155.19
443.371	2269.19
443.592	2348.19
443.813	2318.19
444.034	2283.19
444.255	2295.19
444.476	2327.19
444.698	2439.19
444.919	2357.19
445.14	2466.19
445.361	2402.19
445.582	2508.19
445.803	2428.19
446.024	2309.19
446.245	2402.19
446.466	2361.19
446.687	2229.19
446.908	2203.19
447.129	2084.19
447.35	2192.19
447.571	2150.19
447.792	2077.19
448.013	2068.19
448.234	2113.19
448.455	2128.19
448.675	2157.19
448.896	2010.19
449.117	2021.19
449.338	2033.19
449.559	2124.19
449.779	2251.19
450	2471.19
450.221	2708.19
450.442	2600.19
450.662	2303.19
450.883	1997.19
451.104	2004.19
451.324	2038.19
451.545	2077.19
451.766	2057.19
451.986	1959.19
452.207	1956.19
452.428	1892.19
452.648	1870.19
452.869	1948.19
453.089	2024.19
453.31	2082.19
453.53	2125.19
453.751	2038.19
453.971	1907.19
454.192	1934.19
454.412	2076.19
454.633	2022.19
454.853	1960.19
455.073	1834.19
455.294	1823.19
455.514	1805.19
455.734	1840.19
455.955	1897.19
456.175	1900.19
456.395	1873.19
456.616	1954.19
456.836	2008.19
457.056	1908.19
457.276	1918.19
457.497	1886.19
457.717	1808.19
457.937	1861.19
458.157	1867.19
458.377	1850.19
458.598	1872.19
458.818	1899.19
459.038	1996.19
459.258	2113.19
459.478	2129.19
459.698	2060.19
459.918	2114.19
460.138	2196.19
460.358	2240.19
460.578	2247.19
460.798	2271.19
461.018	2482.19
461.238	2378.19
461.458	2224.19
461.678	2251.19
461.898	2211.19
462.118	2134.19
462.338	2240.19
462.558	2269.19
462.777	2246.19
462.997	2321.19
463.217	2504.19
463.437	2471.19
463.657	2256.19
463.876	2260.19
464.096	2283.19
464.316	2264.19
464.536	2327.19
464.755	2352.19
464.975	2390.19
465.195	2302.19
465.414	2391.19
465.634	2392.19
465.854	2220.19
466.073	2372.19
466.293	2345.19
466.512	2080.19
466.732	2076.19
466.951	2148.19
467.171	2106.19
467.391	2059.19
467.61	2016.19
467.829	2012.19
468.049	2200.19
468.268	2476.19
468.488	2322.19
468.707	2185.19
468.927	2056.19
469.146	2048.19
469.365	1948.19
469.585	2052.19
469.804	2015.19
470.023	2033.19
470.243	2062.19
470.462	2055.19
470.681	1993.19
470.901	2062.19
471.12	2026.19
471.339	1979.19
471.558	1945.19
471.777	1950.19
471.997	2018.19
472.216	2048.19
472.435	1970.19
472.654	1999.19
472.873	2060.19
473.092	2226.19
473.311	2126.19
473.53	1936.19
473.749	1926.19
473.968	2058.19
474.187	2102.19
474.406	2238.19
474.625	2103.19
474.844	2073.19
475.063	2049.19
475.282	2119.19
475.501	2090.19
475.72	2032.19
475.939	2181.19
476.158	2145.19
476.377	2076.19
476.596	2091.19
476.814	2145.19
477.033	2132.19
477.252	2275.19
477.471	2312.19
477.69	2199.19
477.908	2121.19
478.127	2320.19
478.346	2497.19
478.564	2498.19
478.783	2417.19
479.002	2552.19
479.22	2466.19
479.439	2555.19
479.658	2874.19
479.876	2867.19
480.095	2475.19
480.313	2348.19
480.532	2275.19
480.751	2308.19
480.969	2345.19
481.188	2309.19
481.406	2269.19
481.624	2257.19
481.843	2273.19
482.061	2288.19
482.28	2393.19
482.498	2418.19
482.717	2413.19
482.935	2224.19
483.153	2316.19
483.372	2300.19
483.59	2263.19
483.808	2256.19
484.027	2313.19
484.245	2452.19
484.463	2824.19
484.681	3243.19
484.9	2549.19
485.118	2340.19
485.336	2332.19
485.554	2404.19
485.772	2549.19
485.99	2454.19
486.209	2438.19
486.427	2392.19
486.645	2466.19
486.863	2364.19
487.081	2537.19
487.299	2534.19
487.517	2496.19
487.735	2386.19
487.953	2360.19
488.171	2315.19
488.389	2348.19
488.607	2349.19
488.825	2602.19
489.043	2653.19
489.261	2390.19
489.479	2508.19
489.696	2529.19
489.914	2498.19
490.132	2419.19
490.35	2385.19
490.568	2531.19
490.786	2422.19
491.003	2321.19
491.221	2416.19
491.439	2477.19
491.657	2422.19
491.874	2475.19
492.092	2486.19
492.31	2486.19
492.527	2472.19
492.745	2477.19
492.963	2476.19
493.18	2505.19
493.398	2748.19
493.615	2782.19
493.833	2597.19
494.05	2470.19
494.268	2492.19
494.485	2570.19
494.703	2555.19
494.92	2460.19
495.138	2493.19
495.355	2492.19
495.573	2621.19
495.79	2788.19
496.008	2829.19
496.225	2650.19
496.442	2605.19
496.66	2684.19
496.877	2574.19
497.094	2713.19
497.312	2722.19
497.529	2682.19
497.746	2776.19
497.963	3166.19
498.181	3680.19
498.398	3382.19
498.615	3295.19
498.832	3144.19
499.049	3193.19
499.267	3137.19
499.484	3364.19
499.701	3704.19
499.918	3706.19
500.135	3973.19
500.352	4284.19
500.569	4213.19
500.786	4482.19
501.003	4157.19
501.22	3776.19
501.437	3696.19
501.654	3701.19
501.871	3620.19
502.088	3150.19
502.305	3178.19
502.522	3090.19
502.739	2800.19
502.956	2787.19
503.172	2768.19
503.389	2644.19
503.606	2575.19
503.823	2650.19
504.04	2584.19
504.256	2639.19
504.473	2683.19
504.69	2770.19
504.907	2584.19
505.123	2488.19
505.34	2544.19
505.557	3359.19
505.773	2816.19
505.99	2431.19
506.207	2286.19
506.423	2232.19
506.64	2217.19
506.856	2254.19
507.073	2537.19
507.289	2795.19
507.506	2627.19
507.722	2326.19
507.939	2173.19
508.155	2156.19
508.372	2182.19
508.588	2150.19
508.805	2067.19
509.021	2049.19
509.238	2035.19
509.454	1998.19
509.67	2080.19
509.887	2006.19
510.103	2002.19
510.319	2065.19
510.536	2132.19
510.752	2225.19
510.968	2238.19
511.184	2395.19
511.401	2334.19
511.617	2042.19
511.833	2000.19
512.049	1978.19
512.265	1999.19
512.481	1963.19
512.698	2091.19
512.914	2219.19
513.13	2113.19
513.346	2017.19
513.562	1954.19
513.778	1983.19
513.994	2108.19
514.21	2154.19
514.426	2163.19
514.642	2426.19
514.858	2272.19
515.074	2070.19
515.29	2019.19
515.506	2066.19
515.721	2091.19
515.937	2129.19
516.153	2396.19
516.369	2280.19
516.585	2184.19
516.801	2091.19
517.016	2032.19
517.232	2124.19
517.448	2188.19
517.664	2235.19
517.879	2185.19
518.095	2308.19
518.311	2226.19
518.527	2106.19
518.742	2074.19
518.958	2009.19
519.173	2040.19
519.389	2053.19
519.605	2072.19
519.82	2086.19
520.036	2115.19
520.251	2030.19
520.467	2060.19
520.682	2205.19
520.898	2268.19
521.113	2022.19
521.329	1974.19
521.544	2177.19
521.76	2052.19
521.975	1958.19
522.19	1936.19
522.406	1916.19
522.621	2274.19
522.836	2312.19
523.052	1921.19
523.267	1880.19
523.482	1944.19
523.698	1844.19
523.913	1785.19
524.128	1845.19
524.343	1987.19
524.559	1970.19
524.774	1877.19
524.989	1814.19
525.204	1809.19
525.419	1754.19
525.634	1800.19
525.849	1796.19
526.064	1842.19
526.28	1866.19
526.495	1797.19
526.71	1789.19
526.925	1766.19
527.14	1734.19
527.355	1757.19
527.57	1743.19
527.785	1818.19
527.999	1724.19
528.214	1686.19
528.429	1654.19
528.644	1692.19
528.859	1760.19
529.074	1679.19
529.289	1758.19
529.503	1739.19
529.718	1736.19
529.933	1760.19
530.148	1670.19
530.363	1651.19
530.577	1692.19
530.792	1750.19
531.007	1757.19
531.221	1714.19
531.436	1788.19
531.651	1816.19
531.865	1919.19
532.08	1828.19
532.295	1687.19
532.509	1648.19
532.724	1673.19
532.938	1714.19
533.153	1924.19
533.367	1790.19
533.582	1752.19
533.796	1712.19
534.011	1721.19
534.225	1733.19
534.44	1716.19
534.654	1659.19
534.868	1697.19
535.083	1762.19
535.297	1768.19
535.511	1726.19
535.726	1702.19
535.94	1715.19
536.154	1672.19
536.369	1645.19
536.583	1652.19
536.797	1643.19
537.011	1725.19
537.225	1638.19
537.44	1610.19
537.654	1653.19
537.868	1592.19
538.082	1562.19
538.296	1540.19
538.51	1555.19
538.724	1538.19
538.938	1587.19
539.153	1594.19
539.367	1621.19
539.581	1633.19
539.795	1696.19
540.009	1655.19
540.222	1667.19
540.436	1653.19
540.65	1772.19
540.864	1859.19
541.078	1723.19
541.292	1587.19
541.506	1596.19
541.72	1622.19
541.934	1624.19
542.147	1702.19
542.361	1603.19
542.575	1566.19
542.789	1555.19
543.002	1485.19
543.216	1556.19
543.43	1652.19
543.644	1738.19
543.857	1762.19
544.071	1663.19
544.285	1638.19
544.498	1615.19
544.712	1660.19
544.925	1636.19
545.139	1667.19
545.352	1584.19
545.566	1471.19
545.779	1537.19
545.993	1536.19
546.206	1589.19
546.42	1543.19
546.633	1482.19
546.847	1536.19
547.06	1558.19
547.274	1499.19
547.487	1513.19
547.7	1505.19
547.914	1532.19
548.127	1545.19
548.34	1562.19
548.554	1573.19
548.767	1556.19
548.98	1545.19
549.193	1494.19
549.407	1582.19
549.62	1609.19
549.833	1539.19
550.046	1534.19
550.259	1515.19
550.473	1469.19
550.686	1490.19
550.899	1492.19
551.112	1446.19
551.325	1433.19
551.538	1539.19
551.751	1814.19
551.964	1454.19
552.177	1429.19
552.39	1440.19
552.603	1536.19
552.816	1496.19
553.029	1547.19
553.242	1626.19
553.455	1531.19
553.667	1488.19
553.88	1518.19
554.093	1477.19
554.306	1404.19
554.519	1386.19
554.732	1380.19
554.944	1408.19
555.157	1459.19
555.37	1381.19
555.583	1408.19
555.795	1382.19
556.008	1350.19
556.221	1316.19
556.433	1274.19
556.646	1310.19
556.859	1291.19
557.071	1295.19
557.284	1303.19
557.496	1329.19
557.709	1291.19
557.921	1253.19
558.134	1254.19
558.346	1260.19
558.559	1238.19
558.771	1282.19
558.984	1196.19
559.196	1204.19
559.409	1226.19
559.621	1177.19
559.833	1256.19
560.046	1287.19
560.258	1270.19
560.47	1238.19
560.683	1242.19
560.895	1256.19
561.107	1245.19
561.32	1266.19
561.532	1251.19
561.744	1236.19
561.956	1232.19
562.168	1213.19
562.381	1194.19
562.593	1222.19
562.805	1190.19
563.017	1189.19
563.229	1217.19
563.441	1245.19
563.653	1212.19
563.865	1201.19
564.077	1218.19
564.289	1206.19
564.501	1249.19
564.713	1256.19
564.925	1276.19
565.137	1386.19
565.349	1306.19
565.561	1267.19
565.773	1294.19
565.985	1306.19
566.197	1411.19
566.408	1490.19
566.62	1479.19
566.832	1496.19
567.044	1484.19
567.255	1450.19
567.467	1464.19
567.679	1533.19
567.891	1568.19
568.102	1549.19
568.314	1472.19
568.526	1422.19
568.737	1369.19
568.949	1305.19
569.161	1212.19
569.372	1217.19
569.584	1153.19
569.795	1182.19
570.007	1132.19
570.218	1109.19
570.43	1090.19
570.641	1074.19
570.853	1122.19
571.064	1081.19
571.276	1085.19
571.487	1073.19
571.698	1055.19
571.91	1029.19
572.121	1012.19
572.333	994.19
572.544	981.19
572.755	975.19
572.966	968.19
573.178	977.19
573.389	989.19
573.6	989.19
573.811	1105.19
574.023	1016.19
574.234	968.19
574.445	968.19
574.656	934.19
574.867	895.19
575.078	934.19
575.289	954.19
575.501	904.19
575.712	916.19
575.923	920.19
576.134	927.19
576.345	889.19
576.556	906.19
576.767	867.19
576.978	896.19
577.188	854.19
577.399	891.19
577.61	850.19
577.821	828.19
578.032	845.19
578.243	846.19
578.454	857.19
578.665	834.19
578.875	837.19
579.086	828.19
579.297	818.19
579.508	863.19
579.718	873.19
579.929	844.19
580.14	819.19
580.35	792.19
580.561	808.19
580.772	918.19
580.982	850.19
581.193	818.19
581.403	796.19
581.614	795.19
581.825	811.19
582.035	803.19
582.246	810.19
582.456	818.19
582.667	821.19
582.877	789.19
583.087	779.19
583.298	775.19
583.508	757.19
583.719	793.19
583.929	796.19
584.139	781.19
584.35	772.19
584.56	764.19
584.77	788.19
584.981	772.19
585.191	774.19
585.401	793.19
585.611	778.19
585.821	779.19
586.032	761.19
586.242	730.19
586.452	774.19
586.662	760.19
586.872	775.19
587.082	738.19
587.292	772.19
587.502	783.19
587.713	792.19
587.923	727.19
588.133	750.19
588.343	756.19
588.553	737.19
588.762	722.19
588.972	747.19
589.182	776.19
589.392	776.19
589.602	756.19
589.812	746.19
590.022	739.19
590.232	724.19
590.441	766.19
590.651	772.19
590.861	754.19
591.071	701.19
591.281	730.19
591.49	740.19
591.7	711.19
591.91	741.19
592.119	734.19
592.329	739.19
592.539	779.19
592.748	772.19
592.958	793.19
593.167	776.19
593.377	787.19
593.587	810.19
593.796	779.19
594.006	782.19
594.215	769.19
594.424	773.19
594.634	762.19
594.843	748.19
595.053	774.19
595.262	732.19
595.472	716.19
595.681	712.19
595.89	702.19
596.1	720.19
596.309	717.19
596.518	670.19
596.727	690.19
596.937	701.19
597.146	670.19
597.355	675.19
597.564	679.19
597.774	649.19
597.983	646.19
598.192	646.19
598.401	642.19
598.61	647.19
598.819	632.19
599.028	644.19
599.237	631.19
599.446	614.19
599.655	600.19
599.864	592.19
600.073	596.19
600.282	590.19
600.491	599.19
600.7	589.19
600.909	570.19
601.118	588.19
601.327	607.19
601.536	606.19
601.745	591.19
601.953	594.19
602.162	605.19
602.371	611.19
602.58	590.19
602.789	599.19
602.997	606.19
603.206	598.19
603.415	596.19
603.623	570.19
603.832	589.19
604.041	594.19
604.249	581.19
604.458	563.19
604.666	569.19
604.875	579.19
605.084	588.19
605.292	593.19
605.501	577.19
605.709	587.19
605.918	574.19
606.126	565.19
606.334	559.19
606.543	572.19
606.751	572.19
606.96	573.19
607.168	551.19
607.376	545.19
607.585	573.19
607.793	549.19
608.001	532.19
608.21	556.19
608.418	555.19
608.626	572.19
608.834	551.19
609.043	571.19
609.251	557.19
609.459	553.19
609.667	546.19
609.875	565.19
610.083	544.19
610.291	566.19
610.499	570.19
610.707	564.19
610.916	518.19
611.124	552.19
611.332	554.19
611.54	534.19
611.748	525.19
611.955	528.19
612.163	518.19
612.371	533.19
612.579	532.19
612.787	530.19
612.995	532.19
613.203	531.19
613.411	520.19
613.618	536.19
613.826	526.19
614.034	522.19
614.242	545.19
614.449	509.19
614.657	498.19
614.865	527.19
615.072	526.19
615.28	520.19
615.488	501.19
615.695	536.19
615.903	521.19
616.111	534.19
616.318	529.19
616.526	512.19
616.733	505.19
616.941	515.19
617.148	526.19
617.356	507.19
617.563	506.19
617.771	497.19
617.978	480.19
618.185	514.19
618.393	483.19
618.6	525.19
618.807	500.19
619.015	475.19
619.222	483.19
619.429	491.19
619.637	485.19
619.844	476.19
620.051	478.19
620.258	483.19
620.466	461.19
620.673	470.19
620.88	469.19
621.087	458.19
621.294	455.19
621.501	457.19
621.708	467.19
621.915	480.19
622.122	466.19
622.329	476.19
622.536	462.19
622.743	452.19
622.95	460.19
623.157	458.19
623.364	453.19
623.571	449.19
623.778	449.19
623.985	453.19
624.192	444.19
624.399	453.19
624.606	451.19
624.812	441.19
625.019	421.19
625.226	465.19
625.433	438.19
625.639	448.19
625.846	432.19
626.053	431.19
626.259	412.19
626.466	399.19
626.673	416.19
626.879	409.19
627.086	429.19
627.293	416.19
627.499	420.19
627.706	421.19
627.912	407.19
628.119	409.19
628.325	416.19
628.532	411.19
628.738	420.19
628.945	429.19
629.151	410.19
629.357	423.19
629.564	413.19
629.77	387.19
629.976	392.19
630.183	395.19
630.389	402.19
630.595	397.19
630.802	408.19
631.008	378.19
631.214	387.19
631.42	372.19
631.627	355.19
631.833	376.19
632.039	379.19
632.245	387.19
632.451	373.19
632.657	392.19
632.863	374.19
633.069	376.19
633.275	372.19
633.481	372.19
633.688	361.19
633.893	360.19
634.099	362.19
634.305	364.19
634.511	360.19
634.717	352.19
634.923	357.19
635.129	345.19
635.335	354.19
635.541	365.19
635.747	383.19
635.952	344.19
636.158	354.19
636.364	364.19
636.57	358.19
636.775	333.19
636.981	347.19
637.187	344.19
637.392	352.19
637.598	332.19
637.804	340.19
638.009	346.19
638.215	358.19
638.421	344.19
638.626	345.19
638.832	344.19
639.037	352.19
639.243	328.19
639.448	353.19
639.654	332.19
639.859	344.19
640.065	318.19
640.27	357.19
640.475	329.19
640.681	352.19
640.886	324.19
641.091	332.19
641.297	334.19
641.502	344.19
641.707	341.19
641.913	339.19
642.118	322.19
642.323	330.19
642.528	316.19
642.733	338.19
642.939	331.19
643.144	334.19
643.349	328.19
643.554	336.19
643.759	303.19
643.964	314.19
644.169	331.19
644.374	321.19
644.579	314.19
644.784	307.19
644.989	316.19
645.194	317.19
645.399	321.19
645.604	315.19
645.809	312.19
646.014	314.19
646.219	320.19
646.423	313.19
646.628	327.19
646.833	316.19
647.038	328.19
647.243	321.19
647.447	308.19
647.652	330.19
647.857	318.19
648.062	316.19
648.266	313.19
648.471	332.19
648.676	315.19
648.88	317.19
649.085	317.19
649.289	317.19
649.494	333.19
649.698	316.19
649.903	300.19
650.107	279.19
650.312	313.19
650.516	298.19
650.721	294.19
650.925	265.19
651.13	292.19
651.334	277.19
651.539	285.19
651.743	287.19
651.947	282.19
652.152	278.19
652.356	266.19
652.56	251.19
652.764	258.19
652.969	268.19
653.173	266.19
653.377	269.19
653.581	227.19
653.785	244.19
653.99	234.19
654.194	256.19
654.398	248.19
654.602	224.19
654.806	242.19
655.01	249.19
655.214	237.19
655.418	238.19
655.622	245.19
655.826	229.19
656.03	249.19
656.234	285.19
656.438	290.19
656.642	273.19
656.846	258.19
657.049	228.19
657.253	230.19
657.457	209.19
657.661	203.19
657.865	205.19
658.068	175.19
658.272	157.19
658.476	161.19
658.68	153.19
658.883	147.19
659.087	141.19
659.291	162.19
659.494	141.19
659.698	136.19
659.901	129.19
660.105	128.19
660.309	120.19
660.512	113.19
660.716	121.19
660.919	124.19
661.123	118.19
661.326	106.19
661.53	108.19
661.733	116.19
661.936	106.19
662.14	124.19
662.343	96.19
662.546	104.19
662.75	96.19
662.953	94.19
663.156	91.19
663.36	82.19
663.563	86.19
663.766	93.19
663.969	80.19
664.173	86.19
664.376	94.19
664.579	78.19
664.782	83.19
664.985	93.19
665.188	84.19
665.391	80.19
665.594	84.19
665.797	75.19
666	85.19
666.203	90.19
666.406	86.19
666.609	92.19
666.812	83.19
667.015	87.19
667.218	70.19
667.421	81.19
667.624	81.19
667.827	93.19
668.03	87.19
668.232	87.19
668.435	84.19
668.638	84.19
668.841	84.19
669.043	77.19
669.246	77.19
669.449	81.19
669.651	86.19
669.854	85.19
670.057	77.19
670.259	86.19
670.462	84.19
670.665	91.19
670.867	72.19
671.07	85.19
671.272	93.19
671.475	97.19
671.677	78.19
671.88	73.19
672.082	78.19
672.284	91.19
672.487	89.19
672.689	89.19
672.892	88.19
