Data from WStandard_LampEnergy5.5LIBS07252019.E.O._I.C._HRD10591_16-08-30-921.txt Node
Date: Thu Jul 25 16:08:30 EDT 2019
User: cochatt
Spectrometer: HR+D1059
Trigger mode: 1
Integration Time (sec): 1.000000E-1
Scans to average: 1
Electric dark correction enabled: true
Nonlinearity correction enabled: false
Boxcar width: 0
XAxis mode: Wavelengths
Number of Pixels in Spectrum: 2048
>>>>>Begin Spectral Data<<<<<
223.165	-24.06
223.4	-24.06
223.635	-24.06
223.869	-25.06
224.104	-24.06
224.338	-13.06
224.573	-12.06
224.808	-14.06
225.042	-12.06
225.277	2.94
225.511	-4.06
225.746	-1.06
225.98	23.94
226.215	11.94
226.449	7.94
226.683	30.94
226.918	31.94
227.152	19.94
227.387	19.94
227.621	35.94
227.856	52.94
228.09	42.94
228.324	56.94
228.559	60.94
228.793	149.94
229.027	364.94
229.262	347.94
229.496	381.94
229.73	371.94
229.964	415.94
230.199	449.94
230.433	452.94
230.667	498.94
230.901	504.94
231.136	469.94
231.37	465.94
231.604	456.94
231.838	440.94
232.072	445.94
232.306	440.94
232.541	462.94
232.775	539.94
233.009	568.94
233.243	598.94
233.477	515.94
233.711	525.94
233.945	564.94
234.179	548.94
234.413	563.94
234.647	579.94
234.881	588.94
235.115	535.94
235.349	533.94
235.583	560.94
235.817	538.94
236.051	533.94
236.285	542.94
236.519	589.94
236.753	643.94
236.987	664.94
237.221	659.94
237.455	750.94
237.689	695.94
237.922	665.94
238.156	624.94
238.39	664.94
238.624	690.94
238.858	715.94
239.091	746.94
239.325	774.94
239.559	910.94
239.793	935.94
240.027	1027.94
240.26	1021.94
240.494	767.94
240.728	714.94
240.961	709.94
241.195	722.94
241.429	796.94
241.662	799.94
241.896	726.94
242.13	745.94
242.363	802.94
242.597	885.94
242.83	845.94
243.064	859.94
243.298	932.94
243.531	872.94
243.765	883.94
243.998	911.94
244.232	803.94
244.465	762.94
244.699	775.94
244.932	869.94
245.166	989.94
245.399	947.94
245.633	904.94
245.866	839.94
246.099	904.94
246.333	922.94
246.566	935.94
246.8	1000.94
247.033	1141.94
247.266	1064.94
247.5	1027.94
247.733	1025.94
247.966	1084.94
248.2	1156.94
248.433	1132.94
248.666	1178.94
248.899	1281.94
249.133	1466.94
249.366	1667.94
249.599	1346.94
249.832	1219.94
250.066	1235.94
250.299	1261.94
250.532	1156.94
250.765	1059.94
250.998	1087.94
251.231	1171.94
251.465	1229.94
251.698	1141.94
251.931	1176.94
252.164	1148.94
252.397	1229.94
252.63	1202.94
252.863	1088.94
253.096	1055.94
253.329	1117.94
253.562	1140.94
253.795	1256.94
254.028	1228.94
254.261	1137.94
254.494	1096.94
254.727	1085.94
254.96	1132.94
255.193	1234.94
255.426	1386.94
255.659	1569.94
255.892	1651.94
256.124	1342.94
256.357	1294.94
256.59	1399.94
256.823	1369.94
257.056	1367.94
257.289	1627.94
257.521	1841.94
257.754	1648.94
257.987	1541.94
258.22	1728.94
258.452	1661.94
258.685	1329.94
258.918	1292.94
259.151	1345.94
259.383	1279.94
259.616	1155.94
259.849	1212.94
260.081	1337.94
260.314	1449.94
260.547	1631.94
260.779	1693.94
261.012	1529.94
261.244	1409.94
261.477	1314.94
261.71	1371.94
261.942	1364.94
262.175	1324.94
262.407	1393.94
262.64	1355.94
262.872	1263.94
263.105	1188.94
263.337	1237.94
263.57	1256.94
263.802	1277.94
264.035	1184.94
264.267	1139.94
264.499	1101.94
264.732	1170.94
264.964	1263.94
265.197	1311.94
265.429	1328.94
265.661	1546.94
265.894	1667.94
266.126	1721.94
266.358	1519.94
266.591	1585.94
266.823	1755.94
267.055	1564.94
267.287	1536.94
267.52	1544.94
267.752	1480.94
267.984	1477.94
268.216	1559.94
268.448	1599.94
268.681	1571.94
268.913	1479.94
269.145	1385.94
269.377	1359.94
269.609	1462.94
269.841	1640.94
270.073	1929.94
270.306	2193.94
270.538	2315.94
270.77	1942.94
271.002	1660.94
271.234	1608.94
271.466	1567.94
271.698	1764.94
271.93	2105.94
272.162	2132.94
272.394	1901.94
272.626	1793.94
272.858	1616.94
273.09	1382.94
273.322	1387.94
273.553	1329.94
273.785	1367.94
274.017	1405.94
274.249	1501.94
274.481	1529.94
274.713	1424.94
274.945	1373.94
275.176	1371.94
275.408	1385.94
275.64	1329.94
275.872	1324.94
276.104	1403.94
276.335	1590.94
276.567	1791.94
276.799	1875.94
277.031	1679.94
277.262	1594.94
277.494	1615.94
277.726	1793.94
277.957	1806.94
278.189	1598.94
278.421	1473.94
278.652	1469.94
278.884	1413.94
279.115	1385.94
279.347	1457.94
279.579	1401.94
279.81	1427.94
280.042	1537.94
280.273	1740.94
280.505	1744.94
280.736	1756.94
280.968	1668.94
281.199	1453.94
281.431	1379.94
281.662	1407.94
281.894	1376.94
282.125	1421.94
282.356	1487.94
282.588	1509.94
282.819	1504.94
283.051	1585.94
283.282	1756.94
283.513	1699.94
283.745	1489.94
283.976	1355.94
284.207	1388.94
284.439	1431.94
284.67	1439.94
284.901	1484.94
285.132	1535.94
285.364	1497.94
285.595	1509.94
285.826	1466.94
286.057	1451.94
286.288	1466.94
286.52	1497.94
286.751	1625.94
286.982	1701.94
287.213	1564.94
287.444	1414.94
287.675	1407.94
287.906	1493.94
288.138	1607.94
288.369	1554.94
288.6	1485.94
288.831	1421.94
289.062	1396.94
289.293	1448.94
289.524	1472.94
289.755	1525.94
289.986	1561.94
290.217	1395.94
290.448	1411.94
290.679	1495.94
290.91	1502.94
291.141	1531.94
291.371	1562.94
291.602	1563.94
291.833	1540.94
292.064	1619.94
292.295	1567.94
292.526	1612.94
292.757	1678.94
292.987	1616.94
293.218	1476.94
293.449	1611.94
293.68	1815.94
293.91	1946.94
294.141	1827.94
294.372	1704.94
294.603	1808.94
294.833	1846.94
295.064	1805.94
295.295	1599.94
295.525	1549.94
295.756	1477.94
295.987	1385.94
296.217	1415.94
296.448	1425.94
296.679	1485.94
296.909	1458.94
297.14	1457.94
297.37	1470.94
297.601	1547.94
297.831	1657.94
298.062	1681.94
298.292	1542.94
298.523	1463.94
298.753	1505.94
298.984	1528.94
299.214	1473.94
299.445	1512.94
299.675	1591.94
299.905	1558.94
300.136	1508.94
300.366	1505.94
300.597	1442.94
300.827	1433.94
301.057	1460.94
301.288	1573.94
301.518	1577.94
301.748	1608.94
301.979	1694.94
302.209	1695.94
302.439	1782.94
302.669	1925.94
302.9	1745.94
303.13	1601.94
303.36	1591.94
303.59	1632.94
303.82	1600.94
304.051	1587.94
304.281	1594.94
304.511	1566.94
304.741	1722.94
304.971	1856.94
305.201	2015.94
305.431	1894.94
305.661	1571.94
305.891	1389.94
306.121	1389.94
306.352	1480.94
306.582	1495.94
306.812	1631.94
307.042	1733.94
307.272	1758.94
307.502	1793.94
307.731	1939.94
307.961	2055.94
308.191	1907.94
308.421	1680.94
308.651	1533.94
308.881	1543.94
309.111	1531.94
309.341	1538.94
309.571	1519.94
309.8	1551.94
310.03	1479.94
310.26	1505.94
310.49	1506.94
310.72	1535.94
310.949	1621.94
311.179	1632.94
311.409	1601.94
311.639	1548.94
311.868	1565.94
312.098	1551.94
312.328	1521.94
312.557	1522.94
312.787	1551.94
313.017	1627.94
313.246	1642.94
313.476	1597.94
313.706	1637.94
313.935	1623.94
314.165	1660.94
314.394	1698.94
314.624	1781.94
314.853	1872.94
315.083	1935.94
315.312	2003.94
315.542	1871.94
315.771	1659.94
316.001	1636.94
316.23	1719.94
316.46	1777.94
316.689	1692.94
316.919	1620.94
317.148	1540.94
317.377	1561.94
317.607	1691.94
317.836	1895.94
318.065	1969.94
318.295	1893.94
318.524	1791.94
318.753	1760.94
318.983	1730.94
319.212	1701.94
319.441	1616.94
319.67	1627.94
319.9	1689.94
320.129	1762.94
320.358	1846.94
320.587	1859.94
320.816	1839.94
321.046	1815.94
321.275	1719.94
321.504	1759.94
321.733	1887.94
321.962	1860.94
322.191	1683.94
322.42	1654.94
322.649	1682.94
322.878	1667.94
323.108	1642.94
323.337	1720.94
323.566	1731.94
323.795	1695.94
324.024	1735.94
324.253	1699.94
324.482	1715.94
324.71	1670.94
324.939	1610.94
325.168	1621.94
325.397	1663.94
325.626	1702.94
325.855	1729.94
326.084	1635.94
326.313	1708.94
326.542	1748.94
326.77	1734.94
326.999	1757.94
327.228	1703.94
327.457	1569.94
327.686	1601.94
327.914	1594.94
328.143	1681.94
328.372	1705.94
328.6	1675.94
328.829	1665.94
329.058	1639.94
329.287	1604.94
329.515	1689.94
329.744	1714.94
329.972	1787.94
330.201	1808.94
330.43	1888.94
330.658	1760.94
330.887	1786.94
331.115	1763.94
331.344	1791.94
331.572	1767.94
331.801	1724.94
332.03	1759.94
332.258	1807.94
332.486	1827.94
332.715	1814.94
332.943	1805.94
333.172	1796.94
333.4	1794.94
333.629	1840.94
333.857	1919.94
334.085	2094.94
334.314	2340.94
334.542	2596.94
334.771	2401.94
334.999	2120.94
335.227	2013.94
335.455	1946.94
335.684	1881.94
335.912	1900.94
336.14	1989.94
336.369	1933.94
336.597	1866.94
336.825	1785.94
337.053	1873.94
337.281	1952.94
337.51	2027.94
337.738	2112.94
337.966	2039.94
338.194	1847.94
338.422	1812.94
338.65	1759.94
338.878	1757.94
339.106	1699.94
339.334	1676.94
339.562	1669.94
339.79	1667.94
340.018	1807.94
340.246	1842.94
340.474	1855.94
340.702	1793.94
340.93	1813.94
341.158	1826.94
341.386	1749.94
341.614	1750.94
341.842	1774.94
342.07	1734.94
342.298	1773.94
342.526	1747.94
342.754	1708.94
342.981	1676.94
343.209	1720.94
343.437	1696.94
343.665	1705.94
343.893	1763.94
344.12	1854.94
344.348	1841.94
344.576	1798.94
344.804	1732.94
345.031	1716.94
345.259	1736.94
345.487	1739.94
345.714	1671.94
345.942	1620.94
346.17	1636.94
346.397	1655.94
346.625	1647.94
346.853	1573.94
347.08	1561.94
347.308	1598.94
347.535	1599.94
347.763	1679.94
347.99	1627.94
348.218	1584.94
348.445	1599.94
348.673	1604.94
348.9	1667.94
349.128	1721.94
349.355	1761.94
349.583	1746.94
349.81	1644.94
350.037	1519.94
350.265	1558.94
350.492	1541.94
350.72	1593.94
350.947	1625.94
351.174	1652.94
351.402	1599.94
351.629	1533.94
351.856	1492.94
352.083	1478.94
352.311	1500.94
352.538	1550.94
352.765	1647.94
352.992	1663.94
353.22	1627.94
353.447	1556.94
353.674	1576.94
353.901	1600.94
354.128	1607.94
354.355	1550.94
354.583	1643.94
354.81	1691.94
355.037	1669.94
355.264	1643.94
355.491	1615.94
355.718	1618.94
355.945	1615.94
356.172	1596.94
356.399	1574.94
356.626	1544.94
356.853	1612.94
357.08	1715.94
357.307	1903.94
357.534	1925.94
357.761	1671.94
357.988	1581.94
358.215	1495.94
358.441	1584.94
358.668	1525.94
358.895	1543.94
359.122	1661.94
359.349	1791.94
359.576	1823.94
359.802	1633.94
360.029	1583.94
360.256	1517.94
360.483	1564.94
360.709	1600.94
360.936	1669.94
361.163	1705.94
361.39	1819.94
361.616	2011.94
361.843	1935.94
362.07	1868.94
362.296	1659.94
362.523	1587.94
362.749	1608.94
362.976	1617.94
363.203	1652.94
363.429	1613.94
363.656	1545.94
363.882	1604.94
364.109	1727.94
364.335	1924.94
364.562	1827.94
364.788	1706.94
365.015	1650.94
365.241	1568.94
365.468	1585.94
365.694	1691.94
365.92	1708.94
366.147	1679.94
366.373	1549.94
366.599	1524.94
366.826	1553.94
367.052	1538.94
367.278	1582.94
367.505	1629.94
367.731	1654.94
367.957	1649.94
368.184	1689.94
368.41	1761.94
368.636	1799.94
368.862	1818.94
369.089	1824.94
369.315	1745.94
369.541	1685.94
369.767	1559.94
369.993	1610.94
370.219	1593.94
370.445	1635.94
370.672	1684.94
370.898	1791.94
371.124	1789.94
371.35	1669.94
371.576	1737.94
371.802	1811.94
372.028	1781.94
372.254	1673.94
372.48	1585.94
372.706	1593.94
372.932	1599.94
373.158	1642.94
373.384	1638.94
373.61	1714.94
373.835	1788.94
374.061	1703.94
374.287	1670.94
374.513	1656.94
374.739	1684.94
374.965	1712.94
375.191	1738.94
375.416	1716.94
375.642	1725.94
375.868	1803.94
376.094	1878.94
376.319	1823.94
376.545	1721.94
376.771	1743.94
376.997	1826.94
377.222	1768.94
377.448	1751.94
377.674	1752.94
377.899	1714.94
378.125	1823.94
378.35	1840.94
378.576	1691.94
378.802	1641.94
379.027	1654.94
379.253	1639.94
379.478	1669.94
379.704	1666.94
379.929	1657.94
380.155	1663.94
380.38	1713.94
380.606	1715.94
380.831	1700.94
381.057	1771.94
381.282	1797.94
381.507	1718.94
381.733	1823.94
381.958	1983.94
382.184	1781.94
382.409	1710.94
382.634	1744.94
382.86	1737.94
383.085	1759.94
383.31	1741.94
383.535	1924.94
383.761	2032.94
383.986	1962.94
384.211	1914.94
384.436	1876.94
384.662	1911.94
384.887	2024.94
385.112	1929.94
385.337	1947.94
385.562	1896.94
385.787	1915.94
386.013	1964.94
386.238	2000.94
386.463	1988.94
386.688	2033.94
386.913	2223.94
387.138	2148.94
387.363	1992.94
387.588	1981.94
387.813	1958.94
388.038	1971.94
388.263	2055.94
388.488	1994.94
388.713	1818.94
388.938	1832.94
389.163	1830.94
389.387	1911.94
389.612	1903.94
389.837	1948.94
390.062	1941.94
390.287	1918.94
390.512	1897.94
390.736	1899.94
390.961	1864.94
391.186	1803.94
391.411	1887.94
391.636	1888.94
391.86	1896.94
392.085	1903.94
392.31	1894.94
392.534	1922.94
392.759	1957.94
392.984	1920.94
393.208	1930.94
393.433	1956.94
393.658	2054.94
393.882	2099.94
394.107	2006.94
394.331	1947.94
394.556	1880.94
394.78	1949.94
395.005	1966.94
395.229	2056.94
395.454	2191.94
395.678	2282.94
395.903	2131.94
396.127	2010.94
396.352	2050.94
396.576	2099.94
396.801	2101.94
397.025	2080.94
397.249	2065.94
397.474	2055.94
397.698	2040.94
397.922	2090.94
398.147	2209.94
398.371	2274.94
398.595	2284.94
398.82	2184.94
399.044	2233.94
399.268	2276.94
399.492	2433.94
399.717	2536.94
399.941	2591.94
400.165	2543.94
400.389	2498.94
400.613	2437.94
400.837	2652.94
401.062	3097.94
401.286	2626.94
401.51	2407.94
401.734	2493.94
401.958	2438.94
402.182	2247.94
402.406	2179.94
402.63	2145.94
402.854	2183.94
403.078	2219.94
403.302	2235.94
403.526	2290.94
403.75	2307.94
403.974	2321.94
404.198	2270.94
404.422	2359.94
404.645	2493.94
404.869	2451.94
405.093	2259.94
405.317	2180.94
405.541	2311.94
405.765	2336.94
405.988	2300.94
406.212	2323.94
406.436	2402.94
406.66	2432.94
406.883	2436.94
407.107	2693.94
407.331	2945.94
407.555	3182.94
407.778	3061.94
408.002	2457.94
408.226	2392.94
408.449	2407.94
408.673	2337.94
408.896	2341.94
409.12	2396.94
409.344	2295.94
409.567	2237.94
409.791	2248.94
410.014	2316.94
410.238	2424.94
410.461	2563.94
410.685	2363.94
410.908	2213.94
411.132	2319.94
411.355	2289.94
411.578	2232.94
411.802	2271.94
412.025	2289.94
412.249	2243.94
412.472	2184.94
412.695	2164.94
412.919	2149.94
413.142	2171.94
413.365	2196.94
413.589	2253.94
413.812	2309.94
414.035	2394.94
414.258	2198.94
414.482	2186.94
414.705	2202.94
414.928	2131.94
415.151	2159.94
415.374	2233.94
415.597	2248.94
415.821	2214.94
416.044	2306.94
416.267	2305.94
416.49	2150.94
416.713	2079.94
416.936	2173.94
417.159	2275.94
417.382	2308.94
417.605	2091.94
417.828	2147.94
418.051	2233.94
418.274	2213.94
418.497	2137.94
418.72	2087.94
418.943	2088.94
419.166	2226.94
419.389	2355.94
419.611	2177.94
419.834	2162.94
420.057	2179.94
420.28	2121.94
420.503	2084.94
420.726	2137.94
420.948	2177.94
421.171	2047.94
421.394	2088.94
421.617	2137.94
421.839	2125.94
422.062	2098.94
422.285	2064.94
422.507	2078.94
422.73	2045.94
422.953	1973.94
423.175	2028.94
423.398	2099.94
423.621	2084.94
423.843	2122.94
424.066	2124.94
424.288	2250.94
424.511	2234.94
424.733	2226.94
424.956	1989.94
425.178	2016.94
425.401	2028.94
425.623	2031.94
425.846	1995.94
426.068	2111.94
426.291	2136.94
426.513	2157.94
426.735	2105.94
426.958	2288.94
427.18	2443.94
427.402	2150.94
427.625	2250.94
427.847	2308.94
428.069	2144.94
428.292	2069.94
428.514	1995.94
428.736	2003.94
428.958	2021.94
429.181	2075.94
429.403	2280.94
429.625	2874.94
429.847	2499.94
430.069	2073.94
430.292	2276.94
430.514	2362.94
430.736	2180.94
430.958	2297.94
431.18	2196.94
431.402	2074.94
431.624	1951.94
431.846	2062.94
432.068	1972.94
432.29	2017.94
432.512	2007.94
432.734	2067.94
432.956	2118.94
433.178	2215.94
433.4	2189.94
433.622	2151.94
433.844	2093.94
434.066	1986.94
434.287	2046.94
434.509	2107.94
434.731	2213.94
434.953	2333.94
435.175	2278.94
435.397	2121.94
435.618	2146.94
435.84	2124.94
436.062	2115.94
436.284	2120.94
436.505	2105.94
436.727	2189.94
436.949	2099.94
437.17	2040.94
437.392	2029.94
437.614	2050.94
437.835	1972.94
438.057	2097.94
438.278	2198.94
438.5	2071.94
438.721	2043.94
438.943	2064.94
439.165	2018.94
439.386	2012.94
439.608	2019.94
439.829	2027.94
440.05	2026.94
440.272	2019.94
440.493	1935.94
440.715	2044.94
440.936	2139.94
441.158	2406.94
441.379	2332.94
441.6	2275.94
441.822	2201.94
442.043	2162.94
442.264	2111.94
442.486	2026.94
442.707	1995.94
442.928	1979.94
443.149	2064.94
443.371	2209.94
443.592	2279.94
443.813	2233.94
444.034	2191.94
444.255	2239.94
444.476	2248.94
444.698	2274.94
444.919	2303.94
445.14	2412.94
445.361	2348.94
445.582	2468.94
445.803	2317.94
446.024	2203.94
446.245	2308.94
446.466	2225.94
446.687	2115.94
446.908	2114.94
447.129	2100.94
447.35	2111.94
447.571	2100.94
447.792	1977.94
448.013	1949.94
448.234	1983.94
448.455	2129.94
448.675	2175.94
448.896	1993.94
449.117	1927.94
449.338	1995.94
449.559	2082.94
449.779	2202.94
450	2385.94
450.221	2563.94
450.442	2489.94
450.662	2188.94
450.883	1977.94
451.104	1909.94
451.324	1929.94
451.545	2021.94
451.766	1993.94
451.986	1927.94
452.207	1880.94
452.428	1830.94
452.648	1809.94
452.869	1857.94
453.089	1961.94
453.31	2008.94
453.53	2083.94
453.751	1983.94
453.971	1855.94
454.192	1905.94
454.412	1958.94
454.633	1956.94
454.853	1887.94
455.073	1786.94
455.294	1770.94
455.514	1796.94
455.734	1820.94
455.955	1868.94
456.175	1787.94
456.395	1813.94
456.616	1849.94
456.836	1875.94
457.056	1836.94
457.276	1825.94
457.497	1817.94
457.717	1763.94
457.937	1780.94
458.157	1841.94
458.377	1802.94
458.598	1791.94
458.818	1832.94
459.038	1947.94
459.258	2038.94
459.478	2024.94
459.698	1979.94
459.918	2051.94
460.138	2137.94
460.358	2145.94
460.578	2170.94
460.798	2229.94
461.018	2372.94
461.238	2262.94
461.458	2136.94
461.678	2183.94
461.898	2132.94
462.118	2055.94
462.338	2204.94
462.558	2161.94
462.777	2152.94
462.997	2297.94
463.217	2379.94
463.437	2389.94
463.657	2208.94
463.876	2163.94
464.096	2161.94
464.316	2135.94
464.536	2214.94
464.755	2253.94
464.975	2299.94
465.195	2195.94
465.414	2309.94
465.634	2327.94
465.854	2145.94
466.073	2307.94
466.293	2256.94
466.512	1986.94
466.732	1985.94
466.951	2090.94
467.171	2031.94
467.391	1962.94
467.61	1910.94
467.829	1964.94
468.049	2091.94
468.268	2389.94
468.488	2188.94
468.707	2101.94
468.927	2041.94
469.146	1990.94
469.365	1939.94
469.585	1995.94
469.804	1986.94
470.023	1945.94
470.243	1996.94
470.462	2034.94
470.681	1925.94
470.901	1985.94
471.12	2002.94
471.339	1945.94
471.558	1919.94
471.777	1889.94
471.997	1917.94
472.216	1957.94
472.435	1907.94
472.654	1878.94
472.873	1975.94
473.092	2164.94
473.311	2018.94
473.53	1885.94
473.749	1871.94
473.968	1975.94
474.187	2044.94
474.406	2125.94
474.625	2058.94
474.844	1969.94
475.063	1995.94
475.282	2069.94
475.501	2011.94
475.72	1957.94
475.939	2149.94
476.158	2089.94
476.377	2007.94
476.596	2032.94
476.814	2084.94
477.033	2078.94
477.252	2227.94
477.471	2255.94
477.69	2122.94
477.908	2094.94
478.127	2171.94
478.346	2385.94
478.564	2414.94
478.783	2373.94
479.002	2409.94
479.22	2372.94
479.439	2447.94
479.658	2811.94
479.876	2768.94
480.095	2406.94
480.313	2336.94
480.532	2210.94
480.751	2232.94
480.969	2305.94
481.188	2258.94
481.406	2280.94
481.624	2164.94
481.843	2233.94
482.061	2255.94
482.28	2277.94
482.498	2331.94
482.717	2299.94
482.935	2178.94
483.153	2199.94
483.372	2227.94
483.59	2148.94
483.808	2251.94
484.027	2306.94
484.245	2483.94
484.463	2745.94
484.681	3169.94
484.9	2444.94
485.118	2335.94
485.336	2247.94
485.554	2315.94
485.772	2431.94
485.99	2383.94
486.209	2419.94
486.427	2380.94
486.645	2392.94
486.863	2334.94
487.081	2425.94
487.299	2457.94
487.517	2457.94
487.735	2316.94
487.953	2267.94
488.171	2311.94
488.389	2253.94
488.607	2319.94
488.825	2583.94
489.043	2591.94
489.261	2347.94
489.479	2424.94
489.696	2483.94
489.914	2455.94
490.132	2411.94
490.35	2304.94
490.568	2449.94
490.786	2322.94
491.003	2281.94
491.221	2363.94
491.439	2468.94
491.657	2389.94
491.874	2431.94
492.092	2439.94
492.31	2449.94
492.527	2403.94
492.745	2379.94
492.963	2394.94
493.18	2440.94
493.398	2599.94
493.615	2691.94
493.833	2515.94
494.05	2426.94
494.268	2482.94
494.485	2483.94
494.703	2435.94
494.92	2386.94
495.138	2367.94
495.355	2393.94
495.573	2504.94
495.79	2690.94
496.008	2715.94
496.225	2558.94
496.442	2583.94
496.66	2615.94
496.877	2514.94
497.094	2620.94
497.312	2648.94
497.529	2602.94
497.746	2698.94
497.963	3144.94
498.181	3509.94
498.398	3214.94
498.615	3225.94
498.832	3076.94
499.049	3124.94
499.267	3124.94
499.484	3284.94
499.701	3517.94
499.918	3551.94
500.135	3874.94
500.352	4135.94
500.569	4041.94
500.786	4334.94
501.003	4076.94
501.22	3666.94
501.437	3535.94
501.654	3538.94
501.871	3456.94
502.088	3001.94
502.305	3103.94
502.522	2988.94
502.739	2760.94
502.956	2682.94
503.172	2649.94
503.389	2626.94
503.606	2521.94
503.823	2603.94
504.04	2563.94
504.256	2551.94
504.473	2547.94
504.69	2677.94
504.907	2507.94
505.123	2427.94
505.34	2453.94
505.557	3253.94
505.773	2771.94
505.99	2365.94
506.207	2206.94
506.423	2211.94
506.64	2175.94
506.856	2181.94
507.073	2487.94
507.289	2651.94
507.506	2535.94
507.722	2165.94
507.939	2122.94
508.155	2067.94
508.372	2103.94
508.588	2059.94
508.805	2054.94
509.021	2008.94
509.238	1995.94
509.454	2011.94
509.67	2005.94
509.887	2000.94
510.103	1972.94
510.319	2003.94
510.536	2084.94
510.752	2158.94
510.968	2132.94
511.184	2290.94
511.401	2274.94
511.617	1996.94
511.833	1936.94
512.049	1882.94
512.265	1932.94
512.481	1924.94
512.698	1988.94
512.914	2120.94
513.13	2040.94
513.346	1948.94
513.562	1928.94
513.778	1950.94
513.994	2058.94
514.21	2088.94
514.426	2156.94
514.642	2362.94
514.858	2256.94
515.074	2044.94
515.29	1961.94
515.506	2019.94
515.721	2047.94
515.937	2043.94
516.153	2341.94
516.369	2266.94
516.585	2113.94
516.801	2024.94
517.016	2013.94
517.232	2083.94
517.448	2195.94
517.664	2150.94
517.879	2160.94
518.095	2219.94
518.311	2181.94
518.527	2053.94
518.742	2037.94
518.958	1951.94
519.173	1952.94
519.389	1947.94
519.605	2014.94
519.82	2011.94
520.036	2006.94
520.251	1952.94
520.467	1964.94
520.682	2122.94
520.898	2203.94
521.113	1983.94
521.329	1909.94
521.544	2080.94
521.76	2010.94
521.975	1905.94
522.19	1872.94
522.406	1836.94
522.621	2232.94
522.836	2254.94
523.052	1903.94
523.267	1862.94
523.482	1888.94
523.698	1771.94
523.913	1738.94
524.128	1808.94
524.343	1872.94
524.559	1885.94
524.774	1826.94
524.989	1764.94
525.204	1756.94
525.419	1714.94
525.634	1723.94
525.849	1751.94
526.064	1759.94
526.28	1777.94
526.495	1726.94
526.71	1695.94
526.925	1721.94
527.14	1725.94
527.355	1702.94
527.57	1663.94
527.785	1707.94
527.999	1708.94
528.214	1664.94
528.429	1586.94
528.644	1664.94
528.859	1692.94
529.074	1677.94
529.289	1698.94
529.503	1739.94
529.718	1713.94
529.933	1693.94
530.148	1612.94
530.363	1619.94
530.577	1695.94
530.792	1708.94
531.007	1728.94
531.221	1701.94
531.436	1681.94
531.651	1736.94
531.865	1832.94
532.08	1752.94
532.295	1665.94
532.509	1613.94
532.724	1640.94
532.938	1700.94
533.153	1800.94
533.367	1708.94
533.582	1732.94
533.796	1673.94
534.011	1657.94
534.225	1682.94
534.44	1679.94
534.654	1656.94
534.868	1666.94
535.083	1732.94
535.297	1708.94
535.511	1648.94
535.726	1667.94
535.94	1651.94
536.154	1673.94
536.369	1613.94
536.583	1615.94
536.797	1593.94
537.011	1633.94
537.225	1587.94
537.44	1564.94
537.654	1631.94
537.868	1637.94
538.082	1550.94
538.296	1513.94
538.51	1547.94
538.724	1556.94
538.938	1513.94
539.153	1591.94
539.367	1615.94
539.581	1555.94
539.795	1656.94
540.009	1605.94
540.222	1602.94
540.436	1596.94
540.65	1719.94
540.864	1747.94
541.078	1661.94
541.292	1539.94
541.506	1563.94
541.72	1593.94
541.934	1589.94
542.147	1573.94
542.361	1585.94
542.575	1547.94
542.789	1465.94
543.002	1465.94
543.216	1475.94
543.43	1599.94
543.644	1662.94
543.857	1728.94
544.071	1654.94
544.285	1649.94
544.498	1529.94
544.712	1557.94
544.925	1592.94
545.139	1596.94
545.352	1550.94
545.566	1479.94
545.779	1489.94
545.993	1480.94
546.206	1547.94
546.42	1507.94
546.633	1473.94
546.847	1461.94
547.06	1483.94
547.274	1469.94
547.487	1477.94
547.7	1466.94
547.914	1495.94
548.127	1516.94
548.34	1541.94
548.554	1539.94
548.767	1506.94
548.98	1481.94
549.193	1496.94
549.407	1569.94
549.62	1564.94
549.833	1513.94
550.046	1463.94
550.259	1432.94
550.473	1441.94
550.686	1446.94
550.899	1385.94
551.112	1416.94
551.325	1399.94
551.538	1484.94
551.751	1751.94
551.964	1454.94
552.177	1409.94
552.39	1404.94
552.603	1467.94
552.816	1443.94
553.029	1490.94
553.242	1563.94
553.455	1513.94
553.667	1466.94
553.88	1461.94
554.093	1443.94
554.306	1381.94
554.519	1381.94
554.732	1367.94
554.944	1391.94
555.157	1405.94
555.37	1363.94
555.583	1382.94
555.795	1352.94
556.008	1325.94
556.221	1292.94
556.433	1313.94
556.646	1280.94
556.859	1274.94
557.071	1245.94
557.284	1250.94
557.496	1258.94
557.709	1220.94
557.921	1223.94
558.134	1209.94
558.346	1206.94
558.559	1236.94
558.771	1248.94
558.984	1215.94
559.196	1168.94
559.409	1198.94
559.621	1156.94
559.833	1188.94
560.046	1222.94
560.258	1222.94
560.47	1203.94
560.683	1221.94
560.895	1205.94
561.107	1217.94
561.32	1227.94
561.532	1244.94
561.744	1222.94
561.956	1216.94
562.168	1220.94
562.381	1177.94
562.593	1141.94
562.805	1152.94
563.017	1160.94
563.229	1181.94
563.441	1241.94
563.653	1184.94
563.865	1168.94
564.077	1188.94
564.289	1167.94
564.501	1197.94
564.713	1221.94
564.925	1247.94
565.137	1342.94
565.349	1284.94
565.561	1219.94
565.773	1265.94
565.985	1256.94
566.197	1363.94
566.408	1423.94
566.62	1442.94
566.832	1440.94
567.044	1425.94
567.255	1423.94
567.467	1425.94
567.679	1513.94
567.891	1557.94
568.102	1498.94
568.314	1431.94
568.526	1340.94
568.737	1310.94
568.949	1231.94
569.161	1197.94
569.372	1183.94
569.584	1148.94
569.795	1136.94
570.007	1163.94
570.218	1089.94
570.43	1079.94
570.641	1069.94
570.853	1089.94
571.064	1082.94
571.276	1068.94
571.487	1029.94
571.698	1054.94
571.91	1003.94
572.121	1011.94
572.333	987.94
572.544	1003.94
572.755	951.94
572.966	961.94
573.178	979.94
573.389	976.94
573.6	998.94
573.811	1049.94
574.023	972.94
574.234	929.94
574.445	925.94
574.656	927.94
574.867	917.94
575.078	936.94
575.289	917.94
575.501	888.94
575.712	887.94
575.923	901.94
576.134	907.94
576.345	914.94
576.556	891.94
576.767	835.94
576.978	846.94
577.188	833.94
577.399	842.94
577.61	831.94
577.821	849.94
578.032	836.94
578.243	825.94
578.454	835.94
578.665	852.94
578.875	810.94
579.086	805.94
579.297	832.94
579.508	845.94
579.718	823.94
579.929	792.94
580.14	811.94
580.35	781.94
580.561	812.94
580.772	871.94
580.982	827.94
581.193	792.94
581.403	788.94
581.614	785.94
581.825	767.94
582.035	732.94
582.246	775.94
582.456	796.94
582.667	781.94
582.877	739.94
583.087	781.94
583.298	739.94
583.508	768.94
583.719	780.94
583.929	771.94
584.139	753.94
584.35	737.94
584.56	751.94
584.77	757.94
584.981	768.94
585.191	779.94
585.401	773.94
585.611	775.94
585.821	730.94
586.032	735.94
586.242	728.94
586.452	718.94
586.662	741.94
586.872	753.94
587.082	721.94
587.292	740.94
587.502	778.94
587.713	764.94
587.923	741.94
588.133	735.94
588.343	725.94
588.553	738.94
588.762	741.94
588.972	713.94
589.182	756.94
589.392	725.94
589.602	723.94
589.812	740.94
590.022	717.94
590.232	696.94
590.441	721.94
590.651	742.94
590.861	726.94
591.071	707.94
591.281	727.94
591.49	704.94
591.7	725.94
591.91	701.94
592.119	746.94
592.329	731.94
592.539	746.94
592.748	746.94
592.958	760.94
593.167	744.94
593.377	752.94
593.587	774.94
593.796	805.94
594.006	791.94
594.215	762.94
594.424	767.94
594.634	735.94
594.843	721.94
595.053	756.94
595.262	711.94
595.472	715.94
595.681	728.94
595.89	699.94
596.1	687.94
596.309	673.94
596.518	677.94
596.727	709.94
596.937	666.94
597.146	657.94
597.355	624.94
597.564	656.94
597.774	634.94
597.983	631.94
598.192	611.94
598.401	621.94
598.61	613.94
598.819	602.94
599.028	596.94
599.237	640.94
599.446	609.94
599.655	582.94
599.864	594.94
600.073	586.94
600.282	603.94
600.491	591.94
600.7	572.94
600.909	593.94
601.118	617.94
601.327	608.94
601.536	597.94
601.745	602.94
601.953	567.94
602.162	599.94
602.371	577.94
602.58	568.94
602.789	571.94
602.997	572.94
603.206	579.94
603.415	581.94
603.623	593.94
603.832	572.94
604.041	580.94
604.249	555.94
604.458	547.94
604.666	563.94
604.875	559.94
605.084	546.94
605.292	577.94
605.501	589.94
605.709	566.94
605.918	557.94
606.126	548.94
606.334	554.94
606.543	559.94
606.751	561.94
606.96	546.94
607.168	534.94
607.376	548.94
607.585	534.94
607.793	548.94
608.001	515.94
608.21	530.94
608.418	548.94
608.626	535.94
608.834	544.94
609.043	546.94
609.251	507.94
609.459	514.94
609.667	521.94
609.875	516.94
610.083	547.94
610.291	551.94
610.499	546.94
610.707	531.94
610.916	530.94
611.124	513.94
611.332	503.94
611.54	525.94
611.748	495.94
611.955	511.94
612.163	520.94
612.371	514.94
612.579	506.94
612.787	499.94
612.995	511.94
613.203	512.94
613.411	544.94
613.618	508.94
613.826	516.94
614.034	509.94
614.242	515.94
614.449	484.94
614.657	503.94
614.865	495.94
615.072	515.94
615.28	515.94
615.488	524.94
615.695	527.94
615.903	533.94
616.111	520.94
616.318	518.94
616.526	511.94
616.733	506.94
616.941	502.94
617.148	497.94
617.356	475.94
617.563	492.94
617.771	473.94
617.978	487.94
618.185	482.94
618.393	485.94
618.6	472.94
618.807	481.94
619.015	484.94
619.222	475.94
619.429	483.94
619.637	477.94
619.844	490.94
620.051	462.94
620.258	477.94
620.466	480.94
620.673	454.94
620.88	448.94
621.087	454.94
621.294	449.94
621.501	452.94
621.708	455.94
621.915	464.94
622.122	461.94
622.329	465.94
622.536	449.94
622.743	443.94
622.95	441.94
623.157	452.94
623.364	436.94
623.571	442.94
623.778	441.94
623.985	444.94
624.192	412.94
624.399	442.94
624.606	444.94
624.812	419.94
625.019	431.94
625.226	416.94
625.433	421.94
625.639	418.94
625.846	421.94
626.053	410.94
626.259	417.94
626.466	405.94
626.673	409.94
626.879	385.94
627.086	429.94
627.293	417.94
627.499	393.94
627.706	399.94
627.912	413.94
628.119	397.94
628.325	400.94
628.532	404.94
628.738	400.94
628.945	417.94
629.151	370.94
629.357	407.94
629.564	395.94
629.77	388.94
629.976	395.94
630.183	398.94
630.389	401.94
630.595	403.94
630.802	382.94
631.008	364.94
631.214	360.94
631.42	363.94
631.627	371.94
631.833	369.94
632.039	383.94
632.245	370.94
632.451	383.94
632.657	348.94
632.863	371.94
633.069	349.94
633.275	367.94
633.481	372.94
633.688	369.94
633.893	343.94
634.099	351.94
634.305	356.94
634.511	356.94
634.717	333.94
634.923	353.94
635.129	331.94
635.335	339.94
635.541	337.94
635.747	334.94
635.952	357.94
636.158	342.94
636.364	353.94
636.57	327.94
636.775	321.94
636.981	347.94
637.187	346.94
637.392	339.94
637.598	341.94
637.804	357.94
638.009	355.94
638.215	323.94
638.421	309.94
638.626	328.94
638.832	308.94
639.037	327.94
639.243	313.94
639.448	314.94
639.654	322.94
639.859	330.94
640.065	323.94
640.27	335.94
640.475	330.94
640.681	310.94
640.886	329.94
641.091	311.94
641.297	317.94
641.502	305.94
641.707	315.94
641.913	303.94
642.118	317.94
642.323	330.94
642.528	326.94
642.733	326.94
642.939	313.94
643.144	323.94
643.349	322.94
643.554	317.94
643.759	320.94
643.964	308.94
644.169	320.94
644.374	308.94
644.579	315.94
644.784	319.94
644.989	303.94
645.194	294.94
645.399	302.94
645.604	298.94
645.809	307.94
646.014	305.94
646.219	320.94
646.423	320.94
646.628	322.94
646.833	323.94
647.038	301.94
647.243	307.94
647.447	321.94
647.652	311.94
647.857	313.94
648.062	303.94
648.266	326.94
648.471	296.94
648.676	321.94
648.88	317.94
649.085	308.94
649.289	291.94
649.494	299.94
649.698	289.94
649.903	300.94
650.107	305.94
650.312	308.94
650.516	283.94
650.721	279.94
650.925	282.94
651.13	287.94
651.334	266.94
651.539	291.94
651.743	268.94
651.947	268.94
652.152	274.94
652.356	234.94
652.56	245.94
652.764	273.94
652.969	250.94
653.173	234.94
653.377	249.94
653.581	253.94
653.785	232.94
653.99	245.94
654.194	246.94
654.398	237.94
654.602	235.94
654.806	250.94
655.01	228.94
655.214	228.94
655.418	224.94
655.622	229.94
655.826	266.94
656.03	253.94
656.234	255.94
656.438	264.94
656.642	274.94
656.846	243.94
657.049	222.94
657.253	226.94
657.457	203.94
657.661	199.94
657.865	196.94
658.068	169.94
658.272	157.94
658.476	170.94
658.68	143.94
658.883	155.94
659.087	155.94
659.291	134.94
659.494	138.94
659.698	126.94
659.901	127.94
660.105	112.94
660.309	108.94
660.512	100.94
660.716	130.94
660.919	99.94
661.123	112.94
661.326	109.94
661.53	97.94
661.733	99.94
661.936	100.94
662.14	88.94
662.343	104.94
662.546	77.94
662.75	89.94
662.953	90.94
663.156	94.94
663.36	75.94
663.563	90.94
663.766	83.94
663.969	88.94
664.173	80.94
664.376	82.94
664.579	95.94
664.782	79.94
664.985	87.94
665.188	72.94
665.391	78.94
665.594	84.94
665.797	78.94
666	85.94
666.203	74.94
666.406	84.94
666.609	91.94
666.812	82.94
667.015	74.94
667.218	87.94
667.421	81.94
667.624	83.94
667.827	82.94
668.03	81.94
668.232	89.94
668.435	93.94
668.638	97.94
668.841	86.94
669.043	73.94
669.246	87.94
669.449	91.94
669.651	80.94
669.854	82.94
670.057	91.94
670.259	88.94
670.462	67.94
670.665	73.94
670.867	78.94
671.07	74.94
671.272	63.94
671.475	79.94
671.677	79.94
671.88	78.94
672.082	88.94
672.284	84.94
672.487	90.94
672.689	80.94
672.892	58.94
