Data from WStandard_LampEnergy5.5LIBS07252019.E.O._I.C._HRD10591_16-08-06-920.txt Node
Date: Thu Jul 25 16:08:06 EDT 2019
User: cochatt
Spectrometer: HR+D1059
Trigger mode: 1
Integration Time (sec): 1.000000E-1
Scans to average: 1
Electric dark correction enabled: true
Nonlinearity correction enabled: false
Boxcar width: 0
XAxis mode: Wavelengths
Number of Pixels in Spectrum: 2048
>>>>>Begin Spectral Data<<<<<
223.165	2.12
223.4	2.12
223.635	2.12
223.869	-19.88
224.104	-23.88
224.338	-11.88
224.573	-14.88
224.808	-19.88
225.042	-1.88
225.277	-9.88
225.511	-6.88
225.746	5.12
225.98	5.12
226.215	25.12
226.449	14.12
226.683	16.12
226.918	28.12
227.152	13.12
227.387	48.12
227.621	46.12
227.856	38.12
228.09	50.12
228.324	57.12
228.559	67.12
228.793	134.12
229.027	375.12
229.262	349.12
229.496	388.12
229.73	402.12
229.964	439.12
230.199	461.12
230.433	471.12
230.667	505.12
230.901	537.12
231.136	473.12
231.37	486.12
231.604	466.12
231.838	488.12
232.072	487.12
232.306	453.12
232.541	454.12
232.775	563.12
233.009	618.12
233.243	575.12
233.477	533.12
233.711	549.12
233.945	567.12
234.179	547.12
234.413	568.12
234.647	618.12
234.881	596.12
235.115	541.12
235.349	564.12
235.583	579.12
235.817	564.12
236.051	540.12
236.285	534.12
236.519	583.12
236.753	661.12
236.987	702.12
237.221	659.12
237.455	761.12
237.689	703.12
237.922	651.12
238.156	666.12
238.39	671.12
238.624	708.12
238.858	749.12
239.091	786.12
239.325	807.12
239.559	933.12
239.793	982.12
240.027	1074.12
240.26	1042.12
240.494	763.12
240.728	741.12
240.961	715.12
241.195	737.12
241.429	811.12
241.662	827.12
241.896	758.12
242.13	785.12
242.363	839.12
242.597	919.12
242.83	899.12
243.064	892.12
243.298	946.12
243.531	920.12
243.765	915.12
243.998	948.12
244.232	811.12
244.465	789.12
244.699	805.12
244.932	908.12
245.166	1030.12
245.399	979.12
245.633	927.12
245.866	902.12
246.099	937.12
246.333	929.12
246.566	986.12
246.8	1057.12
247.033	1174.12
247.266	1103.12
247.5	1080.12
247.733	1038.12
247.966	1107.12
248.2	1269.12
248.433	1181.12
248.666	1215.12
248.899	1316.12
249.133	1533.12
249.366	1741.12
249.599	1441.12
249.832	1283.12
250.066	1265.12
250.299	1320.12
250.532	1212.12
250.765	1058.12
250.998	1157.12
251.231	1213.12
251.465	1236.12
251.698	1182.12
251.931	1167.12
252.164	1215.12
252.397	1271.12
252.63	1239.12
252.863	1090.12
253.096	1071.12
253.329	1139.12
253.562	1184.12
253.795	1298.12
254.028	1260.12
254.261	1176.12
254.494	1177.12
254.727	1104.12
254.96	1144.12
255.193	1233.12
255.426	1393.12
255.659	1631.12
255.892	1667.12
256.124	1380.12
256.357	1333.12
256.59	1421.12
256.823	1438.12
257.056	1418.12
257.289	1718.12
257.521	1939.12
257.754	1724.12
257.987	1577.12
258.22	1801.12
258.452	1780.12
258.685	1404.12
258.918	1389.12
259.151	1413.12
259.383	1357.12
259.616	1191.12
259.849	1266.12
260.081	1378.12
260.314	1564.12
260.547	1692.12
260.779	1717.12
261.012	1595.12
261.244	1445.12
261.477	1378.12
261.71	1444.12
261.942	1404.12
262.175	1345.12
262.407	1441.12
262.64	1401.12
262.872	1301.12
263.105	1223.12
263.337	1302.12
263.57	1320.12
263.802	1300.12
264.035	1235.12
264.267	1165.12
264.499	1128.12
264.732	1221.12
264.964	1319.12
265.197	1355.12
265.429	1387.12
265.661	1590.12
265.894	1761.12
266.126	1817.12
266.358	1605.12
266.591	1642.12
266.823	1830.12
267.055	1653.12
267.287	1594.12
267.52	1585.12
267.752	1522.12
267.984	1566.12
268.216	1639.12
268.448	1652.12
268.681	1652.12
268.913	1510.12
269.145	1435.12
269.377	1362.12
269.609	1507.12
269.841	1716.12
270.073	2035.12
270.306	2269.12
270.538	2468.12
270.77	2026.12
271.002	1747.12
271.234	1631.12
271.466	1638.12
271.698	1882.12
271.93	2198.12
272.162	2214.12
272.394	1986.12
272.626	1908.12
272.858	1671.12
273.09	1442.12
273.322	1428.12
273.553	1386.12
273.785	1405.12
274.017	1473.12
274.249	1569.12
274.481	1588.12
274.713	1459.12
274.945	1419.12
275.176	1429.12
275.408	1427.12
275.64	1366.12
275.872	1357.12
276.104	1455.12
276.335	1652.12
276.567	1880.12
276.799	1977.12
277.031	1701.12
277.262	1611.12
277.494	1651.12
277.726	1871.12
277.957	1889.12
278.189	1665.12
278.421	1558.12
278.652	1489.12
278.884	1466.12
279.115	1461.12
279.347	1551.12
279.579	1505.12
279.81	1457.12
280.042	1615.12
280.273	1791.12
280.505	1806.12
280.736	1798.12
280.968	1715.12
281.199	1512.12
281.431	1441.12
281.662	1444.12
281.894	1436.12
282.125	1467.12
282.356	1535.12
282.588	1530.12
282.819	1522.12
283.051	1640.12
283.282	1777.12
283.513	1772.12
283.745	1529.12
283.976	1413.12
284.207	1436.12
284.439	1468.12
284.67	1481.12
284.901	1485.12
285.132	1531.12
285.364	1561.12
285.595	1547.12
285.826	1491.12
286.057	1478.12
286.288	1511.12
286.52	1549.12
286.751	1684.12
286.982	1763.12
287.213	1602.12
287.444	1444.12
287.675	1467.12
287.906	1533.12
288.138	1637.12
288.369	1611.12
288.6	1505.12
288.831	1458.12
289.062	1444.12
289.293	1510.12
289.524	1501.12
289.755	1562.12
289.986	1588.12
290.217	1458.12
290.448	1476.12
290.679	1533.12
290.91	1510.12
291.141	1565.12
291.371	1615.12
291.602	1651.12
291.833	1533.12
292.064	1623.12
292.295	1637.12
292.526	1645.12
292.757	1781.12
292.987	1643.12
293.218	1549.12
293.449	1640.12
293.68	1831.12
293.91	2042.12
294.141	1869.12
294.372	1757.12
294.603	1829.12
294.833	1913.12
295.064	1847.12
295.295	1627.12
295.525	1611.12
295.756	1459.12
295.987	1414.12
296.217	1461.12
296.448	1480.12
296.679	1515.12
296.909	1507.12
297.14	1486.12
297.37	1477.12
297.601	1586.12
297.831	1713.12
298.062	1752.12
298.292	1556.12
298.523	1500.12
298.753	1529.12
298.984	1540.12
299.214	1549.12
299.445	1572.12
299.675	1592.12
299.905	1633.12
300.136	1572.12
300.366	1544.12
300.597	1493.12
300.827	1477.12
301.057	1550.12
301.288	1600.12
301.518	1639.12
301.748	1633.12
301.979	1705.12
302.209	1740.12
302.439	1859.12
302.669	1989.12
302.9	1821.12
303.13	1630.12
303.36	1647.12
303.59	1664.12
303.82	1659.12
304.051	1659.12
304.281	1681.12
304.511	1625.12
304.741	1677.12
304.971	1931.12
305.201	2077.12
305.431	1919.12
305.661	1605.12
305.891	1453.12
306.121	1415.12
306.352	1501.12
306.582	1563.12
306.812	1670.12
307.042	1845.12
307.272	1802.12
307.502	1872.12
307.731	2035.12
307.961	2135.12
308.191	1970.12
308.421	1705.12
308.651	1587.12
308.881	1631.12
309.111	1586.12
309.341	1524.12
309.571	1569.12
309.8	1589.12
310.03	1592.12
310.26	1562.12
310.49	1537.12
310.72	1587.12
310.949	1666.12
311.179	1676.12
311.409	1666.12
311.639	1625.12
311.868	1597.12
312.098	1586.12
312.328	1593.12
312.557	1577.12
312.787	1616.12
313.017	1665.12
313.246	1645.12
313.476	1681.12
313.706	1673.12
313.935	1696.12
314.165	1677.12
314.394	1739.12
314.624	1811.12
314.853	1894.12
315.083	1994.12
315.312	2079.12
315.542	1910.12
315.771	1705.12
316.001	1684.12
316.23	1818.12
316.46	1805.12
316.689	1765.12
316.919	1664.12
317.148	1644.12
317.377	1593.12
317.607	1731.12
317.836	1961.12
318.065	2010.12
318.295	1922.12
318.524	1863.12
318.753	1807.12
318.983	1782.12
319.212	1789.12
319.441	1708.12
319.67	1697.12
319.9	1717.12
320.129	1801.12
320.358	1893.12
320.587	1959.12
320.816	1921.12
321.046	1907.12
321.275	1771.12
321.504	1787.12
321.733	1949.12
321.962	1923.12
322.191	1747.12
322.42	1735.12
322.649	1688.12
322.878	1675.12
323.108	1727.12
323.337	1809.12
323.566	1825.12
323.795	1806.12
324.024	1787.12
324.253	1753.12
324.482	1753.12
324.71	1750.12
324.939	1636.12
325.168	1606.12
325.397	1693.12
325.626	1770.12
325.855	1770.12
326.084	1749.12
326.313	1708.12
326.542	1729.12
326.77	1793.12
326.999	1825.12
327.228	1735.12
327.457	1640.12
327.686	1653.12
327.914	1677.12
328.143	1749.12
328.372	1711.12
328.6	1704.12
328.829	1714.12
329.058	1672.12
329.287	1639.12
329.515	1741.12
329.744	1762.12
329.972	1836.12
330.201	1911.12
330.43	1876.12
330.658	1801.12
330.887	1801.12
331.115	1812.12
331.344	1867.12
331.572	1784.12
331.801	1760.12
332.03	1810.12
332.258	1820.12
332.486	1828.12
332.715	1841.12
332.943	1829.12
333.172	1785.12
333.4	1841.12
333.629	1883.12
333.857	1954.12
334.085	2187.12
334.314	2448.12
334.542	2721.12
334.771	2500.12
334.999	2180.12
335.227	2073.12
335.455	1995.12
335.684	1929.12
335.912	1988.12
336.14	2083.12
336.369	1979.12
336.597	1898.12
336.825	1847.12
337.053	1909.12
337.281	2006.12
337.51	2050.12
337.738	2158.12
337.966	2091.12
338.194	1901.12
338.422	1793.12
338.65	1787.12
338.878	1765.12
339.106	1765.12
339.334	1730.12
339.562	1717.12
339.79	1731.12
340.018	1822.12
340.246	1943.12
340.474	1961.12
340.702	1849.12
340.93	1862.12
341.158	1833.12
341.386	1827.12
341.614	1812.12
341.842	1773.12
342.07	1822.12
342.298	1807.12
342.526	1802.12
342.754	1768.12
342.981	1775.12
343.209	1797.12
343.437	1780.12
343.665	1794.12
343.893	1859.12
344.12	1901.12
344.348	1959.12
344.576	1893.12
344.804	1775.12
345.031	1769.12
345.259	1793.12
345.487	1753.12
345.714	1680.12
345.942	1637.12
346.17	1661.12
346.397	1695.12
346.625	1726.12
346.853	1637.12
347.08	1611.12
347.308	1604.12
347.535	1657.12
347.763	1733.12
347.99	1706.12
348.218	1633.12
348.445	1625.12
348.673	1661.12
348.9	1741.12
349.128	1726.12
349.355	1828.12
349.583	1813.12
349.81	1672.12
350.037	1586.12
350.265	1545.12
350.492	1579.12
350.72	1624.12
350.947	1687.12
351.174	1678.12
351.402	1659.12
351.629	1573.12
351.856	1549.12
352.083	1516.12
352.311	1562.12
352.538	1580.12
352.765	1658.12
352.992	1709.12
353.22	1667.12
353.447	1613.12
353.674	1630.12
353.901	1697.12
354.128	1618.12
354.355	1587.12
354.583	1684.12
354.81	1730.12
355.037	1733.12
355.264	1704.12
355.491	1706.12
355.718	1681.12
355.945	1663.12
356.172	1621.12
356.399	1591.12
356.626	1594.12
356.853	1629.12
357.08	1751.12
357.307	1962.12
357.534	1988.12
357.761	1769.12
357.988	1601.12
358.215	1550.12
358.441	1565.12
358.668	1614.12
358.895	1598.12
359.122	1672.12
359.349	1885.12
359.576	1864.12
359.802	1657.12
360.029	1579.12
360.256	1581.12
360.483	1618.12
360.709	1661.12
360.936	1692.12
361.163	1744.12
361.39	1879.12
361.616	2131.12
361.843	2047.12
362.07	1906.12
362.296	1656.12
362.523	1612.12
362.749	1658.12
362.976	1661.12
363.203	1709.12
363.429	1650.12
363.656	1598.12
363.882	1641.12
364.109	1793.12
364.335	1952.12
364.562	1855.12
364.788	1721.12
365.015	1685.12
365.241	1647.12
365.468	1679.12
365.694	1736.12
365.92	1800.12
366.147	1693.12
366.373	1615.12
366.599	1590.12
366.826	1589.12
367.052	1626.12
367.278	1640.12
367.505	1652.12
367.731	1678.12
367.957	1665.12
368.184	1729.12
368.41	1852.12
368.636	1845.12
368.862	1834.12
369.089	1887.12
369.315	1809.12
369.541	1753.12
369.767	1676.12
369.993	1621.12
370.219	1620.12
370.445	1656.12
370.672	1729.12
370.898	1837.12
371.124	1867.12
371.35	1723.12
371.576	1781.12
371.802	1855.12
372.028	1799.12
372.254	1723.12
372.48	1654.12
372.706	1642.12
372.932	1657.12
373.158	1679.12
373.384	1724.12
373.61	1742.12
373.835	1807.12
374.061	1751.12
374.287	1731.12
374.513	1747.12
374.739	1744.12
374.965	1738.12
375.191	1777.12
375.416	1785.12
375.642	1796.12
375.868	1876.12
376.094	1931.12
376.319	1865.12
376.545	1719.12
376.771	1744.12
376.997	1855.12
377.222	1849.12
377.448	1770.12
377.674	1775.12
377.899	1790.12
378.125	1863.12
378.35	1913.12
378.576	1756.12
378.802	1652.12
379.027	1679.12
379.253	1688.12
379.478	1764.12
379.704	1707.12
379.929	1692.12
380.155	1756.12
380.38	1777.12
380.606	1726.12
380.831	1707.12
381.057	1792.12
381.282	1844.12
381.507	1782.12
381.733	1875.12
381.958	2010.12
382.184	1846.12
382.409	1797.12
382.634	1820.12
382.86	1795.12
383.085	1786.12
383.31	1859.12
383.535	2012.12
383.761	2101.12
383.986	1992.12
384.211	1975.12
384.436	1917.12
384.662	2008.12
384.887	2090.12
385.112	1991.12
385.337	2009.12
385.562	1975.12
385.787	1985.12
386.013	2039.12
386.238	2030.12
386.463	1998.12
386.688	2097.12
386.913	2217.12
387.138	2213.12
387.363	2038.12
387.588	2021.12
387.813	2022.12
388.038	2074.12
388.263	2124.12
388.488	2023.12
388.713	1826.12
388.938	1845.12
389.163	1845.12
389.387	1933.12
389.612	1919.12
389.837	1980.12
390.062	2009.12
390.287	2006.12
390.512	1985.12
390.736	1939.12
390.961	1913.12
391.186	1851.12
391.411	1885.12
391.636	1923.12
391.86	1945.12
392.085	1986.12
392.31	1949.12
392.534	1992.12
392.759	2021.12
392.984	1949.12
393.208	1959.12
393.433	1998.12
393.658	2092.12
393.882	2147.12
394.107	1979.12
394.331	1989.12
394.556	1916.12
394.78	1979.12
395.005	2036.12
395.229	2084.12
395.454	2266.12
395.678	2286.12
395.903	2203.12
396.127	2044.12
396.352	2049.12
396.576	2160.12
396.801	2137.12
397.025	2135.12
397.249	2153.12
397.474	2099.12
397.698	2056.12
397.922	2156.12
398.147	2274.12
398.371	2367.12
398.595	2345.12
398.82	2254.12
399.044	2284.12
399.268	2421.12
399.492	2571.12
399.717	2662.12
399.941	2653.12
400.165	2617.12
400.389	2547.12
400.613	2497.12
400.837	2683.12
401.062	3164.12
401.286	2723.12
401.51	2478.12
401.734	2528.12
401.958	2486.12
402.182	2333.12
402.406	2251.12
402.63	2231.12
402.854	2236.12
403.078	2272.12
403.302	2315.12
403.526	2313.12
403.75	2378.12
403.974	2399.12
404.198	2311.12
404.422	2405.12
404.645	2530.12
404.869	2500.12
405.093	2287.12
405.317	2265.12
405.541	2338.12
405.765	2376.12
405.988	2360.12
406.212	2378.12
406.436	2446.12
406.66	2537.12
406.883	2506.12
407.107	2803.12
407.331	3026.12
407.555	3286.12
407.778	3068.12
408.002	2501.12
408.226	2441.12
408.449	2477.12
408.673	2404.12
408.896	2417.12
409.12	2453.12
409.344	2363.12
409.567	2311.12
409.791	2382.12
410.014	2406.12
410.238	2493.12
410.461	2645.12
410.685	2401.12
410.908	2267.12
411.132	2367.12
411.355	2348.12
411.578	2268.12
411.802	2289.12
412.025	2329.12
412.249	2301.12
412.472	2189.12
412.695	2189.12
412.919	2217.12
413.142	2181.12
413.365	2231.12
413.589	2342.12
413.812	2360.12
414.035	2461.12
414.258	2269.12
414.482	2251.12
414.705	2230.12
414.928	2212.12
415.151	2229.12
415.374	2250.12
415.597	2252.12
415.821	2316.12
416.044	2359.12
416.267	2383.12
416.49	2190.12
416.713	2113.12
416.936	2227.12
417.159	2313.12
417.382	2307.12
417.605	2204.12
417.828	2230.12
418.051	2280.12
418.274	2237.12
418.497	2170.12
418.72	2191.12
418.943	2135.12
419.166	2311.12
419.389	2423.12
419.611	2272.12
419.834	2196.12
420.057	2304.12
420.28	2123.12
420.503	2154.12
420.726	2201.12
420.948	2185.12
421.171	2132.12
421.394	2137.12
421.617	2222.12
421.839	2211.12
422.062	2132.12
422.285	2122.12
422.507	2149.12
422.73	2064.12
422.953	2067.12
423.175	2056.12
423.398	2170.12
423.621	2174.12
423.843	2194.12
424.066	2214.12
424.288	2220.12
424.511	2311.12
424.733	2234.12
424.956	2061.12
425.178	2038.12
425.401	2058.12
425.623	2102.12
425.846	2115.12
426.068	2141.12
426.291	2217.12
426.513	2173.12
426.735	2215.12
426.958	2334.12
427.18	2484.12
427.402	2245.12
427.625	2332.12
427.847	2340.12
428.069	2221.12
428.292	2127.12
428.514	2094.12
428.736	2049.12
428.958	2119.12
429.181	2089.12
429.403	2328.12
429.625	2876.12
429.847	2567.12
430.069	2099.12
430.292	2323.12
430.514	2465.12
430.736	2271.12
430.958	2353.12
431.18	2257.12
431.402	2082.12
431.624	2075.12
431.846	2121.12
432.068	2071.12
432.29	2081.12
432.512	2106.12
432.734	2111.12
432.956	2166.12
433.178	2292.12
433.4	2261.12
433.622	2293.12
433.844	2155.12
434.066	2053.12
434.287	2063.12
434.509	2136.12
434.731	2275.12
434.953	2353.12
435.175	2303.12
435.397	2187.12
435.618	2178.12
435.84	2209.12
436.062	2161.12
436.284	2170.12
436.505	2196.12
436.727	2225.12
436.949	2187.12
437.17	2095.12
437.392	2120.12
437.614	2137.12
437.835	2036.12
438.057	2211.12
438.278	2274.12
438.5	2142.12
438.721	2027.12
438.943	2039.12
439.165	2103.12
439.386	2068.12
439.608	2036.12
439.829	2059.12
440.05	2095.12
440.272	2065.12
440.493	2027.12
440.715	2063.12
440.936	2185.12
441.158	2409.12
441.379	2355.12
441.6	2300.12
441.822	2248.12
442.043	2215.12
442.264	2154.12
442.486	2094.12
442.707	2115.12
442.928	2066.12
443.149	2168.12
443.371	2301.12
443.592	2361.12
443.813	2318.12
444.034	2241.12
444.255	2276.12
444.476	2361.12
444.698	2414.12
444.919	2346.12
445.14	2376.12
445.361	2413.12
445.582	2527.12
445.803	2433.12
446.024	2298.12
446.245	2383.12
446.466	2270.12
446.687	2163.12
446.908	2161.12
447.129	2114.12
447.35	2158.12
447.571	2135.12
447.792	2083.12
448.013	2064.12
448.234	2087.12
448.455	2141.12
448.675	2161.12
448.896	2021.12
449.117	1957.12
449.338	2025.12
449.559	2129.12
449.779	2291.12
450	2471.12
450.221	2618.12
450.442	2539.12
450.662	2256.12
450.883	1999.12
451.104	1954.12
451.324	1997.12
451.545	2038.12
451.766	2041.12
451.986	1924.12
452.207	1939.12
452.428	1873.12
452.648	1859.12
452.869	1928.12
453.089	2016.12
453.31	2006.12
453.53	2102.12
453.751	1991.12
453.971	1891.12
454.192	1933.12
454.412	2073.12
454.633	1986.12
454.853	1923.12
455.073	1827.12
455.294	1809.12
455.514	1811.12
455.734	1839.12
455.955	1874.12
456.175	1858.12
456.395	1851.12
456.616	1906.12
456.836	1930.12
457.056	1880.12
457.276	1933.12
457.497	1852.12
457.717	1815.12
457.937	1835.12
458.157	1908.12
458.377	1872.12
458.598	1844.12
458.818	1893.12
459.038	1995.12
459.258	2123.12
459.478	2084.12
459.698	2048.12
459.918	2092.12
460.138	2207.12
460.358	2205.12
460.578	2255.12
460.798	2297.12
461.018	2441.12
461.238	2330.12
461.458	2188.12
461.678	2248.12
461.898	2201.12
462.118	2113.12
462.338	2233.12
462.558	2241.12
462.777	2268.12
462.997	2320.12
463.217	2491.12
463.437	2435.12
463.657	2276.12
463.876	2231.12
464.096	2253.12
464.316	2252.12
464.536	2318.12
464.755	2314.12
464.975	2343.12
465.195	2245.12
465.414	2320.12
465.634	2389.12
465.854	2244.12
466.073	2397.12
466.293	2310.12
466.512	2043.12
466.732	2059.12
466.951	2140.12
467.171	2164.12
467.391	2005.12
467.61	1969.12
467.829	1997.12
468.049	2166.12
468.268	2428.12
468.488	2260.12
468.707	2138.12
468.927	2099.12
469.146	2060.12
469.365	2009.12
469.585	2025.12
469.804	2001.12
470.023	1997.12
470.243	2048.12
470.462	2061.12
470.681	1991.12
470.901	2054.12
471.12	2074.12
471.339	2068.12
471.558	1981.12
471.777	1958.12
471.997	1985.12
472.216	2023.12
472.435	1934.12
472.654	1948.12
472.873	2063.12
473.092	2225.12
473.311	2063.12
473.53	1948.12
473.749	1935.12
473.968	2015.12
474.187	2142.12
474.406	2270.12
474.625	2092.12
474.844	2041.12
475.063	2051.12
475.282	2131.12
475.501	2085.12
475.72	2014.12
475.939	2181.12
476.158	2131.12
476.377	2085.12
476.596	2086.12
476.814	2115.12
477.033	2154.12
477.252	2261.12
477.471	2287.12
477.69	2175.12
477.908	2153.12
478.127	2254.12
478.346	2394.12
478.564	2463.12
478.783	2400.12
479.002	2521.12
479.22	2437.12
479.439	2520.12
479.658	2858.12
479.876	2859.12
480.095	2487.12
480.313	2375.12
480.532	2300.12
480.751	2331.12
480.969	2379.12
481.188	2378.12
481.406	2271.12
481.624	2214.12
481.843	2276.12
482.061	2284.12
482.28	2354.12
482.498	2417.12
482.717	2352.12
482.935	2249.12
483.153	2260.12
483.372	2296.12
483.59	2285.12
483.808	2249.12
484.027	2282.12
484.245	2473.12
484.463	2854.12
484.681	3247.12
484.9	2552.12
485.118	2369.12
485.336	2270.12
485.554	2364.12
485.772	2510.12
485.99	2443.12
486.209	2490.12
486.427	2473.12
486.645	2473.12
486.863	2398.12
487.081	2475.12
487.299	2547.12
487.517	2489.12
487.735	2387.12
487.953	2306.12
488.171	2347.12
488.389	2316.12
488.607	2325.12
488.825	2589.12
489.043	2637.12
489.261	2357.12
489.479	2493.12
489.696	2554.12
489.914	2526.12
490.132	2466.12
490.35	2395.12
490.568	2495.12
490.786	2441.12
491.003	2286.12
491.221	2391.12
491.439	2481.12
491.657	2461.12
491.874	2470.12
492.092	2489.12
492.31	2431.12
492.527	2450.12
492.745	2472.12
492.963	2423.12
493.18	2482.12
493.398	2643.12
493.615	2749.12
493.833	2581.12
494.05	2459.12
494.268	2499.12
494.485	2553.12
494.703	2500.12
494.92	2441.12
495.138	2457.12
495.355	2470.12
495.573	2611.12
495.79	2777.12
496.008	2757.12
496.225	2545.12
496.442	2595.12
496.66	2636.12
496.877	2600.12
497.094	2757.12
497.312	2729.12
497.529	2681.12
497.746	2734.12
497.963	3226.12
498.181	3605.12
498.398	3359.12
498.615	3257.12
498.832	3190.12
499.049	3195.12
499.267	3187.12
499.484	3413.12
499.701	3680.12
499.918	3684.12
500.135	3931.12
500.352	4278.12
500.569	4149.12
500.786	4462.12
501.003	4163.12
501.22	3796.12
501.437	3671.12
501.654	3637.12
501.871	3539.12
502.088	3090.12
502.305	3171.12
502.522	3027.12
502.739	2807.12
502.956	2756.12
503.172	2750.12
503.389	2649.12
503.606	2620.12
503.823	2632.12
504.04	2605.12
504.256	2611.12
504.473	2597.12
504.69	2771.12
504.907	2621.12
505.123	2453.12
505.34	2536.12
505.557	3245.12
505.773	2840.12
505.99	2386.12
506.207	2253.12
506.423	2273.12
506.64	2255.12
506.856	2249.12
507.073	2516.12
507.289	2721.12
507.506	2587.12
507.722	2264.12
507.939	2155.12
508.155	2167.12
508.372	2163.12
508.588	2157.12
508.805	2075.12
509.021	2089.12
509.238	2042.12
509.454	2053.12
509.67	2050.12
509.887	1978.12
510.103	2022.12
510.319	2053.12
510.536	2165.12
510.752	2187.12
510.968	2191.12
511.184	2311.12
511.401	2340.12
511.617	2037.12
511.833	1973.12
512.049	1990.12
512.265	1959.12
512.481	1971.12
512.698	2049.12
512.914	2178.12
513.13	2127.12
513.346	1999.12
513.562	1981.12
513.778	1938.12
513.994	2101.12
514.21	2173.12
514.426	2157.12
514.642	2399.12
514.858	2283.12
515.074	2095.12
515.29	1966.12
515.506	2083.12
515.721	2122.12
515.937	2109.12
516.153	2391.12
516.369	2298.12
516.585	2172.12
516.801	2109.12
517.016	2106.12
517.232	2150.12
517.448	2197.12
517.664	2232.12
517.879	2226.12
518.095	2315.12
518.311	2226.12
518.527	2103.12
518.742	2053.12
518.958	2021.12
519.173	1997.12
519.389	2014.12
519.605	2020.12
519.82	2074.12
520.036	2070.12
520.251	2007.12
520.467	1995.12
520.682	2113.12
520.898	2271.12
521.113	2052.12
521.329	1977.12
521.544	2143.12
521.76	2063.12
521.975	1966.12
522.19	1916.12
522.406	1908.12
522.621	2252.12
522.836	2326.12
523.052	1877.12
523.267	1898.12
523.482	1921.12
523.698	1837.12
523.913	1762.12
524.128	1829.12
524.343	1946.12
524.559	1945.12
524.774	1845.12
524.989	1810.12
525.204	1832.12
525.419	1797.12
525.634	1765.12
525.849	1833.12
526.064	1860.12
526.28	1859.12
526.495	1762.12
526.71	1743.12
526.925	1752.12
527.14	1740.12
527.355	1743.12
527.57	1736.12
527.785	1773.12
527.999	1737.12
528.214	1687.12
528.429	1710.12
528.644	1694.12
528.859	1774.12
529.074	1706.12
529.289	1737.12
529.503	1759.12
529.718	1718.12
529.933	1709.12
530.148	1660.12
530.363	1690.12
530.577	1726.12
530.792	1747.12
531.007	1754.12
531.221	1714.12
531.436	1762.12
531.651	1793.12
531.865	1891.12
532.08	1799.12
532.295	1727.12
532.509	1666.12
532.724	1677.12
532.938	1765.12
533.153	1883.12
533.367	1762.12
533.582	1737.12
533.796	1693.12
534.011	1739.12
534.225	1732.12
534.44	1685.12
534.654	1704.12
534.868	1710.12
535.083	1739.12
535.297	1738.12
535.511	1707.12
535.726	1707.12
535.94	1698.12
536.154	1685.12
536.369	1652.12
536.583	1683.12
536.797	1607.12
537.011	1688.12
537.225	1608.12
537.44	1577.12
537.654	1693.12
537.868	1648.12
538.082	1566.12
538.296	1545.12
538.51	1551.12
538.724	1557.12
538.938	1569.12
539.153	1574.12
539.367	1584.12
539.581	1596.12
539.795	1715.12
540.009	1657.12
540.222	1650.12
540.436	1699.12
540.65	1804.12
540.864	1801.12
541.078	1701.12
541.292	1593.12
541.506	1612.12
541.72	1629.12
541.934	1589.12
542.147	1659.12
542.361	1661.12
542.575	1568.12
542.789	1539.12
543.002	1487.12
543.216	1557.12
543.43	1637.12
543.644	1665.12
543.857	1763.12
544.071	1693.12
544.285	1636.12
544.498	1623.12
544.712	1630.12
544.925	1617.12
545.139	1628.12
545.352	1587.12
545.566	1524.12
545.779	1508.12
545.993	1546.12
546.206	1568.12
546.42	1531.12
546.633	1481.12
546.847	1518.12
547.06	1530.12
547.274	1494.12
547.487	1498.12
547.7	1512.12
547.914	1533.12
548.127	1551.12
548.34	1553.12
548.554	1561.12
548.767	1534.12
548.98	1532.12
549.193	1506.12
549.407	1599.12
549.62	1602.12
549.833	1542.12
550.046	1510.12
550.259	1536.12
550.473	1514.12
550.686	1495.12
550.899	1489.12
551.112	1451.12
551.325	1435.12
551.538	1529.12
551.751	1776.12
551.964	1475.12
552.177	1413.12
552.39	1457.12
552.603	1480.12
552.816	1490.12
553.029	1540.12
553.242	1637.12
553.455	1503.12
553.667	1485.12
553.88	1474.12
554.093	1521.12
554.306	1447.12
554.519	1399.12
554.732	1391.12
554.944	1415.12
555.157	1459.12
555.37	1413.12
555.583	1441.12
555.795	1404.12
556.008	1326.12
556.221	1344.12
556.433	1310.12
556.646	1299.12
556.859	1285.12
557.071	1290.12
557.284	1317.12
557.496	1304.12
557.709	1249.12
557.921	1230.12
558.134	1277.12
558.346	1260.12
558.559	1260.12
558.771	1257.12
558.984	1204.12
559.196	1194.12
559.409	1178.12
559.621	1234.12
559.833	1242.12
560.046	1294.12
560.258	1244.12
560.47	1241.12
560.683	1232.12
560.895	1204.12
561.107	1220.12
561.32	1283.12
561.532	1299.12
561.744	1247.12
561.956	1223.12
562.168	1189.12
562.381	1196.12
562.593	1162.12
562.805	1203.12
563.017	1193.12
563.229	1207.12
563.441	1245.12
563.653	1204.12
563.865	1213.12
564.077	1193.12
564.289	1204.12
564.501	1225.12
564.713	1258.12
564.925	1297.12
565.137	1388.12
565.349	1288.12
565.561	1275.12
565.773	1289.12
565.985	1315.12
566.197	1364.12
566.408	1457.12
566.62	1485.12
566.832	1453.12
567.044	1503.12
567.255	1473.12
567.467	1483.12
567.679	1514.12
567.891	1551.12
568.102	1527.12
568.314	1478.12
568.526	1409.12
568.737	1376.12
568.949	1320.12
569.161	1214.12
569.372	1209.12
569.584	1165.12
569.795	1189.12
570.007	1180.12
570.218	1096.12
570.43	1061.12
570.641	1112.12
570.853	1099.12
571.064	1109.12
571.276	1058.12
571.487	1081.12
571.698	1052.12
571.91	1013.12
572.121	1003.12
572.333	1003.12
572.544	1031.12
572.755	969.12
572.966	988.12
573.178	984.12
573.389	989.12
573.6	1027.12
573.811	1079.12
574.023	987.12
574.234	966.12
574.445	956.12
574.656	937.12
574.867	936.12
575.078	923.12
575.289	949.12
575.501	887.12
575.712	901.12
575.923	899.12
576.134	929.12
576.345	906.12
576.556	889.12
576.767	897.12
576.978	909.12
577.188	886.12
577.399	882.12
577.61	881.12
577.821	853.12
578.032	834.12
578.243	847.12
578.454	866.12
578.665	807.12
578.875	838.12
579.086	814.12
579.297	841.12
579.508	874.12
579.718	884.12
579.929	827.12
580.14	841.12
580.35	799.12
580.561	841.12
580.772	905.12
580.982	824.12
581.193	829.12
581.403	821.12
581.614	792.12
581.825	785.12
582.035	818.12
582.246	814.12
582.456	830.12
582.667	807.12
582.877	773.12
583.087	796.12
583.298	787.12
583.508	756.12
583.719	767.12
583.929	785.12
584.139	782.12
584.35	768.12
584.56	762.12
584.77	776.12
584.981	753.12
585.191	789.12
585.401	824.12
585.611	775.12
585.821	782.12
586.032	747.12
586.242	733.12
586.452	763.12
586.662	773.12
586.872	744.12
587.082	731.12
587.292	781.12
587.502	771.12
587.713	791.12
587.923	755.12
588.133	729.12
588.343	759.12
588.553	733.12
588.762	739.12
588.972	758.12
589.182	775.12
589.392	753.12
589.602	740.12
589.812	763.12
590.022	705.12
590.232	716.12
590.441	740.12
590.651	751.12
590.861	760.12
591.071	712.12
591.281	721.12
591.49	717.12
591.7	740.12
591.91	719.12
592.119	690.12
592.329	737.12
592.539	773.12
592.748	773.12
592.958	743.12
593.167	747.12
593.377	778.12
593.587	798.12
593.796	790.12
594.006	801.12
594.215	766.12
594.424	759.12
594.634	756.12
594.843	762.12
595.053	750.12
595.262	749.12
595.472	724.12
595.681	734.12
595.89	731.12
596.1	675.12
596.309	685.12
596.518	695.12
596.727	701.12
596.937	674.12
597.146	666.12
597.355	663.12
597.564	635.12
597.774	632.12
597.983	637.12
598.192	639.12
598.401	603.12
598.61	653.12
598.819	609.12
599.028	629.12
599.237	635.12
599.446	601.12
599.655	616.12
599.864	602.12
600.073	606.12
600.282	611.12
600.491	607.12
600.7	601.12
600.909	599.12
601.118	591.12
601.327	603.12
601.536	602.12
601.745	596.12
601.953	570.12
602.162	588.12
602.371	613.12
602.58	592.12
602.789	596.12
602.997	603.12
603.206	584.12
603.415	581.12
603.623	611.12
603.832	603.12
604.041	574.12
604.249	572.12
604.458	584.12
604.666	571.12
604.875	567.12
605.084	553.12
605.292	578.12
605.501	565.12
605.709	566.12
605.918	559.12
606.126	520.12
606.334	535.12
606.543	541.12
606.751	548.12
606.96	569.12
607.168	574.12
607.376	548.12
607.585	557.12
607.793	535.12
608.001	541.12
608.21	563.12
608.418	531.12
608.626	545.12
608.834	532.12
609.043	539.12
609.251	540.12
609.459	548.12
609.667	563.12
609.875	545.12
610.083	545.12
610.291	580.12
610.499	569.12
610.707	535.12
610.916	571.12
611.124	549.12
611.332	543.12
611.54	546.12
611.748	524.12
611.955	514.12
612.163	520.12
612.371	519.12
612.579	515.12
612.787	527.12
612.995	525.12
613.203	531.12
613.411	503.12
613.618	516.12
613.826	543.12
614.034	518.12
614.242	528.12
614.449	512.12
614.657	532.12
614.865	523.12
615.072	525.12
615.28	502.12
615.488	533.12
615.695	513.12
615.903	506.12
616.111	524.12
616.318	530.12
616.526	519.12
616.733	506.12
616.941	509.12
617.148	514.12
617.356	487.12
617.563	492.12
617.771	522.12
617.978	491.12
618.185	489.12
618.393	482.12
618.6	497.12
618.807	497.12
619.015	489.12
619.222	494.12
619.429	499.12
619.637	475.12
619.844	461.12
620.051	468.12
620.258	483.12
620.466	457.12
620.673	465.12
620.88	449.12
621.087	472.12
621.294	441.12
621.501	434.12
621.708	442.12
621.915	480.12
622.122	484.12
622.329	474.12
622.536	453.12
622.743	470.12
622.95	438.12
623.157	442.12
623.364	456.12
623.571	453.12
623.778	450.12
623.985	462.12
624.192	449.12
624.399	450.12
624.606	445.12
624.812	449.12
625.019	439.12
625.226	437.12
625.433	419.12
625.639	430.12
625.846	416.12
626.053	428.12
626.259	416.12
626.466	419.12
626.673	417.12
626.879	397.12
627.086	423.12
627.293	408.12
627.499	408.12
627.706	419.12
627.912	422.12
628.119	416.12
628.325	411.12
628.532	387.12
628.738	418.12
628.945	405.12
629.151	403.12
629.357	415.12
629.564	409.12
629.77	399.12
629.976	397.12
630.183	393.12
630.389	417.12
630.595	418.12
630.802	376.12
631.008	387.12
631.214	385.12
631.42	382.12
631.627	378.12
631.833	377.12
632.039	390.12
632.245	373.12
632.451	374.12
632.657	372.12
632.863	375.12
633.069	371.12
633.275	356.12
633.481	357.12
633.688	388.12
633.893	361.12
634.099	353.12
634.305	381.12
634.511	363.12
634.717	360.12
634.923	336.12
635.129	357.12
635.335	352.12
635.541	342.12
635.747	350.12
635.952	357.12
636.158	373.12
636.364	363.12
636.57	356.12
636.775	351.12
636.981	342.12
637.187	338.12
637.392	351.12
637.598	347.12
637.804	344.12
638.009	339.12
638.215	350.12
638.421	358.12
638.626	347.12
638.832	357.12
639.037	337.12
639.243	343.12
639.448	321.12
639.654	334.12
639.859	337.12
640.065	346.12
640.27	341.12
640.475	356.12
640.681	327.12
640.886	324.12
641.091	329.12
641.297	322.12
641.502	334.12
641.707	318.12
641.913	334.12
642.118	322.12
642.323	317.12
642.528	310.12
642.733	335.12
642.939	327.12
643.144	305.12
643.349	330.12
643.554	330.12
643.759	301.12
643.964	332.12
644.169	318.12
644.374	298.12
644.579	310.12
644.784	318.12
644.989	315.12
645.194	320.12
645.399	329.12
645.604	306.12
645.809	311.12
646.014	313.12
646.219	311.12
646.423	330.12
646.628	323.12
646.833	305.12
647.038	320.12
647.243	326.12
647.447	307.12
647.652	322.12
647.857	310.12
648.062	319.12
648.266	325.12
648.471	327.12
648.676	341.12
648.88	329.12
649.085	310.12
649.289	308.12
649.494	308.12
649.698	292.12
649.903	312.12
650.107	302.12
650.312	299.12
650.516	294.12
650.721	263.12
650.925	283.12
651.13	289.12
651.334	285.12
651.539	277.12
651.743	283.12
651.947	273.12
652.152	284.12
652.356	277.12
652.56	261.12
652.764	261.12
652.969	261.12
653.173	248.12
653.377	236.12
653.581	239.12
653.785	234.12
653.99	253.12
654.194	249.12
654.398	245.12
654.602	235.12
654.806	246.12
655.01	231.12
655.214	251.12
655.418	249.12
655.622	233.12
655.826	261.12
656.03	262.12
656.234	259.12
656.438	282.12
656.642	269.12
656.846	269.12
657.049	238.12
657.253	223.12
657.457	218.12
657.661	197.12
657.865	177.12
658.068	186.12
658.272	173.12
658.476	155.12
658.68	154.12
658.883	149.12
659.087	133.12
659.291	138.12
659.494	149.12
659.698	139.12
659.901	140.12
660.105	123.12
660.309	122.12
660.512	123.12
660.716	110.12
660.919	112.12
661.123	123.12
661.326	109.12
661.53	111.12
661.733	131.12
661.936	106.12
662.14	90.12
662.343	84.12
662.546	93.12
662.75	101.12
662.953	89.12
663.156	78.12
663.36	88.12
663.563	99.12
663.766	87.12
663.969	83.12
664.173	85.12
664.376	82.12
664.579	97.12
664.782	105.12
664.985	78.12
665.188	74.12
665.391	96.12
665.594	71.12
665.797	72.12
666	89.12
666.203	79.12
666.406	88.12
666.609	83.12
666.812	82.12
667.015	102.12
667.218	101.12
667.421	75.12
667.624	79.12
667.827	94.12
668.03	75.12
668.232	89.12
668.435	99.12
668.638	69.12
668.841	89.12
669.043	95.12
669.246	81.12
669.449	84.12
669.651	74.12
669.854	96.12
670.057	84.12
670.259	85.12
670.462	82.12
670.665	88.12
670.867	101.12
671.07	86.12
671.272	90.12
671.475	93.12
671.677	73.12
671.88	82.12
672.082	81.12
672.284	95.12
672.487	89.12
672.689	72.12
672.892	88.12
