Data from WStandard_LampEnergy10_LIBS07252019.E.O._I.C._HRD10591_15-55-37-929.txt Node
Date: Thu Jul 25 15:55:37 EDT 2019
User: cochatt
Spectrometer: HR+D1059
Trigger mode: 1
Integration Time (sec): 1.000000E-1
Scans to average: 1
Electric dark correction enabled: true
Nonlinearity correction enabled: false
Boxcar width: 0
XAxis mode: Wavelengths
Number of Pixels in Spectrum: 2048
>>>>>Begin Spectral Data<<<<<
223.165	-20.88
223.4	-20.88
223.635	-20.88
223.869	-0.88
224.104	-15.88
224.338	-13.88
224.573	-7.88
224.808	-24.88
225.042	-12.88
225.277	-6.88
225.511	-6.88
225.746	13.12
225.98	4.12
226.215	13.12
226.449	10.12
226.683	14.12
226.918	23.12
227.152	33.12
227.387	33.12
227.621	41.12
227.856	50.12
228.09	55.12
228.324	45.12
228.559	63.12
228.793	87.12
229.027	134.12
229.262	147.12
229.496	147.12
229.73	144.12
229.964	160.12
230.199	163.12
230.433	176.12
230.667	179.12
230.901	198.12
231.136	179.12
231.37	184.12
231.604	159.12
231.838	177.12
232.072	170.12
232.306	172.12
232.541	182.12
232.775	187.12
233.009	206.12
233.243	210.12
233.477	181.12
233.711	191.12
233.945	199.12
234.179	202.12
234.413	202.12
234.647	209.12
234.881	197.12
235.115	201.12
235.349	194.12
235.583	196.12
235.817	194.12
236.051	201.12
236.285	188.12
236.519	213.12
236.753	217.12
236.987	223.12
237.221	208.12
237.455	216.12
237.689	231.12
237.922	223.12
238.156	215.12
238.39	236.12
238.624	228.12
238.858	237.12
239.091	232.12
239.325	259.12
239.559	270.12
239.793	286.12
240.027	309.12
240.26	287.12
240.494	244.12
240.728	218.12
240.961	238.12
241.195	230.12
241.429	255.12
241.662	261.12
241.896	235.12
242.13	251.12
242.363	259.12
242.597	275.12
242.83	276.12
243.064	248.12
243.298	281.12
243.531	304.12
243.765	277.12
243.998	278.12
244.232	264.12
244.465	249.12
244.699	245.12
244.932	283.12
245.166	308.12
245.399	309.12
245.633	275.12
245.866	270.12
246.099	294.12
246.333	285.12
246.566	310.12
246.8	291.12
247.033	335.12
247.266	332.12
247.5	317.12
247.733	330.12
247.966	331.12
248.2	358.12
248.433	344.12
248.666	371.12
248.899	393.12
249.133	433.12
249.366	453.12
249.599	379.12
249.832	359.12
250.066	361.12
250.299	356.12
250.532	353.12
250.765	308.12
250.998	328.12
251.231	334.12
251.465	349.12
251.698	346.12
251.931	344.12
252.164	344.12
252.397	358.12
252.63	368.12
252.863	324.12
253.096	325.12
253.329	346.12
253.562	328.12
253.795	371.12
254.028	366.12
254.261	333.12
254.494	340.12
254.727	339.12
254.96	354.12
255.193	374.12
255.426	417.12
255.659	452.12
255.892	435.12
256.124	388.12
256.357	381.12
256.59	403.12
256.823	418.12
257.056	413.12
257.289	488.12
257.521	509.12
257.754	459.12
257.987	443.12
258.22	462.12
258.452	450.12
258.685	397.12
258.918	403.12
259.151	372.12
259.383	374.12
259.616	342.12
259.849	365.12
260.081	393.12
260.314	447.12
260.547	453.12
260.779	459.12
261.012	439.12
261.244	401.12
261.477	405.12
261.71	391.12
261.942	408.12
262.175	381.12
262.407	403.12
262.64	396.12
262.872	374.12
263.105	374.12
263.337	389.12
263.57	364.12
263.802	371.12
264.035	350.12
264.267	328.12
264.499	340.12
264.732	366.12
264.964	383.12
265.197	389.12
265.429	408.12
265.661	454.12
265.894	510.12
266.126	508.12
266.358	459.12
266.591	474.12
266.823	493.12
267.055	446.12
267.287	441.12
267.52	453.12
267.752	441.12
267.984	452.12
268.216	481.12
268.448	474.12
268.681	443.12
268.913	414.12
269.145	426.12
269.377	426.12
269.609	476.12
269.841	503.12
270.073	568.12
270.306	608.12
270.538	597.12
270.77	512.12
271.002	461.12
271.234	458.12
271.466	463.12
271.698	526.12
271.93	579.12
272.162	591.12
272.394	527.12
272.626	508.12
272.858	466.12
273.09	385.12
273.322	409.12
273.553	405.12
273.785	410.12
274.017	416.12
274.249	431.12
274.481	427.12
274.713	413.12
274.945	394.12
275.176	426.12
275.408	408.12
275.64	398.12
275.872	394.12
276.104	445.12
276.335	481.12
276.567	520.12
276.799	509.12
277.031	475.12
277.262	482.12
277.494	483.12
277.726	550.12
277.957	501.12
278.189	471.12
278.421	431.12
278.652	424.12
278.884	422.12
279.115	416.12
279.347	448.12
279.579	445.12
279.81	424.12
280.042	462.12
280.273	487.12
280.505	504.12
280.736	517.12
280.968	477.12
281.199	426.12
281.431	391.12
281.662	422.12
281.894	428.12
282.125	455.12
282.356	460.12
282.588	446.12
282.819	454.12
283.051	479.12
283.282	499.12
283.513	481.12
283.745	445.12
283.976	415.12
284.207	429.12
284.439	444.12
284.67	418.12
284.901	439.12
285.132	452.12
285.364	442.12
285.595	464.12
285.826	462.12
286.057	441.12
286.288	461.12
286.52	463.12
286.751	503.12
286.982	479.12
287.213	445.12
287.444	414.12
287.675	428.12
287.906	458.12
288.138	483.12
288.369	461.12
288.6	441.12
288.831	431.12
289.062	442.12
289.293	453.12
289.524	444.12
289.755	458.12
289.986	460.12
290.217	439.12
290.448	448.12
290.679	467.12
290.91	462.12
291.141	472.12
291.371	494.12
291.602	474.12
291.833	478.12
292.064	498.12
292.295	491.12
292.526	513.12
292.757	501.12
292.987	481.12
293.218	490.12
293.449	518.12
293.68	571.12
293.91	586.12
294.141	551.12
294.372	553.12
294.603	566.12
294.833	581.12
295.064	526.12
295.295	479.12
295.525	435.12
295.756	466.12
295.987	426.12
296.217	443.12
296.448	446.12
296.679	469.12
296.909	457.12
297.14	469.12
297.37	476.12
297.601	511.12
297.831	512.12
298.062	527.12
298.292	474.12
298.523	470.12
298.753	488.12
298.984	470.12
299.214	482.12
299.445	468.12
299.675	497.12
299.905	517.12
300.136	478.12
300.366	447.12
300.597	455.12
300.827	486.12
301.057	488.12
301.288	519.12
301.518	494.12
301.748	521.12
301.979	523.12
302.209	558.12
302.439	576.12
302.669	570.12
302.9	542.12
303.13	488.12
303.36	513.12
303.59	528.12
303.82	498.12
304.051	512.12
304.281	519.12
304.511	541.12
304.741	588.12
304.971	606.12
305.201	613.12
305.431	559.12
305.661	486.12
305.891	446.12
306.121	418.12
306.352	465.12
306.582	509.12
306.812	515.12
307.042	567.12
307.272	567.12
307.502	573.12
307.731	618.12
307.961	642.12
308.191	580.12
308.421	550.12
308.651	485.12
308.881	497.12
309.111	486.12
309.341	491.12
309.571	492.12
309.8	495.12
310.03	467.12
310.26	485.12
310.49	477.12
310.72	517.12
310.949	526.12
311.179	494.12
311.409	521.12
311.639	492.12
311.868	486.12
312.098	498.12
312.328	502.12
312.557	507.12
312.787	494.12
313.017	509.12
313.246	508.12
313.476	500.12
313.706	517.12
313.935	544.12
314.165	525.12
314.394	546.12
314.624	588.12
314.853	612.12
315.083	628.12
315.312	595.12
315.542	569.12
315.771	551.12
316.001	545.12
316.23	551.12
316.46	570.12
316.689	562.12
316.919	507.12
317.148	512.12
317.377	525.12
317.607	597.12
317.836	640.12
318.065	623.12
318.295	593.12
318.524	579.12
318.753	564.12
318.983	567.12
319.212	554.12
319.441	532.12
319.67	542.12
319.9	576.12
320.129	603.12
320.358	617.12
320.587	611.12
320.816	607.12
321.046	601.12
321.275	578.12
321.504	589.12
321.733	625.12
321.962	608.12
322.191	555.12
322.42	564.12
322.649	567.12
322.878	539.12
323.108	559.12
323.337	588.12
323.566	569.12
323.795	554.12
324.024	586.12
324.253	565.12
324.482	541.12
324.71	526.12
324.939	519.12
325.168	556.12
325.397	562.12
325.626	563.12
325.855	570.12
326.084	579.12
326.313	546.12
326.542	575.12
326.77	593.12
326.999	567.12
327.228	556.12
327.457	540.12
327.686	521.12
327.914	552.12
328.143	564.12
328.372	556.12
328.6	551.12
328.829	544.12
329.058	553.12
329.287	554.12
329.515	536.12
329.744	586.12
329.972	600.12
330.201	631.12
330.43	607.12
330.658	608.12
330.887	578.12
331.115	605.12
331.344	590.12
331.572	592.12
331.801	585.12
332.03	594.12
332.258	606.12
332.486	610.12
332.715	584.12
332.943	614.12
333.172	591.12
333.4	592.12
333.629	625.12
333.857	671.12
334.085	708.12
334.314	828.12
334.542	847.12
334.771	743.12
334.999	703.12
335.227	674.12
335.455	651.12
335.684	653.12
335.912	651.12
336.14	643.12
336.369	629.12
336.597	607.12
336.825	599.12
337.053	643.12
337.281	679.12
337.51	679.12
337.738	683.12
337.966	627.12
338.194	602.12
338.422	602.12
338.65	593.12
338.878	564.12
339.106	571.12
339.334	575.12
339.562	589.12
339.79	605.12
340.018	621.12
340.246	652.12
340.474	627.12
340.702	622.12
340.93	616.12
341.158	604.12
341.386	614.12
341.614	613.12
341.842	606.12
342.07	594.12
342.298	614.12
342.526	612.12
342.754	582.12
342.981	594.12
343.209	562.12
343.437	601.12
343.665	595.12
343.893	626.12
344.12	621.12
344.348	627.12
344.576	595.12
344.804	603.12
345.031	602.12
345.259	603.12
345.487	569.12
345.714	547.12
345.942	550.12
346.17	590.12
346.397	583.12
346.625	559.12
346.853	545.12
347.08	542.12
347.308	541.12
347.535	555.12
347.763	587.12
347.99	561.12
348.218	553.12
348.445	573.12
348.673	570.12
348.9	599.12
349.128	589.12
349.355	627.12
349.583	609.12
349.81	570.12
350.037	537.12
350.265	544.12
350.492	538.12
350.72	567.12
350.947	580.12
351.174	557.12
351.402	555.12
351.629	543.12
351.856	531.12
352.083	545.12
352.311	532.12
352.538	539.12
352.765	584.12
352.992	585.12
353.22	553.12
353.447	534.12
353.674	546.12
353.901	577.12
354.128	565.12
354.355	565.12
354.583	584.12
354.81	603.12
355.037	602.12
355.264	579.12
355.491	587.12
355.718	585.12
355.945	583.12
356.172	556.12
356.399	533.12
356.626	523.12
356.853	582.12
357.08	658.12
357.307	683.12
357.534	637.12
357.761	567.12
357.988	554.12
358.215	545.12
358.441	538.12
358.668	547.12
358.895	563.12
359.122	582.12
359.349	649.12
359.576	629.12
359.802	561.12
360.029	557.12
360.256	551.12
360.483	566.12
360.709	557.12
360.936	610.12
361.163	599.12
361.39	691.12
361.616	714.12
361.843	694.12
362.07	666.12
362.296	577.12
362.523	557.12
362.749	582.12
362.976	568.12
363.203	603.12
363.429	567.12
363.656	562.12
363.882	606.12
364.109	651.12
364.335	665.12
364.562	629.12
364.788	602.12
365.015	582.12
365.241	581.12
365.468	582.12
365.694	618.12
365.92	627.12
366.147	563.12
366.373	561.12
366.599	550.12
366.826	559.12
367.052	556.12
367.278	570.12
367.505	597.12
367.731	609.12
367.957	592.12
368.184	599.12
368.41	665.12
368.636	671.12
368.862	661.12
369.089	667.12
369.315	630.12
369.541	607.12
369.767	599.12
369.993	572.12
370.219	611.12
370.445	619.12
370.672	659.12
370.898	699.12
371.124	652.12
371.35	630.12
371.576	649.12
371.802	653.12
372.028	628.12
372.254	597.12
372.48	618.12
372.706	611.12
372.932	597.12
373.158	619.12
373.384	625.12
373.61	667.12
373.835	657.12
374.061	618.12
374.287	638.12
374.513	622.12
374.739	641.12
374.965	643.12
375.191	640.12
375.416	640.12
375.642	649.12
375.868	689.12
376.094	698.12
376.319	674.12
376.545	636.12
376.771	679.12
376.997	705.12
377.222	669.12
377.448	679.12
377.674	676.12
377.899	705.12
378.125	717.12
378.35	703.12
378.576	629.12
378.802	611.12
379.027	622.12
379.253	614.12
379.478	640.12
379.704	607.12
379.929	655.12
380.155	651.12
380.38	643.12
380.606	660.12
380.831	653.12
381.057	706.12
381.282	691.12
381.507	705.12
381.733	745.12
381.958	743.12
382.184	705.12
382.409	659.12
382.634	687.12
382.86	679.12
383.085	698.12
383.31	706.12
383.535	778.12
383.761	786.12
383.986	751.12
384.211	718.12
384.436	748.12
384.662	767.12
384.887	768.12
385.112	725.12
385.337	725.12
385.562	746.12
385.787	735.12
386.013	787.12
386.238	770.12
386.463	790.12
386.688	839.12
386.913	851.12
387.138	841.12
387.363	772.12
387.588	767.12
387.813	775.12
388.038	804.12
388.263	806.12
388.488	778.12
388.713	718.12
388.938	713.12
389.163	718.12
389.387	740.12
389.612	737.12
389.837	764.12
390.062	771.12
390.287	761.12
390.512	734.12
390.736	742.12
390.961	717.12
391.186	717.12
391.411	735.12
391.636	755.12
391.86	759.12
392.085	769.12
392.31	750.12
392.534	744.12
392.759	749.12
392.984	745.12
393.208	759.12
393.433	781.12
393.658	833.12
393.882	834.12
394.107	777.12
394.331	794.12
394.556	789.12
394.78	779.12
395.005	802.12
395.229	842.12
395.454	871.12
395.678	853.12
395.903	828.12
396.127	818.12
396.352	814.12
396.576	863.12
396.801	886.12
397.025	847.12
397.249	820.12
397.474	818.12
397.698	827.12
397.922	878.12
398.147	900.12
398.371	907.12
398.595	868.12
398.82	845.12
399.044	891.12
399.268	924.12
399.492	988.12
399.717	975.12
399.941	954.12
400.165	963.12
400.389	931.12
400.613	978.12
400.837	1122.12
401.062	1159.12
401.286	1013.12
401.51	1002.12
401.734	983.12
401.958	947.12
402.182	889.12
402.406	869.12
402.63	909.12
402.854	873.12
403.078	890.12
403.302	922.12
403.526	920.12
403.75	951.12
403.974	918.12
404.198	940.12
404.422	964.12
404.645	998.12
404.869	996.12
405.093	896.12
405.317	872.12
405.541	908.12
405.765	960.12
405.988	895.12
406.212	952.12
406.436	930.12
406.66	991.12
406.883	1005.12
407.107	1126.12
407.331	1220.12
407.555	1307.12
407.778	1101.12
408.002	976.12
408.226	974.12
408.449	950.12
408.673	930.12
408.896	962.12
409.12	956.12
409.344	935.12
409.567	892.12
409.791	927.12
410.014	956.12
410.238	1025.12
410.461	1015.12
410.685	952.12
410.908	952.12
411.132	916.12
411.355	923.12
411.578	917.12
411.802	922.12
412.025	954.12
412.249	936.12
412.472	923.12
412.695	904.12
412.919	925.12
413.142	887.12
413.365	913.12
413.589	934.12
413.812	987.12
414.035	963.12
414.258	922.12
414.482	876.12
414.705	921.12
414.928	907.12
415.151	921.12
415.374	942.12
415.597	916.12
415.821	930.12
416.044	964.12
416.267	937.12
416.49	903.12
416.713	898.12
416.936	977.12
417.159	970.12
417.382	939.12
417.605	899.12
417.828	946.12
418.051	927.12
418.274	931.12
418.497	909.12
418.72	947.12
418.943	918.12
419.166	950.12
419.389	970.12
419.611	951.12
419.834	936.12
420.057	947.12
420.28	936.12
420.503	931.12
420.726	978.12
420.948	951.12
421.171	917.12
421.394	957.12
421.617	971.12
421.839	979.12
422.062	965.12
422.285	922.12
422.507	905.12
422.73	879.12
422.953	888.12
423.175	905.12
423.398	948.12
423.621	929.12
423.843	923.12
424.066	973.12
424.288	996.12
424.511	1033.12
424.733	1000.12
424.956	960.12
425.178	933.12
425.401	946.12
425.623	940.12
425.846	960.12
426.068	993.12
426.291	993.12
426.513	949.12
426.735	960.12
426.958	1037.12
427.18	1026.12
427.402	1015.12
427.625	986.12
427.847	976.12
428.069	926.12
428.292	914.12
428.514	861.12
428.736	899.12
428.958	933.12
429.181	921.12
429.403	1077.12
429.625	1218.12
429.847	1022.12
430.069	968.12
430.292	1071.12
430.514	1064.12
430.736	972.12
430.958	996.12
431.18	926.12
431.402	876.12
431.624	852.12
431.846	812.12
432.068	741.12
432.29	744.12
432.512	819.12
432.734	885.12
432.956	935.12
433.178	963.12
433.4	968.12
433.622	954.12
433.844	905.12
434.066	821.12
434.287	785.12
434.509	767.12
434.731	814.12
434.953	908.12
435.175	933.12
435.397	919.12
435.618	886.12
435.84	853.12
436.062	847.12
436.284	875.12
436.505	901.12
436.727	933.12
436.949	910.12
437.17	926.12
437.392	875.12
437.614	852.12
437.835	785.12
438.057	809.12
438.278	861.12
438.5	851.12
438.721	907.12
438.943	897.12
439.165	917.12
439.386	897.12
439.608	962.12
439.829	964.12
440.05	947.12
440.272	959.12
440.493	924.12
440.715	958.12
440.936	1027.12
441.158	1016.12
441.379	1044.12
441.6	1038.12
441.822	1035.12
442.043	1009.12
442.264	987.12
442.486	961.12
442.707	958.12
442.928	958.12
443.149	987.12
443.371	984.12
443.592	1005.12
443.813	1040.12
444.034	1010.12
444.255	1025.12
444.476	1025.12
444.698	1034.12
444.919	1042.12
445.14	1112.12
445.361	1084.12
445.582	1083.12
445.803	1050.12
446.024	999.12
446.245	1059.12
446.466	1039.12
446.687	1020.12
446.908	1044.12
447.129	1018.12
447.35	1019.12
447.571	981.12
447.792	926.12
448.013	962.12
448.234	981.12
448.455	1017.12
448.675	970.12
448.896	892.12
449.117	886.12
449.338	919.12
449.559	950.12
449.779	975.12
450	1003.12
450.221	1040.12
450.442	1027.12
450.662	914.12
450.883	885.12
451.104	866.12
451.324	882.12
451.545	891.12
451.766	866.12
451.986	835.12
452.207	842.12
452.428	809.12
452.648	806.12
452.869	779.12
453.089	801.12
453.31	789.12
453.53	790.12
453.751	732.12
453.971	701.12
454.192	729.12
454.412	754.12
454.633	763.12
454.853	794.12
455.073	760.12
455.294	775.12
455.514	750.12
455.734	776.12
455.955	759.12
456.175	764.12
456.395	721.12
456.616	723.12
456.836	723.12
457.056	736.12
457.276	715.12
457.497	696.12
457.717	697.12
457.937	709.12
458.157	700.12
458.377	712.12
458.598	690.12
458.818	681.12
459.038	716.12
459.258	724.12
459.478	705.12
459.698	723.12
459.918	753.12
460.138	803.12
460.358	827.12
460.578	845.12
460.798	862.12
461.018	876.12
461.238	886.12
461.458	872.12
461.678	846.12
461.898	830.12
462.118	806.12
462.338	861.12
462.558	860.12
462.777	831.12
462.997	860.12
463.217	899.12
463.437	862.12
463.657	835.12
463.876	835.12
464.096	798.12
464.316	824.12
464.536	858.12
464.755	887.12
464.975	880.12
465.195	843.12
465.414	875.12
465.634	872.12
465.854	889.12
466.073	955.12
466.293	939.12
466.512	874.12
466.732	865.12
466.951	921.12
467.171	887.12
467.391	861.12
467.61	877.12
467.829	895.12
468.049	994.12
468.268	1039.12
468.488	990.12
468.707	893.12
468.927	903.12
469.146	875.12
469.365	917.12
469.585	947.12
469.804	893.12
470.023	962.12
470.243	953.12
470.462	940.12
470.681	931.12
470.901	949.12
471.12	923.12
471.339	915.12
471.558	902.12
471.777	923.12
471.997	891.12
472.216	859.12
472.435	766.12
472.654	795.12
472.873	777.12
473.092	799.12
473.311	837.12
473.53	805.12
473.749	833.12
473.968	849.12
474.187	866.12
474.406	839.12
474.625	851.12
474.844	891.12
475.063	882.12
475.282	868.12
475.501	801.12
475.72	828.12
475.939	892.12
476.158	891.12
476.377	879.12
476.596	848.12
476.814	808.12
477.033	794.12
477.252	834.12
477.471	905.12
477.69	921.12
477.908	943.12
478.127	975.12
478.346	1003.12
478.564	991.12
478.783	987.12
479.002	1035.12
479.22	1020.12
479.439	1023.12
479.658	1047.12
479.876	988.12
480.095	904.12
480.313	895.12
480.532	868.12
480.751	879.12
480.969	837.12
481.188	810.12
481.406	793.12
481.624	765.12
481.843	808.12
482.061	822.12
482.28	855.12
482.498	889.12
482.717	842.12
482.935	897.12
483.153	977.12
483.372	1037.12
483.59	1003.12
483.808	964.12
484.027	939.12
484.245	1022.12
484.463	1226.12
484.681	1303.12
484.9	1027.12
485.118	917.12
485.336	921.12
485.554	913.12
485.772	892.12
485.99	868.12
486.209	891.12
486.427	901.12
486.645	936.12
486.863	1003.12
487.081	1027.12
487.299	996.12
487.517	1013.12
487.735	1105.12
487.953	1189.12
488.171	1206.12
488.389	1138.12
488.607	1094.12
488.825	1150.12
489.043	1059.12
489.261	987.12
489.479	1018.12
489.696	1024.12
489.914	1025.12
490.132	1038.12
490.35	1071.12
490.568	1141.12
490.786	1157.12
491.003	1189.12
491.221	1245.12
491.439	1299.12
491.657	1320.12
491.874	1355.12
492.092	1399.12
492.31	1477.12
492.527	1444.12
492.745	1336.12
492.963	1318.12
493.18	1329.12
493.398	1356.12
493.615	1303.12
493.833	1250.12
494.05	1219.12
494.268	1205.12
494.485	1239.12
494.703	1242.12
494.92	1224.12
495.138	1210.12
495.355	1218.12
495.573	1237.12
495.79	1259.12
496.008	1300.12
496.225	1225.12
496.442	1225.12
496.66	1227.12
496.877	1194.12
497.094	1221.12
497.312	1203.12
497.529	1185.12
497.746	1213.12
497.963	1279.12
498.181	1318.12
498.398	1249.12
498.615	1237.12
498.832	1177.12
499.049	1135.12
499.267	1173.12
499.484	1275.12
499.701	1312.12
499.918	1357.12
500.135	1485.12
500.352	1512.12
500.569	1607.12
500.786	1700.12
501.003	1531.12
501.22	1461.12
501.437	1413.12
501.654	1441.12
501.871	1363.12
502.088	1214.12
502.305	1216.12
502.522	1130.12
502.739	1121.12
502.956	1050.12
503.172	1044.12
503.389	999.12
503.606	984.12
503.823	998.12
504.04	1039.12
504.256	982.12
504.473	1013.12
504.69	1023.12
504.907	975.12
505.123	989.12
505.34	1049.12
505.557	1353.12
505.773	1102.12
505.99	959.12
506.207	912.12
506.423	890.12
506.64	906.12
506.856	909.12
507.073	1042.12
507.289	1086.12
507.506	990.12
507.722	900.12
507.939	843.12
508.155	877.12
508.372	838.12
508.588	808.12
508.805	763.12
509.021	791.12
509.238	767.12
509.454	782.12
509.67	767.12
509.887	765.12
510.103	723.12
510.319	751.12
510.536	760.12
510.752	791.12
510.968	771.12
511.184	808.12
511.401	750.12
511.617	706.12
511.833	705.12
512.049	720.12
512.265	694.12
512.481	695.12
512.698	735.12
512.914	773.12
513.13	744.12
513.346	717.12
513.562	708.12
513.778	734.12
513.994	723.12
514.21	768.12
514.426	755.12
514.642	813.12
514.858	779.12
515.074	728.12
515.29	709.12
515.506	733.12
515.721	721.12
515.937	757.12
516.153	817.12
516.369	780.12
516.585	760.12
516.801	712.12
517.016	747.12
517.232	748.12
517.448	778.12
517.664	768.12
517.879	791.12
518.095	794.12
518.311	797.12
518.527	761.12
518.742	734.12
518.958	719.12
519.173	738.12
519.389	781.12
519.605	785.12
519.82	791.12
520.036	800.12
520.251	789.12
520.467	780.12
520.682	805.12
520.898	813.12
521.113	735.12
521.329	731.12
521.544	756.12
521.76	760.12
521.975	713.12
522.19	705.12
522.406	730.12
522.621	926.12
522.836	866.12
523.052	711.12
523.267	736.12
523.482	782.12
523.698	735.12
523.913	742.12
524.128	779.12
524.343	795.12
524.559	806.12
524.774	770.12
524.989	766.12
525.204	774.12
525.419	764.12
525.634	761.12
525.849	751.12
526.064	721.12
526.28	689.12
526.495	669.12
526.71	644.12
526.925	625.12
527.14	616.12
527.355	630.12
527.57	643.12
527.785	663.12
527.999	656.12
528.214	677.12
528.429	690.12
528.644	733.12
528.859	810.12
529.074	827.12
529.289	867.12
529.503	853.12
529.718	783.12
529.933	712.12
530.148	691.12
530.363	639.12
530.577	648.12
530.792	637.12
531.007	628.12
531.221	628.12
531.436	660.12
531.651	628.12
531.865	658.12
532.08	661.12
532.295	643.12
532.509	646.12
532.724	618.12
532.938	669.12
533.153	691.12
533.367	705.12
533.582	735.12
533.796	731.12
534.011	706.12
534.225	675.12
534.44	644.12
534.654	663.12
534.868	663.12
535.083	659.12
535.297	677.12
535.511	681.12
535.726	671.12
535.94	656.12
536.154	665.12
536.369	642.12
536.583	611.12
536.797	616.12
537.011	617.12
537.225	613.12
537.44	607.12
537.654	654.12
537.868	595.12
538.082	579.12
538.296	621.12
538.51	647.12
538.724	659.12
538.938	707.12
539.153	724.12
539.367	723.12
539.581	699.12
539.795	668.12
540.009	635.12
540.222	641.12
540.436	658.12
540.65	756.12
540.864	779.12
541.078	826.12
541.292	869.12
541.506	896.12
541.72	963.12
541.934	1027.12
542.147	1046.12
542.361	1000.12
542.575	926.12
542.789	838.12
543.002	762.12
543.216	722.12
543.43	750.12
543.644	806.12
543.857	886.12
544.071	914.12
544.285	916.12
544.498	901.12
544.712	945.12
544.925	957.12
545.139	966.12
545.352	921.12
545.566	929.12
545.779	933.12
545.993	942.12
546.206	974.12
546.42	968.12
546.633	950.12
546.847	942.12
547.06	965.12
547.274	955.12
547.487	988.12
547.7	970.12
547.914	968.12
548.127	962.12
548.34	918.12
548.554	903.12
548.767	929.12
548.98	920.12
549.193	923.12
549.407	935.12
549.62	937.12
549.833	909.12
550.046	899.12
550.259	905.12
550.473	883.12
550.686	876.12
550.899	846.12
551.112	860.12
551.325	821.12
551.538	830.12
551.751	859.12
551.964	709.12
552.177	733.12
552.39	805.12
552.603	850.12
552.816	846.12
553.029	884.12
553.242	893.12
553.455	909.12
553.667	885.12
553.88	923.12
554.093	861.12
554.306	863.12
554.519	850.12
554.732	823.12
554.944	840.12
555.157	838.12
555.37	828.12
555.583	819.12
555.795	754.12
556.008	743.12
556.221	715.12
556.433	719.12
556.646	733.12
556.859	745.12
557.071	710.12
557.284	726.12
557.496	755.12
557.709	735.12
557.921	763.12
558.134	712.12
558.346	723.12
558.559	725.12
558.771	713.12
558.984	674.12
559.196	680.12
559.409	684.12
559.621	667.12
559.833	665.12
560.046	676.12
560.258	676.12
560.47	675.12
560.683	665.12
560.895	674.12
561.107	668.12
561.32	665.12
561.532	687.12
561.744	677.12
561.956	693.12
562.168	661.12
562.381	637.12
562.593	646.12
562.805	624.12
563.017	650.12
563.229	622.12
563.441	639.12
563.653	617.12
563.865	635.12
564.077	622.12
564.289	633.12
564.501	602.12
564.713	612.12
564.925	638.12
565.137	683.12
565.349	619.12
565.561	606.12
565.773	622.12
565.985	620.12
566.197	646.12
566.408	663.12
566.62	670.12
566.832	673.12
567.044	701.12
567.255	649.12
567.467	648.12
567.679	663.12
567.891	633.12
568.102	599.12
568.314	598.12
568.526	548.12
568.737	546.12
568.949	482.12
569.161	479.12
569.372	473.12
569.584	446.12
569.795	448.12
570.007	442.12
570.218	430.12
570.43	437.12
570.641	440.12
570.853	461.12
571.064	480.12
571.276	457.12
571.487	483.12
571.698	476.12
571.91	459.12
572.121	447.12
572.333	415.12
572.544	439.12
572.755	394.12
572.966	389.12
573.178	403.12
573.389	401.12
573.6	403.12
573.811	414.12
574.023	398.12
574.234	394.12
574.445	393.12
574.656	389.12
574.867	398.12
575.078	420.12
575.289	415.12
575.501	388.12
575.712	381.12
575.923	391.12
576.134	387.12
576.345	393.12
576.556	410.12
576.767	389.12
576.978	380.12
577.188	379.12
577.399	398.12
577.61	361.12
577.821	381.12
578.032	379.12
578.243	357.12
578.454	378.12
578.665	382.12
578.875	331.12
579.086	342.12
579.297	344.12
579.508	334.12
579.718	327.12
579.929	342.12
580.14	342.12
580.35	331.12
580.561	355.12
580.772	382.12
580.982	369.12
581.193	347.12
581.403	345.12
581.614	346.12
581.825	341.12
582.035	366.12
582.246	355.12
582.456	350.12
582.667	342.12
582.877	322.12
583.087	340.12
583.298	349.12
583.508	342.12
583.719	312.12
583.929	310.12
584.139	319.12
584.35	299.12
584.56	319.12
584.77	336.12
584.981	325.12
585.191	337.12
585.401	348.12
585.611	329.12
585.821	319.12
586.032	338.12
586.242	326.12
586.452	317.12
586.662	310.12
586.872	322.12
587.082	310.12
587.292	298.12
587.502	325.12
587.713	339.12
587.923	333.12
588.133	315.12
588.343	318.12
588.553	338.12
588.762	307.12
588.972	302.12
589.182	318.12
589.392	301.12
589.602	327.12
589.812	326.12
590.022	302.12
590.232	303.12
590.441	309.12
590.651	323.12
590.861	310.12
591.071	295.12
591.281	316.12
591.49	323.12
591.7	307.12
591.91	296.12
592.119	305.12
592.329	323.12
592.539	319.12
592.748	302.12
592.958	330.12
593.167	318.12
593.377	324.12
593.587	325.12
593.796	325.12
594.006	327.12
594.215	341.12
594.424	335.12
594.634	331.12
594.843	337.12
595.053	345.12
595.262	339.12
595.472	312.12
595.681	317.12
595.89	315.12
596.1	321.12
596.309	325.12
596.518	305.12
596.727	326.12
596.937	324.12
597.146	326.12
597.355	309.12
597.564	294.12
597.774	287.12
597.983	279.12
598.192	296.12
598.401	281.12
598.61	281.12
598.819	314.12
599.028	308.12
599.237	310.12
599.446	297.12
599.655	293.12
599.864	307.12
600.073	288.12
600.282	293.12
600.491	300.12
600.7	302.12
600.909	318.12
601.118	332.12
601.327	329.12
601.536	315.12
601.745	331.12
601.953	351.12
602.162	365.12
602.371	348.12
602.58	355.12
602.789	345.12
602.997	335.12
603.206	365.12
603.415	325.12
603.623	341.12
603.832	339.12
604.041	336.12
604.249	334.12
604.458	300.12
604.666	309.12
604.875	313.12
605.084	339.12
605.292	327.12
605.501	341.12
605.709	366.12
605.918	343.12
606.126	372.12
606.334	329.12
606.543	356.12
606.751	359.12
606.96	354.12
607.168	345.12
607.376	347.12
607.585	336.12
607.793	340.12
608.001	349.12
608.21	355.12
608.418	350.12
608.626	381.12
608.834	373.12
609.043	342.12
609.251	354.12
609.459	353.12
609.667	375.12
609.875	379.12
610.083	385.12
610.291	369.12
610.499	373.12
610.707	357.12
610.916	356.12
611.124	376.12
611.332	355.12
611.54	356.12
611.748	362.12
611.955	360.12
612.163	355.12
612.371	358.12
612.579	345.12
612.787	368.12
612.995	381.12
613.203	361.12
613.411	356.12
613.618	350.12
613.826	366.12
614.034	348.12
614.242	374.12
614.449	357.12
614.657	349.12
614.865	374.12
615.072	371.12
615.28	347.12
615.488	349.12
615.695	366.12
615.903	358.12
616.111	362.12
616.318	361.12
616.526	354.12
616.733	360.12
616.941	355.12
617.148	346.12
617.356	356.12
617.563	333.12
617.771	337.12
617.978	328.12
618.185	342.12
618.393	349.12
618.6	359.12
618.807	346.12
619.015	354.12
619.222	331.12
619.429	334.12
619.637	316.12
619.844	295.12
620.051	314.12
620.258	317.12
620.466	317.12
620.673	329.12
620.88	325.12
621.087	322.12
621.294	334.12
621.501	289.12
621.708	285.12
621.915	321.12
622.122	330.12
622.329	346.12
622.536	328.12
622.743	323.12
622.95	309.12
623.157	317.12
623.364	319.12
623.571	316.12
623.778	310.12
623.985	306.12
624.192	314.12
624.399	326.12
624.606	302.12
624.812	311.12
625.019	299.12
625.226	305.12
625.433	283.12
625.639	275.12
625.846	271.12
626.053	251.12
626.259	245.12
626.466	259.12
626.673	244.12
626.879	225.12
627.086	263.12
627.293	257.12
627.499	299.12
627.706	281.12
627.912	300.12
628.119	321.12
628.325	312.12
628.532	299.12
628.738	301.12
628.945	280.12
629.151	276.12
629.357	291.12
629.564	281.12
629.77	296.12
629.976	266.12
630.183	248.12
630.389	261.12
630.595	283.12
630.802	269.12
631.008	271.12
631.214	283.12
631.42	279.12
631.627	265.12
631.833	247.12
632.039	272.12
632.245	275.12
632.451	259.12
632.657	262.12
632.863	269.12
633.069	271.12
633.275	261.12
633.481	260.12
633.688	266.12
633.893	277.12
634.099	255.12
634.305	257.12
634.511	265.12
634.717	232.12
634.923	260.12
635.129	244.12
635.335	240.12
635.541	221.12
635.747	261.12
635.952	255.12
636.158	254.12
636.364	242.12
636.57	262.12
636.775	254.12
636.981	257.12
637.187	250.12
637.392	262.12
637.598	251.12
637.804	268.12
638.009	261.12
638.215	262.12
638.421	245.12
638.626	259.12
638.832	258.12
639.037	268.12
639.243	238.12
639.448	258.12
639.654	256.12
639.859	240.12
640.065	229.12
640.27	247.12
640.475	243.12
640.681	261.12
640.886	261.12
641.091	247.12
641.297	253.12
641.502	254.12
641.707	232.12
641.913	255.12
642.118	250.12
642.323	252.12
642.528	251.12
642.733	245.12
642.939	245.12
643.144	251.12
643.349	230.12
643.554	245.12
643.759	257.12
643.964	235.12
644.169	225.12
644.374	243.12
644.579	251.12
644.784	246.12
644.989	234.12
645.194	225.12
645.399	236.12
645.604	233.12
645.809	231.12
646.014	246.12
646.219	250.12
646.423	232.12
646.628	244.12
646.833	250.12
647.038	250.12
647.243	247.12
647.447	227.12
647.652	238.12
647.857	236.12
648.062	255.12
648.266	241.12
648.471	229.12
648.676	233.12
648.88	249.12
649.085	236.12
649.289	219.12
649.494	228.12
649.698	244.12
649.903	261.12
650.107	235.12
650.312	243.12
650.516	226.12
650.721	237.12
650.925	210.12
651.13	223.12
651.334	226.12
651.539	225.12
651.743	230.12
651.947	221.12
652.152	228.12
652.356	213.12
652.56	228.12
652.764	213.12
652.969	227.12
653.173	198.12
653.377	221.12
653.581	203.12
653.785	215.12
653.99	208.12
654.194	201.12
654.398	203.12
654.602	210.12
654.806	203.12
655.01	213.12
655.214	219.12
655.418	206.12
655.622	187.12
655.826	204.12
656.03	208.12
656.234	214.12
656.438	241.12
656.642	236.12
656.846	207.12
657.049	230.12
657.253	206.12
657.457	189.12
657.661	190.12
657.865	172.12
658.068	171.12
658.272	162.12
658.476	157.12
658.68	143.12
658.883	147.12
659.087	151.12
659.291	141.12
659.494	131.12
659.698	141.12
659.901	131.12
660.105	120.12
660.309	133.12
660.512	123.12
660.716	127.12
660.919	108.12
661.123	117.12
661.326	130.12
661.53	117.12
661.733	118.12
661.936	113.12
662.14	102.12
662.343	95.12
662.546	87.12
662.75	90.12
662.953	102.12
663.156	94.12
663.36	93.12
663.563	92.12
663.766	88.12
663.969	81.12
664.173	84.12
664.376	85.12
664.579	81.12
664.782	82.12
664.985	84.12
665.188	85.12
665.391	87.12
665.594	85.12
665.797	91.12
666	87.12
666.203	79.12
666.406	94.12
666.609	77.12
666.812	81.12
667.015	80.12
667.218	79.12
667.421	84.12
667.624	82.12
667.827	84.12
668.03	91.12
668.232	79.12
668.435	85.12
668.638	94.12
668.841	86.12
669.043	92.12
669.246	94.12
669.449	77.12
669.651	90.12
669.854	87.12
670.057	95.12
670.259	93.12
670.462	76.12
670.665	82.12
670.867	79.12
671.07	70.12
671.272	83.12
671.475	94.12
671.677	89.12
671.88	84.12
672.082	100.12
672.284	85.12
672.487	99.12
672.689	96.12
672.892	82.12
