Data from WStandard_LampEnergy10_LIBS07252019.E.O._I.C._HRD10591_15-52-56-927.txt Node
Date: Thu Jul 25 15:52:56 EDT 2019
User: cochatt
Spectrometer: HR+D1059
Trigger mode: 1
Integration Time (sec): 1.000000E-1
Scans to average: 1
Electric dark correction enabled: true
Nonlinearity correction enabled: false
Boxcar width: 0
XAxis mode: Wavelengths
Number of Pixels in Spectrum: 2048
>>>>>Begin Spectral Data<<<<<
223.165	-14.31
223.4	-14.31
223.635	-14.31
223.869	-28.31
224.104	-17.31
224.338	-2.31
224.573	-2.31
224.808	-11.31
225.042	0.69
225.277	4.69
225.511	-10.31
225.746	-6.31
225.98	5.69
226.215	0.69
226.449	16.69
226.683	13.69
226.918	23.69
227.152	26.69
227.387	23.69
227.621	40.69
227.856	35.69
228.09	60.69
228.324	37.69
228.559	49.69
228.793	71.69
229.027	141.69
229.262	145.69
229.496	145.69
229.73	144.69
229.964	169.69
230.199	170.69
230.433	167.69
230.667	183.69
230.901	171.69
231.136	175.69
231.37	168.69
231.604	179.69
231.838	173.69
232.072	181.69
232.306	172.69
232.541	197.69
232.775	202.69
233.009	229.69
233.243	195.69
233.477	201.69
233.711	200.69
233.945	197.69
234.179	195.69
234.413	188.69
234.647	222.69
234.881	214.69
235.115	200.69
235.349	217.69
235.583	204.69
235.817	204.69
236.051	196.69
236.285	213.69
236.519	212.69
236.753	227.69
236.987	233.69
237.221	226.69
237.455	232.69
237.689	236.69
237.922	225.69
238.156	232.69
238.39	218.69
238.624	241.69
238.858	245.69
239.091	249.69
239.325	268.69
239.559	262.69
239.793	295.69
240.027	319.69
240.26	300.69
240.494	242.69
240.728	246.69
240.961	243.69
241.195	233.69
241.429	249.69
241.662	259.69
241.896	230.69
242.13	260.69
242.363	266.69
242.597	269.69
242.83	277.69
243.064	279.69
243.298	290.69
243.531	293.69
243.765	277.69
243.998	275.69
244.232	269.69
244.465	235.69
244.699	251.69
244.932	285.69
245.166	318.69
245.399	293.69
245.633	288.69
245.866	294.69
246.099	281.69
246.333	303.69
246.566	310.69
246.8	318.69
247.033	354.69
247.266	331.69
247.5	330.69
247.733	312.69
247.966	367.69
248.2	369.69
248.433	363.69
248.666	387.69
248.899	382.69
249.133	428.69
249.366	467.69
249.599	391.69
249.832	376.69
250.066	375.69
250.299	375.69
250.532	361.69
250.765	339.69
250.998	362.69
251.231	361.69
251.465	357.69
251.698	334.69
251.931	354.69
252.164	380.69
252.397	372.69
252.63	348.69
252.863	337.69
253.096	317.69
253.329	351.69
253.562	359.69
253.795	362.69
254.028	369.69
254.261	339.69
254.494	353.69
254.727	342.69
254.96	359.69
255.193	390.69
255.426	411.69
255.659	472.69
255.892	441.69
256.124	401.69
256.357	379.69
256.59	413.69
256.823	431.69
257.056	427.69
257.289	472.69
257.521	486.69
257.754	489.69
257.987	466.69
258.22	482.69
258.452	462.69
258.685	411.69
258.918	406.69
259.151	402.69
259.383	363.69
259.616	336.69
259.849	371.69
260.081	428.69
260.314	456.69
260.547	476.69
260.779	476.69
261.012	440.69
261.244	417.69
261.477	411.69
261.71	420.69
261.942	403.69
262.175	397.69
262.407	420.69
262.64	391.69
262.872	364.69
263.105	366.69
263.337	367.69
263.57	378.69
263.802	372.69
264.035	332.69
264.267	342.69
264.499	351.69
264.732	353.69
264.964	393.69
265.197	411.69
265.429	419.69
265.661	444.69
265.894	492.69
266.126	492.69
266.358	465.69
266.591	483.69
266.823	486.69
267.055	486.69
267.287	460.69
267.52	448.69
267.752	458.69
267.984	467.69
268.216	463.69
268.448	459.69
268.681	467.69
268.913	437.69
269.145	423.69
269.377	421.69
269.609	461.69
269.841	517.69
270.073	586.69
270.306	616.69
270.538	639.69
270.77	564.69
271.002	471.69
271.234	479.69
271.466	479.69
271.698	526.69
271.93	603.69
272.162	594.69
272.394	547.69
272.626	503.69
272.858	482.69
273.09	397.69
273.322	425.69
273.553	402.69
273.785	413.69
274.017	426.69
274.249	451.69
274.481	425.69
274.713	436.69
274.945	429.69
275.176	426.69
275.408	432.69
275.64	413.69
275.872	434.69
276.104	460.69
276.335	490.69
276.567	529.69
276.799	533.69
277.031	488.69
277.262	482.69
277.494	481.69
277.726	532.69
277.957	508.69
278.189	472.69
278.421	437.69
278.652	419.69
278.884	433.69
279.115	444.69
279.347	444.69
279.579	446.69
279.81	437.69
280.042	489.69
280.273	525.69
280.505	520.69
280.736	500.69
280.968	481.69
281.199	443.69
281.431	439.69
281.662	410.69
281.894	416.69
282.125	445.69
282.356	456.69
282.588	468.69
282.819	467.69
283.051	502.69
283.282	489.69
283.513	501.69
283.745	443.69
283.976	415.69
284.207	431.69
284.439	442.69
284.67	461.69
284.901	455.69
285.132	469.69
285.364	460.69
285.595	464.69
285.826	447.69
286.057	468.69
286.288	474.69
286.52	466.69
286.751	496.69
286.982	521.69
287.213	469.69
287.444	437.69
287.675	441.69
287.906	448.69
288.138	500.69
288.369	475.69
288.6	432.69
288.831	422.69
289.062	437.69
289.293	457.69
289.524	454.69
289.755	478.69
289.986	479.69
290.217	433.69
290.448	449.69
290.679	468.69
290.91	469.69
291.141	485.69
291.371	477.69
291.602	473.69
291.833	468.69
292.064	490.69
292.295	477.69
292.526	502.69
292.757	513.69
292.987	485.69
293.218	489.69
293.449	536.69
293.68	584.69
293.91	606.69
294.141	582.69
294.372	567.69
294.603	579.69
294.833	569.69
295.064	546.69
295.295	481.69
295.525	471.69
295.756	440.69
295.987	439.69
296.217	460.69
296.448	454.69
296.679	464.69
296.909	463.69
297.14	453.69
297.37	480.69
297.601	501.69
297.831	536.69
298.062	525.69
298.292	499.69
298.523	465.69
298.753	439.69
298.984	470.69
299.214	482.69
299.445	489.69
299.675	478.69
299.905	491.69
300.136	493.69
300.366	481.69
300.597	474.69
300.827	469.69
301.057	508.69
301.288	515.69
301.518	511.69
301.748	510.69
301.979	546.69
302.209	549.69
302.439	594.69
302.669	591.69
302.9	547.69
303.13	500.69
303.36	523.69
303.59	550.69
303.82	518.69
304.051	538.69
304.281	535.69
304.511	543.69
304.741	567.69
304.971	606.69
305.201	628.69
305.431	553.69
305.661	485.69
305.891	458.69
306.121	469.69
306.352	472.69
306.582	506.69
306.812	546.69
307.042	578.69
307.272	600.69
307.502	611.69
307.731	647.69
307.961	634.69
308.191	595.69
308.421	535.69
308.651	491.69
308.881	500.69
309.111	486.69
309.341	491.69
309.571	515.69
309.8	506.69
310.03	478.69
310.26	509.69
310.49	503.69
310.72	510.69
310.949	562.69
311.179	547.69
311.409	519.69
311.639	522.69
311.868	538.69
312.098	513.69
312.328	511.69
312.557	489.69
312.787	499.69
313.017	551.69
313.246	535.69
313.476	530.69
313.706	538.69
313.935	557.69
314.165	547.69
314.394	579.69
314.624	573.69
314.853	640.69
315.083	639.69
315.312	607.69
315.542	597.69
315.771	533.69
316.001	570.69
316.23	571.69
316.46	556.69
316.689	537.69
316.919	511.69
317.148	527.69
317.377	544.69
317.607	589.69
317.836	634.69
318.065	663.69
318.295	635.69
318.524	596.69
318.753	579.69
318.983	561.69
319.212	557.69
319.441	561.69
319.67	560.69
319.9	565.69
320.129	604.69
320.358	609.69
320.587	644.69
320.816	622.69
321.046	600.69
321.275	577.69
321.504	607.69
321.733	623.69
321.962	618.69
322.191	560.69
322.42	568.69
322.649	563.69
322.878	570.69
323.108	560.69
323.337	578.69
323.566	576.69
323.795	590.69
324.024	561.69
324.253	580.69
324.482	547.69
324.71	559.69
324.939	545.69
325.168	531.69
325.397	561.69
325.626	573.69
325.855	550.69
326.084	561.69
326.313	557.69
326.542	589.69
326.77	599.69
326.999	573.69
327.228	549.69
327.457	547.69
327.686	544.69
327.914	550.69
328.143	567.69
328.372	578.69
328.6	586.69
328.829	539.69
329.058	556.69
329.287	565.69
329.515	579.69
329.744	604.69
329.972	607.69
330.201	627.69
330.43	608.69
330.658	607.69
330.887	607.69
331.115	616.69
331.344	603.69
331.572	574.69
331.801	581.69
332.03	584.69
332.258	605.69
332.486	601.69
332.715	571.69
332.943	603.69
333.172	635.69
333.4	608.69
333.629	628.69
333.857	667.69
334.085	740.69
334.314	834.69
334.542	824.69
334.771	761.69
334.999	694.69
335.227	648.69
335.455	628.69
335.684	647.69
335.912	671.69
336.14	673.69
336.369	651.69
336.597	604.69
336.825	596.69
337.053	639.69
337.281	681.69
337.51	688.69
337.738	709.69
337.966	665.69
338.194	610.69
338.422	624.69
338.65	577.69
338.878	583.69
339.106	563.69
339.334	580.69
339.562	593.69
339.79	609.69
340.018	628.69
340.246	633.69
340.474	646.69
340.702	637.69
340.93	608.69
341.158	620.69
341.386	605.69
341.614	609.69
341.842	596.69
342.07	616.69
342.298	583.69
342.526	618.69
342.754	595.69
342.981	592.69
343.209	595.69
343.437	576.69
343.665	580.69
343.893	632.69
344.12	645.69
344.348	627.69
344.576	613.69
344.804	597.69
345.031	579.69
345.259	596.69
345.487	553.69
345.714	548.69
345.942	530.69
346.17	556.69
346.397	544.69
346.625	589.69
346.853	565.69
347.08	541.69
347.308	555.69
347.535	589.69
347.763	597.69
347.99	569.69
348.218	574.69
348.445	540.69
348.673	553.69
348.9	591.69
349.128	623.69
349.355	611.69
349.583	592.69
349.81	556.69
350.037	528.69
350.265	547.69
350.492	547.69
350.72	576.69
350.947	596.69
351.174	593.69
351.402	560.69
351.629	530.69
351.856	513.69
352.083	533.69
352.311	553.69
352.538	549.69
352.765	568.69
352.992	586.69
353.22	575.69
353.447	545.69
353.674	570.69
353.901	563.69
354.128	547.69
354.355	555.69
354.583	582.69
354.81	586.69
355.037	593.69
355.264	577.69
355.491	577.69
355.718	569.69
355.945	567.69
356.172	564.69
356.399	548.69
356.626	565.69
356.853	593.69
357.08	653.69
357.307	704.69
357.534	663.69
357.761	571.69
357.988	543.69
358.215	544.69
358.441	520.69
358.668	529.69
358.895	551.69
359.122	592.69
359.349	647.69
359.576	631.69
359.802	577.69
360.029	545.69
360.256	538.69
360.483	575.69
360.709	600.69
360.936	603.69
361.163	657.69
361.39	691.69
361.616	720.69
361.843	699.69
362.07	635.69
362.296	599.69
362.523	561.69
362.749	582.69
362.976	603.69
363.203	586.69
363.429	580.69
363.656	565.69
363.882	610.69
364.109	658.69
364.335	667.69
364.562	619.69
364.788	605.69
365.015	577.69
365.241	554.69
365.468	600.69
365.694	593.69
365.92	620.69
366.147	596.69
366.373	544.69
366.599	583.69
366.826	549.69
367.052	585.69
367.278	573.69
367.505	594.69
367.731	616.69
367.957	601.69
368.184	642.69
368.41	665.69
368.636	681.69
368.862	666.69
369.089	676.69
369.315	629.69
369.541	634.69
369.767	612.69
369.993	587.69
370.219	602.69
370.445	606.69
370.672	668.69
370.898	667.69
371.124	653.69
371.35	632.69
371.576	677.69
371.802	651.69
372.028	637.69
372.254	624.69
372.48	598.69
372.706	601.69
372.932	610.69
373.158	627.69
373.384	641.69
373.61	669.69
373.835	677.69
374.061	646.69
374.287	634.69
374.513	633.69
374.739	645.69
374.965	636.69
375.191	643.69
375.416	657.69
375.642	688.69
375.868	723.69
376.094	712.69
376.319	684.69
376.545	664.69
376.771	676.69
376.997	716.69
377.222	709.69
377.448	680.69
377.674	680.69
377.899	685.69
378.125	720.69
378.35	708.69
378.576	640.69
378.802	654.69
379.027	632.69
379.253	620.69
379.478	660.69
379.704	647.69
379.929	633.69
380.155	651.69
380.38	659.69
380.606	671.69
380.831	700.69
381.057	721.69
381.282	728.69
381.507	696.69
381.733	734.69
381.958	753.69
382.184	682.69
382.409	683.69
382.634	666.69
382.86	706.69
383.085	698.69
383.31	716.69
383.535	800.69
383.761	802.69
383.986	749.69
384.211	727.69
384.436	739.69
384.662	786.69
384.887	791.69
385.112	742.69
385.337	749.69
385.562	714.69
385.787	731.69
386.013	774.69
386.238	772.69
386.463	777.69
386.688	840.69
386.913	866.69
387.138	819.69
387.363	754.69
387.588	772.69
387.813	773.69
388.038	792.69
388.263	806.69
388.488	770.69
388.713	714.69
388.938	732.69
389.163	748.69
389.387	758.69
389.612	738.69
389.837	744.69
390.062	791.69
390.287	781.69
390.512	740.69
390.736	742.69
390.961	731.69
391.186	738.69
391.411	751.69
391.636	773.69
391.86	769.69
392.085	780.69
392.31	746.69
392.534	761.69
392.759	771.69
392.984	746.69
393.208	795.69
393.433	792.69
393.658	837.69
393.882	829.69
394.107	792.69
394.331	768.69
394.556	767.69
394.78	785.69
395.005	819.69
395.229	845.69
395.454	885.69
395.678	886.69
395.903	850.69
396.127	807.69
396.352	832.69
396.576	830.69
396.801	863.69
397.025	840.69
397.249	819.69
397.474	819.69
397.698	845.69
397.922	866.69
398.147	882.69
398.371	909.69
398.595	912.69
398.82	896.69
399.044	884.69
399.268	951.69
399.492	955.69
399.717	980.69
399.941	999.69
400.165	984.69
400.389	964.69
400.613	971.69
400.837	1116.69
401.062	1191.69
401.286	1003.69
401.51	982.69
401.734	972.69
401.958	939.69
402.182	927.69
402.406	888.69
402.63	847.69
402.854	899.69
403.078	924.69
403.302	905.69
403.526	931.69
403.75	948.69
403.974	940.69
404.198	902.69
404.422	982.69
404.645	1037.69
404.869	993.69
405.093	908.69
405.317	881.69
405.541	925.69
405.765	940.69
405.988	959.69
406.212	951.69
406.436	950.69
406.66	1023.69
406.883	1041.69
407.107	1137.69
407.331	1193.69
407.555	1252.69
407.778	1109.69
408.002	976.69
408.226	949.69
408.449	946.69
408.673	929.69
408.896	961.69
409.12	965.69
409.344	945.69
409.567	933.69
409.791	981.69
410.014	968.69
410.238	1043.69
410.461	1051.69
410.685	971.69
410.908	972.69
411.132	950.69
411.355	949.69
411.578	956.69
411.802	950.69
412.025	947.69
412.249	938.69
412.472	911.69
412.695	917.69
412.919	933.69
413.142	919.69
413.365	929.69
413.589	971.69
413.812	997.69
414.035	990.69
414.258	933.69
414.482	928.69
414.705	933.69
414.928	937.69
415.151	929.69
415.374	953.69
415.597	953.69
415.821	935.69
416.044	937.69
416.267	962.69
416.49	906.69
416.713	911.69
416.936	968.69
417.159	967.69
417.382	965.69
417.605	948.69
417.828	924.69
418.051	944.69
418.274	931.69
418.497	912.69
418.72	931.69
418.943	939.69
419.166	981.69
419.389	967.69
419.611	939.69
419.834	943.69
420.057	951.69
420.28	941.69
420.503	949.69
420.726	945.69
420.948	954.69
421.171	901.69
421.394	941.69
421.617	968.69
421.839	972.69
422.062	984.69
422.285	945.69
422.507	938.69
422.73	903.69
422.953	897.69
423.175	893.69
423.398	948.69
423.621	909.69
423.843	913.69
424.066	989.69
424.288	1009.69
424.511	1029.69
424.733	1023.69
424.956	936.69
425.178	923.69
425.401	929.69
425.623	936.69
425.846	945.69
426.068	978.69
426.291	1000.69
426.513	987.69
426.735	964.69
426.958	1058.69
427.18	1088.69
427.402	1005.69
427.625	1020.69
427.847	980.69
428.069	929.69
428.292	935.69
428.514	902.69
428.736	890.69
428.958	889.69
429.181	944.69
429.403	1064.69
429.625	1269.69
429.847	1075.69
430.069	956.69
430.292	1092.69
430.514	1040.69
430.736	988.69
430.958	987.69
431.18	956.69
431.402	862.69
431.624	863.69
431.846	782.69
432.068	706.69
432.29	777.69
432.512	788.69
432.734	876.69
432.956	934.69
433.178	970.69
433.4	979.69
433.622	985.69
433.844	910.69
434.066	847.69
434.287	815.69
434.509	807.69
434.731	856.69
434.953	926.69
435.175	933.69
435.397	897.69
435.618	884.69
435.84	833.69
436.062	838.69
436.284	927.69
436.505	927.69
436.727	950.69
436.949	939.69
437.17	899.69
437.392	895.69
437.614	841.69
437.835	787.69
438.057	817.69
438.278	858.69
438.5	882.69
438.721	892.69
438.943	943.69
439.165	925.69
439.386	938.69
439.608	968.69
439.829	948.69
440.05	980.69
440.272	953.69
440.493	970.69
440.715	989.69
440.936	1033.69
441.158	1101.69
441.379	1066.69
441.6	1021.69
441.822	1017.69
442.043	1013.69
442.264	995.69
442.486	948.69
442.707	973.69
442.928	951.69
443.149	989.69
443.371	1047.69
443.592	1023.69
443.813	1033.69
444.034	1023.69
444.255	1055.69
444.476	1033.69
444.698	1052.69
444.919	1058.69
445.14	1129.69
445.361	1103.69
445.582	1106.69
445.803	1058.69
446.024	1062.69
446.245	1064.69
446.466	1059.69
446.687	1063.69
446.908	1081.69
447.129	1050.69
447.35	1041.69
447.571	1008.69
447.792	989.69
448.013	968.69
448.234	982.69
448.455	1003.69
448.675	995.69
448.896	942.69
449.117	927.69
449.338	947.69
449.559	975.69
449.779	977.69
450	1037.69
450.221	1087.69
450.442	1019.69
450.662	931.69
450.883	886.69
451.104	889.69
451.324	907.69
451.545	892.69
451.766	874.69
451.986	854.69
452.207	840.69
452.428	811.69
452.648	796.69
452.869	793.69
453.089	800.69
453.31	796.69
453.53	785.69
453.751	741.69
453.971	732.69
454.192	773.69
454.412	759.69
454.633	782.69
454.853	771.69
455.073	771.69
455.294	770.69
455.514	774.69
455.734	769.69
455.955	771.69
456.175	760.69
456.395	736.69
456.616	715.69
456.836	730.69
457.056	751.69
457.276	725.69
457.497	710.69
457.717	679.69
457.937	707.69
458.157	721.69
458.377	689.69
458.598	682.69
458.818	662.69
459.038	677.69
459.258	735.69
459.478	725.69
459.698	725.69
459.918	734.69
460.138	803.69
460.358	815.69
460.578	844.69
460.798	876.69
461.018	890.69
461.238	896.69
461.458	872.69
461.678	840.69
461.898	819.69
462.118	823.69
462.338	843.69
462.558	842.69
462.777	827.69
462.997	849.69
463.217	877.69
463.437	889.69
463.657	866.69
463.876	834.69
464.096	852.69
464.316	869.69
464.536	888.69
464.755	868.69
464.975	907.69
465.195	871.69
465.414	889.69
465.634	900.69
465.854	891.69
466.073	983.69
466.293	972.69
466.512	875.69
466.732	889.69
466.951	923.69
467.171	893.69
467.391	882.69
467.61	888.69
467.829	920.69
468.049	976.69
468.268	1033.69
468.488	973.69
468.707	931.69
468.927	940.69
469.146	911.69
469.365	940.69
469.585	944.69
469.804	916.69
470.023	945.69
470.243	955.69
470.462	956.69
470.681	930.69
470.901	924.69
471.12	931.69
471.339	931.69
471.558	901.69
471.777	882.69
471.997	922.69
472.216	856.69
472.435	773.69
472.654	799.69
472.873	802.69
473.092	837.69
473.311	834.69
473.53	821.69
473.749	837.69
473.968	879.69
474.187	889.69
474.406	870.69
474.625	875.69
474.844	891.69
475.063	871.69
475.282	877.69
475.501	835.69
475.72	835.69
475.939	915.69
476.158	892.69
476.377	883.69
476.596	879.69
476.814	840.69
477.033	801.69
477.252	842.69
477.471	905.69
477.69	922.69
477.908	961.69
478.127	991.69
478.346	1016.69
478.564	1014.69
478.783	1009.69
479.002	1037.69
479.22	1011.69
479.439	1032.69
479.658	1057.69
479.876	1016.69
480.095	929.69
480.313	902.69
480.532	884.69
480.751	863.69
480.969	831.69
481.188	795.69
481.406	780.69
481.624	785.69
481.843	796.69
482.061	825.69
482.28	885.69
482.498	909.69
482.717	879.69
482.935	901.69
483.153	940.69
483.372	1024.69
483.59	1029.69
483.808	998.69
484.027	957.69
484.245	994.69
484.463	1194.69
484.681	1316.69
484.9	1037.69
485.118	981.69
485.336	933.69
485.554	912.69
485.772	884.69
485.99	897.69
486.209	887.69
486.427	922.69
486.645	940.69
486.863	1009.69
487.081	1053.69
487.299	1030.69
487.517	1013.69
487.735	1111.69
487.953	1213.69
488.171	1163.69
488.389	1151.69
488.607	1103.69
488.825	1129.69
489.043	1060.69
489.261	976.69
489.479	1021.69
489.696	1069.69
489.914	1059.69
490.132	1045.69
490.35	1101.69
490.568	1157.69
490.786	1193.69
491.003	1203.69
491.221	1257.69
491.439	1292.69
491.657	1333.69
491.874	1378.69
492.092	1475.69
492.31	1537.69
492.527	1442.69
492.745	1372.69
492.963	1350.69
493.18	1357.69
493.398	1376.69
493.615	1332.69
493.833	1269.69
494.05	1231.69
494.268	1271.69
494.485	1243.69
494.703	1253.69
494.92	1256.69
495.138	1250.69
495.355	1254.69
495.573	1245.69
495.79	1299.69
496.008	1267.69
496.225	1258.69
496.442	1257.69
496.66	1258.69
496.877	1239.69
497.094	1255.69
497.312	1241.69
497.529	1193.69
497.746	1196.69
497.963	1279.69
498.181	1313.69
498.398	1231.69
498.615	1231.69
498.832	1175.69
499.049	1158.69
499.267	1179.69
499.484	1243.69
499.701	1357.69
499.918	1389.69
500.135	1473.69
500.352	1545.69
500.569	1556.69
500.786	1727.69
501.003	1577.69
501.22	1465.69
501.437	1380.69
501.654	1431.69
501.871	1353.69
502.088	1199.69
502.305	1203.69
502.522	1131.69
502.739	1072.69
502.956	1056.69
503.172	1055.69
503.389	986.69
503.606	1039.69
503.823	1027.69
504.04	977.69
504.256	999.69
504.473	1001.69
504.69	1020.69
504.907	971.69
505.123	968.69
505.34	1078.69
505.557	1369.69
505.773	1127.69
505.99	966.69
506.207	880.69
506.423	905.69
506.64	891.69
506.856	904.69
507.073	1073.69
507.289	1090.69
507.506	1041.69
507.722	905.69
507.939	876.69
508.155	879.69
508.372	845.69
508.588	818.69
508.805	821.69
509.021	775.69
509.238	780.69
509.454	752.69
509.67	768.69
509.887	748.69
510.103	705.69
510.319	778.69
510.536	796.69
510.752	817.69
510.968	773.69
511.184	805.69
511.401	743.69
511.617	711.69
511.833	739.69
512.049	687.69
512.265	716.69
512.481	713.69
512.698	738.69
512.914	757.69
513.13	754.69
513.346	712.69
513.562	711.69
513.778	707.69
513.994	749.69
514.21	751.69
514.426	775.69
514.642	830.69
514.858	765.69
515.074	721.69
515.29	711.69
515.506	737.69
515.721	724.69
515.937	755.69
516.153	843.69
516.369	785.69
516.585	769.69
516.801	743.69
517.016	721.69
517.232	740.69
517.448	799.69
517.664	792.69
517.879	797.69
518.095	803.69
518.311	805.69
518.527	739.69
518.742	768.69
518.958	752.69
519.173	774.69
519.389	788.69
519.605	806.69
519.82	801.69
520.036	809.69
520.251	777.69
520.467	782.69
520.682	789.69
520.898	787.69
521.113	732.69
521.329	729.69
521.544	767.69
521.76	738.69
521.975	699.69
522.19	718.69
522.406	746.69
522.621	944.69
522.836	888.69
523.052	740.69
523.267	725.69
523.482	756.69
523.698	759.69
523.913	748.69
524.128	778.69
524.343	820.69
524.559	810.69
524.774	803.69
524.989	781.69
525.204	780.69
525.419	736.69
525.634	741.69
525.849	719.69
526.064	739.69
526.28	724.69
526.495	680.69
526.71	642.69
526.925	643.69
527.14	621.69
527.355	639.69
527.57	645.69
527.785	647.69
527.999	639.69
528.214	658.69
528.429	700.69
528.644	751.69
528.859	805.69
529.074	858.69
529.289	883.69
529.503	893.69
529.718	812.69
529.933	729.69
530.148	693.69
530.363	643.69
530.577	648.69
530.792	640.69
531.007	619.69
531.221	639.69
531.436	621.69
531.651	668.69
531.865	691.69
532.08	670.69
532.295	631.69
532.509	628.69
532.724	597.69
532.938	649.69
533.153	717.69
533.367	725.69
533.582	746.69
533.796	732.69
534.011	746.69
534.225	669.69
534.44	628.69
534.654	632.69
534.868	672.69
535.083	705.69
535.297	724.69
535.511	681.69
535.726	695.69
535.94	693.69
536.154	671.69
536.369	631.69
536.583	617.69
536.797	614.69
537.011	614.69
537.225	614.69
537.44	633.69
537.654	628.69
537.868	639.69
538.082	597.69
538.296	612.69
538.51	634.69
538.724	645.69
538.938	733.69
539.153	756.69
539.367	747.69
539.581	681.69
539.795	681.69
540.009	667.69
540.222	644.69
540.436	671.69
540.65	754.69
540.864	807.69
541.078	821.69
541.292	882.69
541.506	897.69
541.72	966.69
541.934	1039.69
542.147	1104.69
542.361	1028.69
542.575	929.69
542.789	852.69
543.002	732.69
543.216	729.69
543.43	761.69
543.644	836.69
543.857	887.69
544.071	930.69
544.285	913.69
544.498	952.69
544.712	921.69
544.925	960.69
545.139	993.69
545.352	967.69
545.566	925.69
545.779	973.69
545.993	984.69
546.206	967.69
546.42	959.69
546.633	955.69
546.847	973.69
547.06	967.69
547.274	966.69
547.487	1009.69
547.7	990.69
547.914	1022.69
548.127	965.69
548.34	976.69
548.554	939.69
548.767	962.69
548.98	919.69
549.193	940.69
549.407	956.69
549.62	963.69
549.833	926.69
550.046	951.69
550.259	915.69
550.473	898.69
550.686	887.69
550.899	893.69
551.112	852.69
551.325	845.69
551.538	841.69
551.751	885.69
551.964	705.69
552.177	735.69
552.39	793.69
552.603	865.69
552.816	890.69
553.029	901.69
553.242	923.69
553.455	907.69
553.667	919.69
553.88	897.69
554.093	878.69
554.306	876.69
554.519	864.69
554.732	839.69
554.944	845.69
555.157	853.69
555.37	824.69
555.583	826.69
555.795	776.69
556.008	748.69
556.221	721.69
556.433	721.69
556.646	736.69
556.859	744.69
557.071	744.69
557.284	752.69
557.496	767.69
557.709	739.69
557.921	786.69
558.134	757.69
558.346	751.69
558.559	744.69
558.771	744.69
558.984	710.69
559.196	697.69
559.409	668.69
559.621	672.69
559.833	680.69
560.046	679.69
560.258	691.69
560.47	701.69
560.683	696.69
560.895	707.69
561.107	676.69
561.32	698.69
561.532	697.69
561.744	678.69
561.956	682.69
562.168	676.69
562.381	673.69
562.593	629.69
562.805	663.69
563.017	631.69
563.229	664.69
563.441	667.69
563.653	650.69
563.865	631.69
564.077	636.69
564.289	617.69
564.501	631.69
564.713	633.69
564.925	660.69
565.137	681.69
565.349	641.69
565.561	616.69
565.773	605.69
565.985	637.69
566.197	625.69
566.408	666.69
566.62	667.69
566.832	688.69
567.044	682.69
567.255	640.69
567.467	645.69
567.679	664.69
567.891	657.69
568.102	595.69
568.314	576.69
568.526	547.69
568.737	506.69
568.949	485.69
569.161	458.69
569.372	459.69
569.584	448.69
569.795	444.69
570.007	460.69
570.218	453.69
570.43	428.69
570.641	443.69
570.853	478.69
571.064	477.69
571.276	491.69
571.487	480.69
571.698	468.69
571.91	468.69
572.121	454.69
572.333	447.69
572.544	433.69
572.755	417.69
572.966	381.69
573.178	399.69
573.389	407.69
573.6	417.69
573.811	445.69
574.023	407.69
574.234	394.69
574.445	398.69
574.656	402.69
574.867	391.69
575.078	398.69
575.289	435.69
575.501	393.69
575.712	381.69
575.923	394.69
576.134	408.69
576.345	412.69
576.556	411.69
576.767	391.69
576.978	411.69
577.188	386.69
577.399	378.69
577.61	367.69
577.821	375.69
578.032	380.69
578.243	368.69
578.454	376.69
578.665	361.69
578.875	344.69
579.086	340.69
579.297	342.69
579.508	335.69
579.718	360.69
579.929	355.69
580.14	323.69
580.35	323.69
580.561	358.69
580.772	375.69
580.982	371.69
581.193	351.69
581.403	356.69
581.614	353.69
581.825	364.69
582.035	337.69
582.246	333.69
582.456	353.69
582.667	351.69
582.877	351.69
583.087	363.69
583.298	341.69
583.508	343.69
583.719	329.69
583.929	339.69
584.139	305.69
584.35	336.69
584.56	325.69
584.77	331.69
584.981	332.69
585.191	349.69
585.401	327.69
585.611	332.69
585.821	331.69
586.032	326.69
586.242	307.69
586.452	311.69
586.662	317.69
586.872	303.69
587.082	323.69
587.292	343.69
587.502	342.69
587.713	322.69
587.923	310.69
588.133	341.69
588.343	326.69
588.553	313.69
588.762	326.69
588.972	317.69
589.182	331.69
589.392	317.69
589.602	321.69
589.812	307.69
590.022	306.69
590.232	321.69
590.441	323.69
590.651	305.69
590.861	313.69
591.071	313.69
591.281	288.69
591.49	298.69
591.7	312.69
591.91	306.69
592.119	310.69
592.329	340.69
592.539	328.69
592.748	322.69
592.958	316.69
593.167	330.69
593.377	335.69
593.587	332.69
593.796	320.69
594.006	313.69
594.215	338.69
594.424	330.69
594.634	322.69
594.843	332.69
595.053	361.69
595.262	321.69
595.472	335.69
595.681	318.69
595.89	310.69
596.1	317.69
596.309	322.69
596.518	326.69
596.727	339.69
596.937	332.69
597.146	326.69
597.355	306.69
597.564	309.69
597.774	316.69
597.983	280.69
598.192	279.69
598.401	284.69
598.61	284.69
598.819	275.69
599.028	308.69
599.237	295.69
599.446	317.69
599.655	289.69
599.864	285.69
600.073	275.69
600.282	295.69
600.491	288.69
600.7	283.69
600.909	321.69
601.118	311.69
601.327	325.69
601.536	347.69
601.745	336.69
601.953	348.69
602.162	343.69
602.371	352.69
602.58	349.69
602.789	347.69
602.997	342.69
603.206	339.69
603.415	340.69
603.623	339.69
603.832	342.69
604.041	343.69
604.249	310.69
604.458	333.69
604.666	291.69
604.875	308.69
605.084	307.69
605.292	335.69
605.501	371.69
605.709	368.69
605.918	375.69
606.126	356.69
606.334	370.69
606.543	358.69
606.751	386.69
606.96	379.69
607.168	354.69
607.376	340.69
607.585	360.69
607.793	365.69
608.001	360.69
608.21	351.69
608.418	381.69
608.626	369.69
608.834	363.69
609.043	355.69
609.251	373.69
609.459	363.69
609.667	356.69
609.875	371.69
610.083	365.69
610.291	367.69
610.499	362.69
610.707	373.69
610.916	367.69
611.124	383.69
611.332	369.69
611.54	376.69
611.748	375.69
611.955	377.69
612.163	359.69
612.371	370.69
612.579	371.69
612.787	371.69
612.995	383.69
613.203	353.69
613.411	349.69
613.618	367.69
613.826	349.69
614.034	349.69
614.242	357.69
614.449	356.69
614.657	370.69
614.865	348.69
615.072	359.69
615.28	379.69
615.488	379.69
615.695	377.69
615.903	395.69
616.111	357.69
616.318	379.69
616.526	362.69
616.733	358.69
616.941	370.69
617.148	341.69
617.356	355.69
617.563	348.69
617.771	331.69
617.978	335.69
618.185	334.69
618.393	324.69
618.6	343.69
618.807	339.69
619.015	335.69
619.222	327.69
619.429	332.69
619.637	317.69
619.844	305.69
620.051	320.69
620.258	321.69
620.466	333.69
620.673	330.69
620.88	312.69
621.087	319.69
621.294	317.69
621.501	305.69
621.708	284.69
621.915	319.69
622.122	315.69
622.329	337.69
622.536	337.69
622.743	340.69
622.95	336.69
623.157	327.69
623.364	329.69
623.571	328.69
623.778	339.69
623.985	305.69
624.192	313.69
624.399	320.69
624.606	312.69
624.812	300.69
625.019	309.69
625.226	291.69
625.433	308.69
625.639	285.69
625.846	288.69
626.053	259.69
626.259	240.69
626.466	245.69
626.673	246.69
626.879	232.69
627.086	268.69
627.293	269.69
627.499	286.69
627.706	310.69
627.912	309.69
628.119	297.69
628.325	313.69
628.532	299.69
628.738	308.69
628.945	294.69
629.151	305.69
629.357	285.69
629.564	310.69
629.77	295.69
629.976	281.69
630.183	260.69
630.389	273.69
630.595	294.69
630.802	278.69
631.008	279.69
631.214	278.69
631.42	266.69
631.627	276.69
631.833	265.69
632.039	259.69
632.245	275.69
632.451	260.69
632.657	259.69
632.863	277.69
633.069	263.69
633.275	289.69
633.481	259.69
633.688	255.69
633.893	269.69
634.099	263.69
634.305	247.69
634.511	236.69
634.717	239.69
634.923	234.69
635.129	228.69
635.335	236.69
635.541	234.69
635.747	240.69
635.952	261.69
636.158	260.69
636.364	255.69
636.57	277.69
636.775	244.69
636.981	261.69
637.187	273.69
637.392	256.69
637.598	260.69
637.804	275.69
638.009	265.69
638.215	265.69
638.421	259.69
638.626	265.69
638.832	263.69
639.037	260.69
639.243	236.69
639.448	232.69
639.654	239.69
639.859	243.69
640.065	226.69
640.27	248.69
640.475	249.69
640.681	258.69
640.886	259.69
641.091	263.69
641.297	256.69
641.502	261.69
641.707	253.69
641.913	251.69
642.118	258.69
642.323	253.69
642.528	252.69
642.733	244.69
642.939	253.69
643.144	228.69
643.349	234.69
643.554	243.69
643.759	235.69
643.964	247.69
644.169	237.69
644.374	228.69
644.579	241.69
644.784	242.69
644.989	242.69
645.194	236.69
645.399	236.69
645.604	240.69
645.809	259.69
646.014	226.69
646.219	234.69
646.423	234.69
646.628	244.69
646.833	236.69
647.038	244.69
647.243	247.69
647.447	228.69
647.652	239.69
647.857	229.69
648.062	247.69
648.266	241.69
648.471	232.69
648.676	224.69
648.88	257.69
649.085	244.69
649.289	251.69
649.494	232.69
649.698	232.69
649.903	243.69
650.107	232.69
650.312	224.69
650.516	234.69
650.721	237.69
650.925	231.69
651.13	235.69
651.334	222.69
651.539	220.69
651.743	216.69
651.947	221.69
652.152	200.69
652.356	222.69
652.56	215.69
652.764	208.69
652.969	216.69
653.173	205.69
653.377	215.69
653.581	210.69
653.785	217.69
653.99	188.69
654.194	201.69
654.398	208.69
654.602	196.69
654.806	203.69
655.01	207.69
655.214	204.69
655.418	203.69
655.622	215.69
655.826	195.69
656.03	197.69
656.234	220.69
656.438	233.69
656.642	218.69
656.846	216.69
657.049	210.69
657.253	199.69
657.457	195.69
657.661	177.69
657.865	172.69
658.068	178.69
658.272	163.69
658.476	151.69
658.68	153.69
658.883	140.69
659.087	129.69
659.291	156.69
659.494	139.69
659.698	133.69
659.901	127.69
660.105	123.69
660.309	133.69
660.512	131.69
660.716	124.69
660.919	118.69
661.123	130.69
661.326	118.69
661.53	117.69
661.733	119.69
661.936	114.69
662.14	108.69
662.343	105.69
662.546	99.69
662.75	83.69
662.953	97.69
663.156	89.69
663.36	96.69
663.563	88.69
663.766	99.69
663.969	91.69
664.173	96.69
664.376	106.69
664.579	91.69
664.782	81.69
664.985	78.69
665.188	72.69
665.391	81.69
665.594	87.69
665.797	94.69
666	73.69
666.203	84.69
666.406	85.69
666.609	78.69
666.812	98.69
667.015	86.69
667.218	84.69
667.421	69.69
667.624	91.69
667.827	72.69
668.03	91.69
668.232	72.69
668.435	87.69
668.638	86.69
668.841	76.69
669.043	93.69
669.246	86.69
669.449	79.69
669.651	64.69
669.854	87.69
670.057	75.69
670.259	84.69
670.462	73.69
670.665	87.69
670.867	87.69
671.07	91.69
671.272	85.69
671.475	88.69
671.677	68.69
671.88	71.69
672.082	76.69
672.284	99.69
672.487	74.69
672.689	73.69
672.892	82.69
