Data from WStandard_LampEnergy5.5LIBS07252019.E.O._I.C._HRD10591_16-08-56-920.txt Node
Date: Thu Jul 25 16:08:56 EDT 2019
User: cochatt
Spectrometer: HR+D1059
Trigger mode: 1
Integration Time (sec): 1.000000E-1
Scans to average: 1
Electric dark correction enabled: true
Nonlinearity correction enabled: false
Boxcar width: 0
XAxis mode: Wavelengths
Number of Pixels in Spectrum: 2048
>>>>>Begin Spectral Data<<<<<
223.165	-30.31
223.4	-30.31
223.635	-30.31
223.869	-18.31
224.104	-7.31
224.338	-12.31
224.573	-16.31
224.808	-13.31
225.042	-17.31
225.277	-2.31
225.511	4.69
225.746	6.69
225.98	6.69
226.215	3.69
226.449	11.69
226.683	19.69
226.918	36.69
227.152	27.69
227.387	42.69
227.621	27.69
227.856	49.69
228.09	44.69
228.324	36.69
228.559	43.69
228.793	132.69
229.027	339.69
229.262	340.69
229.496	359.69
229.73	376.69
229.964	416.69
230.199	410.69
230.433	442.69
230.667	457.69
230.901	490.69
231.136	432.69
231.37	449.69
231.604	405.69
231.838	415.69
232.072	423.69
232.306	418.69
232.541	424.69
232.775	536.69
233.009	588.69
233.243	560.69
233.477	498.69
233.711	510.69
233.945	529.69
234.179	511.69
234.413	531.69
234.647	596.69
234.881	554.69
235.115	511.69
235.349	520.69
235.583	539.69
235.817	534.69
236.051	502.69
236.285	495.69
236.519	540.69
236.753	599.69
236.987	632.69
237.221	642.69
237.455	709.69
237.689	662.69
237.922	594.69
238.156	618.69
238.39	612.69
238.624	671.69
238.858	654.69
239.091	694.69
239.325	704.69
239.559	830.69
239.793	871.69
240.027	935.69
240.26	936.69
240.494	702.69
240.728	678.69
240.961	664.69
241.195	666.69
241.429	758.69
241.662	754.69
241.896	709.69
242.13	707.69
242.363	771.69
242.597	831.69
242.83	807.69
243.064	849.69
243.298	908.69
243.531	856.69
243.765	875.69
243.998	863.69
244.232	763.69
244.465	743.69
244.699	740.69
244.932	832.69
245.166	934.69
245.399	920.69
245.633	820.69
245.866	853.69
246.099	873.69
246.333	863.69
246.566	894.69
246.8	971.69
247.033	1078.69
247.266	1006.69
247.5	984.69
247.733	983.69
247.966	1037.69
248.2	1128.69
248.433	1093.69
248.666	1118.69
248.899	1211.69
249.133	1404.69
249.366	1609.69
249.599	1322.69
249.832	1139.69
250.066	1157.69
250.299	1159.69
250.532	1148.69
250.765	1000.69
250.998	1083.69
251.231	1112.69
251.465	1150.69
251.698	1088.69
251.931	1091.69
252.164	1104.69
252.397	1154.69
252.63	1129.69
252.863	1023.69
253.096	1012.69
253.329	1058.69
253.562	1081.69
253.795	1212.69
254.028	1195.69
254.261	1114.69
254.494	1061.69
254.727	1023.69
254.96	1080.69
255.193	1171.69
255.426	1310.69
255.659	1495.69
255.892	1526.69
256.124	1287.69
256.357	1243.69
256.59	1331.69
256.823	1332.69
257.056	1273.69
257.289	1564.69
257.521	1750.69
257.754	1561.69
257.987	1456.69
258.22	1664.69
258.452	1576.69
258.685	1302.69
258.918	1239.69
259.151	1304.69
259.383	1265.69
259.616	1062.69
259.849	1149.69
260.081	1290.69
260.314	1425.69
260.547	1548.69
260.779	1595.69
261.012	1485.69
261.244	1362.69
261.477	1269.69
261.71	1340.69
261.942	1310.69
262.175	1268.69
262.407	1356.69
262.64	1260.69
262.872	1186.69
263.105	1159.69
263.337	1216.69
263.57	1234.69
263.802	1192.69
264.035	1135.69
264.267	1075.69
264.499	1054.69
264.732	1138.69
264.964	1192.69
265.197	1263.69
265.429	1318.69
265.661	1428.69
265.894	1606.69
266.126	1671.69
266.358	1427.69
266.591	1511.69
266.823	1650.69
267.055	1507.69
267.287	1474.69
267.52	1426.69
267.752	1398.69
267.984	1440.69
268.216	1497.69
268.448	1543.69
268.681	1537.69
268.913	1414.69
269.145	1356.69
269.377	1336.69
269.609	1417.69
269.841	1639.69
270.073	1821.69
270.306	2084.69
270.538	2204.69
270.77	1886.69
271.002	1626.69
271.234	1560.69
271.466	1482.69
271.698	1655.69
271.93	2081.69
272.162	2009.69
272.394	1850.69
272.626	1770.69
272.858	1554.69
273.09	1353.69
273.322	1360.69
273.553	1291.69
273.785	1323.69
274.017	1332.69
274.249	1459.69
274.481	1447.69
274.713	1315.69
274.945	1310.69
275.176	1316.69
275.408	1312.69
275.64	1302.69
275.872	1229.69
276.104	1338.69
276.335	1521.69
276.567	1707.69
276.799	1736.69
277.031	1567.69
277.262	1497.69
277.494	1555.69
277.726	1740.69
277.957	1749.69
278.189	1538.69
278.421	1425.69
278.652	1425.69
278.884	1425.69
279.115	1381.69
279.347	1414.69
279.579	1410.69
279.81	1336.69
280.042	1504.69
280.273	1658.69
280.505	1664.69
280.736	1676.69
280.968	1596.69
281.199	1420.69
281.431	1331.69
281.662	1357.69
281.894	1359.69
282.125	1388.69
282.356	1426.69
282.588	1443.69
282.819	1419.69
283.051	1516.69
283.282	1711.69
283.513	1631.69
283.745	1412.69
283.976	1332.69
284.207	1347.69
284.439	1364.69
284.67	1393.69
284.901	1446.69
285.132	1467.69
285.364	1443.69
285.595	1433.69
285.826	1403.69
286.057	1394.69
286.288	1401.69
286.52	1424.69
286.751	1598.69
286.982	1610.69
287.213	1493.69
287.444	1387.69
287.675	1360.69
287.906	1419.69
288.138	1526.69
288.369	1541.69
288.6	1438.69
288.831	1378.69
289.062	1378.69
289.293	1423.69
289.524	1435.69
289.755	1461.69
289.986	1492.69
290.217	1365.69
290.448	1377.69
290.679	1430.69
290.91	1446.69
291.141	1462.69
291.371	1544.69
291.602	1507.69
291.833	1493.69
292.064	1542.69
292.295	1548.69
292.526	1560.69
292.757	1606.69
292.987	1562.69
293.218	1485.69
293.449	1542.69
293.68	1777.69
293.91	1902.69
294.141	1748.69
294.372	1657.69
294.603	1692.69
294.833	1782.69
295.064	1723.69
295.295	1535.69
295.525	1543.69
295.756	1388.69
295.987	1332.69
296.217	1377.69
296.448	1387.69
296.679	1432.69
296.909	1408.69
297.14	1378.69
297.37	1428.69
297.601	1490.69
297.831	1654.69
298.062	1628.69
298.292	1502.69
298.523	1408.69
298.753	1413.69
298.984	1459.69
299.214	1445.69
299.445	1487.69
299.675	1531.69
299.905	1527.69
300.136	1484.69
300.366	1426.69
300.597	1418.69
300.827	1388.69
301.057	1472.69
301.288	1545.69
301.518	1505.69
301.748	1576.69
301.979	1623.69
302.209	1648.69
302.439	1730.69
302.669	1851.69
302.9	1748.69
303.13	1522.69
303.36	1550.69
303.59	1571.69
303.82	1538.69
304.051	1561.69
304.281	1542.69
304.511	1548.69
304.741	1626.69
304.971	1793.69
305.201	1960.69
305.431	1855.69
305.661	1504.69
305.891	1352.69
306.121	1387.69
306.352	1393.69
306.582	1466.69
306.812	1550.69
307.042	1668.69
307.272	1671.69
307.502	1731.69
307.731	1827.69
307.961	1977.69
308.191	1834.69
308.421	1616.69
308.651	1493.69
308.881	1470.69
309.111	1532.69
309.341	1477.69
309.571	1484.69
309.8	1493.69
310.03	1486.69
310.26	1464.69
310.49	1446.69
310.72	1510.69
310.949	1532.69
311.179	1627.69
311.409	1570.69
311.639	1570.69
311.868	1471.69
312.098	1525.69
312.328	1504.69
312.557	1500.69
312.787	1542.69
313.017	1558.69
313.246	1598.69
313.476	1581.69
313.706	1613.69
313.935	1609.69
314.165	1571.69
314.394	1666.69
314.624	1686.69
314.853	1766.69
315.083	1868.69
315.312	1911.69
315.542	1780.69
315.771	1607.69
316.001	1562.69
316.23	1694.69
316.46	1670.69
316.689	1656.69
316.919	1580.69
317.148	1539.69
317.377	1519.69
317.607	1650.69
317.836	1782.69
318.065	1888.69
318.295	1819.69
318.524	1757.69
318.753	1683.69
318.983	1688.69
319.212	1678.69
319.441	1616.69
319.67	1637.69
319.9	1663.69
320.129	1731.69
320.358	1813.69
320.587	1824.69
320.816	1803.69
321.046	1777.69
321.275	1662.69
321.504	1680.69
321.733	1835.69
321.962	1777.69
322.191	1664.69
322.42	1630.69
322.649	1615.69
322.878	1578.69
323.108	1630.69
323.337	1737.69
323.566	1715.69
323.795	1647.69
324.024	1673.69
324.253	1610.69
324.482	1651.69
324.71	1590.69
324.939	1540.69
325.168	1584.69
325.397	1635.69
325.626	1694.69
325.855	1682.69
326.084	1599.69
326.313	1624.69
326.542	1653.69
326.77	1755.69
326.999	1736.69
327.228	1611.69
327.457	1583.69
327.686	1562.69
327.914	1610.69
328.143	1625.69
328.372	1646.69
328.6	1610.69
328.829	1610.69
329.058	1609.69
329.287	1610.69
329.515	1623.69
329.744	1622.69
329.972	1746.69
330.201	1838.69
330.43	1787.69
330.658	1692.69
330.887	1684.69
331.115	1767.69
331.344	1753.69
331.572	1703.69
331.801	1705.69
332.03	1727.69
332.258	1750.69
332.486	1761.69
332.715	1810.69
332.943	1766.69
333.172	1729.69
333.4	1743.69
333.629	1832.69
333.857	1882.69
334.085	2065.69
334.314	2282.69
334.542	2508.69
334.771	2299.69
334.999	2066.69
335.227	1943.69
335.455	1870.69
335.684	1854.69
335.912	1883.69
336.14	1942.69
336.369	1883.69
336.597	1762.69
336.825	1728.69
337.053	1795.69
337.281	1886.69
337.51	1969.69
337.738	2035.69
337.966	1959.69
338.194	1758.69
338.422	1737.69
338.65	1691.69
338.878	1699.69
339.106	1642.69
339.334	1646.69
339.562	1644.69
339.79	1611.69
340.018	1738.69
340.246	1848.69
340.474	1823.69
340.702	1777.69
340.93	1767.69
341.158	1739.69
341.386	1743.69
341.614	1694.69
341.842	1694.69
342.07	1686.69
342.298	1746.69
342.526	1706.69
342.754	1720.69
342.981	1674.69
343.209	1658.69
343.437	1642.69
343.665	1700.69
343.893	1708.69
344.12	1832.69
344.348	1827.69
344.576	1772.69
344.804	1734.69
345.031	1670.69
345.259	1732.69
345.487	1650.69
345.714	1601.69
345.942	1600.69
346.17	1600.69
346.397	1621.69
346.625	1638.69
346.853	1548.69
347.08	1490.69
347.308	1538.69
347.535	1553.69
347.763	1651.69
347.99	1620.69
348.218	1547.69
348.445	1517.69
348.673	1579.69
348.9	1654.69
349.128	1684.69
349.355	1682.69
349.583	1715.69
349.81	1626.69
350.037	1484.69
350.265	1479.69
350.492	1516.69
350.72	1562.69
350.947	1587.69
351.174	1631.69
351.402	1551.69
351.629	1509.69
351.856	1492.69
352.083	1463.69
352.311	1507.69
352.538	1508.69
352.765	1586.69
352.992	1626.69
353.22	1577.69
353.447	1524.69
353.674	1527.69
353.901	1596.69
354.128	1523.69
354.355	1534.69
354.583	1582.69
354.81	1620.69
355.037	1617.69
355.264	1618.69
355.491	1579.69
355.718	1617.69
355.945	1587.69
356.172	1527.69
356.399	1556.69
356.626	1519.69
356.853	1542.69
357.08	1698.69
357.307	1847.69
357.534	1874.69
357.761	1630.69
357.988	1540.69
358.215	1479.69
358.441	1529.69
358.668	1521.69
358.895	1512.69
359.122	1609.69
359.349	1696.69
359.576	1729.69
359.802	1586.69
360.029	1540.69
360.256	1508.69
360.483	1506.69
360.709	1578.69
360.936	1598.69
361.163	1665.69
361.39	1807.69
361.616	1985.69
361.843	1909.69
362.07	1813.69
362.296	1580.69
362.523	1535.69
362.749	1534.69
362.976	1584.69
363.203	1623.69
363.429	1574.69
363.656	1491.69
363.882	1562.69
364.109	1698.69
364.335	1889.69
364.562	1735.69
364.788	1670.69
365.015	1574.69
365.241	1544.69
365.468	1529.69
365.694	1629.69
365.92	1676.69
366.147	1660.69
366.373	1543.69
366.599	1562.69
366.826	1521.69
367.052	1476.69
367.278	1558.69
367.505	1556.69
367.731	1593.69
367.957	1603.69
368.184	1615.69
368.41	1677.69
368.636	1730.69
368.862	1759.69
369.089	1758.69
369.315	1711.69
369.541	1695.69
369.767	1632.69
369.993	1539.69
370.219	1556.69
370.445	1623.69
370.672	1657.69
370.898	1764.69
371.124	1782.69
371.35	1632.69
371.576	1690.69
371.802	1748.69
372.028	1677.69
372.254	1606.69
372.48	1574.69
372.706	1580.69
372.932	1590.69
373.158	1588.69
373.384	1621.69
373.61	1633.69
373.835	1740.69
374.061	1678.69
374.287	1674.69
374.513	1635.69
374.739	1656.69
374.965	1650.69
375.191	1693.69
375.416	1689.69
375.642	1737.69
375.868	1765.69
376.094	1838.69
376.319	1804.69
376.545	1642.69
376.771	1704.69
376.997	1780.69
377.222	1771.69
377.448	1688.69
377.674	1758.69
377.899	1729.69
378.125	1783.69
378.35	1812.69
378.576	1667.69
378.802	1598.69
379.027	1601.69
379.253	1624.69
379.478	1630.69
379.704	1647.69
379.929	1616.69
380.155	1622.69
380.38	1637.69
380.606	1670.69
380.831	1659.69
381.057	1735.69
381.282	1747.69
381.507	1700.69
381.733	1772.69
381.958	1903.69
382.184	1747.69
382.409	1687.69
382.634	1732.69
382.86	1708.69
383.085	1732.69
383.31	1786.69
383.535	1888.69
383.761	2003.69
383.986	1918.69
384.211	1842.69
384.436	1829.69
384.662	1889.69
384.887	1979.69
385.112	1874.69
385.337	1914.69
385.562	1868.69
385.787	1913.69
386.013	1909.69
386.238	1974.69
386.463	1918.69
386.688	1989.69
386.913	2170.69
387.138	2127.69
387.363	1908.69
387.588	1954.69
387.813	1931.69
388.038	1971.69
388.263	1995.69
388.488	1944.69
388.713	1765.69
388.938	1794.69
389.163	1834.69
389.387	1834.69
389.612	1854.69
389.837	1882.69
390.062	1917.69
390.287	1883.69
390.512	1908.69
390.736	1848.69
390.961	1857.69
391.186	1807.69
391.411	1824.69
391.636	1872.69
391.86	1866.69
392.085	1853.69
392.31	1869.69
392.534	1867.69
392.759	1905.69
392.984	1818.69
393.208	1889.69
393.433	1951.69
393.658	1997.69
393.882	2052.69
394.107	1920.69
394.331	1862.69
394.556	1894.69
394.78	1878.69
395.005	1960.69
395.229	1995.69
395.454	2168.69
395.678	2185.69
395.903	2110.69
396.127	1972.69
396.352	1995.69
396.576	2070.69
396.801	2015.69
397.025	2035.69
397.249	2011.69
397.474	2058.69
397.698	1998.69
397.922	2117.69
398.147	2184.69
398.371	2194.69
398.595	2247.69
398.82	2145.69
399.044	2166.69
399.268	2230.69
399.492	2416.69
399.717	2525.69
399.941	2519.69
400.165	2473.69
400.389	2380.69
400.613	2367.69
400.837	2591.69
401.062	2987.69
401.286	2582.69
401.51	2332.69
401.734	2446.69
401.958	2392.69
402.182	2240.69
402.406	2148.69
402.63	2120.69
402.854	2166.69
403.078	2177.69
403.302	2202.69
403.526	2263.69
403.75	2213.69
403.974	2259.69
404.198	2256.69
404.422	2280.69
404.645	2454.69
404.869	2379.69
405.093	2219.69
405.317	2150.69
405.541	2232.69
405.765	2238.69
405.988	2265.69
406.212	2290.69
406.436	2318.69
406.66	2414.69
406.883	2394.69
407.107	2643.69
407.331	2916.69
407.555	3105.69
407.778	2943.69
408.002	2458.69
408.226	2381.69
408.449	2396.69
408.673	2294.69
408.896	2304.69
409.12	2340.69
409.344	2255.69
409.567	2185.69
409.791	2230.69
410.014	2288.69
410.238	2369.69
410.461	2495.69
410.685	2267.69
410.908	2177.69
411.132	2256.69
411.355	2250.69
411.578	2138.69
411.802	2141.69
412.025	2248.69
412.249	2201.69
412.472	2117.69
412.695	2057.69
412.919	2088.69
413.142	2064.69
413.365	2128.69
413.589	2183.69
413.812	2224.69
414.035	2320.69
414.258	2192.69
414.482	2189.69
414.705	2180.69
414.928	2086.69
415.151	2126.69
415.374	2107.69
415.597	2166.69
415.821	2192.69
416.044	2214.69
416.267	2239.69
416.49	2106.69
416.713	2051.69
416.936	2078.69
417.159	2178.69
417.382	2212.69
417.605	2120.69
417.828	2158.69
418.051	2164.69
418.274	2110.69
418.497	2067.69
418.72	2074.69
418.943	2007.69
419.166	2210.69
419.389	2288.69
419.611	2202.69
419.834	2123.69
420.057	2161.69
420.28	2043.69
420.503	2054.69
420.726	2091.69
420.948	2064.69
421.171	2021.69
421.394	2075.69
421.617	2150.69
421.839	2104.69
422.062	2086.69
422.285	2044.69
422.507	2067.69
422.73	1982.69
422.953	1957.69
423.175	1994.69
423.398	2046.69
423.621	2048.69
423.843	2059.69
424.066	2108.69
424.288	2166.69
424.511	2183.69
424.733	2179.69
424.956	1954.69
425.178	1924.69
425.401	2008.69
425.623	2007.69
425.846	1982.69
426.068	2063.69
426.291	2101.69
426.513	2039.69
426.735	2081.69
426.958	2189.69
427.18	2335.69
427.402	2195.69
427.625	2198.69
427.847	2190.69
428.069	2073.69
428.292	2022.69
428.514	1971.69
428.736	1992.69
428.958	1984.69
429.181	1991.69
429.403	2260.69
429.625	2780.69
429.847	2473.69
430.069	2045.69
430.292	2234.69
430.514	2303.69
430.736	2131.69
430.958	2197.69
431.18	2163.69
431.402	2043.69
431.624	1952.69
431.846	1990.69
432.068	1940.69
432.29	1966.69
432.512	2010.69
432.734	2038.69
432.956	2101.69
433.178	2158.69
433.4	2134.69
433.622	2136.69
433.844	2025.69
434.066	1922.69
434.287	1967.69
434.509	2089.69
434.731	2131.69
434.953	2302.69
435.175	2206.69
435.397	2088.69
435.618	2068.69
435.84	2094.69
436.062	2066.69
436.284	2050.69
436.505	2075.69
436.727	2076.69
436.949	2028.69
437.17	2031.69
437.392	2009.69
437.614	1998.69
437.835	1915.69
438.057	2087.69
438.278	2163.69
438.5	2018.69
438.721	1979.69
438.943	2013.69
439.165	1938.69
439.386	1940.69
439.608	1940.69
439.829	1956.69
440.05	2002.69
440.272	1958.69
440.493	1900.69
440.715	1966.69
440.936	2071.69
441.158	2314.69
441.379	2239.69
441.6	2174.69
441.822	2147.69
442.043	2124.69
442.264	2072.69
442.486	2011.69
442.707	2009.69
442.928	2005.69
443.149	2039.69
443.371	2196.69
443.592	2244.69
443.813	2176.69
444.034	2118.69
444.255	2180.69
444.476	2190.69
444.698	2270.69
444.919	2229.69
445.14	2296.69
445.361	2281.69
445.582	2393.69
445.803	2191.69
446.024	2163.69
446.245	2245.69
446.466	2181.69
446.687	2094.69
446.908	2020.69
447.129	1995.69
447.35	2031.69
447.571	1993.69
447.792	1940.69
448.013	1918.69
448.234	1962.69
448.455	2052.69
448.675	2082.69
448.896	1883.69
449.117	1876.69
449.338	1943.69
449.559	2031.69
449.779	2086.69
450	2344.69
450.221	2504.69
450.442	2365.69
450.662	2128.69
450.883	1946.69
451.104	1884.69
451.324	1922.69
451.545	1984.69
451.766	1927.69
451.986	1878.69
452.207	1792.69
452.428	1780.69
452.648	1747.69
452.869	1819.69
453.089	1930.69
453.31	1974.69
453.53	1976.69
453.751	1912.69
453.971	1798.69
454.192	1820.69
454.412	1941.69
454.633	1880.69
454.853	1831.69
455.073	1726.69
455.294	1740.69
455.514	1715.69
455.734	1751.69
455.955	1767.69
456.175	1817.69
456.395	1758.69
456.616	1784.69
456.836	1877.69
457.056	1816.69
457.276	1814.69
457.497	1763.69
457.717	1698.69
457.937	1769.69
458.157	1832.69
458.377	1763.69
458.598	1740.69
458.818	1792.69
459.038	1887.69
459.258	2001.69
459.478	2035.69
459.698	1931.69
459.918	1977.69
460.138	2079.69
460.358	2128.69
460.578	2108.69
460.798	2211.69
461.018	2315.69
461.238	2175.69
461.458	2116.69
461.678	2123.69
461.898	2106.69
462.118	2023.69
462.338	2098.69
462.558	2136.69
462.777	2138.69
462.997	2236.69
463.217	2354.69
463.437	2377.69
463.657	2166.69
463.876	2159.69
464.096	2127.69
464.316	2122.69
464.536	2180.69
464.755	2210.69
464.975	2290.69
465.195	2151.69
465.414	2255.69
465.634	2281.69
465.854	2119.69
466.073	2259.69
466.293	2209.69
466.512	1946.69
466.732	1936.69
466.951	2051.69
467.171	1983.69
467.391	1940.69
467.61	1856.69
467.829	1906.69
468.049	2048.69
468.268	2248.69
468.488	2151.69
468.707	2078.69
468.927	1990.69
469.146	1945.69
469.365	1889.69
469.585	1922.69
469.804	1954.69
470.023	1895.69
470.243	1941.69
470.462	1956.69
470.681	1916.69
470.901	1938.69
471.12	1915.69
471.339	1942.69
471.558	1831.69
471.777	1880.69
471.997	1862.69
472.216	1881.69
472.435	1854.69
472.654	1882.69
472.873	1950.69
473.092	2079.69
473.311	1976.69
473.53	1875.69
473.749	1868.69
473.968	1927.69
474.187	2011.69
474.406	2117.69
474.625	1975.69
474.844	1972.69
475.063	1964.69
475.282	1989.69
475.501	1972.69
475.72	1935.69
475.939	2024.69
476.158	2016.69
476.377	1957.69
476.596	1973.69
476.814	2048.69
477.033	2009.69
477.252	2126.69
477.471	2171.69
477.69	2074.69
477.908	2037.69
478.127	2130.69
478.346	2295.69
478.564	2312.69
478.783	2267.69
479.002	2350.69
479.22	2313.69
479.439	2393.69
479.658	2710.69
479.876	2674.69
480.095	2376.69
480.313	2224.69
480.532	2153.69
480.751	2216.69
480.969	2238.69
481.188	2208.69
481.406	2159.69
481.624	2153.69
481.843	2186.69
482.061	2219.69
482.28	2239.69
482.498	2309.69
482.717	2279.69
482.935	2149.69
483.153	2183.69
483.372	2118.69
483.59	2168.69
483.808	2161.69
484.027	2228.69
484.245	2334.69
484.463	2665.69
484.681	3104.69
484.9	2386.69
485.118	2251.69
485.336	2207.69
485.554	2294.69
485.772	2414.69
485.99	2363.69
486.209	2358.69
486.427	2311.69
486.645	2355.69
486.863	2267.69
487.081	2368.69
487.299	2453.69
487.517	2387.69
487.735	2300.69
487.953	2248.69
488.171	2274.69
488.389	2289.69
488.607	2277.69
488.825	2458.69
489.043	2504.69
489.261	2251.69
489.479	2337.69
489.696	2424.69
489.914	2396.69
490.132	2358.69
490.35	2284.69
490.568	2356.69
490.786	2320.69
491.003	2204.69
491.221	2277.69
491.439	2389.69
491.657	2362.69
491.874	2362.69
492.092	2342.69
492.31	2371.69
492.527	2340.69
492.745	2332.69
492.963	2332.69
493.18	2423.69
493.398	2549.69
493.615	2619.69
493.833	2393.69
494.05	2366.69
494.268	2392.69
494.485	2410.69
494.703	2380.69
494.92	2368.69
495.138	2330.69
495.355	2334.69
495.573	2427.69
495.79	2631.69
496.008	2651.69
496.225	2476.69
496.442	2443.69
496.66	2522.69
496.877	2466.69
497.094	2640.69
497.312	2578.69
497.529	2547.69
497.746	2590.69
497.963	3022.69
498.181	3352.69
498.398	3154.69
498.615	3107.69
498.832	3035.69
499.049	2960.69
499.267	2986.69
499.484	3216.69
499.701	3435.69
499.918	3500.69
500.135	3745.69
500.352	3974.69
500.569	3976.69
500.786	4169.69
501.003	3940.69
501.22	3565.69
501.437	3478.69
501.654	3472.69
501.871	3441.69
502.088	2975.69
502.305	2989.69
502.522	2924.69
502.739	2663.69
502.956	2580.69
503.172	2580.69
503.389	2511.69
503.606	2469.69
503.823	2521.69
504.04	2492.69
504.256	2500.69
504.473	2488.69
504.69	2625.69
504.907	2497.69
505.123	2357.69
505.34	2438.69
505.557	3141.69
505.773	2672.69
505.99	2270.69
506.207	2143.69
506.423	2121.69
506.64	2074.69
506.856	2115.69
507.073	2394.69
507.289	2598.69
507.506	2490.69
507.722	2145.69
507.939	2088.69
508.155	2075.69
508.372	2105.69
508.588	2059.69
508.805	1981.69
509.021	1948.69
509.238	1953.69
509.454	1939.69
509.67	1958.69
509.887	1918.69
510.103	1937.69
510.319	1973.69
510.536	2011.69
510.752	2140.69
510.968	2106.69
511.184	2218.69
511.401	2176.69
511.617	1971.69
511.833	1887.69
512.049	1936.69
512.265	1911.69
512.481	1862.69
512.698	1972.69
512.914	2074.69
513.13	2010.69
513.346	1878.69
513.562	1840.69
513.778	1903.69
513.994	1974.69
514.21	2075.69
514.426	2024.69
514.642	2265.69
514.858	2141.69
515.074	1960.69
515.29	1947.69
515.506	1981.69
515.721	1996.69
515.937	2046.69
516.153	2308.69
516.369	2179.69
516.585	2125.69
516.801	1974.69
517.016	1993.69
517.232	2019.69
517.448	2041.69
517.664	2096.69
517.879	2074.69
518.095	2213.69
518.311	2060.69
518.527	1975.69
518.742	1971.69
518.958	1931.69
519.173	1920.69
519.389	1959.69
519.605	2008.69
519.82	1938.69
520.036	1961.69
520.251	1899.69
520.467	1891.69
520.682	2043.69
520.898	2155.69
521.113	1967.69
521.329	1906.69
521.544	2025.69
521.76	1929.69
521.975	1879.69
522.19	1856.69
522.406	1821.69
522.621	2198.69
522.836	2202.69
523.052	1803.69
523.267	1838.69
523.482	1819.69
523.698	1737.69
523.913	1714.69
524.128	1752.69
524.343	1868.69
524.559	1856.69
524.774	1762.69
524.989	1722.69
525.204	1710.69
525.419	1667.69
525.634	1670.69
525.849	1757.69
526.064	1776.69
526.28	1787.69
526.495	1714.69
526.71	1682.69
526.925	1671.69
527.14	1688.69
527.355	1649.69
527.57	1615.69
527.785	1663.69
527.999	1669.69
528.214	1585.69
528.429	1612.69
528.644	1647.69
528.859	1624.69
529.074	1651.69
529.289	1662.69
529.503	1688.69
529.718	1682.69
529.933	1662.69
530.148	1588.69
530.363	1612.69
530.577	1634.69
530.792	1653.69
531.007	1668.69
531.221	1624.69
531.436	1686.69
531.651	1722.69
531.865	1777.69
532.08	1720.69
532.295	1620.69
532.509	1584.69
532.724	1632.69
532.938	1680.69
533.153	1760.69
533.367	1698.69
533.582	1652.69
533.796	1630.69
534.011	1623.69
534.225	1638.69
534.44	1596.69
534.654	1619.69
534.868	1582.69
535.083	1691.69
535.297	1674.69
535.511	1631.69
535.726	1601.69
535.94	1617.69
536.154	1591.69
536.369	1603.69
536.583	1567.69
536.797	1568.69
537.011	1620.69
537.225	1554.69
537.44	1578.69
537.654	1596.69
537.868	1543.69
538.082	1522.69
538.296	1451.69
538.51	1477.69
538.724	1492.69
538.938	1463.69
539.153	1537.69
539.367	1551.69
539.581	1534.69
539.795	1612.69
540.009	1560.69
540.222	1572.69
540.436	1560.69
540.65	1668.69
540.864	1705.69
541.078	1643.69
541.292	1522.69
541.506	1509.69
541.72	1546.69
541.934	1531.69
542.147	1626.69
542.361	1554.69
542.575	1451.69
542.789	1496.69
543.002	1482.69
543.216	1489.69
543.43	1579.69
543.644	1616.69
543.857	1656.69
544.071	1591.69
544.285	1527.69
544.498	1495.69
544.712	1561.69
544.925	1550.69
545.139	1569.69
545.352	1511.69
545.566	1474.69
545.779	1440.69
545.993	1471.69
546.206	1516.69
546.42	1440.69
546.633	1415.69
546.847	1450.69
547.06	1444.69
547.274	1425.69
547.487	1459.69
547.7	1458.69
547.914	1423.69
548.127	1488.69
548.34	1478.69
548.554	1478.69
548.767	1463.69
548.98	1461.69
549.193	1466.69
549.407	1515.69
549.62	1545.69
549.833	1497.69
550.046	1465.69
550.259	1450.69
550.473	1436.69
550.686	1425.69
550.899	1394.69
551.112	1391.69
551.325	1396.69
551.538	1444.69
551.751	1690.69
551.964	1410.69
552.177	1378.69
552.39	1386.69
552.603	1424.69
552.816	1426.69
553.029	1506.69
553.242	1547.69
553.455	1454.69
553.667	1440.69
553.88	1450.69
554.093	1385.69
554.306	1379.69
554.519	1324.69
554.732	1313.69
554.944	1316.69
555.157	1343.69
555.37	1367.69
555.583	1352.69
555.795	1329.69
556.008	1290.69
556.221	1276.69
556.433	1270.69
556.646	1215.69
556.859	1238.69
557.071	1263.69
557.284	1266.69
557.496	1210.69
557.709	1228.69
557.921	1210.69
558.134	1194.69
558.346	1194.69
558.559	1205.69
558.771	1202.69
558.984	1163.69
559.196	1154.69
559.409	1162.69
559.621	1167.69
559.833	1156.69
560.046	1220.69
560.258	1227.69
560.47	1188.69
560.683	1188.69
560.895	1160.69
561.107	1210.69
561.32	1202.69
561.532	1214.69
561.744	1170.69
561.956	1181.69
562.168	1186.69
562.381	1145.69
562.593	1136.69
562.805	1163.69
563.017	1140.69
563.229	1178.69
563.441	1220.69
563.653	1147.69
563.865	1178.69
564.077	1150.69
564.289	1160.69
564.501	1167.69
564.713	1221.69
564.925	1248.69
565.137	1344.69
565.349	1202.69
565.561	1206.69
565.773	1257.69
565.985	1286.69
566.197	1328.69
566.408	1370.69
566.62	1417.69
566.832	1408.69
567.044	1426.69
567.255	1390.69
567.467	1409.69
567.679	1490.69
567.891	1484.69
568.102	1466.69
568.314	1401.69
568.526	1327.69
568.737	1314.69
568.949	1249.69
569.161	1194.69
569.372	1129.69
569.584	1115.69
569.795	1115.69
570.007	1147.69
570.218	1095.69
570.43	1068.69
570.641	1062.69
570.853	1066.69
571.064	1064.69
571.276	1055.69
571.487	1039.69
571.698	1013.69
571.91	999.69
572.121	1008.69
572.333	995.69
572.544	980.69
572.755	926.69
572.966	925.69
573.178	954.69
573.389	964.69
573.6	953.69
573.811	1058.69
574.023	964.69
574.234	952.69
574.445	916.69
574.656	896.69
574.867	880.69
575.078	904.69
575.289	874.69
575.501	878.69
575.712	865.69
575.923	881.69
576.134	906.69
576.345	863.69
576.556	852.69
576.767	867.69
576.978	828.69
577.188	837.69
577.399	819.69
577.61	824.69
577.821	804.69
578.032	827.69
578.243	812.69
578.454	835.69
578.665	790.69
578.875	806.69
579.086	814.69
579.297	800.69
579.508	844.69
579.718	818.69
579.929	826.69
580.14	743.69
580.35	765.69
580.561	799.69
580.772	879.69
580.982	818.69
581.193	776.69
581.403	758.69
581.614	748.69
581.825	721.69
582.035	722.69
582.246	778.69
582.456	784.69
582.667	805.69
582.877	748.69
583.087	738.69
583.298	720.69
583.508	766.69
583.719	771.69
583.929	742.69
584.139	742.69
584.35	744.69
584.56	723.69
584.77	735.69
584.981	727.69
585.191	760.69
585.401	752.69
585.611	744.69
585.821	746.69
586.032	723.69
586.242	727.69
586.452	730.69
586.662	748.69
586.872	725.69
587.082	708.69
587.292	748.69
587.502	747.69
587.713	739.69
587.923	715.69
588.133	745.69
588.343	716.69
588.553	702.69
588.762	709.69
588.972	714.69
589.182	731.69
589.392	702.69
589.602	726.69
589.812	718.69
590.022	705.69
590.232	697.69
590.441	705.69
590.651	709.69
590.861	708.69
591.071	672.69
591.281	673.69
591.49	687.69
591.7	695.69
591.91	707.69
592.119	710.69
592.329	711.69
592.539	725.69
592.748	703.69
592.958	737.69
593.167	726.69
593.377	741.69
593.587	752.69
593.796	740.69
594.006	760.69
594.215	755.69
594.424	755.69
594.634	734.69
594.843	715.69
595.053	730.69
595.262	726.69
595.472	700.69
595.681	711.69
595.89	693.69
596.1	662.69
596.309	692.69
596.518	674.69
596.727	650.69
596.937	668.69
597.146	610.69
597.355	635.69
597.564	642.69
597.774	618.69
597.983	620.69
598.192	618.69
598.401	596.69
598.61	618.69
598.819	615.69
599.028	606.69
599.237	595.69
599.446	594.69
599.655	576.69
599.864	584.69
600.073	589.69
600.282	596.69
600.491	585.69
600.7	585.69
600.909	588.69
601.118	570.69
601.327	577.69
601.536	564.69
601.745	575.69
601.953	578.69
602.162	587.69
602.371	576.69
602.58	564.69
602.789	563.69
602.997	562.69
603.206	565.69
603.415	557.69
603.623	565.69
603.832	554.69
604.041	558.69
604.249	518.69
604.458	574.69
604.666	556.69
604.875	550.69
605.084	553.69
605.292	568.69
605.501	556.69
605.709	550.69
605.918	527.69
606.126	545.69
606.334	535.69
606.543	542.69
606.751	537.69
606.96	537.69
607.168	545.69
607.376	522.69
607.585	526.69
607.793	537.69
608.001	539.69
608.21	530.69
608.418	508.69
608.626	544.69
608.834	522.69
609.043	505.69
609.251	528.69
609.459	541.69
609.667	530.69
609.875	541.69
610.083	542.69
610.291	525.69
610.499	541.69
610.707	542.69
610.916	518.69
611.124	504.69
611.332	511.69
611.54	530.69
611.748	495.69
611.955	484.69
612.163	513.69
612.371	510.69
612.579	495.69
612.787	497.69
612.995	515.69
613.203	514.69
613.411	497.69
613.618	503.69
613.826	517.69
614.034	535.69
614.242	486.69
614.449	486.69
614.657	530.69
614.865	491.69
615.072	497.69
615.28	482.69
615.488	524.69
615.695	524.69
615.903	517.69
616.111	500.69
616.318	512.69
616.526	488.69
616.733	472.69
616.941	479.69
617.148	499.69
617.356	500.69
617.563	456.69
617.771	489.69
617.978	471.69
618.185	478.69
618.393	487.69
618.6	479.69
618.807	501.69
619.015	512.69
619.222	469.69
619.429	478.69
619.637	461.69
619.844	454.69
620.051	470.69
620.258	466.69
620.466	441.69
620.673	436.69
620.88	435.69
621.087	458.69
621.294	464.69
621.501	459.69
621.708	460.69
621.915	441.69
622.122	448.69
622.329	451.69
622.536	451.69
622.743	427.69
622.95	441.69
623.157	462.69
623.364	417.69
623.571	444.69
623.778	420.69
623.985	425.69
624.192	436.69
624.399	435.69
624.606	440.69
624.812	411.69
625.019	417.69
625.226	415.69
625.433	413.69
625.639	429.69
625.846	402.69
626.053	407.69
626.259	399.69
626.466	392.69
626.673	393.69
626.879	389.69
627.086	398.69
627.293	410.69
627.499	391.69
627.706	398.69
627.912	412.69
628.119	399.69
628.325	400.69
628.532	414.69
628.738	416.69
628.945	391.69
629.151	386.69
629.357	408.69
629.564	386.69
629.77	385.69
629.976	392.69
630.183	381.69
630.389	402.69
630.595	400.69
630.802	386.69
631.008	384.69
631.214	373.69
631.42	372.69
631.627	359.69
631.833	357.69
632.039	379.69
632.245	372.69
632.451	373.69
632.657	344.69
632.863	336.69
633.069	374.69
633.275	355.69
633.481	356.69
633.688	353.69
633.893	362.69
634.099	326.69
634.305	343.69
634.511	345.69
634.717	321.69
634.923	354.69
635.129	339.69
635.335	342.69
635.541	360.69
635.747	362.69
635.952	347.69
636.158	353.69
636.364	328.69
636.57	320.69
636.775	342.69
636.981	332.69
637.187	354.69
637.392	341.69
637.598	337.69
637.804	341.69
638.009	336.69
638.215	333.69
638.421	337.69
638.626	343.69
638.832	327.69
639.037	320.69
639.243	324.69
639.448	308.69
639.654	318.69
639.859	306.69
640.065	325.69
640.27	320.69
640.475	311.69
640.681	329.69
640.886	323.69
641.091	307.69
641.297	322.69
641.502	316.69
641.707	326.69
641.913	305.69
642.118	295.69
642.323	302.69
642.528	313.69
642.733	299.69
642.939	296.69
643.144	319.69
643.349	320.69
643.554	311.69
643.759	299.69
643.964	303.69
644.169	310.69
644.374	312.69
644.579	307.69
644.784	299.69
644.989	308.69
645.194	292.69
645.399	295.69
645.604	298.69
645.809	294.69
646.014	309.69
646.219	325.69
646.423	307.69
646.628	297.69
646.833	302.69
647.038	334.69
647.243	291.69
647.447	310.69
647.652	326.69
647.857	312.69
648.062	284.69
648.266	303.69
648.471	308.69
648.676	314.69
648.88	294.69
649.085	297.69
649.289	304.69
649.494	297.69
649.698	299.69
649.903	316.69
650.107	283.69
650.312	290.69
650.516	287.69
650.721	291.69
650.925	263.69
651.13	272.69
651.334	262.69
651.539	278.69
651.743	270.69
651.947	265.69
652.152	274.69
652.356	252.69
652.56	241.69
652.764	266.69
652.969	246.69
653.173	256.69
653.377	239.69
653.581	266.69
653.785	243.69
653.99	239.69
654.194	252.69
654.398	217.69
654.602	247.69
654.806	243.69
655.01	224.69
655.214	249.69
655.418	252.69
655.622	235.69
655.826	255.69
656.03	266.69
656.234	276.69
656.438	264.69
656.642	285.69
656.846	264.69
657.049	246.69
657.253	242.69
657.457	206.69
657.661	179.69
657.865	187.69
658.068	167.69
658.272	161.69
658.476	145.69
658.68	146.69
658.883	146.69
659.087	137.69
659.291	131.69
659.494	137.69
659.698	139.69
659.901	118.69
660.105	133.69
660.309	114.69
660.512	111.69
660.716	106.69
660.919	110.69
661.123	110.69
661.326	98.69
661.53	103.69
661.733	84.69
661.936	100.69
662.14	107.69
662.343	95.69
662.546	89.69
662.75	96.69
662.953	85.69
663.156	98.69
663.36	97.69
663.563	89.69
663.766	79.69
663.969	87.69
664.173	86.69
664.376	83.69
664.579	84.69
664.782	76.69
664.985	65.69
665.188	69.69
665.391	90.69
665.594	81.69
665.797	86.69
666	89.69
666.203	85.69
666.406	99.69
666.609	92.69
666.812	98.69
667.015	82.69
667.218	88.69
667.421	89.69
667.624	86.69
667.827	81.69
668.03	71.69
668.232	80.69
668.435	90.69
668.638	89.69
668.841	83.69
669.043	81.69
669.246	73.69
669.449	76.69
669.651	78.69
669.854	96.69
670.057	76.69
670.259	76.69
670.462	72.69
670.665	78.69
670.867	87.69
671.07	80.69
671.272	83.69
671.475	89.69
671.677	80.69
671.88	84.69
672.082	70.69
672.284	82.69
672.487	79.69
672.689	75.69
672.892	86.69
