Data from WStandard_LampEnergy5.5LIBS07252019.E.O._I.C._HRD10591_16-09-01-921.txt Node
Date: Thu Jul 25 16:09:01 EDT 2019
User: cochatt
Spectrometer: HR+D1059
Trigger mode: 1
Integration Time (sec): 1.000000E-1
Scans to average: 1
Electric dark correction enabled: true
Nonlinearity correction enabled: false
Boxcar width: 0
XAxis mode: Wavelengths
Number of Pixels in Spectrum: 2048
>>>>>Begin Spectral Data<<<<<
223.165	-17.56
223.4	-17.56
223.635	-17.56
223.869	-22.56
224.104	-7.56
224.338	-18.56
224.573	-21.56
224.808	-14.56
225.042	-12.56
225.277	-8.56
225.511	4.44
225.746	-9.56
225.98	-0.56
226.215	19.44
226.449	23.44
226.683	20.44
226.918	33.44
227.152	32.44
227.387	37.44
227.621	30.44
227.856	43.44
228.09	42.44
228.324	53.44
228.559	57.44
228.793	130.44
229.027	352.44
229.262	351.44
229.496	355.44
229.73	390.44
229.964	421.44
230.199	422.44
230.433	436.44
230.667	461.44
230.901	513.44
231.136	457.44
231.37	441.44
231.604	444.44
231.838	455.44
232.072	418.44
232.306	413.44
232.541	448.44
232.775	516.44
233.009	576.44
233.243	582.44
233.477	508.44
233.711	514.44
233.945	508.44
234.179	512.44
234.413	552.44
234.647	597.44
234.881	562.44
235.115	512.44
235.349	519.44
235.583	539.44
235.817	509.44
236.051	502.44
236.285	529.44
236.519	539.44
236.753	635.44
236.987	638.44
237.221	625.44
237.455	705.44
237.689	663.44
237.922	646.44
238.156	632.44
238.39	621.44
238.624	660.44
238.858	712.44
239.091	731.44
239.325	749.44
239.559	855.44
239.793	896.44
240.027	962.44
240.26	988.44
240.494	722.44
240.728	694.44
240.961	679.44
241.195	701.44
241.429	759.44
241.662	765.44
241.896	705.44
242.13	715.44
242.363	804.44
242.597	845.44
242.83	822.44
243.064	841.44
243.298	897.44
243.531	872.44
243.765	893.44
243.998	872.44
244.232	733.44
244.465	720.44
244.699	764.44
244.932	853.44
245.166	964.44
245.399	928.44
245.633	859.44
245.866	832.44
246.099	864.44
246.333	916.44
246.566	910.44
246.8	984.44
247.033	1110.44
247.266	1043.44
247.5	977.44
247.733	990.44
247.966	1029.44
248.2	1169.44
248.433	1108.44
248.666	1165.44
248.899	1238.44
249.133	1432.44
249.366	1648.44
249.599	1334.44
249.832	1190.44
250.066	1195.44
250.299	1225.44
250.532	1146.44
250.765	993.44
250.998	1089.44
251.231	1126.44
251.465	1148.44
251.698	1135.44
251.931	1125.44
252.164	1130.44
252.397	1168.44
252.63	1184.44
252.863	1046.44
253.096	1034.44
253.329	1085.44
253.562	1098.44
253.795	1206.44
254.028	1179.44
254.261	1116.44
254.494	1106.44
254.727	1043.44
254.96	1044.44
255.193	1168.44
255.426	1340.44
255.659	1513.44
255.892	1602.44
256.124	1299.44
256.357	1224.44
256.59	1358.44
256.823	1364.44
257.056	1341.44
257.289	1596.44
257.521	1769.44
257.754	1629.44
257.987	1490.44
258.22	1656.44
258.452	1657.44
258.685	1329.44
258.918	1298.44
259.151	1295.44
259.383	1254.44
259.616	1123.44
259.849	1157.44
260.081	1295.44
260.314	1464.44
260.547	1600.44
260.779	1629.44
261.012	1489.44
261.244	1361.44
261.477	1282.44
261.71	1350.44
261.942	1331.44
262.175	1266.44
262.407	1384.44
262.64	1305.44
262.872	1196.44
263.105	1190.44
263.337	1223.44
263.57	1231.44
263.802	1224.44
264.035	1158.44
264.267	1103.44
264.499	1101.44
264.732	1166.44
264.964	1265.44
265.197	1287.44
265.429	1323.44
265.661	1504.44
265.894	1621.44
266.126	1684.44
266.358	1462.44
266.591	1532.44
266.823	1681.44
267.055	1517.44
267.287	1522.44
267.52	1485.44
267.752	1424.44
267.984	1400.44
268.216	1498.44
268.448	1544.44
268.681	1545.44
268.913	1436.44
269.145	1328.44
269.377	1324.44
269.609	1394.44
269.841	1631.44
270.073	1924.44
270.306	2137.44
270.538	2283.44
270.77	1952.44
271.002	1657.44
271.234	1563.44
271.466	1552.44
271.698	1689.44
271.93	2055.44
272.162	2066.44
272.394	1842.44
272.626	1778.44
272.858	1578.44
273.09	1338.44
273.322	1365.44
273.553	1260.44
273.785	1316.44
274.017	1371.44
274.249	1460.44
274.481	1459.44
274.713	1355.44
274.945	1312.44
275.176	1329.44
275.408	1314.44
275.64	1302.44
275.872	1275.44
276.104	1366.44
276.335	1509.44
276.567	1749.44
276.799	1824.44
277.031	1601.44
277.262	1504.44
277.494	1575.44
277.726	1722.44
277.957	1753.44
278.189	1548.44
278.421	1428.44
278.652	1380.44
278.884	1393.44
279.115	1380.44
279.347	1410.44
279.579	1352.44
279.81	1366.44
280.042	1520.44
280.273	1703.44
280.505	1653.44
280.736	1696.44
280.968	1590.44
281.199	1436.44
281.431	1343.44
281.662	1335.44
281.894	1371.44
282.125	1386.44
282.356	1454.44
282.588	1462.44
282.819	1451.44
283.051	1576.44
283.282	1700.44
283.513	1647.44
283.745	1469.44
283.976	1346.44
284.207	1363.44
284.439	1375.44
284.67	1401.44
284.901	1434.44
285.132	1514.44
285.364	1439.44
285.595	1460.44
285.826	1443.44
286.057	1421.44
286.288	1406.44
286.52	1450.44
286.751	1584.44
286.982	1606.44
287.213	1536.44
287.444	1374.44
287.675	1362.44
287.906	1441.44
288.138	1588.44
288.369	1505.44
288.6	1434.44
288.831	1401.44
289.062	1400.44
289.293	1443.44
289.524	1434.44
289.755	1491.44
289.986	1506.44
290.217	1380.44
290.448	1386.44
290.679	1423.44
290.91	1468.44
291.141	1474.44
291.371	1554.44
291.602	1495.44
291.833	1476.44
292.064	1534.44
292.295	1529.44
292.526	1568.44
292.757	1633.44
292.987	1568.44
293.218	1481.44
293.449	1527.44
293.68	1805.44
293.91	1920.44
294.141	1800.44
294.372	1664.44
294.603	1707.44
294.833	1797.44
295.064	1710.44
295.295	1541.44
295.525	1522.44
295.756	1379.44
295.987	1336.44
296.217	1374.44
296.448	1425.44
296.679	1433.44
296.909	1388.44
297.14	1398.44
297.37	1406.44
297.601	1497.44
297.831	1620.44
298.062	1646.44
298.292	1485.44
298.523	1417.44
298.753	1423.44
298.984	1477.44
299.214	1458.44
299.445	1481.44
299.675	1537.44
299.905	1508.44
300.136	1481.44
300.366	1478.44
300.597	1425.44
300.827	1394.44
301.057	1448.44
301.288	1556.44
301.518	1520.44
301.748	1562.44
301.979	1622.44
302.209	1637.44
302.439	1742.44
302.669	1824.44
302.9	1684.44
303.13	1522.44
303.36	1586.44
303.59	1609.44
303.82	1536.44
304.051	1546.44
304.281	1565.44
304.511	1594.44
304.741	1633.44
304.971	1814.44
305.201	1944.44
305.431	1805.44
305.661	1471.44
305.891	1346.44
306.121	1367.44
306.352	1414.44
306.582	1496.44
306.812	1576.44
307.042	1705.44
307.272	1724.44
307.502	1737.44
307.731	1864.44
307.961	1999.44
308.191	1885.44
308.421	1618.44
308.651	1501.44
308.881	1506.44
309.111	1535.44
309.341	1477.44
309.571	1534.44
309.8	1495.44
310.03	1515.44
310.26	1450.44
310.49	1452.44
310.72	1515.44
310.949	1527.44
311.179	1610.44
311.409	1572.44
311.639	1480.44
311.868	1519.44
312.098	1540.44
312.328	1476.44
312.557	1457.44
312.787	1530.44
313.017	1582.44
313.246	1551.44
313.476	1556.44
313.706	1586.44
313.935	1574.44
314.165	1588.44
314.394	1656.44
314.624	1711.44
314.853	1794.44
315.083	1852.44
315.312	1938.44
315.542	1800.44
315.771	1628.44
316.001	1593.44
316.23	1680.44
316.46	1718.44
316.689	1666.44
316.919	1554.44
317.148	1516.44
317.377	1539.44
317.607	1609.44
317.836	1813.44
318.065	1944.44
318.295	1852.44
318.524	1799.44
318.753	1698.44
318.983	1699.44
319.212	1682.44
319.441	1615.44
319.67	1626.44
319.9	1636.44
320.129	1732.44
320.358	1813.44
320.587	1820.44
320.816	1838.44
321.046	1793.44
321.275	1662.44
321.504	1677.44
321.733	1842.44
321.962	1802.44
322.191	1666.44
322.42	1619.44
322.649	1576.44
322.878	1597.44
323.108	1620.44
323.337	1685.44
323.566	1677.44
323.795	1697.44
324.024	1692.44
324.253	1635.44
324.482	1674.44
324.71	1629.44
324.939	1534.44
325.168	1562.44
325.397	1621.44
325.626	1668.44
325.855	1712.44
326.084	1618.44
326.313	1627.44
326.542	1661.44
326.77	1743.44
326.999	1758.44
327.228	1658.44
327.457	1572.44
327.686	1496.44
327.914	1570.44
328.143	1642.44
328.372	1638.44
328.6	1657.44
328.829	1637.44
329.058	1604.44
329.287	1607.44
329.515	1619.44
329.744	1666.44
329.972	1762.44
330.201	1768.44
330.43	1760.44
330.658	1734.44
330.887	1763.44
331.115	1724.44
331.344	1717.44
331.572	1722.44
331.801	1693.44
332.03	1669.44
332.258	1718.44
332.486	1765.44
332.715	1771.44
332.943	1770.44
333.172	1717.44
333.4	1728.44
333.629	1724.44
333.857	1842.44
334.085	2047.44
334.314	2289.44
334.542	2548.44
334.771	2352.44
334.999	2030.44
335.227	1932.44
335.455	1827.44
335.684	1807.44
335.912	1878.44
336.14	1933.44
336.369	1873.44
336.597	1773.44
336.825	1717.44
337.053	1804.44
337.281	1893.44
337.51	1934.44
337.738	2040.44
337.966	1932.44
338.194	1769.44
338.422	1720.44
338.65	1684.44
338.878	1704.44
339.106	1643.44
339.334	1651.44
339.562	1618.44
339.79	1625.44
340.018	1742.44
340.246	1761.44
340.474	1813.44
340.702	1769.44
340.93	1756.44
341.158	1766.44
341.386	1716.44
341.614	1688.44
341.842	1712.44
342.07	1699.44
342.298	1687.44
342.526	1716.44
342.754	1648.44
342.981	1671.44
343.209	1647.44
343.437	1649.44
343.665	1696.44
343.893	1730.44
344.12	1818.44
344.348	1825.44
344.576	1768.44
344.804	1712.44
345.031	1668.44
345.259	1709.44
345.487	1634.44
345.714	1569.44
345.942	1533.44
346.17	1563.44
346.397	1621.44
346.625	1597.44
346.853	1552.44
347.08	1515.44
347.308	1528.44
347.535	1581.44
347.763	1615.44
347.99	1606.44
348.218	1546.44
348.445	1555.44
348.673	1588.44
348.9	1631.44
349.128	1653.44
349.355	1727.44
349.583	1704.44
349.81	1606.44
350.037	1548.44
350.265	1458.44
350.492	1498.44
350.72	1509.44
350.947	1559.44
351.174	1610.44
351.402	1527.44
351.629	1480.44
351.856	1431.44
352.083	1469.44
352.311	1472.44
352.538	1510.44
352.765	1608.44
352.992	1623.44
353.22	1606.44
353.447	1515.44
353.674	1561.44
353.901	1607.44
354.128	1538.44
354.355	1525.44
354.583	1575.44
354.81	1634.44
355.037	1622.44
355.264	1618.44
355.491	1569.44
355.718	1600.44
355.945	1532.44
356.172	1531.44
356.399	1486.44
356.626	1492.44
356.853	1553.44
357.08	1691.44
357.307	1883.44
357.534	1884.44
357.761	1639.44
357.988	1531.44
358.215	1465.44
358.441	1520.44
358.668	1468.44
358.895	1485.44
359.122	1582.44
359.349	1719.44
359.576	1730.44
359.802	1559.44
360.029	1487.44
360.256	1460.44
360.483	1555.44
360.709	1581.44
360.936	1596.44
361.163	1659.44
361.39	1810.44
361.616	1946.44
361.843	1932.44
362.07	1856.44
362.296	1608.44
362.523	1517.44
362.749	1571.44
362.976	1520.44
363.203	1604.44
363.429	1558.44
363.656	1504.44
363.882	1539.44
364.109	1687.44
364.335	1867.44
364.562	1722.44
364.788	1632.44
365.015	1604.44
365.241	1513.44
365.468	1562.44
365.694	1646.44
365.92	1720.44
366.147	1645.44
366.373	1530.44
366.599	1512.44
366.826	1517.44
367.052	1512.44
367.278	1557.44
367.505	1579.44
367.731	1586.44
367.957	1595.44
368.184	1628.44
368.41	1730.44
368.636	1725.44
368.862	1736.44
369.089	1798.44
369.315	1696.44
369.541	1613.44
369.767	1572.44
369.993	1577.44
370.219	1565.44
370.445	1578.44
370.672	1676.44
370.898	1752.44
371.124	1754.44
371.35	1624.44
371.576	1649.44
371.802	1779.44
372.028	1682.44
372.254	1641.44
372.48	1587.44
372.706	1540.44
372.932	1552.44
373.158	1608.44
373.384	1629.44
373.61	1661.44
373.835	1739.44
374.061	1640.44
374.287	1610.44
374.513	1615.44
374.739	1642.44
374.965	1660.44
375.191	1658.44
375.416	1688.44
375.642	1705.44
375.868	1813.44
376.094	1801.44
376.319	1752.44
376.545	1677.44
376.771	1656.44
376.997	1712.44
377.222	1749.44
377.448	1694.44
377.674	1689.44
377.899	1690.44
378.125	1805.44
378.35	1771.44
378.576	1653.44
378.802	1580.44
379.027	1583.44
379.253	1593.44
379.478	1644.44
379.704	1607.44
379.929	1641.44
380.155	1636.44
380.38	1663.44
380.606	1661.44
380.831	1638.44
381.057	1718.44
381.282	1763.44
381.507	1679.44
381.733	1803.44
381.958	1879.44
382.184	1758.44
382.409	1657.44
382.634	1666.44
382.86	1702.44
383.085	1707.44
383.31	1762.44
383.535	1887.44
383.761	1978.44
383.986	1924.44
384.211	1836.44
384.436	1801.44
384.662	1891.44
384.887	1996.44
385.112	1890.44
385.337	1904.44
385.562	1836.44
385.787	1874.44
386.013	1888.44
386.238	1920.44
386.463	1876.44
386.688	1985.44
386.913	2164.44
387.138	2092.44
387.363	1890.44
387.588	1919.44
387.813	1883.44
388.038	1940.44
388.263	2002.44
388.488	1944.44
388.713	1782.44
388.938	1796.44
389.163	1786.44
389.387	1837.44
389.612	1868.44
389.837	1843.44
390.062	1859.44
390.287	1870.44
390.512	1855.44
390.736	1800.44
390.961	1788.44
391.186	1767.44
391.411	1806.44
391.636	1779.44
391.86	1880.44
392.085	1876.44
392.31	1836.44
392.534	1881.44
392.759	1906.44
392.984	1865.44
393.208	1833.44
393.433	1954.44
393.658	2001.44
393.882	1974.44
394.107	1876.44
394.331	1848.44
394.556	1862.44
394.78	1860.44
395.005	1938.44
395.229	2006.44
395.454	2136.44
395.678	2143.44
395.903	2053.44
396.127	1992.44
396.352	1980.44
396.576	2014.44
396.801	2036.44
397.025	2052.44
397.249	2045.44
397.474	1991.44
397.698	1976.44
397.922	2024.44
398.147	2160.44
398.371	2230.44
398.595	2189.44
398.82	2120.44
399.044	2164.44
399.268	2267.44
399.492	2444.44
399.717	2514.44
399.941	2501.44
400.165	2473.44
400.389	2364.44
400.613	2336.44
400.837	2571.44
401.062	3007.44
401.286	2576.44
401.51	2329.44
401.734	2473.44
401.958	2362.44
402.182	2202.44
402.406	2106.44
402.63	2072.44
402.854	2059.44
403.078	2174.44
403.302	2190.44
403.526	2204.44
403.75	2238.44
403.974	2243.44
404.198	2205.44
404.422	2262.44
404.645	2421.44
404.869	2348.44
405.093	2172.44
405.317	2093.44
405.541	2209.44
405.765	2242.44
405.988	2236.44
406.212	2313.44
406.436	2295.44
406.66	2309.44
406.883	2358.44
407.107	2616.44
407.331	2862.44
407.555	3089.44
407.778	2914.44
408.002	2441.44
408.226	2328.44
408.449	2318.44
408.673	2278.44
408.896	2263.44
409.12	2321.44
409.344	2266.44
409.567	2195.44
409.791	2226.44
410.014	2251.44
410.238	2366.44
410.461	2539.44
410.685	2267.44
410.908	2166.44
411.132	2237.44
411.355	2262.44
411.578	2151.44
411.802	2162.44
412.025	2210.44
412.249	2173.44
412.472	2114.44
412.695	2074.44
412.919	2103.44
413.142	2093.44
413.365	2140.44
413.589	2184.44
413.812	2220.44
414.035	2355.44
414.258	2148.44
414.482	2119.44
414.705	2171.44
414.928	2063.44
415.151	2096.44
415.374	2071.44
415.597	2148.44
415.821	2178.44
416.044	2226.44
416.267	2250.44
416.49	2066.44
416.713	1994.44
416.936	2109.44
417.159	2162.44
417.382	2187.44
417.605	2104.44
417.828	2129.44
418.051	2177.44
418.274	2087.44
418.497	1993.44
418.72	2028.44
418.943	2013.44
419.166	2120.44
419.389	2240.44
419.611	2133.44
419.834	2097.44
420.057	2124.44
420.28	2023.44
420.503	2037.44
420.726	2104.44
420.948	2063.44
421.171	1994.44
421.394	2007.44
421.617	2084.44
421.839	2085.44
422.062	2084.44
422.285	2019.44
422.507	1974.44
422.73	1958.44
422.953	1919.44
423.175	1953.44
423.398	2020.44
423.621	2030.44
423.843	2044.44
424.066	2086.44
424.288	2130.44
424.511	2172.44
424.733	2117.44
424.956	1934.44
425.178	1924.44
425.401	1937.44
425.623	1987.44
425.846	1956.44
426.068	2110.44
426.291	2157.44
426.513	2040.44
426.735	2026.44
426.958	2198.44
427.18	2354.44
427.402	2132.44
427.625	2194.44
427.847	2193.44
428.069	2073.44
428.292	1994.44
428.514	1952.44
428.736	1920.44
428.958	1987.44
429.181	1962.44
429.403	2195.44
429.625	2797.44
429.847	2428.44
430.069	2044.44
430.292	2211.44
430.514	2342.44
430.736	2109.44
430.958	2219.44
431.18	2137.44
431.402	1986.44
431.624	2001.44
431.846	1951.44
432.068	1989.44
432.29	1939.44
432.512	1948.44
432.734	2003.44
432.956	2030.44
433.178	2121.44
433.4	2142.44
433.622	2102.44
433.844	2026.44
434.066	1909.44
434.287	1982.44
434.509	2059.44
434.731	2123.44
434.953	2237.44
435.175	2208.44
435.397	2089.44
435.618	2105.44
435.84	2112.44
436.062	2053.44
436.284	2058.44
436.505	2076.44
436.727	2104.44
436.949	1995.44
437.17	1982.44
437.392	1987.44
437.614	1982.44
437.835	1916.44
438.057	2049.44
438.278	2160.44
438.5	2009.44
438.721	1968.44
438.943	1981.44
439.165	1974.44
439.386	1901.44
439.608	1976.44
439.829	1920.44
440.05	1973.44
440.272	1953.44
440.493	1902.44
440.715	1945.44
440.936	2020.44
441.158	2250.44
441.379	2238.44
441.6	2150.44
441.822	2147.44
442.043	2083.44
442.264	2051.44
442.486	1976.44
442.707	1946.44
442.928	1940.44
443.149	2019.44
443.371	2145.44
443.592	2223.44
443.813	2121.44
444.034	2132.44
444.255	2128.44
444.476	2203.44
444.698	2234.44
444.919	2200.44
445.14	2316.44
445.361	2250.44
445.582	2375.44
445.803	2228.44
446.024	2135.44
446.245	2238.44
446.466	2161.44
446.687	2056.44
446.908	2055.44
447.129	1958.44
447.35	2049.44
447.571	1981.44
447.792	1944.44
448.013	1916.44
448.234	1929.44
448.455	2049.44
448.675	2056.44
448.896	1876.44
449.117	1858.44
449.338	1887.44
449.559	2011.44
449.779	2075.44
450	2341.44
450.221	2465.44
450.442	2407.44
450.662	2113.44
450.883	1899.44
451.104	1838.44
451.324	1865.44
451.545	1995.44
451.766	1930.44
451.986	1796.44
452.207	1826.44
452.428	1797.44
452.648	1751.44
452.869	1803.44
453.089	1938.44
453.31	1906.44
453.53	1978.44
453.751	1910.44
453.971	1786.44
454.192	1826.44
454.412	1949.44
454.633	1878.44
454.853	1850.44
455.073	1762.44
455.294	1731.44
455.514	1735.44
455.734	1723.44
455.955	1751.44
456.175	1732.44
456.395	1779.44
456.616	1838.44
456.836	1849.44
457.056	1805.44
457.276	1822.44
457.497	1785.44
457.717	1662.44
457.937	1708.44
458.157	1804.44
458.377	1768.44
458.598	1728.44
458.818	1794.44
459.038	1913.44
459.258	2004.44
459.478	2005.44
459.698	1924.44
459.918	1939.44
460.138	2044.44
460.358	2082.44
460.578	2116.44
460.798	2181.44
461.018	2290.44
461.238	2202.44
461.458	2086.44
461.678	2108.44
461.898	2058.44
462.118	2018.44
462.338	2119.44
462.558	2128.44
462.777	2114.44
462.997	2151.44
463.217	2344.44
463.437	2259.44
463.657	2131.44
463.876	2090.44
464.096	2103.44
464.316	2103.44
464.536	2174.44
464.755	2182.44
464.975	2222.44
465.195	2120.44
465.414	2228.44
465.634	2216.44
465.854	2139.44
466.073	2210.44
466.293	2174.44
466.512	1977.44
466.732	1891.44
466.951	2008.44
467.171	2028.44
467.391	1949.44
467.61	1882.44
467.829	1863.44
468.049	2074.44
468.268	2270.44
468.488	2164.44
468.707	2062.44
468.927	1932.44
469.146	1942.44
469.365	1896.44
469.585	1920.44
469.804	1908.44
470.023	1930.44
470.243	1944.44
470.462	1908.44
470.681	1866.44
470.901	1905.44
471.12	1947.44
471.339	1905.44
471.558	1857.44
471.777	1842.44
471.997	1914.44
472.216	1888.44
472.435	1855.44
472.654	1860.44
472.873	1973.44
473.092	2056.44
473.311	1991.44
473.53	1814.44
473.749	1865.44
473.968	1932.44
474.187	2010.44
474.406	2070.44
474.625	1971.44
474.844	1934.44
475.063	1935.44
475.282	1969.44
475.501	1964.44
475.72	1945.44
475.939	2054.44
476.158	2025.44
476.377	1939.44
476.596	1971.44
476.814	2021.44
477.033	1981.44
477.252	2067.44
477.471	2119.44
477.69	2032.44
477.908	2023.44
478.127	2162.44
478.346	2291.44
478.564	2275.44
478.783	2252.44
479.002	2398.44
479.22	2350.44
479.439	2366.44
479.658	2686.44
479.876	2708.44
480.095	2372.44
480.313	2262.44
480.532	2147.44
480.751	2173.44
480.969	2257.44
481.188	2212.44
481.406	2157.44
481.624	2086.44
481.843	2132.44
482.061	2172.44
482.28	2218.44
482.498	2251.44
482.717	2234.44
482.935	2155.44
483.153	2154.44
483.372	2148.44
483.59	2121.44
483.808	2138.44
484.027	2189.44
484.245	2302.44
484.463	2700.44
484.681	3074.44
484.9	2412.44
485.118	2269.44
485.336	2179.44
485.554	2277.44
485.772	2403.44
485.99	2330.44
486.209	2352.44
486.427	2328.44
486.645	2334.44
486.863	2299.44
487.081	2308.44
487.299	2393.44
487.517	2356.44
487.735	2274.44
487.953	2236.44
488.171	2217.44
488.389	2236.44
488.607	2252.44
488.825	2498.44
489.043	2495.44
489.261	2283.44
489.479	2406.44
489.696	2431.44
489.914	2381.44
490.132	2295.44
490.35	2289.44
490.568	2372.44
490.786	2295.44
491.003	2182.44
491.221	2240.44
491.439	2388.44
491.657	2290.44
491.874	2293.44
492.092	2290.44
492.31	2322.44
492.527	2331.44
492.745	2289.44
492.963	2281.44
493.18	2419.44
493.398	2545.44
493.615	2648.44
493.833	2396.44
494.05	2352.44
494.268	2397.44
494.485	2370.44
494.703	2358.44
494.92	2300.44
495.138	2345.44
495.355	2343.44
495.573	2411.44
495.79	2577.44
496.008	2602.44
496.225	2451.44
496.442	2463.44
496.66	2531.44
496.877	2511.44
497.094	2576.44
497.312	2619.44
497.529	2539.44
497.746	2615.44
497.963	3005.44
498.181	3454.44
498.398	3171.44
498.615	3082.44
498.832	3037.44
499.049	2935.44
499.267	3005.44
499.484	3157.44
499.701	3388.44
499.918	3470.44
500.135	3692.44
500.352	3939.44
500.569	3936.44
500.786	4161.44
501.003	3927.44
501.22	3545.44
501.437	3405.44
501.654	3384.44
501.871	3352.44
502.088	2965.44
502.305	3006.44
502.522	2802.44
502.739	2648.44
502.956	2604.44
503.172	2578.44
503.389	2527.44
503.606	2473.44
503.823	2505.44
504.04	2456.44
504.256	2493.44
504.473	2494.44
504.69	2553.44
504.907	2436.44
505.123	2345.44
505.34	2468.44
505.557	3116.44
505.773	2686.44
505.99	2290.44
506.207	2165.44
506.423	2095.44
506.64	2096.44
506.856	2111.44
507.073	2402.44
507.289	2590.44
507.506	2480.44
507.722	2130.44
507.939	2014.44
508.155	2075.44
508.372	2074.44
508.588	2019.44
508.805	1976.44
509.021	1972.44
509.238	1953.44
509.454	1917.44
509.67	1940.44
509.887	1883.44
510.103	1890.44
510.319	1953.44
510.536	2049.44
510.752	2081.44
510.968	2084.44
511.184	2186.44
511.401	2197.44
511.617	1958.44
511.833	1877.44
512.049	1886.44
512.265	1874.44
512.481	1868.44
512.698	1908.44
512.914	2056.44
513.13	1986.44
513.346	1895.44
513.562	1847.44
513.778	1869.44
513.994	2012.44
514.21	2008.44
514.426	2022.44
514.642	2238.44
514.858	2132.44
515.074	1941.44
515.29	1874.44
515.506	1922.44
515.721	1982.44
515.937	1994.44
516.153	2248.44
516.369	2173.44
516.585	1998.44
516.801	1985.44
517.016	1935.44
517.232	1984.44
517.448	2076.44
517.664	2053.44
517.879	2060.44
518.095	2142.44
518.311	2047.44
518.527	1978.44
518.742	1951.44
518.958	1886.44
519.173	1888.44
519.389	1926.44
519.605	1924.44
519.82	1931.44
520.036	1927.44
520.251	1912.44
520.467	1909.44
520.682	2065.44
520.898	2141.44
521.113	1908.44
521.329	1820.44
521.544	2035.44
521.76	1988.44
521.975	1845.44
522.19	1814.44
522.406	1818.44
522.621	2148.44
522.836	2189.44
523.052	1797.44
523.267	1820.44
523.482	1817.44
523.698	1727.44
523.913	1720.44
524.128	1782.44
524.343	1860.44
524.559	1911.44
524.774	1744.44
524.989	1732.44
525.204	1714.44
525.419	1692.44
525.634	1714.44
525.849	1723.44
526.064	1698.44
526.28	1765.44
526.495	1674.44
526.71	1656.44
526.925	1656.44
527.14	1709.44
527.355	1657.44
527.57	1640.44
527.785	1673.44
527.999	1648.44
528.214	1606.44
528.429	1625.44
528.644	1604.44
528.859	1629.44
529.074	1640.44
529.289	1660.44
529.503	1651.44
529.718	1690.44
529.933	1626.44
530.148	1584.44
530.363	1586.44
530.577	1622.44
530.792	1637.44
531.007	1656.44
531.221	1614.44
531.436	1677.44
531.651	1703.44
531.865	1771.44
532.08	1718.44
532.295	1576.44
532.509	1562.44
532.724	1595.44
532.938	1659.44
533.153	1784.44
533.367	1690.44
533.582	1659.44
533.796	1612.44
534.011	1622.44
534.225	1653.44
534.44	1623.44
534.654	1562.44
534.868	1591.44
535.083	1670.44
535.297	1662.44
535.511	1626.44
535.726	1625.44
535.94	1620.44
536.154	1606.44
536.369	1586.44
536.583	1547.44
536.797	1541.44
537.011	1608.44
537.225	1560.44
537.44	1522.44
537.654	1577.44
537.868	1547.44
538.082	1472.44
538.296	1493.44
538.51	1478.44
538.724	1471.44
538.938	1511.44
539.153	1528.44
539.367	1544.44
539.581	1514.44
539.795	1596.44
540.009	1564.44
540.222	1511.44
540.436	1584.44
540.65	1701.44
540.864	1723.44
541.078	1602.44
541.292	1498.44
541.506	1518.44
541.72	1515.44
541.934	1536.44
542.147	1512.44
542.361	1508.44
542.575	1444.44
542.789	1433.44
543.002	1437.44
543.216	1460.44
543.43	1543.44
543.644	1579.44
543.857	1631.44
544.071	1595.44
544.285	1559.44
544.498	1478.44
544.712	1504.44
544.925	1552.44
545.139	1561.44
545.352	1514.44
545.566	1449.44
545.779	1434.44
545.993	1445.44
546.206	1500.44
546.42	1435.44
546.633	1434.44
546.847	1414.44
547.06	1390.44
547.274	1428.44
547.487	1449.44
547.7	1409.44
547.914	1406.44
548.127	1458.44
548.34	1469.44
548.554	1478.44
548.767	1472.44
548.98	1455.44
549.193	1491.44
549.407	1492.44
549.62	1498.44
549.833	1438.44
550.046	1420.44
550.259	1416.44
550.473	1420.44
550.686	1404.44
550.899	1373.44
551.112	1370.44
551.325	1364.44
551.538	1494.44
551.751	1701.44
551.964	1408.44
552.177	1369.44
552.39	1354.44
552.603	1409.44
552.816	1426.44
553.029	1476.44
553.242	1500.44
553.455	1434.44
553.667	1418.44
553.88	1448.44
554.093	1457.44
554.306	1347.44
554.519	1353.44
554.732	1332.44
554.944	1320.44
555.157	1374.44
555.37	1346.44
555.583	1326.44
555.795	1280.44
556.008	1273.44
556.221	1256.44
556.433	1237.44
556.646	1236.44
556.859	1218.44
557.071	1216.44
557.284	1202.44
557.496	1195.44
557.709	1218.44
557.921	1214.44
558.134	1202.44
558.346	1178.44
558.559	1215.44
558.771	1216.44
558.984	1158.44
559.196	1137.44
559.409	1147.44
559.621	1150.44
559.833	1178.44
560.046	1227.44
560.258	1172.44
560.47	1162.44
560.683	1162.44
560.895	1187.44
561.107	1176.44
561.32	1180.44
561.532	1205.44
561.744	1174.44
561.956	1166.44
562.168	1168.44
562.381	1129.44
562.593	1134.44
562.805	1141.44
563.017	1122.44
563.229	1162.44
563.441	1167.44
563.653	1150.44
563.865	1156.44
564.077	1174.44
564.289	1161.44
564.501	1190.44
564.713	1168.44
564.925	1241.44
565.137	1308.44
565.349	1227.44
565.561	1196.44
565.773	1204.44
565.985	1241.44
566.197	1318.44
566.408	1376.44
566.62	1393.44
566.832	1396.44
567.044	1382.44
567.255	1376.44
567.467	1412.44
567.679	1411.44
567.891	1458.44
568.102	1453.44
568.314	1400.44
568.526	1285.44
568.737	1284.44
568.949	1203.44
569.161	1172.44
569.372	1121.44
569.584	1129.44
569.795	1138.44
570.007	1104.44
570.218	1069.44
570.43	1046.44
570.641	1033.44
570.853	1052.44
571.064	1037.44
571.276	1045.44
571.487	1020.44
571.698	988.44
571.91	982.44
572.121	966.44
572.333	960.44
572.544	961.44
572.755	929.44
572.966	904.44
573.178	921.44
573.389	967.44
573.6	985.44
573.811	1047.44
574.023	951.44
574.234	906.44
574.445	937.44
574.656	883.44
574.867	844.44
575.078	896.44
575.289	885.44
575.501	884.44
575.712	856.44
575.923	886.44
576.134	874.44
576.345	864.44
576.556	850.44
576.767	832.44
576.978	827.44
577.188	816.44
577.399	823.44
577.61	845.44
577.821	814.44
578.032	806.44
578.243	823.44
578.454	809.44
578.665	807.44
578.875	779.44
579.086	760.44
579.297	804.44
579.508	820.44
579.718	822.44
579.929	800.44
580.14	772.44
580.35	781.44
580.561	822.44
580.772	869.44
580.982	811.44
581.193	774.44
581.403	764.44
581.614	785.44
581.825	752.44
582.035	746.44
582.246	787.44
582.456	774.44
582.667	750.44
582.877	787.44
583.087	724.44
583.298	736.44
583.508	742.44
583.719	754.44
583.929	758.44
584.139	741.44
584.35	705.44
584.56	715.44
584.77	738.44
584.981	731.44
585.191	729.44
585.401	761.44
585.611	735.44
585.821	716.44
586.032	695.44
586.242	710.44
586.452	720.44
586.662	738.44
586.872	725.44
587.082	698.44
587.292	752.44
587.502	742.44
587.713	710.44
587.923	694.44
588.133	692.44
588.343	709.44
588.553	676.44
588.762	723.44
588.972	686.44
589.182	740.44
589.392	736.44
589.602	743.44
589.812	748.44
590.022	701.44
590.232	676.44
590.441	730.44
590.651	718.44
590.861	724.44
591.071	692.44
591.281	702.44
591.49	698.44
591.7	685.44
591.91	708.44
592.119	670.44
592.329	714.44
592.539	733.44
592.748	704.44
592.958	692.44
593.167	734.44
593.377	729.44
593.587	736.44
593.796	736.44
594.006	733.44
594.215	739.44
594.424	742.44
594.634	714.44
594.843	728.44
595.053	728.44
595.262	721.44
595.472	674.44
595.681	684.44
595.89	695.44
596.1	679.44
596.309	661.44
596.518	641.44
596.727	631.44
596.937	653.44
597.146	619.44
597.355	644.44
597.564	638.44
597.774	641.44
597.983	608.44
598.192	617.44
598.401	617.44
598.61	609.44
598.819	604.44
599.028	625.44
599.237	594.44
599.446	600.44
599.655	579.44
599.864	567.44
600.073	595.44
600.282	587.44
600.491	560.44
600.7	584.44
600.909	572.44
601.118	567.44
601.327	568.44
601.536	597.44
601.745	572.44
601.953	571.44
602.162	558.44
602.371	584.44
602.58	558.44
602.789	576.44
602.997	558.44
603.206	570.44
603.415	573.44
603.623	562.44
603.832	570.44
604.041	549.44
604.249	551.44
604.458	537.44
604.666	538.44
604.875	539.44
605.084	555.44
605.292	553.44
605.501	532.44
605.709	539.44
605.918	515.44
606.126	520.44
606.334	513.44
606.543	523.44
606.751	528.44
606.96	534.44
607.168	536.44
607.376	512.44
607.585	523.44
607.793	514.44
608.001	524.44
608.21	518.44
608.418	539.44
608.626	541.44
608.834	512.44
609.043	512.44
609.251	532.44
609.459	533.44
609.667	529.44
609.875	533.44
610.083	527.44
610.291	535.44
610.499	539.44
610.707	509.44
610.916	524.44
611.124	521.44
611.332	522.44
611.54	492.44
611.748	488.44
611.955	489.44
612.163	472.44
612.371	489.44
612.579	501.44
612.787	488.44
612.995	499.44
613.203	512.44
613.411	504.44
613.618	521.44
613.826	492.44
614.034	491.44
614.242	500.44
614.449	491.44
614.657	527.44
614.865	502.44
615.072	479.44
615.28	489.44
615.488	501.44
615.695	516.44
615.903	519.44
616.111	485.44
616.318	506.44
616.526	500.44
616.733	475.44
616.941	481.44
617.148	475.44
617.356	481.44
617.563	496.44
617.771	493.44
617.978	496.44
618.185	456.44
618.393	483.44
618.6	460.44
618.807	473.44
619.015	474.44
619.222	454.44
619.429	457.44
619.637	460.44
619.844	473.44
620.051	432.44
620.258	469.44
620.466	442.44
620.673	441.44
620.88	427.44
621.087	448.44
621.294	440.44
621.501	436.44
621.708	438.44
621.915	451.44
622.122	450.44
622.329	464.44
622.536	455.44
622.743	447.44
622.95	424.44
623.157	429.44
623.364	434.44
623.571	434.44
623.778	422.44
623.985	452.44
624.192	418.44
624.399	429.44
624.606	395.44
624.812	419.44
625.019	415.44
625.226	431.44
625.433	426.44
625.639	429.44
625.846	406.44
626.053	406.44
626.259	398.44
626.466	395.44
626.673	401.44
626.879	399.44
627.086	386.44
627.293	402.44
627.499	388.44
627.706	401.44
627.912	393.44
628.119	391.44
628.325	376.44
628.532	378.44
628.738	405.44
628.945	390.44
629.151	382.44
629.357	397.44
629.564	378.44
629.77	381.44
629.976	376.44
630.183	363.44
630.389	368.44
630.595	390.44
630.802	374.44
631.008	373.44
631.214	373.44
631.42	358.44
631.627	369.44
631.833	360.44
632.039	368.44
632.245	382.44
632.451	368.44
632.657	352.44
632.863	346.44
633.069	353.44
633.275	349.44
633.481	350.44
633.688	335.44
633.893	346.44
634.099	349.44
634.305	340.44
634.511	349.44
634.717	331.44
634.923	347.44
635.129	333.44
635.335	340.44
635.541	353.44
635.747	339.44
635.952	320.44
636.158	339.44
636.364	353.44
636.57	333.44
636.775	334.44
636.981	344.44
637.187	345.44
637.392	332.44
637.598	330.44
637.804	327.44
638.009	327.44
638.215	337.44
638.421	333.44
638.626	320.44
638.832	328.44
639.037	310.44
639.243	312.44
639.448	321.44
639.654	307.44
639.859	315.44
640.065	304.44
640.27	324.44
640.475	313.44
640.681	327.44
640.886	331.44
641.091	306.44
641.297	324.44
641.502	314.44
641.707	324.44
641.913	327.44
642.118	324.44
642.323	298.44
642.528	313.44
642.733	328.44
642.939	315.44
643.144	299.44
643.349	315.44
643.554	300.44
643.759	314.44
643.964	312.44
644.169	300.44
644.374	304.44
644.579	310.44
644.784	325.44
644.989	293.44
645.194	309.44
645.399	317.44
645.604	315.44
645.809	315.44
646.014	309.44
646.219	320.44
646.423	297.44
646.628	296.44
646.833	289.44
647.038	291.44
647.243	319.44
647.447	297.44
647.652	305.44
647.857	310.44
648.062	310.44
648.266	303.44
648.471	316.44
648.676	309.44
648.88	312.44
649.085	302.44
649.289	293.44
649.494	292.44
649.698	292.44
649.903	283.44
650.107	292.44
650.312	289.44
650.516	290.44
650.721	285.44
650.925	274.44
651.13	281.44
651.334	277.44
651.539	249.44
651.743	260.44
651.947	260.44
652.152	262.44
652.356	271.44
652.56	264.44
652.764	244.44
652.969	260.44
653.173	235.44
653.377	249.44
653.581	228.44
653.785	256.44
653.99	226.44
654.194	221.44
654.398	227.44
654.602	242.44
654.806	258.44
655.01	250.44
655.214	247.44
655.418	217.44
655.622	237.44
655.826	241.44
656.03	242.44
656.234	273.44
656.438	255.44
656.642	241.44
656.846	259.44
657.049	248.44
657.253	216.44
657.457	209.44
657.661	198.44
657.865	172.44
658.068	180.44
658.272	170.44
658.476	165.44
658.68	156.44
658.883	140.44
659.087	148.44
659.291	132.44
659.494	138.44
659.698	130.44
659.901	123.44
660.105	129.44
660.309	127.44
660.512	135.44
660.716	109.44
660.919	104.44
661.123	117.44
661.326	104.44
661.53	92.44
661.733	109.44
661.936	105.44
662.14	98.44
662.343	97.44
662.546	100.44
662.75	96.44
662.953	85.44
663.156	104.44
663.36	87.44
663.563	84.44
663.766	86.44
663.969	74.44
664.173	90.44
664.376	102.44
664.579	100.44
664.782	84.44
664.985	91.44
665.188	91.44
665.391	77.44
665.594	84.44
665.797	80.44
666	87.44
666.203	81.44
666.406	101.44
666.609	79.44
666.812	78.44
667.015	73.44
667.218	78.44
667.421	84.44
667.624	82.44
667.827	87.44
668.03	95.44
668.232	87.44
668.435	102.44
668.638	84.44
668.841	77.44
669.043	81.44
669.246	81.44
669.449	80.44
669.651	82.44
669.854	84.44
670.057	78.44
670.259	92.44
670.462	91.44
670.665	74.44
670.867	89.44
671.07	88.44
671.272	90.44
671.475	86.44
671.677	77.44
671.88	77.44
672.082	80.44
672.284	70.44
672.487	80.44
672.689	87.44
672.892	83.44
