Data from WStandard_LampEnergy5.5LIBS07252019.E.O._I.C._HRD10591_16-08-27-920.txt Node
Date: Thu Jul 25 16:08:27 EDT 2019
User: cochatt
Spectrometer: HR+D1059
Trigger mode: 1
Integration Time (sec): 1.000000E-1
Scans to average: 1
Electric dark correction enabled: true
Nonlinearity correction enabled: false
Boxcar width: 0
XAxis mode: Wavelengths
Number of Pixels in Spectrum: 2048
>>>>>Begin Spectral Data<<<<<
223.165	-10.62
223.4	-10.62
223.635	-10.62
223.869	-19.62
224.104	-24.62
224.338	-7.62
224.573	-17.62
224.808	-4.62
225.042	-0.62
225.277	-9.62
225.511	-2.62
225.746	-3.62
225.98	4.38
226.215	-0.62
226.449	11.38
226.683	20.38
226.918	31.38
227.152	34.38
227.387	27.38
227.621	33.38
227.856	49.38
228.09	39.38
228.324	53.38
228.559	65.38
228.793	122.38
229.027	351.38
229.262	347.38
229.496	357.38
229.73	377.38
229.964	425.38
230.199	431.38
230.433	431.38
230.667	480.38
230.901	515.38
231.136	477.38
231.37	435.38
231.604	442.38
231.838	445.38
232.072	461.38
232.306	427.38
232.541	465.38
232.775	534.38
233.009	565.38
233.243	561.38
233.477	507.38
233.711	519.38
233.945	543.38
234.179	529.38
234.413	564.38
234.647	612.38
234.881	581.38
235.115	535.38
235.349	520.38
235.583	543.38
235.817	533.38
236.051	511.38
236.285	521.38
236.519	564.38
236.753	650.38
236.987	659.38
237.221	639.38
237.455	711.38
237.689	671.38
237.922	660.38
238.156	628.38
238.39	652.38
238.624	664.38
238.858	713.38
239.091	725.38
239.325	744.38
239.559	892.38
239.793	905.38
240.027	980.38
240.26	969.38
240.494	771.38
240.728	687.38
240.961	715.38
241.195	700.38
241.429	763.38
241.662	771.38
241.896	710.38
242.13	722.38
242.363	831.38
242.597	885.38
242.83	867.38
243.064	829.38
243.298	921.38
243.531	883.38
243.765	856.38
243.998	909.38
244.232	795.38
244.465	707.38
244.699	768.38
244.932	857.38
245.166	1035.38
245.399	961.38
245.633	833.38
245.866	857.38
246.099	889.38
246.333	915.38
246.566	908.38
246.8	1037.38
247.033	1130.38
247.266	1036.38
247.5	1012.38
247.733	1017.38
247.966	1077.38
248.2	1215.38
248.433	1109.38
248.666	1149.38
248.899	1286.38
249.133	1475.38
249.366	1669.38
249.599	1332.38
249.832	1193.38
250.066	1241.38
250.299	1220.38
250.532	1153.38
250.765	1022.38
250.998	1119.38
251.231	1180.38
251.465	1183.38
251.698	1129.38
251.931	1129.38
252.164	1161.38
252.397	1215.38
252.63	1217.38
252.863	1034.38
253.096	1059.38
253.329	1098.38
253.562	1099.38
253.795	1220.38
254.028	1235.38
254.261	1151.38
254.494	1109.38
254.727	1051.38
254.96	1076.38
255.193	1177.38
255.426	1351.38
255.659	1555.38
255.892	1607.38
256.124	1340.38
256.357	1253.38
256.59	1365.38
256.823	1375.38
257.056	1355.38
257.289	1632.38
257.521	1843.38
257.754	1611.38
257.987	1496.38
258.22	1734.38
258.452	1651.38
258.685	1327.38
258.918	1309.38
259.151	1373.38
259.383	1258.38
259.616	1123.38
259.849	1179.38
260.081	1350.38
260.314	1467.38
260.547	1624.38
260.779	1649.38
261.012	1559.38
261.244	1370.38
261.477	1304.38
261.71	1319.38
261.942	1345.38
262.175	1315.38
262.407	1395.38
262.64	1306.38
262.872	1239.38
263.105	1191.38
263.337	1200.38
263.57	1225.38
263.802	1223.38
264.035	1165.38
264.267	1087.38
264.499	1065.38
264.732	1111.38
264.964	1228.38
265.197	1260.38
265.429	1364.38
265.661	1481.38
265.894	1597.38
266.126	1670.38
266.358	1514.38
266.591	1553.38
266.823	1716.38
267.055	1505.38
267.287	1533.38
267.52	1507.38
267.752	1446.38
267.984	1440.38
268.216	1549.38
268.448	1549.38
268.681	1574.38
268.913	1434.38
269.145	1385.38
269.377	1307.38
269.609	1414.38
269.841	1645.38
270.073	1888.38
270.306	2133.38
270.538	2274.38
270.77	1960.38
271.002	1661.38
271.234	1574.38
271.466	1563.38
271.698	1714.38
271.93	2115.38
272.162	2084.38
272.394	1855.38
272.626	1820.38
272.858	1583.38
273.09	1375.38
273.322	1386.38
273.553	1312.38
273.785	1348.38
274.017	1372.38
274.249	1490.38
274.481	1493.38
274.713	1387.38
274.945	1317.38
275.176	1377.38
275.408	1339.38
275.64	1331.38
275.872	1281.38
276.104	1395.38
276.335	1563.38
276.567	1786.38
276.799	1807.38
277.031	1628.38
277.262	1506.38
277.494	1578.38
277.726	1785.38
277.957	1739.38
278.189	1583.38
278.421	1479.38
278.652	1422.38
278.884	1380.38
279.115	1366.38
279.347	1427.38
279.579	1397.38
279.81	1361.38
280.042	1519.38
280.273	1689.38
280.505	1657.38
280.736	1685.38
280.968	1624.38
281.199	1413.38
281.431	1357.38
281.662	1354.38
281.894	1396.38
282.125	1414.38
282.356	1460.38
282.588	1483.38
282.819	1473.38
283.051	1545.38
283.282	1732.38
283.513	1685.38
283.745	1455.38
283.976	1332.38
284.207	1323.38
284.439	1402.38
284.67	1398.38
284.901	1431.38
285.132	1475.38
285.364	1471.38
285.595	1439.38
285.826	1414.38
286.057	1398.38
286.288	1418.38
286.52	1503.38
286.751	1605.38
286.982	1604.38
287.213	1510.38
287.444	1400.38
287.675	1372.38
287.906	1448.38
288.138	1514.38
288.369	1540.38
288.6	1431.38
288.831	1392.38
289.062	1439.38
289.293	1408.38
289.524	1432.38
289.755	1503.38
289.986	1511.38
290.217	1352.38
290.448	1428.38
290.679	1427.38
290.91	1451.38
291.141	1507.38
291.371	1542.38
291.602	1556.38
291.833	1503.38
292.064	1587.38
292.295	1503.38
292.526	1562.38
292.757	1685.38
292.987	1570.38
293.218	1439.38
293.449	1563.38
293.68	1817.38
293.91	1958.38
294.141	1779.38
294.372	1685.38
294.603	1711.38
294.833	1828.38
295.064	1697.38
295.295	1562.38
295.525	1526.38
295.756	1406.38
295.987	1323.38
296.217	1351.38
296.448	1410.38
296.679	1445.38
296.909	1418.38
297.14	1399.38
297.37	1401.38
297.601	1522.38
297.831	1615.38
298.062	1659.38
298.292	1503.38
298.523	1450.38
298.753	1418.38
298.984	1453.38
299.214	1445.38
299.445	1475.38
299.675	1561.38
299.905	1500.38
300.136	1446.38
300.366	1472.38
300.597	1412.38
300.827	1379.38
301.057	1445.38
301.288	1555.38
301.518	1523.38
301.748	1552.38
301.979	1656.38
302.209	1658.38
302.439	1745.38
302.669	1878.38
302.9	1752.38
303.13	1571.38
303.36	1537.38
303.59	1572.38
303.82	1567.38
304.051	1511.38
304.281	1565.38
304.511	1547.38
304.741	1643.38
304.971	1793.38
305.201	1997.38
305.431	1840.38
305.661	1539.38
305.891	1370.38
306.121	1346.38
306.352	1440.38
306.582	1467.38
306.812	1590.38
307.042	1696.38
307.272	1727.38
307.502	1757.38
307.731	1899.38
307.961	2032.38
308.191	1871.38
308.421	1627.38
308.651	1497.38
308.881	1466.38
309.111	1483.38
309.341	1481.38
309.571	1491.38
309.8	1507.38
310.03	1478.38
310.26	1481.38
310.49	1493.38
310.72	1498.38
310.949	1569.38
311.179	1607.38
311.409	1546.38
311.639	1540.38
311.868	1537.38
312.098	1524.38
312.328	1520.38
312.557	1496.38
312.787	1496.38
313.017	1561.38
313.246	1538.38
313.476	1558.38
313.706	1579.38
313.935	1562.38
314.165	1576.38
314.394	1652.38
314.624	1701.38
314.853	1803.38
315.083	1916.38
315.312	1912.38
315.542	1844.38
315.771	1617.38
316.001	1574.38
316.23	1696.38
316.46	1721.38
316.689	1667.38
316.919	1585.38
317.148	1513.38
317.377	1539.38
317.607	1671.38
317.836	1830.38
318.065	1919.38
318.295	1825.38
318.524	1772.38
318.753	1682.38
318.983	1691.38
319.212	1665.38
319.441	1611.38
319.67	1606.38
319.9	1597.38
320.129	1704.38
320.358	1760.38
320.587	1808.38
320.816	1812.38
321.046	1764.38
321.275	1674.38
321.504	1676.38
321.733	1849.38
321.962	1808.38
322.191	1656.38
322.42	1620.38
322.649	1577.38
322.878	1598.38
323.108	1595.38
323.337	1661.38
323.566	1709.38
323.795	1740.38
324.024	1732.38
324.253	1657.38
324.482	1676.38
324.71	1622.38
324.939	1563.38
325.168	1573.38
325.397	1595.38
325.626	1679.38
325.855	1681.38
326.084	1626.38
326.313	1634.38
326.542	1637.38
326.77	1718.38
326.999	1697.38
327.228	1633.38
327.457	1535.38
327.686	1508.38
327.914	1562.38
328.143	1664.38
328.372	1624.38
328.6	1580.38
328.829	1642.38
329.058	1579.38
329.287	1589.38
329.515	1634.38
329.744	1684.38
329.972	1743.38
330.201	1823.38
330.43	1771.38
330.658	1707.38
330.887	1696.38
331.115	1703.38
331.344	1710.38
331.572	1692.38
331.801	1652.38
332.03	1700.38
332.258	1725.38
332.486	1737.38
332.715	1765.38
332.943	1760.38
333.172	1684.38
333.4	1712.38
333.629	1747.38
333.857	1841.38
334.085	2034.38
334.314	2305.38
334.542	2536.38
334.771	2369.38
334.999	2099.38
335.227	1931.38
335.455	1829.38
335.684	1840.38
335.912	1869.38
336.14	1920.38
336.369	1868.38
336.597	1740.38
336.825	1708.38
337.053	1783.38
337.281	1902.38
337.51	2001.38
337.738	2062.38
337.966	2005.38
338.194	1805.38
338.422	1738.38
338.65	1687.38
338.878	1662.38
339.106	1657.38
339.334	1641.38
339.562	1619.38
339.79	1649.38
340.018	1724.38
340.246	1817.38
340.474	1779.38
340.702	1747.38
340.93	1742.38
341.158	1762.38
341.386	1717.38
341.614	1728.38
341.842	1724.38
342.07	1698.38
342.298	1711.38
342.526	1701.38
342.754	1690.38
342.981	1641.38
343.209	1672.38
343.437	1684.38
343.665	1713.38
343.893	1706.38
344.12	1825.38
344.348	1858.38
344.576	1794.38
344.804	1677.38
345.031	1709.38
345.259	1713.38
345.487	1646.38
345.714	1578.38
345.942	1562.38
346.17	1562.38
346.397	1622.38
346.625	1612.38
346.853	1561.38
347.08	1456.38
347.308	1555.38
347.535	1567.38
347.763	1634.38
347.99	1599.38
348.218	1512.38
348.445	1555.38
348.673	1569.38
348.9	1603.38
349.128	1652.38
349.355	1698.38
349.583	1685.38
349.81	1568.38
350.037	1479.38
350.265	1477.38
350.492	1498.38
350.72	1527.38
350.947	1575.38
351.174	1641.38
351.402	1529.38
351.629	1464.38
351.856	1431.38
352.083	1471.38
352.311	1456.38
352.538	1481.38
352.765	1567.38
352.992	1636.38
353.22	1570.38
353.447	1511.38
353.674	1529.38
353.901	1537.38
354.128	1502.38
354.355	1546.38
354.583	1583.38
354.81	1610.38
355.037	1634.38
355.264	1629.38
355.491	1554.38
355.718	1591.38
355.945	1545.38
356.172	1521.38
356.399	1497.38
356.626	1524.38
356.853	1541.38
357.08	1649.38
357.307	1855.38
357.534	1855.38
357.761	1644.38
357.988	1513.38
358.215	1465.38
358.441	1487.38
358.668	1470.38
358.895	1536.38
359.122	1597.38
359.349	1715.38
359.576	1735.38
359.802	1538.38
360.029	1503.38
360.256	1484.38
360.483	1547.38
360.709	1572.38
360.936	1596.38
361.163	1643.38
361.39	1801.38
361.616	1973.38
361.843	1884.38
362.07	1777.38
362.296	1590.38
362.523	1559.38
362.749	1488.38
362.976	1539.38
363.203	1587.38
363.429	1585.38
363.656	1465.38
363.882	1531.38
364.109	1690.38
364.335	1851.38
364.562	1749.38
364.788	1641.38
365.015	1577.38
365.241	1515.38
365.468	1567.38
365.694	1606.38
365.92	1697.38
366.147	1611.38
366.373	1521.38
366.599	1468.38
366.826	1472.38
367.052	1533.38
367.278	1546.38
367.505	1547.38
367.731	1594.38
367.957	1618.38
368.184	1585.38
368.41	1689.38
368.636	1740.38
368.862	1732.38
369.089	1764.38
369.315	1706.38
369.541	1649.38
369.767	1578.38
369.993	1531.38
370.219	1580.38
370.445	1546.38
370.672	1672.38
370.898	1734.38
371.124	1728.38
371.35	1642.38
371.576	1686.38
371.802	1693.38
372.028	1656.38
372.254	1611.38
372.48	1570.38
372.706	1595.38
372.932	1573.38
373.158	1575.38
373.384	1611.38
373.61	1658.38
373.835	1769.38
374.061	1634.38
374.287	1620.38
374.513	1635.38
374.739	1612.38
374.965	1669.38
375.191	1668.38
375.416	1677.38
375.642	1696.38
375.868	1751.38
376.094	1883.38
376.319	1752.38
376.545	1651.38
376.771	1675.38
376.997	1703.38
377.222	1719.38
377.448	1674.38
377.674	1702.38
377.899	1690.38
378.125	1789.38
378.35	1813.38
378.576	1632.38
378.802	1589.38
379.027	1596.38
379.253	1591.38
379.478	1611.38
379.704	1578.38
379.929	1604.38
380.155	1634.38
380.38	1640.38
380.606	1674.38
380.831	1615.38
381.057	1718.38
381.282	1739.38
381.507	1665.38
381.733	1749.38
381.958	1874.38
382.184	1745.38
382.409	1693.38
382.634	1704.38
382.86	1702.38
383.085	1711.38
383.31	1761.38
383.535	1884.38
383.761	1944.38
383.986	1880.38
384.211	1820.38
384.436	1786.38
384.662	1884.38
384.887	1921.38
385.112	1850.38
385.337	1907.38
385.562	1859.38
385.787	1885.38
386.013	1896.38
386.238	1915.38
386.463	1891.38
386.688	2005.38
386.913	2099.38
387.138	2028.38
387.363	1899.38
387.588	1917.38
387.813	1856.38
388.038	1908.38
388.263	1976.38
388.488	1959.38
388.713	1781.38
388.938	1783.38
389.163	1787.38
389.387	1812.38
389.612	1826.38
389.837	1872.38
390.062	1905.38
390.287	1898.38
390.512	1859.38
390.736	1833.38
390.961	1790.38
391.186	1760.38
391.411	1768.38
391.636	1820.38
391.86	1847.38
392.085	1858.38
392.31	1801.38
392.534	1867.38
392.759	1877.38
392.984	1869.38
393.208	1855.38
393.433	1918.38
393.658	1949.38
393.882	1989.38
394.107	1919.38
394.331	1878.38
394.556	1811.38
394.78	1879.38
395.005	1896.38
395.229	1987.38
395.454	2119.38
395.678	2140.38
395.903	2055.38
396.127	1948.38
396.352	2013.38
396.576	2045.38
396.801	2042.38
397.025	2027.38
397.249	2045.38
397.474	2005.38
397.698	1938.38
397.922	2049.38
398.147	2115.38
398.371	2254.38
398.595	2216.38
398.82	2103.38
399.044	2122.38
399.268	2247.38
399.492	2395.38
399.717	2470.38
399.941	2498.38
400.165	2401.38
400.389	2365.38
400.613	2347.38
400.837	2541.38
401.062	2967.38
401.286	2590.38
401.51	2297.38
401.734	2384.38
401.958	2354.38
402.182	2165.38
402.406	2125.38
402.63	2104.38
402.854	2061.38
403.078	2131.38
403.302	2185.38
403.526	2248.38
403.75	2183.38
403.974	2203.38
404.198	2210.38
404.422	2257.38
404.645	2409.38
404.869	2388.38
405.093	2164.38
405.317	2131.38
405.541	2212.38
405.765	2227.38
405.988	2205.38
406.212	2231.38
406.436	2284.38
406.66	2339.38
406.883	2339.38
407.107	2603.38
407.331	2857.38
407.555	3123.38
407.778	2843.38
408.002	2388.38
408.226	2307.38
408.449	2374.38
408.673	2227.38
408.896	2241.38
409.12	2305.38
409.344	2252.38
409.567	2200.38
409.791	2207.38
410.014	2253.38
410.238	2370.38
410.461	2545.38
410.685	2279.38
410.908	2146.38
411.132	2201.38
411.355	2208.38
411.578	2108.38
411.802	2119.38
412.025	2201.38
412.249	2138.38
412.472	2069.38
412.695	2109.38
412.919	2115.38
413.142	2098.38
413.365	2112.38
413.589	2162.38
413.812	2267.38
414.035	2322.38
414.258	2187.38
414.482	2118.38
414.705	2160.38
414.928	2072.38
415.151	2080.38
415.374	2095.38
415.597	2117.38
415.821	2188.38
416.044	2273.38
416.267	2208.38
416.49	2055.38
416.713	2027.38
416.936	2071.38
417.159	2153.38
417.382	2167.38
417.605	2047.38
417.828	2124.38
418.051	2193.38
418.274	2117.38
418.497	2039.38
418.72	2073.38
418.943	2027.38
419.166	2156.38
419.389	2254.38
419.611	2132.38
419.834	2035.38
420.057	2087.38
420.28	2026.38
420.503	2048.38
420.726	2061.38
420.948	2090.38
421.171	1992.38
421.394	2014.38
421.617	2096.38
421.839	2069.38
422.062	2027.38
422.285	1967.38
422.507	2016.38
422.73	1948.38
422.953	1955.38
423.175	1965.38
423.398	2050.38
423.621	2049.38
423.843	2038.38
424.066	2084.38
424.288	2143.38
424.511	2164.38
424.733	2111.38
424.956	1910.38
425.178	1938.38
425.401	1947.38
425.623	1974.38
425.846	1936.38
426.068	2080.38
426.291	2140.38
426.513	2093.38
426.735	2060.38
426.958	2182.38
427.18	2337.38
427.402	2145.38
427.625	2243.38
427.847	2229.38
428.069	2069.38
428.292	2023.38
428.514	1948.38
428.736	1925.38
428.958	1933.38
429.181	1985.38
429.403	2214.38
429.625	2775.38
429.847	2404.38
430.069	2038.38
430.292	2225.38
430.514	2287.38
430.736	2154.38
430.958	2220.38
431.18	2159.38
431.402	1977.38
431.624	1920.38
431.846	1948.38
432.068	1915.38
432.29	1933.38
432.512	1996.38
432.734	1996.38
432.956	2044.38
433.178	2161.38
433.4	2157.38
433.622	2152.38
433.844	2012.38
434.066	1918.38
434.287	1972.38
434.509	2021.38
434.731	2089.38
434.953	2199.38
435.175	2226.38
435.397	2108.38
435.618	2075.38
435.84	2106.38
436.062	2061.38
436.284	2068.38
436.505	2081.38
436.727	2069.38
436.949	2032.38
437.17	1979.38
437.392	1965.38
437.614	1988.38
437.835	1912.38
438.057	2093.38
438.278	2177.38
438.5	1991.38
438.721	1935.38
438.943	1925.38
439.165	1937.38
439.386	1890.38
439.608	1951.38
439.829	1932.38
440.05	1960.38
440.272	1933.38
440.493	1955.38
440.715	1973.38
440.936	2085.38
441.158	2294.38
441.379	2274.38
441.6	2181.38
441.822	2126.38
442.043	2098.38
442.264	2033.38
442.486	1933.38
442.707	1952.38
442.928	1950.38
443.149	1986.38
443.371	2104.38
443.592	2211.38
443.813	2151.38
444.034	2143.38
444.255	2152.38
444.476	2219.38
444.698	2219.38
444.919	2179.38
445.14	2362.38
445.361	2279.38
445.582	2359.38
445.803	2268.38
446.024	2151.38
446.245	2237.38
446.466	2165.38
446.687	2060.38
446.908	2005.38
447.129	1983.38
447.35	2045.38
447.571	2023.38
447.792	1933.38
448.013	1927.38
448.234	1975.38
448.455	2015.38
448.675	2056.38
448.896	1886.38
449.117	1888.38
449.338	1936.38
449.559	2037.38
449.779	2111.38
450	2279.38
450.221	2509.38
450.442	2433.38
450.662	2111.38
450.883	1867.38
451.104	1809.38
451.324	1876.38
451.545	1938.38
451.766	1962.38
451.986	1871.38
452.207	1816.38
452.428	1787.38
452.648	1752.38
452.869	1824.38
453.089	1915.38
453.31	1890.38
453.53	1980.38
453.751	1884.38
453.971	1793.38
454.192	1839.38
454.412	1953.38
454.633	1875.38
454.853	1819.38
455.073	1706.38
455.294	1698.38
455.514	1716.38
455.734	1728.38
455.955	1772.38
456.175	1754.38
456.395	1786.38
456.616	1791.38
456.836	1837.38
457.056	1800.38
457.276	1812.38
457.497	1731.38
457.717	1740.38
457.937	1764.38
458.157	1775.38
458.377	1797.38
458.598	1752.38
458.818	1751.38
459.038	1887.38
459.258	2020.38
459.478	1991.38
459.698	1918.38
459.918	1996.38
460.138	2059.38
460.358	2090.38
460.578	2112.38
460.798	2191.38
461.018	2289.38
461.238	2147.38
461.458	2053.38
461.678	2091.38
461.898	2089.38
462.118	2012.38
462.338	2095.38
462.558	2086.38
462.777	2113.38
462.997	2202.38
463.217	2289.38
463.437	2331.38
463.657	2160.38
463.876	2130.38
464.096	2071.38
464.316	2084.38
464.536	2169.38
464.755	2180.38
464.975	2210.38
465.195	2095.38
465.414	2218.38
465.634	2228.38
465.854	2112.38
466.073	2220.38
466.293	2194.38
466.512	1984.38
466.732	1952.38
466.951	1990.38
467.171	2018.38
467.391	1900.38
467.61	1840.38
467.829	1911.38
468.049	2006.38
468.268	2284.38
468.488	2157.38
468.707	2022.38
468.927	1969.38
469.146	1948.38
469.365	1878.38
469.585	1913.38
469.804	1922.38
470.023	1920.38
470.243	1938.38
470.462	1910.38
470.681	1832.38
470.901	1907.38
471.12	1948.38
471.339	1916.38
471.558	1843.38
471.777	1803.38
471.997	1879.38
472.216	1875.38
472.435	1835.38
472.654	1843.38
472.873	1927.38
473.092	2086.38
473.311	1963.38
473.53	1838.38
473.749	1810.38
473.968	1860.38
474.187	1992.38
474.406	2110.38
474.625	1958.38
474.844	1942.38
475.063	1942.38
475.282	2001.38
475.501	1947.38
475.72	1921.38
475.939	2020.38
476.158	1988.38
476.377	1915.38
476.596	1953.38
476.814	2023.38
477.033	2048.38
477.252	2128.38
477.471	2178.38
477.69	2052.38
477.908	1997.38
478.127	2167.38
478.346	2313.38
478.564	2311.38
478.783	2287.38
479.002	2346.38
479.22	2305.38
479.439	2415.38
479.658	2723.38
479.876	2678.38
480.095	2332.38
480.313	2229.38
480.532	2167.38
480.751	2132.38
480.969	2231.38
481.188	2186.38
481.406	2139.38
481.624	2108.38
481.843	2106.38
482.061	2187.38
482.28	2261.38
482.498	2260.38
482.717	2208.38
482.935	2127.38
483.153	2161.38
483.372	2174.38
483.59	2135.38
483.808	2159.38
484.027	2191.38
484.245	2346.38
484.463	2679.38
484.681	3053.38
484.9	2342.38
485.118	2227.38
485.336	2178.38
485.554	2255.38
485.772	2372.38
485.99	2341.38
486.209	2360.38
486.427	2327.38
486.645	2308.38
486.863	2265.38
487.081	2348.38
487.299	2401.38
487.517	2345.38
487.735	2256.38
487.953	2208.38
488.171	2232.38
488.389	2215.38
488.607	2207.38
488.825	2428.38
489.043	2531.38
489.261	2230.38
489.479	2349.38
489.696	2420.38
489.914	2401.38
490.132	2253.38
490.35	2269.38
490.568	2346.38
490.786	2276.38
491.003	2203.38
491.221	2265.38
491.439	2355.38
491.657	2276.38
491.874	2349.38
492.092	2363.38
492.31	2330.38
492.527	2275.38
492.745	2282.38
492.963	2315.38
493.18	2347.38
493.398	2559.38
493.615	2656.38
493.833	2378.38
494.05	2357.38
494.268	2317.38
494.485	2415.38
494.703	2351.38
494.92	2312.38
495.138	2301.38
495.355	2328.38
495.573	2424.38
495.79	2604.38
496.008	2601.38
496.225	2409.38
496.442	2451.38
496.66	2511.38
496.877	2470.38
497.094	2563.38
497.312	2596.38
497.529	2554.38
497.746	2581.38
497.963	3063.38
498.181	3397.38
498.398	3143.38
498.615	3068.38
498.832	2986.38
499.049	2979.38
499.267	2944.38
499.484	3127.38
499.701	3461.38
499.918	3500.38
500.135	3618.38
500.352	3909.38
500.569	3853.38
500.786	4152.38
501.003	3859.38
501.22	3487.38
501.437	3440.38
501.654	3497.38
501.871	3352.38
502.088	2951.38
502.305	2956.38
502.522	2826.38
502.739	2625.38
502.956	2593.38
503.172	2566.38
503.389	2546.38
503.606	2474.38
503.823	2490.38
504.04	2458.38
504.256	2468.38
504.473	2465.38
504.69	2520.38
504.907	2388.38
505.123	2333.38
505.34	2443.38
505.557	3108.38
505.773	2690.38
505.99	2231.38
506.207	2154.38
506.423	2122.38
506.64	2087.38
506.856	2119.38
507.073	2387.38
507.289	2565.38
507.506	2473.38
507.722	2140.38
507.939	2051.38
508.155	2095.38
508.372	2095.38
508.588	2019.38
508.805	1939.38
509.021	1928.38
509.238	1898.38
509.454	1941.38
509.67	1946.38
509.887	1928.38
510.103	1919.38
510.319	1923.38
510.536	2027.38
510.752	2079.38
510.968	2092.38
511.184	2241.38
511.401	2208.38
511.617	1912.38
511.833	1861.38
512.049	1832.38
512.265	1839.38
512.481	1850.38
512.698	1945.38
512.914	2061.38
513.13	1973.38
513.346	1903.38
513.562	1848.38
513.778	1856.38
513.994	1990.38
514.21	2065.38
514.426	2065.38
514.642	2293.38
514.858	2158.38
515.074	1913.38
515.29	1887.38
515.506	1935.38
515.721	1975.38
515.937	1961.38
516.153	2230.38
516.369	2191.38
516.585	2040.38
516.801	1996.38
517.016	1957.38
517.232	2002.38
517.448	2003.38
517.664	2057.38
517.879	2097.38
518.095	2167.38
518.311	2112.38
518.527	1989.38
518.742	1953.38
518.958	1896.38
519.173	1906.38
519.389	1887.38
519.605	1925.38
519.82	1919.38
520.036	1952.38
520.251	1867.38
520.467	1905.38
520.682	2056.38
520.898	2155.38
521.113	1883.38
521.329	1859.38
521.544	2048.38
521.76	1893.38
521.975	1856.38
522.19	1785.38
522.406	1770.38
522.621	2125.38
522.836	2223.38
523.052	1793.38
523.267	1793.38
523.482	1802.38
523.698	1736.38
523.913	1649.38
524.128	1679.38
524.343	1802.38
524.559	1842.38
524.774	1747.38
524.989	1729.38
525.204	1688.38
525.419	1689.38
525.634	1651.38
525.849	1740.38
526.064	1753.38
526.28	1755.38
526.495	1658.38
526.71	1617.38
526.925	1691.38
527.14	1626.38
527.355	1595.38
527.57	1604.38
527.785	1709.38
527.999	1615.38
528.214	1610.38
528.429	1569.38
528.644	1606.38
528.859	1595.38
529.074	1635.38
529.289	1629.38
529.503	1665.38
529.718	1695.38
529.933	1656.38
530.148	1571.38
530.363	1580.38
530.577	1606.38
530.792	1648.38
531.007	1661.38
531.221	1612.38
531.436	1687.38
531.651	1689.38
531.865	1809.38
532.08	1664.38
532.295	1566.38
532.509	1547.38
532.724	1576.38
532.938	1652.38
533.153	1744.38
533.367	1660.38
533.582	1627.38
533.796	1607.38
534.011	1617.38
534.225	1645.38
534.44	1591.38
534.654	1553.38
534.868	1572.38
535.083	1643.38
535.297	1671.38
535.511	1591.38
535.726	1586.38
535.94	1587.38
536.154	1591.38
536.369	1562.38
536.583	1551.38
536.797	1532.38
537.011	1589.38
537.225	1564.38
537.44	1521.38
537.654	1565.38
537.868	1535.38
538.082	1466.38
538.296	1428.38
538.51	1480.38
538.724	1469.38
538.938	1476.38
539.153	1525.38
539.367	1532.38
539.581	1535.38
539.795	1592.38
540.009	1548.38
540.222	1512.38
540.436	1553.38
540.65	1726.38
540.864	1687.38
541.078	1595.38
541.292	1462.38
541.506	1507.38
541.72	1544.38
541.934	1508.38
542.147	1585.38
542.361	1523.38
542.575	1484.38
542.789	1454.38
543.002	1431.38
543.216	1442.38
543.43	1560.38
543.644	1614.38
543.857	1667.38
544.071	1554.38
544.285	1515.38
544.498	1516.38
544.712	1513.38
544.925	1545.38
545.139	1580.38
545.352	1508.38
545.566	1421.38
545.779	1389.38
545.993	1460.38
546.206	1475.38
546.42	1439.38
546.633	1405.38
546.847	1399.38
547.06	1416.38
547.274	1431.38
547.487	1406.38
547.7	1427.38
547.914	1416.38
548.127	1475.38
548.34	1452.38
548.554	1446.38
548.767	1448.38
548.98	1449.38
549.193	1415.38
549.407	1498.38
549.62	1500.38
549.833	1461.38
550.046	1432.38
550.259	1426.38
550.473	1421.38
550.686	1417.38
550.899	1397.38
551.112	1327.38
551.325	1333.38
551.538	1430.38
551.751	1648.38
551.964	1407.38
552.177	1355.38
552.39	1360.38
552.603	1413.38
552.816	1416.38
553.029	1457.38
553.242	1533.38
553.455	1443.38
553.667	1375.38
553.88	1409.38
554.093	1393.38
554.306	1331.38
554.519	1322.38
554.732	1333.38
554.944	1347.38
555.157	1397.38
555.37	1351.38
555.583	1352.38
555.795	1279.38
556.008	1273.38
556.221	1228.38
556.433	1221.38
556.646	1249.38
556.859	1233.38
557.071	1233.38
557.284	1192.38
557.496	1238.38
557.709	1181.38
557.921	1154.38
558.134	1159.38
558.346	1203.38
558.559	1188.38
558.771	1188.38
558.984	1164.38
559.196	1147.38
559.409	1145.38
559.621	1124.38
559.833	1162.38
560.046	1212.38
560.258	1159.38
560.47	1146.38
560.683	1149.38
560.895	1173.38
561.107	1179.38
561.32	1190.38
561.532	1221.38
561.744	1153.38
561.956	1202.38
562.168	1155.38
562.381	1150.38
562.593	1136.38
562.805	1130.38
563.017	1122.38
563.229	1158.38
563.441	1133.38
563.653	1140.38
563.865	1159.38
564.077	1147.38
564.289	1146.38
564.501	1161.38
564.713	1195.38
564.925	1234.38
565.137	1283.38
565.349	1177.38
565.561	1207.38
565.773	1214.38
565.985	1243.38
566.197	1289.38
566.408	1393.38
566.62	1378.38
566.832	1386.38
567.044	1384.38
567.255	1347.38
567.467	1365.38
567.679	1409.38
567.891	1451.38
568.102	1428.38
568.314	1344.38
568.526	1285.38
568.737	1285.38
568.949	1221.38
569.161	1155.38
569.372	1107.38
569.584	1119.38
569.795	1116.38
570.007	1107.38
570.218	1072.38
570.43	1040.38
570.641	1071.38
570.853	1031.38
571.064	1049.38
571.276	1033.38
571.487	1017.38
571.698	1000.38
571.91	984.38
572.121	953.38
572.333	959.38
572.544	964.38
572.755	936.38
572.966	916.38
573.178	923.38
573.389	920.38
573.6	939.38
573.811	1024.38
574.023	967.38
574.234	930.38
574.445	880.38
574.656	869.38
574.867	874.38
575.078	903.38
575.289	895.38
575.501	852.38
575.712	876.38
575.923	859.38
576.134	908.38
576.345	865.38
576.556	843.38
576.767	822.38
576.978	833.38
577.188	815.38
577.399	812.38
577.61	817.38
577.821	837.38
578.032	778.38
578.243	811.38
578.454	778.38
578.665	800.38
578.875	790.38
579.086	771.38
579.297	797.38
579.508	842.38
579.718	821.38
579.929	785.38
580.14	775.38
580.35	784.38
580.561	771.38
580.772	842.38
580.982	815.38
581.193	770.38
581.403	761.38
581.614	746.38
581.825	752.38
582.035	749.38
582.246	757.38
582.456	777.38
582.667	774.38
582.877	750.38
583.087	744.38
583.298	743.38
583.508	719.38
583.719	720.38
583.929	723.38
584.139	754.38
584.35	707.38
584.56	731.38
584.77	758.38
584.981	732.38
585.191	725.38
585.401	758.38
585.611	716.38
585.821	696.38
586.032	724.38
586.242	694.38
586.452	722.38
586.662	725.38
586.872	727.38
587.082	701.38
587.292	727.38
587.502	742.38
587.713	735.38
587.923	713.38
588.133	692.38
588.343	716.38
588.553	693.38
588.762	680.38
588.972	672.38
589.182	720.38
589.392	698.38
589.602	730.38
589.812	718.38
590.022	680.38
590.232	675.38
590.441	685.38
590.651	709.38
590.861	690.38
591.071	697.38
591.281	664.38
591.49	685.38
591.7	689.38
591.91	680.38
592.119	682.38
592.329	707.38
592.539	733.38
592.748	736.38
592.958	704.38
593.167	724.38
593.377	725.38
593.587	728.38
593.796	716.38
594.006	738.38
594.215	738.38
594.424	741.38
594.634	696.38
594.843	693.38
595.053	707.38
595.262	704.38
595.472	663.38
595.681	687.38
595.89	675.38
596.1	640.38
596.309	664.38
596.518	635.38
596.727	653.38
596.937	644.38
597.146	628.38
597.355	613.38
597.564	613.38
597.774	597.38
597.983	605.38
598.192	614.38
598.401	594.38
598.61	583.38
598.819	583.38
599.028	592.38
599.237	605.38
599.446	604.38
599.655	594.38
599.864	577.38
600.073	572.38
600.282	571.38
600.491	580.38
600.7	573.38
600.909	550.38
601.118	545.38
601.327	567.38
601.536	577.38
601.745	571.38
601.953	561.38
602.162	575.38
602.371	592.38
602.58	572.38
602.789	581.38
602.997	570.38
603.206	568.38
603.415	562.38
603.623	556.38
603.832	548.38
604.041	541.38
604.249	526.38
604.458	532.38
604.666	543.38
604.875	555.38
605.084	556.38
605.292	532.38
605.501	512.38
605.709	545.38
605.918	538.38
606.126	542.38
606.334	537.38
606.543	534.38
606.751	526.38
606.96	546.38
607.168	543.38
607.376	504.38
607.585	524.38
607.793	528.38
608.001	522.38
608.21	532.38
608.418	531.38
608.626	520.38
608.834	521.38
609.043	517.38
609.251	531.38
609.459	508.38
609.667	513.38
609.875	519.38
610.083	524.38
610.291	535.38
610.499	515.38
610.707	509.38
610.916	517.38
611.124	525.38
611.332	502.38
611.54	508.38
611.748	506.38
611.955	515.38
612.163	508.38
612.371	479.38
612.579	490.38
612.787	487.38
612.995	488.38
613.203	502.38
613.411	497.38
613.618	460.38
613.826	487.38
614.034	491.38
614.242	492.38
614.449	481.38
614.657	482.38
614.865	501.38
615.072	490.38
615.28	478.38
615.488	490.38
615.695	516.38
615.903	501.38
616.111	505.38
616.318	511.38
616.526	499.38
616.733	499.38
616.941	482.38
617.148	470.38
617.356	481.38
617.563	495.38
617.771	455.38
617.978	455.38
618.185	456.38
618.393	471.38
618.6	467.38
618.807	479.38
619.015	469.38
619.222	468.38
619.429	472.38
619.637	470.38
619.844	450.38
620.051	452.38
620.258	459.38
620.466	434.38
620.673	429.38
620.88	411.38
621.087	420.38
621.294	420.38
621.501	438.38
621.708	420.38
621.915	453.38
622.122	465.38
622.329	425.38
622.536	457.38
622.743	441.38
622.95	447.38
623.157	448.38
623.364	429.38
623.571	446.38
623.778	443.38
623.985	438.38
624.192	424.38
624.399	411.38
624.606	425.38
624.812	434.38
625.019	427.38
625.226	409.38
625.433	414.38
625.639	412.38
625.846	420.38
626.053	413.38
626.259	410.38
626.466	396.38
626.673	395.38
626.879	379.38
627.086	388.38
627.293	407.38
627.499	397.38
627.706	375.38
627.912	385.38
628.119	392.38
628.325	394.38
628.532	358.38
628.738	380.38
628.945	384.38
629.151	393.38
629.357	393.38
629.564	389.38
629.77	395.38
629.976	382.38
630.183	379.38
630.389	374.38
630.595	360.38
630.802	375.38
631.008	369.38
631.214	374.38
631.42	368.38
631.627	355.38
631.833	381.38
632.039	367.38
632.245	367.38
632.451	364.38
632.657	341.38
632.863	373.38
633.069	375.38
633.275	367.38
633.481	339.38
633.688	360.38
633.893	329.38
634.099	354.38
634.305	325.38
634.511	346.38
634.717	341.38
634.923	327.38
635.129	341.38
635.335	336.38
635.541	344.38
635.747	336.38
635.952	337.38
636.158	360.38
636.364	344.38
636.57	344.38
636.775	313.38
636.981	323.38
637.187	340.38
637.392	339.38
637.598	333.38
637.804	326.38
638.009	323.38
638.215	312.38
638.421	331.38
638.626	354.38
638.832	324.38
639.037	327.38
639.243	311.38
639.448	314.38
639.654	309.38
639.859	312.38
640.065	305.38
640.27	291.38
640.475	321.38
640.681	326.38
640.886	313.38
641.091	309.38
641.297	300.38
641.502	306.38
641.707	310.38
641.913	321.38
642.118	334.38
642.323	315.38
642.528	313.38
642.733	293.38
642.939	306.38
643.144	295.38
643.349	309.38
643.554	304.38
643.759	311.38
643.964	296.38
644.169	327.38
644.374	306.38
644.579	319.38
644.784	287.38
644.989	295.38
645.194	268.38
645.399	281.38
645.604	312.38
645.809	296.38
646.014	296.38
646.219	298.38
646.423	313.38
646.628	292.38
646.833	309.38
647.038	313.38
647.243	300.38
647.447	291.38
647.652	307.38
647.857	308.38
648.062	314.38
648.266	295.38
648.471	309.38
648.676	309.38
648.88	301.38
649.085	303.38
649.289	286.38
649.494	307.38
649.698	301.38
649.903	294.38
650.107	301.38
650.312	285.38
650.516	257.38
650.721	285.38
650.925	295.38
651.13	277.38
651.334	288.38
651.539	272.38
651.743	257.38
651.947	272.38
652.152	266.38
652.356	289.38
652.56	263.38
652.764	273.38
652.969	244.38
653.173	242.38
653.377	257.38
653.581	231.38
653.785	242.38
653.99	229.38
654.194	249.38
654.398	241.38
654.602	232.38
654.806	226.38
655.01	233.38
655.214	237.38
655.418	224.38
655.622	244.38
655.826	246.38
656.03	242.38
656.234	251.38
656.438	247.38
656.642	263.38
656.846	236.38
657.049	242.38
657.253	223.38
657.457	193.38
657.661	194.38
657.865	195.38
658.068	173.38
658.272	169.38
658.476	149.38
658.68	177.38
658.883	146.38
659.087	147.38
659.291	142.38
659.494	135.38
659.698	123.38
659.901	117.38
660.105	122.38
660.309	116.38
660.512	129.38
660.716	116.38
660.919	119.38
661.123	113.38
661.326	107.38
661.53	97.38
661.733	115.38
661.936	103.38
662.14	85.38
662.343	95.38
662.546	79.38
662.75	95.38
662.953	85.38
663.156	96.38
663.36	75.38
663.563	92.38
663.766	80.38
663.969	83.38
664.173	85.38
664.376	71.38
664.579	85.38
664.782	94.38
664.985	87.38
665.188	89.38
665.391	84.38
665.594	75.38
665.797	67.38
666	70.38
666.203	90.38
666.406	83.38
666.609	88.38
666.812	90.38
667.015	91.38
667.218	100.38
667.421	90.38
667.624	87.38
667.827	83.38
668.03	78.38
668.232	96.38
668.435	84.38
668.638	88.38
668.841	83.38
669.043	94.38
669.246	87.38
669.449	71.38
669.651	75.38
669.854	93.38
670.057	87.38
670.259	80.38
670.462	81.38
670.665	93.38
670.867	71.38
671.07	90.38
671.272	79.38
671.475	84.38
671.677	84.38
671.88	98.38
672.082	73.38
672.284	90.38
672.487	92.38
672.689	90.38
672.892	79.38
