Data from WStandard_LampEnergy5.5LIBS07252019.E.O._I.C._HRD10591_16-06-31-920.txt Node
Date: Thu Jul 25 16:06:31 EDT 2019
User: cochatt
Spectrometer: HR+D1059
Trigger mode: 1
Integration Time (sec): 1.000000E-1
Scans to average: 1
Electric dark correction enabled: true
Nonlinearity correction enabled: false
Boxcar width: 0
XAxis mode: Wavelengths
Number of Pixels in Spectrum: 2048
>>>>>Begin Spectral Data<<<<<
223.165	-12.06
223.4	-12.06
223.635	-12.06
223.869	-23.06
224.104	-18.06
224.338	-11.06
224.573	-5.06
224.808	-6.06
225.042	-14.06
225.277	-10.06
225.511	1.94
225.746	-9.06
225.98	23.94
226.215	13.94
226.449	2.94
226.683	14.94
226.918	32.94
227.152	17.94
227.387	22.94
227.621	34.94
227.856	33.94
228.09	44.94
228.324	41.94
228.559	64.94
228.793	133.94
229.027	358.94
229.262	364.94
229.496	361.94
229.73	369.94
229.964	419.94
230.199	432.94
230.433	450.94
230.667	487.94
230.901	512.94
231.136	450.94
231.37	437.94
231.604	427.94
231.838	449.94
232.072	435.94
232.306	424.94
232.541	448.94
232.775	536.94
233.009	568.94
233.243	554.94
233.477	492.94
233.711	497.94
233.945	536.94
234.179	522.94
234.413	573.94
234.647	613.94
234.881	558.94
235.115	534.94
235.349	515.94
235.583	551.94
235.817	531.94
236.051	511.94
236.285	518.94
236.519	554.94
236.753	648.94
236.987	645.94
237.221	646.94
237.455	729.94
237.689	697.94
237.922	645.94
238.156	629.94
238.39	624.94
238.624	663.94
238.858	685.94
239.091	705.94
239.325	746.94
239.559	873.94
239.793	898.94
240.027	974.94
240.26	990.94
240.494	709.94
240.728	676.94
240.961	677.94
241.195	694.94
241.429	773.94
241.662	786.94
241.896	736.94
242.13	711.94
242.363	787.94
242.597	848.94
242.83	832.94
243.064	850.94
243.298	883.94
243.531	882.94
243.765	861.94
243.998	861.94
244.232	748.94
244.465	736.94
244.699	730.94
244.932	859.94
245.166	952.94
245.399	932.94
245.633	835.94
245.866	819.94
246.099	864.94
246.333	896.94
246.566	903.94
246.8	992.94
247.033	1072.94
247.266	1007.94
247.5	984.94
247.733	975.94
247.966	1031.94
248.2	1158.94
248.433	1069.94
248.666	1123.94
248.899	1229.94
249.133	1450.94
249.366	1649.94
249.599	1326.94
249.832	1163.94
250.066	1205.94
250.299	1237.94
250.532	1161.94
250.765	996.94
250.998	1078.94
251.231	1119.94
251.465	1190.94
251.698	1120.94
251.931	1123.94
252.164	1126.94
252.397	1138.94
252.63	1171.94
252.863	1040.94
253.096	995.94
253.329	1057.94
253.562	1095.94
253.795	1225.94
254.028	1181.94
254.261	1109.94
254.494	1103.94
254.727	1055.94
254.96	1064.94
255.193	1199.94
255.426	1320.94
255.659	1537.94
255.892	1569.94
256.124	1281.94
256.357	1243.94
256.59	1333.94
256.823	1346.94
257.056	1305.94
257.289	1625.94
257.521	1806.94
257.754	1570.94
257.987	1508.94
258.22	1663.94
258.452	1639.94
258.685	1334.94
258.918	1288.94
259.151	1299.94
259.383	1243.94
259.616	1095.94
259.849	1156.94
260.081	1281.94
260.314	1447.94
260.547	1575.94
260.779	1617.94
261.012	1489.94
261.244	1329.94
261.477	1249.94
261.71	1330.94
261.942	1309.94
262.175	1277.94
262.407	1392.94
262.64	1277.94
262.872	1203.94
263.105	1181.94
263.337	1188.94
263.57	1183.94
263.802	1198.94
264.035	1157.94
264.267	1065.94
264.499	1074.94
264.732	1147.94
264.964	1231.94
265.197	1266.94
265.429	1271.94
265.661	1441.94
265.894	1577.94
266.126	1683.94
266.358	1487.94
266.591	1479.94
266.823	1638.94
267.055	1515.94
267.287	1495.94
267.52	1470.94
267.752	1445.94
267.984	1450.94
268.216	1505.94
268.448	1560.94
268.681	1530.94
268.913	1445.94
269.145	1341.94
269.377	1327.94
269.609	1416.94
269.841	1629.94
270.073	1881.94
270.306	2103.94
270.538	2232.94
270.77	1912.94
271.002	1607.94
271.234	1511.94
271.466	1511.94
271.698	1701.94
271.93	2032.94
272.162	2053.94
272.394	1809.94
272.626	1743.94
272.858	1549.94
273.09	1350.94
273.322	1367.94
273.553	1303.94
273.785	1282.94
274.017	1371.94
274.249	1478.94
274.481	1489.94
274.713	1346.94
274.945	1311.94
275.176	1311.94
275.408	1299.94
275.64	1301.94
275.872	1282.94
276.104	1337.94
276.335	1533.94
276.567	1769.94
276.799	1803.94
277.031	1570.94
277.262	1460.94
277.494	1550.94
277.726	1717.94
277.957	1747.94
278.189	1565.94
278.421	1426.94
278.652	1366.94
278.884	1391.94
279.115	1368.94
279.347	1445.94
279.579	1375.94
279.81	1374.94
280.042	1487.94
280.273	1623.94
280.505	1657.94
280.736	1702.94
280.968	1631.94
281.199	1437.94
281.431	1344.94
281.662	1353.94
281.894	1310.94
282.125	1372.94
282.356	1438.94
282.588	1435.94
282.819	1438.94
283.051	1541.94
283.282	1674.94
283.513	1620.94
283.745	1423.94
283.976	1320.94
284.207	1312.94
284.439	1342.94
284.67	1387.94
284.901	1407.94
285.132	1465.94
285.364	1397.94
285.595	1440.94
285.826	1376.94
286.057	1390.94
286.288	1414.94
286.52	1442.94
286.751	1511.94
286.982	1597.94
287.213	1490.94
287.444	1367.94
287.675	1337.94
287.906	1426.94
288.138	1542.94
288.369	1471.94
288.6	1401.94
288.831	1344.94
289.062	1357.94
289.293	1391.94
289.524	1397.94
289.755	1441.94
289.986	1439.94
290.217	1336.94
290.448	1375.94
290.679	1459.94
290.91	1457.94
291.141	1470.94
291.371	1509.94
291.602	1483.94
291.833	1472.94
292.064	1524.94
292.295	1521.94
292.526	1517.94
292.757	1588.94
292.987	1543.94
293.218	1428.94
293.449	1548.94
293.68	1717.94
293.91	1880.94
294.141	1770.94
294.372	1637.94
294.603	1682.94
294.833	1731.94
295.064	1635.94
295.295	1523.94
295.525	1510.94
295.756	1403.94
295.987	1321.94
296.217	1311.94
296.448	1405.94
296.679	1391.94
296.909	1398.94
297.14	1398.94
297.37	1384.94
297.601	1488.94
297.831	1562.94
298.062	1610.94
298.292	1476.94
298.523	1430.94
298.753	1458.94
298.984	1433.94
299.214	1449.94
299.445	1465.94
299.675	1515.94
299.905	1509.94
300.136	1497.94
300.366	1447.94
300.597	1377.94
300.827	1372.94
301.057	1450.94
301.288	1517.94
301.518	1507.94
301.748	1533.94
301.979	1619.94
302.209	1634.94
302.439	1729.94
302.669	1794.94
302.9	1688.94
303.13	1541.94
303.36	1527.94
303.59	1585.94
303.82	1532.94
304.051	1532.94
304.281	1557.94
304.511	1529.94
304.741	1575.94
304.971	1781.94
305.201	1975.94
305.431	1873.94
305.661	1497.94
305.891	1340.94
306.121	1355.94
306.352	1388.94
306.582	1483.94
306.812	1561.94
307.042	1734.94
307.272	1692.94
307.502	1761.94
307.731	1871.94
307.961	2021.94
308.191	1859.94
308.421	1621.94
308.651	1511.94
308.881	1502.94
309.111	1484.94
309.341	1434.94
309.571	1487.94
309.8	1493.94
310.03	1463.94
310.26	1447.94
310.49	1425.94
310.72	1494.94
310.949	1555.94
311.179	1604.94
311.409	1559.94
311.639	1501.94
311.868	1477.94
312.098	1529.94
312.328	1519.94
312.557	1466.94
312.787	1484.94
313.017	1560.94
313.246	1537.94
313.476	1525.94
313.706	1559.94
313.935	1561.94
314.165	1587.94
314.394	1622.94
314.624	1703.94
314.853	1793.94
315.083	1841.94
315.312	1958.94
315.542	1825.94
315.771	1608.94
316.001	1577.94
316.23	1671.94
316.46	1659.94
316.689	1649.94
316.919	1587.94
317.148	1525.94
317.377	1551.94
317.607	1663.94
317.836	1873.94
318.065	1921.94
318.295	1846.94
318.524	1709.94
318.753	1690.94
318.983	1679.94
319.212	1629.94
319.441	1646.94
319.67	1600.94
319.9	1604.94
320.129	1705.94
320.358	1734.94
320.587	1821.94
320.816	1807.94
321.046	1761.94
321.275	1658.94
321.504	1659.94
321.733	1806.94
321.962	1809.94
322.191	1627.94
322.42	1646.94
322.649	1615.94
322.878	1608.94
323.108	1646.94
323.337	1684.94
323.566	1667.94
323.795	1661.94
324.024	1710.94
324.253	1607.94
324.482	1673.94
324.71	1624.94
324.939	1510.94
325.168	1519.94
325.397	1576.94
325.626	1663.94
325.855	1686.94
326.084	1629.94
326.313	1601.94
326.542	1652.94
326.77	1717.94
326.999	1700.94
327.228	1651.94
327.457	1568.94
327.686	1562.94
327.914	1541.94
328.143	1635.94
328.372	1601.94
328.6	1610.94
328.829	1615.94
329.058	1587.94
329.287	1586.94
329.515	1628.94
329.744	1671.94
329.972	1724.94
330.201	1793.94
330.43	1769.94
330.658	1737.94
330.887	1718.94
331.115	1711.94
331.344	1697.94
331.572	1706.94
331.801	1677.94
332.03	1701.94
332.258	1697.94
332.486	1702.94
332.715	1759.94
332.943	1773.94
333.172	1705.94
333.4	1753.94
333.629	1783.94
333.857	1859.94
334.085	2058.94
334.314	2293.94
334.542	2533.94
334.771	2363.94
334.999	2084.94
335.227	1936.94
335.455	1863.94
335.684	1822.94
335.912	1845.94
336.14	1983.94
336.369	1858.94
336.597	1760.94
336.825	1725.94
337.053	1793.94
337.281	1834.94
337.51	1984.94
337.738	2062.94
337.966	1936.94
338.194	1777.94
338.422	1754.94
338.65	1701.94
338.878	1715.94
339.106	1663.94
339.334	1658.94
339.562	1617.94
339.79	1640.94
340.018	1768.94
340.246	1833.94
340.474	1801.94
340.702	1760.94
340.93	1774.94
341.158	1752.94
341.386	1706.94
341.614	1715.94
341.842	1682.94
342.07	1690.94
342.298	1736.94
342.526	1707.94
342.754	1683.94
342.981	1671.94
343.209	1701.94
343.437	1670.94
343.665	1704.94
343.893	1721.94
344.12	1818.94
344.348	1848.94
344.576	1791.94
344.804	1675.94
345.031	1681.94
345.259	1686.94
345.487	1648.94
345.714	1609.94
345.942	1559.94
346.17	1570.94
346.397	1593.94
346.625	1636.94
346.853	1579.94
347.08	1517.94
347.308	1506.94
347.535	1567.94
347.763	1656.94
347.99	1584.94
348.218	1562.94
348.445	1522.94
348.673	1577.94
348.9	1600.94
349.128	1666.94
349.355	1724.94
349.583	1698.94
349.81	1598.94
350.037	1450.94
350.265	1491.94
350.492	1488.94
350.72	1531.94
350.947	1615.94
351.174	1613.94
351.402	1564.94
351.629	1510.94
351.856	1487.94
352.083	1433.94
352.311	1474.94
352.538	1498.94
352.765	1584.94
352.992	1626.94
353.22	1552.94
353.447	1496.94
353.674	1537.94
353.901	1586.94
354.128	1483.94
354.355	1540.94
354.583	1569.94
354.81	1625.94
355.037	1597.94
355.264	1589.94
355.491	1605.94
355.718	1587.94
355.945	1556.94
356.172	1501.94
356.399	1497.94
356.626	1504.94
356.853	1556.94
357.08	1640.94
357.307	1844.94
357.534	1852.94
357.761	1615.94
357.988	1537.94
358.215	1485.94
358.441	1491.94
358.668	1487.94
358.895	1522.94
359.122	1593.94
359.349	1747.94
359.576	1725.94
359.802	1561.94
360.029	1489.94
360.256	1505.94
360.483	1514.94
360.709	1566.94
360.936	1577.94
361.163	1658.94
361.39	1807.94
361.616	1933.94
361.843	1907.94
362.07	1769.94
362.296	1579.94
362.523	1517.94
362.749	1529.94
362.976	1587.94
363.203	1581.94
363.429	1539.94
363.656	1495.94
363.882	1552.94
364.109	1688.94
364.335	1873.94
364.562	1722.94
364.788	1643.94
365.015	1606.94
365.241	1517.94
365.468	1552.94
365.694	1616.94
365.92	1677.94
366.147	1622.94
366.373	1495.94
366.599	1481.94
366.826	1486.94
367.052	1502.94
367.278	1504.94
367.505	1537.94
367.731	1591.94
367.957	1619.94
368.184	1661.94
368.41	1719.94
368.636	1676.94
368.862	1716.94
369.089	1739.94
369.315	1741.94
369.541	1661.94
369.767	1592.94
369.993	1578.94
370.219	1548.94
370.445	1582.94
370.672	1657.94
370.898	1715.94
371.124	1721.94
371.35	1625.94
371.576	1649.94
371.802	1790.94
372.028	1665.94
372.254	1623.94
372.48	1567.94
372.706	1550.94
372.932	1569.94
373.158	1578.94
373.384	1596.94
373.61	1643.94
373.835	1727.94
374.061	1634.94
374.287	1612.94
374.513	1602.94
374.739	1641.94
374.965	1684.94
375.191	1683.94
375.416	1661.94
375.642	1694.94
375.868	1744.94
376.094	1817.94
376.319	1715.94
376.545	1604.94
376.771	1620.94
376.997	1710.94
377.222	1696.94
377.448	1636.94
377.674	1717.94
377.899	1673.94
378.125	1734.94
378.35	1812.94
378.576	1625.94
378.802	1551.94
379.027	1570.94
379.253	1597.94
379.478	1622.94
379.704	1613.94
379.929	1619.94
380.155	1611.94
380.38	1646.94
380.606	1644.94
380.831	1670.94
381.057	1702.94
381.282	1746.94
381.507	1709.94
381.733	1751.94
381.958	1852.94
382.184	1754.94
382.409	1694.94
382.634	1701.94
382.86	1691.94
383.085	1710.94
383.31	1726.94
383.535	1857.94
383.761	1945.94
383.986	1915.94
384.211	1845.94
384.436	1816.94
384.662	1893.94
384.887	1967.94
385.112	1871.94
385.337	1913.94
385.562	1821.94
385.787	1858.94
386.013	1909.94
386.238	1939.94
386.463	1893.94
386.688	1984.94
386.913	2093.94
387.138	2115.94
387.363	1914.94
387.588	1909.94
387.813	1905.94
388.038	1943.94
388.263	1996.94
388.488	1914.94
388.713	1826.94
388.938	1801.94
389.163	1779.94
389.387	1847.94
389.612	1829.94
389.837	1879.94
390.062	1885.94
390.287	1862.94
390.512	1826.94
390.736	1888.94
390.961	1809.94
391.186	1787.94
391.411	1810.94
391.636	1863.94
391.86	1875.94
392.085	1866.94
392.31	1829.94
392.534	1894.94
392.759	1920.94
392.984	1887.94
393.208	1898.94
393.433	1986.94
393.658	2083.94
393.882	2046.94
394.107	1894.94
394.331	1838.94
394.556	1826.94
394.78	1842.94
395.005	1922.94
395.229	1961.94
395.454	2136.94
395.678	2151.94
395.903	2045.94
396.127	1946.94
396.352	1979.94
396.576	2062.94
396.801	2049.94
397.025	2073.94
397.249	2046.94
397.474	2020.94
397.698	1981.94
397.922	2049.94
398.147	2152.94
398.371	2238.94
398.595	2187.94
398.82	2166.94
399.044	2204.94
399.268	2280.94
399.492	2392.94
399.717	2505.94
399.941	2509.94
400.165	2427.94
400.389	2390.94
400.613	2347.94
400.837	2585.94
401.062	2915.94
401.286	2495.94
401.51	2292.94
401.734	2397.94
401.958	2305.94
402.182	2240.94
402.406	2120.94
402.63	2102.94
402.854	2093.94
403.078	2103.94
403.302	2176.94
403.526	2241.94
403.75	2197.94
403.974	2195.94
404.198	2226.94
404.422	2293.94
404.645	2381.94
404.869	2376.94
405.093	2169.94
405.317	2112.94
405.541	2204.94
405.765	2230.94
405.988	2186.94
406.212	2292.94
406.436	2318.94
406.66	2361.94
406.883	2375.94
407.107	2671.94
407.331	2849.94
407.555	3036.94
407.778	2854.94
408.002	2358.94
408.226	2345.94
408.449	2357.94
408.673	2248.94
408.896	2254.94
409.12	2335.94
409.344	2285.94
409.567	2236.94
409.791	2244.94
410.014	2243.94
410.238	2346.94
410.461	2481.94
410.685	2244.94
410.908	2175.94
411.132	2226.94
411.355	2169.94
411.578	2154.94
411.802	2153.94
412.025	2219.94
412.249	2181.94
412.472	2125.94
412.695	2103.94
412.919	2084.94
413.142	2093.94
413.365	2123.94
413.589	2144.94
413.812	2246.94
414.035	2319.94
414.258	2143.94
414.482	2129.94
414.705	2111.94
414.928	2099.94
415.151	2127.94
415.374	2134.94
415.597	2202.94
415.821	2167.94
416.044	2203.94
416.267	2284.94
416.49	2041.94
416.713	2032.94
416.936	2103.94
417.159	2171.94
417.382	2177.94
417.605	2058.94
417.828	2133.94
418.051	2139.94
418.274	2145.94
418.497	2026.94
418.72	2030.94
418.943	2058.94
419.166	2201.94
419.389	2321.94
419.611	2172.94
419.834	2100.94
420.057	2124.94
420.28	2077.94
420.503	2065.94
420.726	2065.94
420.948	2080.94
421.171	2016.94
421.394	2070.94
421.617	2149.94
421.839	2080.94
422.062	2084.94
422.285	2040.94
422.507	2038.94
422.73	2027.94
422.953	1961.94
423.175	1951.94
423.398	2033.94
423.621	2045.94
423.843	2052.94
424.066	2099.94
424.288	2123.94
424.511	2182.94
424.733	2134.94
424.956	1959.94
425.178	1927.94
425.401	1981.94
425.623	1977.94
425.846	1977.94
426.068	2058.94
426.291	2115.94
426.513	2065.94
426.735	2050.94
426.958	2177.94
427.18	2344.94
427.402	2107.94
427.625	2184.94
427.847	2233.94
428.069	2015.94
428.292	2029.94
428.514	1937.94
428.736	1935.94
428.958	2005.94
429.181	1970.94
429.403	2215.94
429.625	2685.94
429.847	2418.94
430.069	2024.94
430.292	2224.94
430.514	2315.94
430.736	2109.94
430.958	2157.94
431.18	2124.94
431.402	2012.94
431.624	1933.94
431.846	1951.94
432.068	1943.94
432.29	1971.94
432.512	2020.94
432.734	2039.94
432.956	2075.94
433.178	2152.94
433.4	2175.94
433.622	2127.94
433.844	1993.94
434.066	1958.94
434.287	1938.94
434.509	2018.94
434.731	2150.94
434.953	2266.94
435.175	2213.94
435.397	2067.94
435.618	2111.94
435.84	2077.94
436.062	2064.94
436.284	2064.94
436.505	2141.94
436.727	2117.94
436.949	2077.94
437.17	1982.94
437.392	2016.94
437.614	1997.94
437.835	1962.94
438.057	2113.94
438.278	2183.94
438.5	1994.94
438.721	1956.94
438.943	1934.94
439.165	1941.94
439.386	1929.94
439.608	1957.94
439.829	1958.94
440.05	1961.94
440.272	1941.94
440.493	1938.94
440.715	1953.94
440.936	2093.94
441.158	2319.94
441.379	2253.94
441.6	2163.94
441.822	2164.94
442.043	2147.94
442.264	2101.94
442.486	1989.94
442.707	1949.94
442.928	1988.94
443.149	2052.94
443.371	2175.94
443.592	2234.94
443.813	2135.94
444.034	2173.94
444.255	2195.94
444.476	2225.94
444.698	2249.94
444.919	2291.94
445.14	2272.94
445.361	2311.94
445.582	2361.94
445.803	2218.94
446.024	2145.94
446.245	2249.94
446.466	2188.94
446.687	2093.94
446.908	2024.94
447.129	2017.94
447.35	2021.94
447.571	2038.94
447.792	1933.94
448.013	1944.94
448.234	1976.94
448.455	2066.94
448.675	2101.94
448.896	1924.94
449.117	1873.94
449.338	1947.94
449.559	2020.94
449.779	2134.94
450	2328.94
450.221	2528.94
450.442	2425.94
450.662	2141.94
450.883	1907.94
451.104	1856.94
451.324	1924.94
451.545	1973.94
451.766	1946.94
451.986	1859.94
452.207	1854.94
452.428	1799.94
452.648	1712.94
452.869	1800.94
453.089	1932.94
453.31	1939.94
453.53	2001.94
453.751	1879.94
453.971	1811.94
454.192	1880.94
454.412	1949.94
454.633	1864.94
454.853	1830.94
455.073	1703.94
455.294	1712.94
455.514	1717.94
455.734	1756.94
455.955	1766.94
456.175	1737.94
456.395	1770.94
456.616	1848.94
456.836	1872.94
457.056	1831.94
457.276	1799.94
457.497	1759.94
457.717	1722.94
457.937	1732.94
458.157	1804.94
458.377	1811.94
458.598	1777.94
458.818	1789.94
459.038	1867.94
459.258	1993.94
459.478	1982.94
459.698	1947.94
459.918	1935.94
460.138	2067.94
460.358	2130.94
460.578	2129.94
460.798	2151.94
461.018	2314.94
461.238	2216.94
461.458	2113.94
461.678	2115.94
461.898	2108.94
462.118	2032.94
462.338	2079.94
462.558	2142.94
462.777	2131.94
462.997	2227.94
463.217	2374.94
463.437	2365.94
463.657	2182.94
463.876	2122.94
464.096	2125.94
464.316	2129.94
464.536	2196.94
464.755	2184.94
464.975	2275.94
465.195	2123.94
465.414	2222.94
465.634	2260.94
465.854	2122.94
466.073	2228.94
466.293	2161.94
466.512	1994.94
466.732	1945.94
466.951	2025.94
467.171	2008.94
467.391	1949.94
467.61	1873.94
467.829	1923.94
468.049	2065.94
468.268	2306.94
468.488	2186.94
468.707	2055.94
468.927	1994.94
469.146	1951.94
469.365	1910.94
469.585	1914.94
469.804	1921.94
470.023	1910.94
470.243	1973.94
470.462	1961.94
470.681	1912.94
470.901	1982.94
471.12	1977.94
471.339	1934.94
471.558	1866.94
471.777	1864.94
471.997	1865.94
472.216	1882.94
472.435	1824.94
472.654	1873.94
472.873	1981.94
473.092	2059.94
473.311	1971.94
473.53	1863.94
473.749	1818.94
473.968	1930.94
474.187	1998.94
474.406	2110.94
474.625	1994.94
474.844	1924.94
475.063	1945.94
475.282	2005.94
475.501	1952.94
475.72	1952.94
475.939	2059.94
476.158	2018.94
476.377	1949.94
476.596	1967.94
476.814	1989.94
477.033	2042.94
477.252	2115.94
477.471	2191.94
477.69	2068.94
477.908	2063.94
478.127	2158.94
478.346	2341.94
478.564	2375.94
478.783	2303.94
479.002	2374.94
479.22	2306.94
479.439	2416.94
479.658	2692.94
479.876	2680.94
480.095	2351.94
480.313	2243.94
480.532	2168.94
480.751	2178.94
480.969	2220.94
481.188	2202.94
481.406	2205.94
481.624	2134.94
481.843	2127.94
482.061	2183.94
482.28	2256.94
482.498	2249.94
482.717	2246.94
482.935	2187.94
483.153	2128.94
483.372	2148.94
483.59	2153.94
483.808	2136.94
484.027	2226.94
484.245	2342.94
484.463	2645.94
484.681	3103.94
484.9	2352.94
485.118	2257.94
485.336	2171.94
485.554	2287.94
485.772	2408.94
485.99	2301.94
486.209	2340.94
486.427	2327.94
486.645	2349.94
486.863	2304.94
487.081	2388.94
487.299	2395.94
487.517	2353.94
487.735	2244.94
487.953	2224.94
488.171	2231.94
488.389	2231.94
488.607	2253.94
488.825	2429.94
489.043	2477.94
489.261	2223.94
489.479	2354.94
489.696	2377.94
489.914	2383.94
490.132	2340.94
490.35	2262.94
490.568	2364.94
490.786	2276.94
491.003	2200.94
491.221	2290.94
491.439	2386.94
491.657	2357.94
491.874	2347.94
492.092	2388.94
492.31	2382.94
492.527	2345.94
492.745	2303.94
492.963	2333.94
493.18	2388.94
493.398	2505.94
493.615	2611.94
493.833	2413.94
494.05	2348.94
494.268	2360.94
494.485	2425.94
494.703	2403.94
494.92	2349.94
495.138	2352.94
495.355	2365.94
495.573	2436.94
495.79	2660.94
496.008	2605.94
496.225	2458.94
496.442	2456.94
496.66	2544.94
496.877	2487.94
497.094	2583.94
497.312	2573.94
497.529	2557.94
497.746	2653.94
497.963	3052.94
498.181	3395.94
498.398	3123.94
498.615	3125.94
498.832	3060.94
499.049	2977.94
499.267	2987.94
499.484	3237.94
499.701	3518.94
499.918	3521.94
500.135	3748.94
500.352	4058.94
500.569	3937.94
500.786	4214.94
501.003	3990.94
501.22	3632.94
501.437	3505.94
501.654	3481.94
501.871	3361.94
502.088	2968.94
502.305	2969.94
502.522	2912.94
502.739	2703.94
502.956	2670.94
503.172	2612.94
503.389	2535.94
503.606	2557.94
503.823	2539.94
504.04	2459.94
504.256	2526.94
504.473	2495.94
504.69	2612.94
504.907	2433.94
505.123	2335.94
505.34	2442.94
505.557	3070.94
505.773	2702.94
505.99	2261.94
506.207	2199.94
506.423	2137.94
506.64	2131.94
506.856	2118.94
507.073	2399.94
507.289	2563.94
507.506	2475.94
507.722	2165.94
507.939	2023.94
508.155	2053.94
508.372	2090.94
508.588	2021.94
508.805	1937.94
509.021	1947.94
509.238	1938.94
509.454	1995.94
509.67	1959.94
509.887	1906.94
510.103	1923.94
510.319	1977.94
510.536	2020.94
510.752	2107.94
510.968	2047.94
511.184	2205.94
511.401	2167.94
511.617	1976.94
511.833	1860.94
512.049	1893.94
512.265	1873.94
512.481	1853.94
512.698	1996.94
512.914	2121.94
513.13	1973.94
513.346	1888.94
513.562	1843.94
513.778	1893.94
513.994	1943.94
514.21	2075.94
514.426	2038.94
514.642	2273.94
514.858	2173.94
515.074	1990.94
515.29	1884.94
515.506	1954.94
515.721	2020.94
515.937	1985.94
516.153	2288.94
516.369	2206.94
516.585	2085.94
516.801	1975.94
517.016	1986.94
517.232	1986.94
517.448	2105.94
517.664	2096.94
517.879	2071.94
518.095	2195.94
518.311	2133.94
518.527	1989.94
518.742	2006.94
518.958	1936.94
519.173	1889.94
519.389	1934.94
519.605	1928.94
519.82	1954.94
520.036	1992.94
520.251	1885.94
520.467	1904.94
520.682	2094.94
520.898	2157.94
521.113	1877.94
521.329	1887.94
521.544	1989.94
521.76	1973.94
521.975	1849.94
522.19	1826.94
522.406	1779.94
522.621	2183.94
522.836	2175.94
523.052	1836.94
523.267	1786.94
523.482	1801.94
523.698	1718.94
523.913	1703.94
524.128	1752.94
524.343	1867.94
524.559	1859.94
524.774	1754.94
524.989	1764.94
525.204	1729.94
525.419	1709.94
525.634	1698.94
525.849	1764.94
526.064	1750.94
526.28	1791.94
526.495	1713.94
526.71	1683.94
526.925	1672.94
527.14	1673.94
527.355	1632.94
527.57	1631.94
527.785	1698.94
527.999	1651.94
528.214	1651.94
528.429	1597.94
528.644	1630.94
528.859	1629.94
529.074	1650.94
529.289	1656.94
529.503	1661.94
529.718	1663.94
529.933	1645.94
530.148	1614.94
530.363	1619.94
530.577	1639.94
530.792	1656.94
531.007	1681.94
531.221	1643.94
531.436	1687.94
531.651	1730.94
531.865	1770.94
532.08	1704.94
532.295	1630.94
532.509	1591.94
532.724	1599.94
532.938	1689.94
533.153	1842.94
533.367	1665.94
533.582	1689.94
533.796	1573.94
534.011	1643.94
534.225	1696.94
534.44	1610.94
534.654	1603.94
534.868	1630.94
535.083	1674.94
535.297	1701.94
535.511	1619.94
535.726	1652.94
535.94	1624.94
536.154	1625.94
536.369	1601.94
536.583	1563.94
536.797	1568.94
537.011	1608.94
537.225	1537.94
537.44	1536.94
537.654	1617.94
537.868	1547.94
538.082	1493.94
538.296	1450.94
538.51	1507.94
538.724	1505.94
538.938	1472.94
539.153	1558.94
539.367	1537.94
539.581	1534.94
539.795	1646.94
540.009	1564.94
540.222	1508.94
540.436	1576.94
540.65	1710.94
540.864	1743.94
541.078	1650.94
541.292	1486.94
541.506	1535.94
541.72	1552.94
541.934	1597.94
542.147	1613.94
542.361	1553.94
542.575	1472.94
542.789	1519.94
543.002	1457.94
543.216	1471.94
543.43	1562.94
543.644	1645.94
543.857	1686.94
544.071	1594.94
544.285	1587.94
544.498	1584.94
544.712	1546.94
544.925	1574.94
545.139	1591.94
545.352	1506.94
545.566	1437.94
545.779	1436.94
545.993	1444.94
546.206	1545.94
546.42	1512.94
546.633	1414.94
546.847	1457.94
547.06	1435.94
547.274	1451.94
547.487	1442.94
547.7	1447.94
547.914	1474.94
548.127	1469.94
548.34	1515.94
548.554	1487.94
548.767	1489.94
548.98	1503.94
549.193	1453.94
549.407	1537.94
549.62	1549.94
549.833	1502.94
550.046	1444.94
550.259	1453.94
550.473	1411.94
550.686	1453.94
550.899	1431.94
551.112	1378.94
551.325	1386.94
551.538	1455.94
551.751	1693.94
551.964	1429.94
552.177	1350.94
552.39	1393.94
552.603	1431.94
552.816	1421.94
553.029	1507.94
553.242	1555.94
553.455	1458.94
553.667	1449.94
553.88	1469.94
554.093	1436.94
554.306	1395.94
554.519	1375.94
554.732	1379.94
554.944	1334.94
555.157	1370.94
555.37	1343.94
555.583	1347.94
555.795	1339.94
556.008	1299.94
556.221	1297.94
556.433	1261.94
556.646	1234.94
556.859	1274.94
557.071	1250.94
557.284	1229.94
557.496	1230.94
557.709	1209.94
557.921	1217.94
558.134	1192.94
558.346	1194.94
558.559	1216.94
558.771	1218.94
558.984	1187.94
559.196	1201.94
559.409	1170.94
559.621	1174.94
559.833	1175.94
560.046	1242.94
560.258	1205.94
560.47	1222.94
560.683	1185.94
560.895	1188.94
561.107	1209.94
561.32	1216.94
561.532	1226.94
561.744	1210.94
561.956	1216.94
562.168	1169.94
562.381	1160.94
562.593	1149.94
562.805	1172.94
563.017	1199.94
563.229	1158.94
563.441	1217.94
563.653	1140.94
563.865	1177.94
564.077	1186.94
564.289	1175.94
564.501	1210.94
564.713	1209.94
564.925	1248.94
565.137	1361.94
565.349	1245.94
565.561	1241.94
565.773	1263.94
565.985	1239.94
566.197	1337.94
566.408	1426.94
566.62	1397.94
566.832	1433.94
567.044	1430.94
567.255	1409.94
567.467	1421.94
567.679	1481.94
567.891	1494.94
568.102	1477.94
568.314	1471.94
568.526	1332.94
568.737	1297.94
568.949	1255.94
569.161	1199.94
569.372	1194.94
569.584	1122.94
569.795	1128.94
570.007	1105.94
570.218	1073.94
570.43	1094.94
570.641	1096.94
570.853	1076.94
571.064	1075.94
571.276	1035.94
571.487	1039.94
571.698	1020.94
571.91	992.94
572.121	974.94
572.333	964.94
572.544	962.94
572.755	950.94
572.966	941.94
573.178	924.94
573.389	955.94
573.6	965.94
573.811	1022.94
574.023	941.94
574.234	927.94
574.445	916.94
574.656	874.94
574.867	899.94
575.078	907.94
575.289	908.94
575.501	858.94
575.712	858.94
575.923	888.94
576.134	893.94
576.345	855.94
576.556	874.94
576.767	853.94
576.978	865.94
577.188	841.94
577.399	859.94
577.61	847.94
577.821	865.94
578.032	805.94
578.243	832.94
578.454	833.94
578.665	818.94
578.875	812.94
579.086	806.94
579.297	813.94
579.508	831.94
579.718	816.94
579.929	821.94
580.14	778.94
580.35	745.94
580.561	796.94
580.772	866.94
580.982	819.94
581.193	783.94
581.403	769.94
581.614	791.94
581.825	749.94
582.035	753.94
582.246	778.94
582.456	803.94
582.667	786.94
582.877	774.94
583.087	774.94
583.298	721.94
583.508	753.94
583.719	769.94
583.929	759.94
584.139	733.94
584.35	742.94
584.56	734.94
584.77	747.94
584.981	773.94
585.191	755.94
585.401	767.94
585.611	752.94
585.821	738.94
586.032	718.94
586.242	713.94
586.452	699.94
586.662	728.94
586.872	735.94
587.082	709.94
587.292	756.94
587.502	765.94
587.713	767.94
587.923	716.94
588.133	725.94
588.343	710.94
588.553	717.94
588.762	710.94
588.972	698.94
589.182	733.94
589.392	734.94
589.602	733.94
589.812	710.94
590.022	701.94
590.232	715.94
590.441	707.94
590.651	739.94
590.861	719.94
591.071	688.94
591.281	696.94
591.49	693.94
591.7	701.94
591.91	705.94
592.119	691.94
592.329	709.94
592.539	766.94
592.748	733.94
592.958	732.94
593.167	767.94
593.377	769.94
593.587	762.94
593.796	764.94
594.006	735.94
594.215	745.94
594.424	738.94
594.634	742.94
594.843	708.94
595.053	730.94
595.262	728.94
595.472	688.94
595.681	716.94
595.89	673.94
596.1	659.94
596.309	689.94
596.518	678.94
596.727	646.94
596.937	666.94
597.146	627.94
597.355	631.94
597.564	642.94
597.774	628.94
597.983	613.94
598.192	595.94
598.401	609.94
598.61	626.94
598.819	608.94
599.028	609.94
599.237	612.94
599.446	601.94
599.655	583.94
599.864	609.94
600.073	586.94
600.282	591.94
600.491	598.94
600.7	594.94
600.909	560.94
601.118	579.94
601.327	601.94
601.536	627.94
601.745	584.94
601.953	578.94
602.162	562.94
602.371	591.94
602.58	574.94
602.789	596.94
602.997	566.94
603.206	585.94
603.415	557.94
603.623	558.94
603.832	586.94
604.041	572.94
604.249	550.94
604.458	565.94
604.666	561.94
604.875	588.94
605.084	555.94
605.292	577.94
605.501	557.94
605.709	540.94
605.918	540.94
606.126	557.94
606.334	519.94
606.543	568.94
606.751	539.94
606.96	545.94
607.168	558.94
607.376	541.94
607.585	561.94
607.793	552.94
608.001	541.94
608.21	513.94
608.418	521.94
608.626	540.94
608.834	546.94
609.043	521.94
609.251	525.94
609.459	519.94
609.667	543.94
609.875	533.94
610.083	559.94
610.291	550.94
610.499	554.94
610.707	551.94
610.916	529.94
611.124	543.94
611.332	507.94
611.54	534.94
611.748	513.94
611.955	486.94
612.163	502.94
612.371	486.94
612.579	511.94
612.787	502.94
612.995	502.94
613.203	522.94
613.411	519.94
613.618	527.94
613.826	526.94
614.034	521.94
614.242	517.94
614.449	500.94
614.657	482.94
614.865	505.94
615.072	517.94
615.28	519.94
615.488	515.94
615.695	538.94
615.903	534.94
616.111	502.94
616.318	500.94
616.526	501.94
616.733	521.94
616.941	481.94
617.148	473.94
617.356	505.94
617.563	473.94
617.771	497.94
617.978	482.94
618.185	469.94
618.393	479.94
618.6	494.94
618.807	495.94
619.015	476.94
619.222	484.94
619.429	482.94
619.637	456.94
619.844	469.94
620.051	489.94
620.258	464.94
620.466	455.94
620.673	414.94
620.88	447.94
621.087	459.94
621.294	422.94
621.501	435.94
621.708	440.94
621.915	447.94
622.122	441.94
622.329	450.94
622.536	449.94
622.743	432.94
622.95	459.94
623.157	446.94
623.364	456.94
623.571	453.94
623.778	458.94
623.985	452.94
624.192	445.94
624.399	421.94
624.606	422.94
624.812	427.94
625.019	403.94
625.226	426.94
625.433	431.94
625.639	435.94
625.846	424.94
626.053	414.94
626.259	408.94
626.466	409.94
626.673	404.94
626.879	400.94
627.086	414.94
627.293	417.94
627.499	386.94
627.706	404.94
627.912	415.94
628.119	400.94
628.325	390.94
628.532	429.94
628.738	389.94
628.945	404.94
629.151	400.94
629.357	398.94
629.564	399.94
629.77	406.94
629.976	388.94
630.183	389.94
630.389	399.94
630.595	433.94
630.802	384.94
631.008	367.94
631.214	379.94
631.42	377.94
631.627	381.94
631.833	347.94
632.039	377.94
632.245	374.94
632.451	351.94
632.657	364.94
632.863	375.94
633.069	367.94
633.275	368.94
633.481	343.94
633.688	355.94
633.893	331.94
634.099	349.94
634.305	353.94
634.511	353.94
634.717	341.94
634.923	339.94
635.129	338.94
635.335	329.94
635.541	333.94
635.747	343.94
635.952	358.94
636.158	339.94
636.364	332.94
636.57	350.94
636.775	354.94
636.981	333.94
637.187	342.94
637.392	334.94
637.598	334.94
637.804	342.94
638.009	351.94
638.215	345.94
638.421	331.94
638.626	340.94
638.832	345.94
639.037	328.94
639.243	319.94
639.448	326.94
639.654	346.94
639.859	327.94
640.065	343.94
640.27	324.94
640.475	319.94
640.681	317.94
640.886	302.94
641.091	318.94
641.297	315.94
641.502	316.94
641.707	325.94
641.913	338.94
642.118	309.94
642.323	299.94
642.528	304.94
642.733	293.94
642.939	305.94
643.144	296.94
643.349	341.94
643.554	327.94
643.759	301.94
643.964	311.94
644.169	296.94
644.374	322.94
644.579	314.94
644.784	289.94
644.989	311.94
645.194	312.94
645.399	308.94
645.604	298.94
645.809	301.94
646.014	313.94
646.219	309.94
646.423	299.94
646.628	309.94
646.833	289.94
647.038	305.94
647.243	302.94
647.447	323.94
647.652	308.94
647.857	323.94
648.062	308.94
648.266	298.94
648.471	309.94
648.676	326.94
648.88	309.94
649.085	307.94
649.289	327.94
649.494	310.94
649.698	306.94
649.903	305.94
650.107	291.94
650.312	299.94
650.516	292.94
650.721	271.94
650.925	282.94
651.13	298.94
651.334	276.94
651.539	273.94
651.743	286.94
651.947	285.94
652.152	264.94
652.356	273.94
652.56	234.94
652.764	254.94
652.969	256.94
653.173	254.94
653.377	233.94
653.581	239.94
653.785	236.94
653.99	237.94
654.194	230.94
654.398	241.94
654.602	231.94
654.806	231.94
655.01	225.94
655.214	230.94
655.418	221.94
655.622	235.94
655.826	250.94
656.03	239.94
656.234	262.94
656.438	256.94
656.642	254.94
656.846	224.94
657.049	223.94
657.253	221.94
657.457	210.94
657.661	193.94
657.865	177.94
658.068	155.94
658.272	167.94
658.476	149.94
658.68	159.94
658.883	140.94
659.087	150.94
659.291	138.94
659.494	130.94
659.698	121.94
659.901	121.94
660.105	127.94
660.309	106.94
660.512	115.94
660.716	119.94
660.919	124.94
661.123	117.94
661.326	108.94
661.53	110.94
661.733	115.94
661.936	98.94
662.14	103.94
662.343	87.94
662.546	89.94
662.75	85.94
662.953	73.94
663.156	90.94
663.36	85.94
663.563	99.94
663.766	84.94
663.969	74.94
664.173	77.94
664.376	87.94
664.579	83.94
664.782	81.94
664.985	85.94
665.188	69.94
665.391	71.94
665.594	78.94
665.797	73.94
666	81.94
666.203	77.94
666.406	77.94
666.609	70.94
666.812	83.94
667.015	84.94
667.218	85.94
667.421	91.94
667.624	82.94
667.827	81.94
668.03	71.94
668.232	85.94
668.435	75.94
668.638	74.94
668.841	67.94
669.043	75.94
669.246	72.94
669.449	79.94
669.651	83.94
669.854	79.94
670.057	90.94
670.259	78.94
670.462	75.94
670.665	85.94
670.867	83.94
671.07	80.94
671.272	83.94
671.475	71.94
671.677	71.94
671.88	72.94
672.082	78.94
672.284	77.94
672.487	77.94
672.689	83.94
672.892	72.94
