Data from WStandard_LampEnergy10_LIBS07252019.E.O._I.C._HRD10591_15-55-04-928.txt Node
Date: Thu Jul 25 15:55:04 EDT 2019
User: cochatt
Spectrometer: HR+D1059
Trigger mode: 1
Integration Time (sec): 1.000000E-1
Scans to average: 1
Electric dark correction enabled: true
Nonlinearity correction enabled: false
Boxcar width: 0
XAxis mode: Wavelengths
Number of Pixels in Spectrum: 2048
>>>>>Begin Spectral Data<<<<<
223.165	-21.12
223.4	-21.12
223.635	-21.12
223.869	-0.12
224.104	-28.12
224.338	-13.12
224.573	-14.12
224.808	-13.12
225.042	5.88
225.277	-7.12
225.511	0.88
225.746	9.88
225.98	4.88
226.215	15.88
226.449	8.88
226.683	12.88
226.918	18.88
227.152	18.88
227.387	52.88
227.621	52.88
227.856	28.88
228.09	41.88
228.324	40.88
228.559	51.88
228.793	80.88
229.027	123.88
229.262	136.88
229.496	158.88
229.73	130.88
229.964	161.88
230.199	165.88
230.433	173.88
230.667	181.88
230.901	183.88
231.136	157.88
231.37	159.88
231.604	193.88
231.838	196.88
232.072	173.88
232.306	169.88
232.541	182.88
232.775	196.88
233.009	196.88
233.243	199.88
233.477	204.88
233.711	189.88
233.945	186.88
234.179	188.88
234.413	209.88
234.647	208.88
234.881	201.88
235.115	191.88
235.349	205.88
235.583	177.88
235.817	191.88
236.051	177.88
236.285	189.88
236.519	218.88
236.753	223.88
236.987	218.88
237.221	228.88
237.455	236.88
237.689	236.88
237.922	223.88
238.156	203.88
238.39	209.88
238.624	209.88
238.858	227.88
239.091	244.88
239.325	276.88
239.559	287.88
239.793	290.88
240.027	299.88
240.26	288.88
240.494	240.88
240.728	226.88
240.961	243.88
241.195	228.88
241.429	262.88
241.662	238.88
241.896	246.88
242.13	244.88
242.363	253.88
242.597	267.88
242.83	262.88
243.064	279.88
243.298	280.88
243.531	284.88
243.765	268.88
243.998	282.88
244.232	259.88
244.465	240.88
244.699	261.88
244.932	286.88
245.166	307.88
245.399	306.88
245.633	275.88
245.866	249.88
246.099	271.88
246.333	279.88
246.566	302.88
246.8	317.88
247.033	334.88
247.266	324.88
247.5	320.88
247.733	323.88
247.966	331.88
248.2	342.88
248.433	335.88
248.666	356.88
248.899	381.88
249.133	400.88
249.366	473.88
249.599	366.88
249.832	340.88
250.066	361.88
250.299	347.88
250.532	335.88
250.765	329.88
250.998	327.88
251.231	314.88
251.465	359.88
251.698	320.88
251.931	333.88
252.164	353.88
252.397	373.88
252.63	349.88
252.863	316.88
253.096	317.88
253.329	328.88
253.562	349.88
253.795	370.88
254.028	365.88
254.261	328.88
254.494	320.88
254.727	338.88
254.96	331.88
255.193	356.88
255.426	387.88
255.659	453.88
255.892	455.88
256.124	368.88
256.357	369.88
256.59	391.88
256.823	414.88
257.056	412.88
257.289	472.88
257.521	504.88
257.754	453.88
257.987	458.88
258.22	476.88
258.452	458.88
258.685	398.88
258.918	395.88
259.151	379.88
259.383	362.88
259.616	352.88
259.849	367.88
260.081	406.88
260.314	419.88
260.547	494.88
260.779	462.88
261.012	429.88
261.244	388.88
261.477	379.88
261.71	390.88
261.942	406.88
262.175	399.88
262.407	389.88
262.64	374.88
262.872	363.88
263.105	357.88
263.337	357.88
263.57	376.88
263.802	360.88
264.035	356.88
264.267	346.88
264.499	352.88
264.732	353.88
264.964	382.88
265.197	400.88
265.429	407.88
265.661	444.88
265.894	496.88
266.126	458.88
266.358	447.88
266.591	477.88
266.823	493.88
267.055	448.88
267.287	424.88
267.52	440.88
267.752	438.88
267.984	425.88
268.216	437.88
268.448	449.88
268.681	421.88
268.913	422.88
269.145	413.88
269.377	407.88
269.609	435.88
269.841	489.88
270.073	564.88
270.306	607.88
270.538	594.88
270.77	529.88
271.002	462.88
271.234	456.88
271.466	483.88
271.698	541.88
271.93	591.88
272.162	586.88
272.394	547.88
272.626	514.88
272.858	448.88
273.09	397.88
273.322	388.88
273.553	393.88
273.785	388.88
274.017	440.88
274.249	435.88
274.481	423.88
274.713	416.88
274.945	396.88
275.176	398.88
275.408	397.88
275.64	385.88
275.872	396.88
276.104	442.88
276.335	491.88
276.567	523.88
276.799	490.88
277.031	456.88
277.262	467.88
277.494	492.88
277.726	517.88
277.957	503.88
278.189	452.88
278.421	428.88
278.652	420.88
278.884	405.88
279.115	421.88
279.347	440.88
279.579	425.88
279.81	427.88
280.042	482.88
280.273	506.88
280.505	507.88
280.736	487.88
280.968	461.88
281.199	407.88
281.431	414.88
281.662	412.88
281.894	417.88
282.125	429.88
282.356	437.88
282.588	423.88
282.819	459.88
283.051	480.88
283.282	505.88
283.513	488.88
283.745	419.88
283.976	418.88
284.207	434.88
284.439	443.88
284.67	426.88
284.901	462.88
285.132	448.88
285.364	442.88
285.595	442.88
285.826	449.88
286.057	441.88
286.288	423.88
286.52	479.88
286.751	490.88
286.982	488.88
287.213	456.88
287.444	437.88
287.675	423.88
287.906	460.88
288.138	470.88
288.369	468.88
288.6	434.88
288.831	414.88
289.062	457.88
289.293	444.88
289.524	448.88
289.755	462.88
289.986	465.88
290.217	442.88
290.448	438.88
290.679	471.88
290.91	436.88
291.141	459.88
291.371	483.88
291.602	492.88
291.833	465.88
292.064	472.88
292.295	478.88
292.526	478.88
292.757	470.88
292.987	490.88
293.218	467.88
293.449	514.88
293.68	572.88
293.91	564.88
294.141	555.88
294.372	532.88
294.603	552.88
294.833	540.88
295.064	522.88
295.295	476.88
295.525	450.88
295.756	425.88
295.987	432.88
296.217	440.88
296.448	445.88
296.679	449.88
296.909	451.88
297.14	433.88
297.37	454.88
297.601	498.88
297.831	517.88
298.062	496.88
298.292	491.88
298.523	462.88
298.753	464.88
298.984	467.88
299.214	477.88
299.445	476.88
299.675	478.88
299.905	482.88
300.136	473.88
300.366	471.88
300.597	452.88
300.827	459.88
301.057	487.88
301.288	488.88
301.518	485.88
301.748	518.88
301.979	540.88
302.209	542.88
302.439	585.88
302.669	562.88
302.9	528.88
303.13	513.88
303.36	503.88
303.59	485.88
303.82	496.88
304.051	504.88
304.281	512.88
304.511	534.88
304.741	578.88
304.971	598.88
305.201	615.88
305.431	547.88
305.661	496.88
305.891	440.88
306.121	472.88
306.352	484.88
306.582	496.88
306.812	530.88
307.042	571.88
307.272	558.88
307.502	598.88
307.731	629.88
307.961	609.88
308.191	574.88
308.421	520.88
308.651	486.88
308.881	505.88
309.111	498.88
309.341	520.88
309.571	487.88
309.8	481.88
310.03	477.88
310.26	484.88
310.49	491.88
310.72	522.88
310.949	515.88
311.179	521.88
311.409	497.88
311.639	513.88
311.868	479.88
312.098	525.88
312.328	498.88
312.557	489.88
312.787	508.88
313.017	520.88
313.246	522.88
313.476	523.88
313.706	525.88
313.935	513.88
314.165	525.88
314.394	539.88
314.624	587.88
314.853	599.88
315.083	597.88
315.312	611.88
315.542	571.88
315.771	525.88
316.001	544.88
316.23	562.88
316.46	572.88
316.689	562.88
316.919	529.88
317.148	522.88
317.377	521.88
317.607	596.88
317.836	640.88
318.065	642.88
318.295	598.88
318.524	585.88
318.753	571.88
318.983	560.88
319.212	538.88
319.441	532.88
319.67	545.88
319.9	551.88
320.129	587.88
320.358	601.88
320.587	608.88
320.816	584.88
321.046	577.88
321.275	600.88
321.504	589.88
321.733	613.88
321.962	566.88
322.191	571.88
322.42	557.88
322.649	537.88
322.878	532.88
323.108	516.88
323.337	555.88
323.566	562.88
323.795	558.88
324.024	584.88
324.253	563.88
324.482	546.88
324.71	532.88
324.939	523.88
325.168	531.88
325.397	569.88
325.626	564.88
325.855	548.88
326.084	566.88
326.313	541.88
326.542	555.88
326.77	586.88
326.999	561.88
327.228	537.88
327.457	498.88
327.686	500.88
327.914	534.88
328.143	545.88
328.372	536.88
328.6	563.88
328.829	536.88
329.058	557.88
329.287	558.88
329.515	583.88
329.744	578.88
329.972	621.88
330.201	600.88
330.43	593.88
330.658	567.88
330.887	577.88
331.115	592.88
331.344	591.88
331.572	571.88
331.801	571.88
332.03	577.88
332.258	584.88
332.486	607.88
332.715	587.88
332.943	579.88
333.172	594.88
333.4	589.88
333.629	614.88
333.857	674.88
334.085	705.88
334.314	783.88
334.542	810.88
334.771	716.88
334.999	653.88
335.227	626.88
335.455	616.88
335.684	595.88
335.912	648.88
336.14	654.88
336.369	638.88
336.597	605.88
336.825	595.88
337.053	612.88
337.281	652.88
337.51	669.88
337.738	700.88
337.966	631.88
338.194	586.88
338.422	582.88
338.65	577.88
338.878	582.88
339.106	559.88
339.334	564.88
339.562	557.88
339.79	573.88
340.018	594.88
340.246	608.88
340.474	594.88
340.702	624.88
340.93	621.88
341.158	600.88
341.386	629.88
341.614	591.88
341.842	594.88
342.07	572.88
342.298	593.88
342.526	603.88
342.754	577.88
342.981	592.88
343.209	569.88
343.437	581.88
343.665	589.88
343.893	604.88
344.12	652.88
344.348	635.88
344.576	596.88
344.804	600.88
345.031	585.88
345.259	601.88
345.487	550.88
345.714	533.88
345.942	542.88
346.17	570.88
346.397	563.88
346.625	554.88
346.853	536.88
347.08	540.88
347.308	539.88
347.535	572.88
347.763	589.88
347.99	565.88
348.218	542.88
348.445	527.88
348.673	552.88
348.9	574.88
349.128	601.88
349.355	581.88
349.583	570.88
349.81	551.88
350.037	504.88
350.265	532.88
350.492	518.88
350.72	549.88
350.947	559.88
351.174	579.88
351.402	539.88
351.629	509.88
351.856	518.88
352.083	517.88
352.311	524.88
352.538	543.88
352.765	552.88
352.992	553.88
353.22	542.88
353.447	549.88
353.674	548.88
353.901	540.88
354.128	545.88
354.355	553.88
354.583	609.88
354.81	584.88
355.037	568.88
355.264	567.88
355.491	569.88
355.718	560.88
355.945	557.88
356.172	540.88
356.399	540.88
356.626	545.88
356.853	594.88
357.08	638.88
357.307	680.88
357.534	634.88
357.761	578.88
357.988	540.88
358.215	536.88
358.441	521.88
358.668	535.88
358.895	573.88
359.122	612.88
359.349	619.88
359.576	600.88
359.802	567.88
360.029	528.88
360.256	548.88
360.483	554.88
360.709	582.88
360.936	626.88
361.163	610.88
361.39	678.88
361.616	707.88
361.843	680.88
362.07	646.88
362.296	572.88
362.523	555.88
362.749	553.88
362.976	566.88
363.203	578.88
363.429	554.88
363.656	562.88
363.882	582.88
364.109	628.88
364.335	635.88
364.562	627.88
364.788	578.88
365.015	568.88
365.241	566.88
365.468	563.88
365.694	596.88
365.92	614.88
366.147	550.88
366.373	544.88
366.599	589.88
366.826	553.88
367.052	564.88
367.278	596.88
367.505	605.88
367.731	608.88
367.957	615.88
368.184	617.88
368.41	643.88
368.636	674.88
368.862	659.88
369.089	668.88
369.315	609.88
369.541	584.88
369.767	584.88
369.993	566.88
370.219	586.88
370.445	590.88
370.672	638.88
370.898	642.88
371.124	646.88
371.35	591.88
371.576	656.88
371.802	661.88
372.028	621.88
372.254	613.88
372.48	580.88
372.706	605.88
372.932	604.88
373.158	608.88
373.384	632.88
373.61	633.88
373.835	640.88
374.061	622.88
374.287	639.88
374.513	604.88
374.739	632.88
374.965	635.88
375.191	620.88
375.416	626.88
375.642	668.88
375.868	705.88
376.094	705.88
376.319	678.88
376.545	635.88
376.771	685.88
376.997	692.88
377.222	641.88
377.448	642.88
377.674	671.88
377.899	666.88
378.125	690.88
378.35	687.88
378.576	634.88
378.802	604.88
379.027	620.88
379.253	629.88
379.478	636.88
379.704	627.88
379.929	646.88
380.155	624.88
380.38	656.88
380.606	613.88
380.831	650.88
381.057	709.88
381.282	690.88
381.507	690.88
381.733	721.88
381.958	752.88
382.184	694.88
382.409	637.88
382.634	692.88
382.86	681.88
383.085	660.88
383.31	696.88
383.535	763.88
383.761	775.88
383.986	759.88
384.211	734.88
384.436	740.88
384.662	759.88
384.887	752.88
385.112	747.88
385.337	757.88
385.562	736.88
385.787	710.88
386.013	740.88
386.238	752.88
386.463	748.88
386.688	838.88
386.913	852.88
387.138	818.88
387.363	774.88
387.588	741.88
387.813	780.88
388.038	786.88
388.263	792.88
388.488	754.88
388.713	736.88
388.938	702.88
389.163	701.88
389.387	725.88
389.612	747.88
389.837	706.88
390.062	738.88
390.287	765.88
390.512	734.88
390.736	732.88
390.961	718.88
391.186	716.88
391.411	723.88
391.636	717.88
391.86	728.88
392.085	738.88
392.31	775.88
392.534	738.88
392.759	746.88
392.984	731.88
393.208	758.88
393.433	791.88
393.658	820.88
393.882	794.88
394.107	777.88
394.331	742.88
394.556	756.88
394.78	762.88
395.005	805.88
395.229	842.88
395.454	876.88
395.678	834.88
395.903	810.88
396.127	804.88
396.352	809.88
396.576	820.88
396.801	832.88
397.025	843.88
397.249	800.88
397.474	836.88
397.698	818.88
397.922	845.88
398.147	862.88
398.371	879.88
398.595	884.88
398.82	861.88
399.044	862.88
399.268	916.88
399.492	972.88
399.717	966.88
399.941	974.88
400.165	943.88
400.389	978.88
400.613	984.88
400.837	1091.88
401.062	1184.88
401.286	1008.88
401.51	950.88
401.734	978.88
401.958	960.88
402.182	916.88
402.406	889.88
402.63	880.88
402.854	884.88
403.078	892.88
403.302	880.88
403.526	906.88
403.75	901.88
403.974	907.88
404.198	933.88
404.422	957.88
404.645	1003.88
404.869	968.88
405.093	875.88
405.317	893.88
405.541	869.88
405.765	910.88
405.988	932.88
406.212	953.88
406.436	950.88
406.66	979.88
406.883	1022.88
407.107	1127.88
407.331	1209.88
407.555	1264.88
407.778	1118.88
408.002	957.88
408.226	962.88
408.449	974.88
408.673	933.88
408.896	964.88
409.12	968.88
409.344	909.88
409.567	903.88
409.791	910.88
410.014	950.88
410.238	1017.88
410.461	1022.88
410.685	932.88
410.908	925.88
411.132	944.88
411.355	939.88
411.578	922.88
411.802	892.88
412.025	928.88
412.249	915.88
412.472	914.88
412.695	913.88
412.919	892.88
413.142	876.88
413.365	860.88
413.589	916.88
413.812	986.88
414.035	976.88
414.258	916.88
414.482	880.88
414.705	913.88
414.928	914.88
415.151	880.88
415.374	893.88
415.597	904.88
415.821	934.88
416.044	914.88
416.267	940.88
416.49	901.88
416.713	882.88
416.936	931.88
417.159	962.88
417.382	930.88
417.605	905.88
417.828	923.88
418.051	927.88
418.274	897.88
418.497	892.88
418.72	929.88
418.943	910.88
419.166	938.88
419.389	968.88
419.611	961.88
419.834	930.88
420.057	920.88
420.28	918.88
420.503	914.88
420.726	944.88
420.948	930.88
421.171	900.88
421.394	931.88
421.617	973.88
421.839	968.88
422.062	946.88
422.285	930.88
422.507	891.88
422.73	885.88
422.953	870.88
423.175	849.88
423.398	924.88
423.621	888.88
423.843	946.88
424.066	939.88
424.288	1011.88
424.511	1021.88
424.733	1010.88
424.956	909.88
425.178	921.88
425.401	898.88
425.623	921.88
425.846	926.88
426.068	974.88
426.291	961.88
426.513	936.88
426.735	919.88
426.958	1021.88
427.18	1046.88
427.402	955.88
427.625	992.88
427.847	995.88
428.069	935.88
428.292	897.88
428.514	869.88
428.736	880.88
428.958	888.88
429.181	891.88
429.403	1057.88
429.625	1231.88
429.847	1054.88
430.069	941.88
430.292	1018.88
430.514	999.88
430.736	936.88
430.958	940.88
431.18	910.88
431.402	872.88
431.624	819.88
431.846	783.88
432.068	718.88
432.29	731.88
432.512	786.88
432.734	875.88
432.956	928.88
433.178	980.88
433.4	961.88
433.622	928.88
433.844	880.88
434.066	820.88
434.287	769.88
434.509	760.88
434.731	829.88
434.953	910.88
435.175	922.88
435.397	912.88
435.618	858.88
435.84	827.88
436.062	824.88
436.284	883.88
436.505	929.88
436.727	948.88
436.949	910.88
437.17	902.88
437.392	880.88
437.614	856.88
437.835	806.88
438.057	808.88
438.278	820.88
438.5	872.88
438.721	877.88
438.943	917.88
439.165	926.88
439.386	919.88
439.608	923.88
439.829	922.88
440.05	947.88
440.272	899.88
440.493	937.88
440.715	961.88
440.936	1035.88
441.158	1026.88
441.379	1029.88
441.6	1016.88
441.822	1004.88
442.043	995.88
442.264	981.88
442.486	950.88
442.707	957.88
442.928	968.88
443.149	964.88
443.371	991.88
443.592	1022.88
443.813	989.88
444.034	1001.88
444.255	1010.88
444.476	1015.88
444.698	1011.88
444.919	1026.88
445.14	1142.88
445.361	1103.88
445.582	1064.88
445.803	1017.88
446.024	996.88
446.245	1039.88
446.466	1032.88
446.687	1034.88
446.908	1031.88
447.129	996.88
447.35	993.88
447.571	970.88
447.792	961.88
448.013	920.88
448.234	962.88
448.455	970.88
448.675	962.88
448.896	927.88
449.117	889.88
449.338	909.88
449.559	945.88
449.779	954.88
450	1000.88
450.221	1048.88
450.442	1004.88
450.662	939.88
450.883	875.88
451.104	837.88
451.324	867.88
451.545	838.88
451.766	840.88
451.986	858.88
452.207	814.88
452.428	801.88
452.648	807.88
452.869	777.88
453.089	777.88
453.31	793.88
453.53	745.88
453.751	727.88
453.971	692.88
454.192	699.88
454.412	749.88
454.633	782.88
454.853	770.88
455.073	768.88
455.294	772.88
455.514	762.88
455.734	772.88
455.955	756.88
456.175	723.88
456.395	729.88
456.616	753.88
456.836	722.88
457.056	730.88
457.276	718.88
457.497	699.88
457.717	698.88
457.937	722.88
458.157	699.88
458.377	692.88
458.598	702.88
458.818	682.88
459.038	680.88
459.258	698.88
459.478	694.88
459.698	707.88
459.918	717.88
460.138	797.88
460.358	814.88
460.578	808.88
460.798	830.88
461.018	864.88
461.238	883.88
461.458	850.88
461.678	812.88
461.898	832.88
462.118	790.88
462.338	837.88
462.558	845.88
462.777	843.88
462.997	841.88
463.217	883.88
463.437	862.88
463.657	788.88
463.876	813.88
464.096	797.88
464.316	816.88
464.536	839.88
464.755	872.88
464.975	855.88
465.195	852.88
465.414	869.88
465.634	861.88
465.854	859.88
466.073	931.88
466.293	935.88
466.512	843.88
466.732	883.88
466.951	904.88
467.171	887.88
467.391	850.88
467.61	848.88
467.829	895.88
468.049	972.88
468.268	1026.88
468.488	942.88
468.707	915.88
468.927	903.88
469.146	878.88
469.365	914.88
469.585	909.88
469.804	901.88
470.023	909.88
470.243	970.88
470.462	951.88
470.681	903.88
470.901	913.88
471.12	931.88
471.339	933.88
471.558	918.88
471.777	882.88
471.997	883.88
472.216	845.88
472.435	768.88
472.654	760.88
472.873	793.88
473.092	829.88
473.311	828.88
473.53	816.88
473.749	811.88
473.968	851.88
474.187	836.88
474.406	836.88
474.625	844.88
474.844	885.88
475.063	867.88
475.282	865.88
475.501	831.88
475.72	791.88
475.939	882.88
476.158	879.88
476.377	849.88
476.596	800.88
476.814	814.88
477.033	790.88
477.252	826.88
477.471	874.88
477.69	886.88
477.908	925.88
478.127	964.88
478.346	1009.88
478.564	1016.88
478.783	992.88
479.002	1013.88
479.22	1001.88
479.439	1025.88
479.658	1041.88
479.876	965.88
480.095	912.88
480.313	888.88
480.532	876.88
480.751	871.88
480.969	824.88
481.188	798.88
481.406	774.88
481.624	773.88
481.843	782.88
482.061	829.88
482.28	858.88
482.498	879.88
482.717	832.88
482.935	888.88
483.153	971.88
483.372	985.88
483.59	984.88
483.808	947.88
484.027	961.88
484.245	991.88
484.463	1194.88
484.681	1284.88
484.9	1021.88
485.118	971.88
485.336	916.88
485.554	904.88
485.772	880.88
485.99	825.88
486.209	880.88
486.427	894.88
486.645	939.88
486.863	967.88
487.081	1055.88
487.299	964.88
487.517	991.88
487.735	1072.88
487.953	1180.88
488.171	1178.88
488.389	1114.88
488.607	1073.88
488.825	1160.88
489.043	1029.88
489.261	994.88
489.479	1016.88
489.696	1054.88
489.914	1018.88
490.132	1048.88
490.35	1046.88
490.568	1162.88
490.786	1155.88
491.003	1217.88
491.221	1260.88
491.439	1259.88
491.657	1286.88
491.874	1341.88
492.092	1412.88
492.31	1492.88
492.527	1440.88
492.745	1338.88
492.963	1301.88
493.18	1324.88
493.398	1318.88
493.615	1314.88
493.833	1292.88
494.05	1226.88
494.268	1206.88
494.485	1230.88
494.703	1230.88
494.92	1205.88
495.138	1235.88
495.355	1205.88
495.573	1227.88
495.79	1289.88
496.008	1245.88
496.225	1245.88
496.442	1222.88
496.66	1217.88
496.877	1164.88
497.094	1216.88
497.312	1208.88
497.529	1184.88
497.746	1185.88
497.963	1241.88
498.181	1262.88
498.398	1248.88
498.615	1179.88
498.832	1171.88
499.049	1136.88
499.267	1132.88
499.484	1239.88
499.701	1340.88
499.918	1395.88
500.135	1460.88
500.352	1549.88
500.569	1550.88
500.786	1689.88
501.003	1534.88
501.22	1400.88
501.437	1355.88
501.654	1371.88
501.871	1307.88
502.088	1183.88
502.305	1170.88
502.522	1109.88
502.739	1059.88
502.956	1056.88
503.172	1032.88
503.389	1025.88
503.606	992.88
503.823	1003.88
504.04	976.88
504.256	1013.88
504.473	985.88
504.69	985.88
504.907	962.88
505.123	980.88
505.34	1080.88
505.557	1326.88
505.773	1104.88
505.99	960.88
506.207	886.88
506.423	890.88
506.64	870.88
506.856	892.88
507.073	1010.88
507.289	1049.88
507.506	966.88
507.722	854.88
507.939	854.88
508.155	869.88
508.372	830.88
508.588	808.88
508.805	806.88
509.021	776.88
509.238	756.88
509.454	755.88
509.67	749.88
509.887	738.88
510.103	730.88
510.319	750.88
510.536	766.88
510.752	749.88
510.968	749.88
511.184	787.88
511.401	774.88
511.617	720.88
511.833	704.88
512.049	680.88
512.265	712.88
512.481	689.88
512.698	748.88
512.914	758.88
513.13	714.88
513.346	712.88
513.562	706.88
513.778	722.88
513.994	755.88
514.21	735.88
514.426	766.88
514.642	800.88
514.858	774.88
515.074	725.88
515.29	703.88
515.506	725.88
515.721	774.88
515.937	736.88
516.153	789.88
516.369	754.88
516.585	743.88
516.801	715.88
517.016	692.88
517.232	758.88
517.448	793.88
517.664	785.88
517.879	773.88
518.095	820.88
518.311	775.88
518.527	768.88
518.742	743.88
518.958	750.88
519.173	744.88
519.389	800.88
519.605	799.88
519.82	773.88
520.036	771.88
520.251	750.88
520.467	797.88
520.682	817.88
520.898	784.88
521.113	719.88
521.329	717.88
521.544	756.88
521.76	718.88
521.975	709.88
522.19	699.88
522.406	736.88
522.621	895.88
522.836	847.88
523.052	721.88
523.267	731.88
523.482	754.88
523.698	718.88
523.913	744.88
524.128	768.88
524.343	802.88
524.559	817.88
524.774	802.88
524.989	771.88
525.204	757.88
525.419	720.88
525.634	747.88
525.849	720.88
526.064	724.88
526.28	692.88
526.495	662.88
526.71	641.88
526.925	600.88
527.14	624.88
527.355	601.88
527.57	611.88
527.785	645.88
527.999	641.88
528.214	669.88
528.429	681.88
528.644	713.88
528.859	789.88
529.074	818.88
529.289	858.88
529.503	849.88
529.718	795.88
529.933	717.88
530.148	652.88
530.363	633.88
530.577	610.88
530.792	624.88
531.007	610.88
531.221	597.88
531.436	624.88
531.651	636.88
531.865	653.88
532.08	655.88
532.295	646.88
532.509	604.88
532.724	607.88
532.938	611.88
533.153	684.88
533.367	701.88
533.582	763.88
533.796	724.88
534.011	719.88
534.225	646.88
534.44	628.88
534.654	641.88
534.868	645.88
535.083	657.88
535.297	678.88
535.511	675.88
535.726	681.88
535.94	666.88
536.154	628.88
536.369	619.88
536.583	606.88
536.797	589.88
537.011	608.88
537.225	600.88
537.44	581.88
537.654	621.88
537.868	612.88
538.082	610.88
538.296	589.88
538.51	616.88
538.724	659.88
538.938	691.88
539.153	704.88
539.367	726.88
539.581	680.88
539.795	694.88
540.009	638.88
540.222	635.88
540.436	663.88
540.65	753.88
540.864	803.88
541.078	808.88
541.292	838.88
541.506	884.88
541.72	956.88
541.934	1029.88
542.147	1052.88
542.361	1008.88
542.575	897.88
542.789	834.88
543.002	771.88
543.216	732.88
543.43	732.88
543.644	819.88
543.857	850.88
544.071	893.88
544.285	932.88
544.498	911.88
544.712	926.88
544.925	922.88
545.139	925.88
545.352	941.88
545.566	928.88
545.779	925.88
545.993	941.88
546.206	982.88
546.42	947.88
546.633	917.88
546.847	925.88
547.06	936.88
547.274	969.88
547.487	959.88
547.7	1004.88
547.914	940.88
548.127	914.88
548.34	916.88
548.554	906.88
548.767	944.88
548.98	915.88
549.193	898.88
549.407	963.88
549.62	934.88
549.833	904.88
550.046	899.88
550.259	896.88
550.473	882.88
550.686	878.88
550.899	852.88
551.112	832.88
551.325	806.88
551.538	838.88
551.751	851.88
551.964	713.88
552.177	723.88
552.39	759.88
552.603	826.88
552.816	867.88
553.029	902.88
553.242	906.88
553.455	904.88
553.667	890.88
553.88	906.88
554.093	858.88
554.306	845.88
554.519	843.88
554.732	852.88
554.944	841.88
555.157	828.88
555.37	794.88
555.583	791.88
555.795	771.88
556.008	714.88
556.221	736.88
556.433	714.88
556.646	705.88
556.859	703.88
557.071	698.88
557.284	728.88
557.496	738.88
557.709	749.88
557.921	732.88
558.134	748.88
558.346	702.88
558.559	729.88
558.771	708.88
558.984	708.88
559.196	682.88
559.409	683.88
559.621	662.88
559.833	642.88
560.046	663.88
560.258	668.88
560.47	681.88
560.683	681.88
560.895	652.88
561.107	667.88
561.32	684.88
561.532	662.88
561.744	700.88
561.956	681.88
562.168	649.88
562.381	659.88
562.593	624.88
562.805	652.88
563.017	627.88
563.229	638.88
563.441	640.88
563.653	626.88
563.865	636.88
564.077	616.88
564.289	612.88
564.501	612.88
564.713	635.88
564.925	643.88
565.137	646.88
565.349	632.88
565.561	588.88
565.773	610.88
565.985	629.88
566.197	638.88
566.408	672.88
566.62	648.88
566.832	674.88
567.044	651.88
567.255	648.88
567.467	649.88
567.679	630.88
567.891	624.88
568.102	622.88
568.314	569.88
568.526	532.88
568.737	527.88
568.949	491.88
569.161	485.88
569.372	462.88
569.584	444.88
569.795	465.88
570.007	424.88
570.218	423.88
570.43	424.88
570.641	448.88
570.853	442.88
571.064	473.88
571.276	480.88
571.487	490.88
571.698	477.88
571.91	456.88
572.121	476.88
572.333	452.88
572.544	435.88
572.755	415.88
572.966	386.88
573.178	368.88
573.389	393.88
573.6	409.88
573.811	423.88
574.023	398.88
574.234	392.88
574.445	378.88
574.656	403.88
574.867	398.88
575.078	396.88
575.289	376.88
575.501	387.88
575.712	388.88
575.923	393.88
576.134	377.88
576.345	401.88
576.556	421.88
576.767	389.88
576.978	390.88
577.188	393.88
577.399	369.88
577.61	348.88
577.821	380.88
578.032	371.88
578.243	369.88
578.454	365.88
578.665	356.88
578.875	343.88
579.086	347.88
579.297	352.88
579.508	356.88
579.718	347.88
579.929	329.88
580.14	330.88
580.35	331.88
580.561	369.88
580.772	382.88
580.982	352.88
581.193	345.88
581.403	351.88
581.614	340.88
581.825	348.88
582.035	341.88
582.246	352.88
582.456	332.88
582.667	356.88
582.877	333.88
583.087	338.88
583.298	308.88
583.508	351.88
583.719	322.88
583.929	340.88
584.139	340.88
584.35	310.88
584.56	326.88
584.77	316.88
584.981	349.88
585.191	354.88
585.401	333.88
585.611	329.88
585.821	323.88
586.032	313.88
586.242	294.88
586.452	315.88
586.662	316.88
586.872	300.88
587.082	320.88
587.292	323.88
587.502	324.88
587.713	315.88
587.923	300.88
588.133	309.88
588.343	305.88
588.553	288.88
588.762	287.88
588.972	315.88
589.182	318.88
589.392	324.88
589.602	313.88
589.812	284.88
590.022	317.88
590.232	310.88
590.441	310.88
590.651	330.88
590.861	315.88
591.071	296.88
591.281	307.88
591.49	308.88
591.7	294.88
591.91	302.88
592.119	308.88
592.329	316.88
592.539	300.88
592.748	332.88
592.958	323.88
593.167	312.88
593.377	300.88
593.587	348.88
593.796	328.88
594.006	327.88
594.215	337.88
594.424	321.88
594.634	341.88
594.843	336.88
595.053	350.88
595.262	335.88
595.472	332.88
595.681	326.88
595.89	320.88
596.1	317.88
596.309	326.88
596.518	333.88
596.727	336.88
596.937	315.88
597.146	300.88
597.355	308.88
597.564	298.88
597.774	286.88
597.983	281.88
598.192	279.88
598.401	286.88
598.61	294.88
598.819	287.88
599.028	289.88
599.237	286.88
599.446	295.88
599.655	282.88
599.864	283.88
600.073	298.88
600.282	291.88
600.491	301.88
600.7	297.88
600.909	307.88
601.118	310.88
601.327	321.88
601.536	350.88
601.745	339.88
601.953	340.88
602.162	350.88
602.371	335.88
602.58	338.88
602.789	324.88
602.997	356.88
603.206	338.88
603.415	346.88
603.623	329.88
603.832	340.88
604.041	339.88
604.249	306.88
604.458	278.88
604.666	276.88
604.875	316.88
605.084	309.88
605.292	326.88
605.501	359.88
605.709	374.88
605.918	363.88
606.126	348.88
606.334	350.88
606.543	362.88
606.751	378.88
606.96	359.88
607.168	343.88
607.376	356.88
607.585	344.88
607.793	363.88
608.001	370.88
608.21	362.88
608.418	370.88
608.626	360.88
608.834	340.88
609.043	347.88
609.251	366.88
609.459	368.88
609.667	364.88
609.875	368.88
610.083	376.88
610.291	379.88
610.499	354.88
610.707	350.88
610.916	364.88
611.124	348.88
611.332	346.88
611.54	354.88
611.748	365.88
611.955	370.88
612.163	353.88
612.371	362.88
612.579	354.88
612.787	360.88
612.995	378.88
613.203	371.88
613.411	355.88
613.618	333.88
613.826	353.88
614.034	340.88
614.242	342.88
614.449	346.88
614.657	368.88
614.865	363.88
615.072	349.88
615.28	358.88
615.488	355.88
615.695	352.88
615.903	375.88
616.111	353.88
616.318	365.88
616.526	357.88
616.733	370.88
616.941	341.88
617.148	345.88
617.356	337.88
617.563	334.88
617.771	341.88
617.978	329.88
618.185	326.88
618.393	346.88
618.6	341.88
618.807	362.88
619.015	354.88
619.222	345.88
619.429	324.88
619.637	318.88
619.844	293.88
620.051	288.88
620.258	290.88
620.466	297.88
620.673	310.88
620.88	313.88
621.087	318.88
621.294	304.88
621.501	304.88
621.708	293.88
621.915	315.88
622.122	330.88
622.329	340.88
622.536	306.88
622.743	313.88
622.95	326.88
623.157	308.88
623.364	332.88
623.571	340.88
623.778	311.88
623.985	318.88
624.192	309.88
624.399	315.88
624.606	314.88
624.812	294.88
625.019	301.88
625.226	305.88
625.433	299.88
625.639	290.88
625.846	269.88
626.053	248.88
626.259	236.88
626.466	231.88
626.673	237.88
626.879	227.88
627.086	243.88
627.293	282.88
627.499	296.88
627.706	297.88
627.912	298.88
628.119	296.88
628.325	293.88
628.532	311.88
628.738	294.88
628.945	292.88
629.151	280.88
629.357	288.88
629.564	281.88
629.77	279.88
629.976	274.88
630.183	260.88
630.389	278.88
630.595	263.88
630.802	279.88
631.008	292.88
631.214	264.88
631.42	276.88
631.627	271.88
631.833	253.88
632.039	260.88
632.245	251.88
632.451	263.88
632.657	268.88
632.863	280.88
633.069	270.88
633.275	256.88
633.481	253.88
633.688	270.88
633.893	249.88
634.099	246.88
634.305	266.88
634.511	248.88
634.717	235.88
634.923	235.88
635.129	225.88
635.335	243.88
635.541	231.88
635.747	248.88
635.952	240.88
636.158	244.88
636.364	276.88
636.57	253.88
636.775	282.88
636.981	267.88
637.187	243.88
637.392	246.88
637.598	245.88
637.804	261.88
638.009	268.88
638.215	256.88
638.421	250.88
638.626	241.88
638.832	242.88
639.037	252.88
639.243	248.88
639.448	229.88
639.654	244.88
639.859	238.88
640.065	217.88
640.27	251.88
640.475	248.88
640.681	231.88
640.886	252.88
641.091	245.88
641.297	270.88
641.502	257.88
641.707	257.88
641.913	244.88
642.118	254.88
642.323	256.88
642.528	252.88
642.733	229.88
642.939	249.88
643.144	231.88
643.349	235.88
643.554	227.88
643.759	230.88
643.964	247.88
644.169	244.88
644.374	231.88
644.579	249.88
644.784	241.88
644.989	233.88
645.194	235.88
645.399	237.88
645.604	232.88
645.809	234.88
646.014	243.88
646.219	256.88
646.423	247.88
646.628	227.88
646.833	262.88
647.038	237.88
647.243	244.88
647.447	250.88
647.652	240.88
647.857	244.88
648.062	240.88
648.266	243.88
648.471	235.88
648.676	252.88
648.88	242.88
649.085	252.88
649.289	248.88
649.494	229.88
649.698	221.88
649.903	227.88
650.107	208.88
650.312	226.88
650.516	219.88
650.721	220.88
650.925	224.88
651.13	237.88
651.334	219.88
651.539	235.88
651.743	225.88
651.947	219.88
652.152	216.88
652.356	220.88
652.56	204.88
652.764	213.88
652.969	204.88
653.173	203.88
653.377	216.88
653.581	202.88
653.785	220.88
653.99	199.88
654.194	196.88
654.398	209.88
654.602	197.88
654.806	197.88
655.01	213.88
655.214	203.88
655.418	204.88
655.622	205.88
655.826	216.88
656.03	199.88
656.234	213.88
656.438	234.88
656.642	235.88
656.846	223.88
657.049	202.88
657.253	203.88
657.457	195.88
657.661	177.88
657.865	173.88
658.068	159.88
658.272	168.88
658.476	176.88
658.68	141.88
658.883	157.88
659.087	156.88
659.291	137.88
659.494	146.88
659.698	138.88
659.901	144.88
660.105	117.88
660.309	122.88
660.512	124.88
660.716	122.88
660.919	128.88
661.123	114.88
661.326	115.88
661.53	100.88
661.733	115.88
661.936	107.88
662.14	97.88
662.343	97.88
662.546	98.88
662.75	97.88
662.953	87.88
663.156	92.88
663.36	90.88
663.563	100.88
663.766	92.88
663.969	104.88
664.173	78.88
664.376	87.88
664.579	78.88
664.782	93.88
664.985	85.88
665.188	89.88
665.391	91.88
665.594	89.88
665.797	96.88
666	73.88
666.203	71.88
666.406	82.88
666.609	78.88
666.812	96.88
667.015	83.88
667.218	74.88
667.421	78.88
667.624	83.88
667.827	80.88
668.03	86.88
668.232	81.88
668.435	90.88
668.638	78.88
668.841	80.88
669.043	84.88
669.246	81.88
669.449	81.88
669.651	93.88
669.854	78.88
670.057	82.88
670.259	92.88
670.462	86.88
670.665	74.88
670.867	88.88
671.07	76.88
671.272	75.88
671.475	96.88
671.677	75.88
671.88	78.88
672.082	81.88
672.284	79.88
672.487	74.88
672.689	84.88
672.892	80.88
