Data from WStandard_LampEnergy8_LIBS07252019.E.O._I.C._HRD10591_15-57-54-929.txt Node
Date: Thu Jul 25 15:57:54 EDT 2019
User: cochatt
Spectrometer: HR+D1059
Trigger mode: 1
Integration Time (sec): 1.000000E-1
Scans to average: 1
Electric dark correction enabled: true
Nonlinearity correction enabled: false
Boxcar width: 0
XAxis mode: Wavelengths
Number of Pixels in Spectrum: 2048
>>>>>Begin Spectral Data<<<<<
223.165	-20.31
223.4	-20.31
223.635	-20.31
223.869	-12.31
224.104	-9.31
224.338	-9.31
224.573	-11.31
224.808	-12.31
225.042	-17.31
225.277	-17.31
225.511	-4.31
225.746	16.69
225.98	12.69
226.215	4.69
226.449	12.69
226.683	20.69
226.918	21.69
227.152	24.69
227.387	32.69
227.621	36.69
227.856	46.69
228.09	54.69
228.324	40.69
228.559	53.69
228.793	99.69
229.027	203.69
229.262	216.69
229.496	201.69
229.73	238.69
229.964	260.69
230.199	272.69
230.433	266.69
230.667	280.69
230.901	296.69
231.136	283.69
231.37	266.69
231.604	261.69
231.838	251.69
232.072	265.69
232.306	255.69
232.541	293.69
232.775	302.69
233.009	331.69
233.243	321.69
233.477	292.69
233.711	307.69
233.945	311.69
234.179	320.69
234.413	343.69
234.647	345.69
234.881	309.69
235.115	290.69
235.349	298.69
235.583	301.69
235.817	316.69
236.051	305.69
236.285	297.69
236.519	318.69
236.753	354.69
236.987	379.69
237.221	374.69
237.455	386.69
237.689	390.69
237.922	355.69
238.156	343.69
238.39	347.69
238.624	396.69
238.858	405.69
239.091	405.69
239.325	403.69
239.559	451.69
239.793	509.69
240.027	529.69
240.26	509.69
240.494	379.69
240.728	378.69
240.961	390.69
241.195	380.69
241.429	435.69
241.662	429.69
241.896	387.69
242.13	398.69
242.363	433.69
242.597	467.69
242.83	466.69
243.064	458.69
243.298	477.69
243.531	448.69
243.765	477.69
243.998	466.69
244.232	415.69
244.465	427.69
244.699	429.69
244.932	450.69
245.166	517.69
245.399	489.69
245.633	454.69
245.866	476.69
246.099	480.69
246.333	491.69
246.566	509.69
246.8	543.69
247.033	583.69
247.266	529.69
247.5	534.69
247.733	552.69
247.966	585.69
248.2	614.69
248.433	595.69
248.666	599.69
248.899	651.69
249.133	753.69
249.366	820.69
249.599	686.69
249.832	616.69
250.066	639.69
250.299	633.69
250.532	606.69
250.765	533.69
250.998	577.69
251.231	595.69
251.465	609.69
251.698	597.69
251.931	582.69
252.164	605.69
252.397	590.69
252.63	582.69
252.863	558.69
253.096	562.69
253.329	561.69
253.562	595.69
253.795	661.69
254.028	589.69
254.261	586.69
254.494	578.69
254.727	565.69
254.96	585.69
255.193	639.69
255.426	709.69
255.659	788.69
255.892	789.69
256.124	677.69
256.357	690.69
256.59	716.69
256.823	714.69
257.056	716.69
257.289	855.69
257.521	906.69
257.754	858.69
257.987	781.69
258.22	841.69
258.452	817.69
258.685	663.69
258.918	657.69
259.151	667.69
259.383	629.69
259.616	591.69
259.849	621.69
260.081	691.69
260.314	777.69
260.547	825.69
260.779	831.69
261.012	758.69
261.244	713.69
261.477	645.69
261.71	690.69
261.942	713.69
262.175	697.69
262.407	711.69
262.64	677.69
262.872	651.69
263.105	634.69
263.337	646.69
263.57	634.69
263.802	636.69
264.035	602.69
264.267	579.69
264.499	585.69
264.732	617.69
264.964	645.69
265.197	661.69
265.429	703.69
265.661	793.69
265.894	843.69
266.126	825.69
266.358	798.69
266.591	799.69
266.823	860.69
267.055	798.69
267.287	789.69
267.52	769.69
267.752	770.69
267.984	776.69
268.216	791.69
268.448	809.69
268.681	793.69
268.913	734.69
269.145	727.69
269.377	678.69
269.609	779.69
269.841	899.69
270.073	1013.69
270.306	1107.69
270.538	1143.69
270.77	988.69
271.002	856.69
271.234	814.69
271.466	823.69
271.698	961.69
271.93	1027.69
272.162	1044.69
272.394	959.69
272.626	917.69
272.858	786.69
273.09	695.69
273.322	713.69
273.553	679.69
273.785	685.69
274.017	734.69
274.249	777.69
274.481	753.69
274.713	716.69
274.945	692.69
275.176	694.69
275.408	696.69
275.64	686.69
275.872	689.69
276.104	732.69
276.335	836.69
276.567	949.69
276.799	929.69
277.031	843.69
277.262	809.69
277.494	877.69
277.726	906.69
277.957	917.69
278.189	821.69
278.421	756.69
278.652	767.69
278.884	730.69
279.115	721.69
279.347	764.69
279.579	746.69
279.81	753.69
280.042	825.69
280.273	883.69
280.505	893.69
280.736	894.69
280.968	827.69
281.199	753.69
281.431	732.69
281.662	711.69
281.894	749.69
282.125	747.69
282.356	756.69
282.588	762.69
282.819	782.69
283.051	855.69
283.282	895.69
283.513	857.69
283.745	767.69
283.976	705.69
284.207	709.69
284.439	757.69
284.67	772.69
284.901	779.69
285.132	781.69
285.364	777.69
285.595	780.69
285.826	761.69
286.057	768.69
286.288	744.69
286.52	794.69
286.751	866.69
286.982	834.69
287.213	789.69
287.444	762.69
287.675	753.69
287.906	793.69
288.138	831.69
288.369	810.69
288.6	773.69
288.831	728.69
289.062	757.69
289.293	748.69
289.524	777.69
289.755	776.69
289.986	798.69
290.217	771.69
290.448	745.69
290.679	802.69
290.91	799.69
291.141	811.69
291.371	828.69
291.602	807.69
291.833	839.69
292.064	837.69
292.295	838.69
292.526	867.69
292.757	863.69
292.987	822.69
293.218	824.69
293.449	876.69
293.68	986.69
293.91	995.69
294.141	943.69
294.372	916.69
294.603	978.69
294.833	983.69
295.064	906.69
295.295	872.69
295.525	837.69
295.756	793.69
295.987	734.69
296.217	743.69
296.448	775.69
296.679	792.69
296.909	781.69
297.14	792.69
297.37	781.69
297.601	825.69
297.831	887.69
298.062	861.69
298.292	815.69
298.523	794.69
298.753	777.69
298.984	789.69
299.214	810.69
299.445	824.69
299.675	827.69
299.905	844.69
300.136	828.69
300.366	799.69
300.597	763.69
300.827	781.69
301.057	809.69
301.288	852.69
301.518	847.69
301.748	890.69
301.979	906.69
302.209	931.69
302.439	977.69
302.669	1046.69
302.9	943.69
303.13	867.69
303.36	878.69
303.59	883.69
303.82	843.69
304.051	860.69
304.281	856.69
304.511	865.69
304.741	942.69
304.971	1035.69
305.201	1094.69
305.431	959.69
305.661	833.69
305.891	775.69
306.121	783.69
306.352	795.69
306.582	850.69
306.812	899.69
307.042	977.69
307.272	981.69
307.502	1000.69
307.731	1062.69
307.961	1107.69
308.191	1005.69
308.421	864.69
308.651	862.69
308.881	855.69
309.111	834.69
309.341	841.69
309.571	857.69
309.8	828.69
310.03	838.69
310.26	799.69
310.49	827.69
310.72	847.69
310.949	925.69
311.179	881.69
311.409	851.69
311.639	850.69
311.868	837.69
312.098	833.69
312.328	853.69
312.557	872.69
312.787	855.69
313.017	866.69
313.246	872.69
313.476	861.69
313.706	901.69
313.935	913.69
314.165	913.69
314.394	910.69
314.624	1022.69
314.853	1061.69
315.083	1074.69
315.312	1067.69
315.542	973.69
315.771	880.69
316.001	913.69
316.23	980.69
316.46	959.69
316.689	926.69
316.919	879.69
317.148	841.69
317.377	915.69
317.607	955.69
317.836	1047.69
318.065	1082.69
318.295	1044.69
318.524	1007.69
318.753	956.69
318.983	951.69
319.212	942.69
319.441	903.69
319.67	920.69
319.9	955.69
320.129	969.69
320.358	1016.69
320.587	1059.69
320.816	1057.69
321.046	1017.69
321.275	958.69
321.504	990.69
321.733	1060.69
321.962	987.69
322.191	923.69
322.42	937.69
322.649	919.69
322.878	933.69
323.108	929.69
323.337	969.69
323.566	978.69
323.795	964.69
324.024	954.69
324.253	939.69
324.482	952.69
324.71	923.69
324.939	871.69
325.168	911.69
325.397	933.69
325.626	963.69
325.855	933.69
326.084	933.69
326.313	938.69
326.542	937.69
326.77	977.69
326.999	993.69
327.228	918.69
327.457	895.69
327.686	854.69
327.914	906.69
328.143	921.69
328.372	943.69
328.6	911.69
328.829	922.69
329.058	907.69
329.287	941.69
329.515	917.69
329.744	967.69
329.972	1010.69
330.201	1021.69
330.43	1001.69
330.658	983.69
330.887	991.69
331.115	983.69
331.344	969.69
331.572	978.69
331.801	974.69
332.03	979.69
332.258	996.69
332.486	999.69
332.715	975.69
332.943	985.69
333.172	1006.69
333.4	995.69
333.629	1030.69
333.857	1080.69
334.085	1223.69
334.314	1393.69
334.542	1448.69
334.771	1317.69
334.999	1159.69
335.227	1112.69
335.455	1017.69
335.684	1047.69
335.912	1068.69
336.14	1065.69
336.369	1049.69
336.597	1010.69
336.825	999.69
337.053	1047.69
337.281	1135.69
337.51	1165.69
337.738	1180.69
337.966	1114.69
338.194	1017.69
338.422	1010.69
338.65	992.69
338.878	941.69
339.106	924.69
339.334	945.69
339.562	897.69
339.79	964.69
340.018	1015.69
340.246	1055.69
340.474	1065.69
340.702	1009.69
340.93	1051.69
341.158	1002.69
341.386	996.69
341.614	1002.69
341.842	1004.69
342.07	999.69
342.298	1009.69
342.526	969.69
342.754	968.69
342.981	967.69
343.209	968.69
343.437	956.69
343.665	962.69
343.893	1049.69
344.12	1047.69
344.348	1035.69
344.576	1004.69
344.804	986.69
345.031	981.69
345.259	972.69
345.487	914.69
345.714	897.69
345.942	924.69
346.17	919.69
346.397	919.69
346.625	902.69
346.853	883.69
347.08	861.69
347.308	913.69
347.535	914.69
347.763	960.69
347.99	938.69
348.218	889.69
348.445	924.69
348.673	951.69
348.9	963.69
349.128	985.69
349.355	1010.69
349.583	956.69
349.81	937.69
350.037	851.69
350.265	861.69
350.492	867.69
350.72	894.69
350.947	939.69
351.174	955.69
351.402	895.69
351.629	841.69
351.856	877.69
352.083	837.69
352.311	854.69
352.538	899.69
352.765	947.69
352.992	947.69
353.22	912.69
353.447	877.69
353.674	917.69
353.901	909.69
354.128	903.69
354.355	902.69
354.583	927.69
354.81	953.69
355.037	964.69
355.264	965.69
355.491	932.69
355.718	913.69
355.945	900.69
356.172	895.69
356.399	884.69
356.626	899.69
356.853	936.69
357.08	1028.69
357.307	1128.69
357.534	1079.69
357.761	946.69
357.988	895.69
358.215	865.69
358.441	830.69
358.668	877.69
358.895	905.69
359.122	955.69
359.349	1035.69
359.576	1002.69
359.802	924.69
360.029	899.69
360.256	900.69
360.483	925.69
360.709	952.69
360.936	965.69
361.163	1010.69
361.39	1117.69
361.616	1173.69
361.843	1141.69
362.07	1077.69
362.296	956.69
362.523	922.69
362.749	905.69
362.976	945.69
363.203	945.69
363.429	922.69
363.656	878.69
363.882	953.69
364.109	1083.69
364.335	1110.69
364.562	1015.69
364.788	964.69
365.015	939.69
365.241	903.69
365.468	931.69
365.694	976.69
365.92	1014.69
366.147	959.69
366.373	910.69
366.599	898.69
366.826	911.69
367.052	930.69
367.278	912.69
367.505	902.69
367.731	959.69
367.957	960.69
368.184	1002.69
368.41	1068.69
368.636	1061.69
368.862	1061.69
369.089	1033.69
369.315	1031.69
369.541	978.69
369.767	926.69
369.993	923.69
370.219	911.69
370.445	918.69
370.672	1039.69
370.898	1052.69
371.124	1027.69
371.35	998.69
371.576	1033.69
371.802	1031.69
372.028	986.69
372.254	967.69
372.48	955.69
372.706	932.69
372.932	929.69
373.158	929.69
373.384	998.69
373.61	1011.69
373.835	1025.69
374.061	975.69
374.287	963.69
374.513	945.69
374.739	1014.69
374.965	988.69
375.191	993.69
375.416	983.69
375.642	1025.69
375.868	1096.69
376.094	1086.69
376.319	1028.69
376.545	966.69
376.771	1013.69
376.997	1076.69
377.222	1056.69
377.448	1043.69
377.674	1032.69
377.899	1086.69
378.125	1107.69
378.35	1056.69
378.576	957.69
378.802	949.69
379.027	956.69
379.253	965.69
379.478	952.69
379.704	983.69
379.929	976.69
380.155	972.69
380.38	997.69
380.606	1001.69
380.831	993.69
381.057	1089.69
381.282	1046.69
381.507	1060.69
381.733	1112.69
381.958	1135.69
382.184	1051.69
382.409	1031.69
382.634	1067.69
382.86	1042.69
383.085	1039.69
383.31	1087.69
383.535	1181.69
383.761	1238.69
383.986	1150.69
384.211	1112.69
384.436	1123.69
384.662	1169.69
384.887	1203.69
385.112	1139.69
385.337	1165.69
385.562	1096.69
385.787	1141.69
386.013	1126.69
386.238	1157.69
386.463	1146.69
386.688	1246.69
386.913	1287.69
387.138	1267.69
387.363	1191.69
387.588	1154.69
387.813	1139.69
388.038	1168.69
388.263	1159.69
388.488	1131.69
388.713	1085.69
388.938	1066.69
389.163	1077.69
389.387	1099.69
389.612	1133.69
389.837	1128.69
390.062	1138.69
390.287	1147.69
390.512	1094.69
390.736	1102.69
390.961	1092.69
391.186	1062.69
391.411	1057.69
391.636	1115.69
391.86	1144.69
392.085	1125.69
392.31	1103.69
392.534	1099.69
392.759	1142.69
392.984	1095.69
393.208	1136.69
393.433	1183.69
393.658	1237.69
393.882	1209.69
394.107	1144.69
394.331	1113.69
394.556	1115.69
394.78	1144.69
395.005	1191.69
395.229	1245.69
395.454	1303.69
395.678	1299.69
395.903	1207.69
396.127	1194.69
396.352	1205.69
396.576	1198.69
396.801	1219.69
397.025	1235.69
397.249	1216.69
397.474	1196.69
397.698	1204.69
397.922	1269.69
398.147	1289.69
398.371	1375.69
398.595	1339.69
398.82	1234.69
399.044	1299.69
399.268	1374.69
399.492	1434.69
399.717	1483.69
399.941	1462.69
400.165	1447.69
400.389	1402.69
400.613	1418.69
400.837	1654.69
401.062	1755.69
401.286	1529.69
401.51	1447.69
401.734	1470.69
401.958	1391.69
402.182	1319.69
402.406	1273.69
402.63	1242.69
402.854	1269.69
403.078	1267.69
403.302	1288.69
403.526	1329.69
403.75	1339.69
403.974	1382.69
404.198	1353.69
404.422	1419.69
404.645	1447.69
404.869	1422.69
405.093	1333.69
405.317	1287.69
405.541	1309.69
405.765	1338.69
405.988	1338.69
406.212	1345.69
406.436	1377.69
406.66	1415.69
406.883	1463.69
407.107	1625.69
407.331	1769.69
407.555	1898.69
407.778	1702.69
408.002	1436.69
408.226	1431.69
408.449	1382.69
408.673	1341.69
408.896	1366.69
409.12	1407.69
409.344	1341.69
409.567	1301.69
409.791	1362.69
410.014	1384.69
410.238	1470.69
410.461	1505.69
410.685	1378.69
410.908	1302.69
411.132	1337.69
411.355	1377.69
411.578	1326.69
411.802	1348.69
412.025	1370.69
412.249	1294.69
412.472	1259.69
412.695	1305.69
412.919	1256.69
413.142	1260.69
413.365	1273.69
413.589	1335.69
413.812	1395.69
414.035	1429.69
414.258	1307.69
414.482	1286.69
414.705	1291.69
414.928	1293.69
415.151	1257.69
415.374	1313.69
415.597	1299.69
415.821	1335.69
416.044	1361.69
416.267	1325.69
416.49	1224.69
416.713	1249.69
416.936	1298.69
417.159	1388.69
417.382	1350.69
417.605	1310.69
417.828	1317.69
418.051	1318.69
418.274	1301.69
418.497	1252.69
418.72	1259.69
418.943	1259.69
419.166	1325.69
419.389	1332.69
419.611	1259.69
419.834	1249.69
420.057	1287.69
420.28	1274.69
420.503	1302.69
420.726	1287.69
420.948	1292.69
421.171	1243.69
421.394	1292.69
421.617	1335.69
421.839	1279.69
422.062	1299.69
422.285	1265.69
422.507	1270.69
422.73	1241.69
422.953	1211.69
423.175	1225.69
423.398	1263.69
423.621	1287.69
423.843	1247.69
424.066	1309.69
424.288	1381.69
424.511	1404.69
424.733	1374.69
424.956	1234.69
425.178	1180.69
425.401	1227.69
425.623	1263.69
425.846	1245.69
426.068	1318.69
426.291	1324.69
426.513	1291.69
426.735	1332.69
426.958	1449.69
427.18	1485.69
427.402	1370.69
427.625	1447.69
427.847	1374.69
428.069	1277.69
428.292	1239.69
428.514	1251.69
428.736	1234.69
428.958	1238.69
429.181	1274.69
429.403	1458.69
429.625	1745.69
429.847	1462.69
430.069	1293.69
430.292	1423.69
430.514	1460.69
430.736	1326.69
430.958	1377.69
431.18	1270.69
431.402	1217.69
431.624	1201.69
431.846	1170.69
432.068	1103.69
432.29	1150.69
432.512	1186.69
432.734	1221.69
432.956	1288.69
433.178	1313.69
433.4	1290.69
433.622	1275.69
433.844	1247.69
434.066	1198.69
434.287	1161.69
434.509	1173.69
434.731	1267.69
434.953	1348.69
435.175	1341.69
435.397	1294.69
435.618	1253.69
435.84	1251.69
436.062	1209.69
436.284	1262.69
436.505	1325.69
436.727	1307.69
436.949	1279.69
437.17	1223.69
437.392	1205.69
437.614	1197.69
437.835	1129.69
438.057	1215.69
438.278	1208.69
438.5	1220.69
438.721	1207.69
438.943	1241.69
439.165	1184.69
439.386	1195.69
439.608	1240.69
439.829	1249.69
440.05	1238.69
440.272	1208.69
440.493	1221.69
440.715	1242.69
440.936	1361.69
441.158	1400.69
441.379	1385.69
441.6	1366.69
441.822	1337.69
442.043	1317.69
442.264	1270.69
442.486	1246.69
442.707	1276.69
442.928	1230.69
443.149	1263.69
443.371	1350.69
443.592	1390.69
443.813	1389.69
444.034	1345.69
444.255	1354.69
444.476	1366.69
444.698	1363.69
444.919	1362.69
445.14	1447.69
445.361	1442.69
445.582	1441.69
445.803	1399.69
446.024	1362.69
446.245	1405.69
446.466	1366.69
446.687	1333.69
446.908	1309.69
447.129	1298.69
447.35	1319.69
447.571	1309.69
447.792	1239.69
448.013	1236.69
448.234	1241.69
448.455	1293.69
448.675	1324.69
448.896	1220.69
449.117	1190.69
449.338	1261.69
449.559	1285.69
449.779	1337.69
450	1433.69
450.221	1459.69
450.442	1434.69
450.662	1284.69
450.883	1153.69
451.104	1171.69
451.324	1194.69
451.545	1213.69
451.766	1185.69
451.986	1171.69
452.207	1135.69
452.428	1095.69
452.648	1067.69
452.869	1082.69
453.089	1115.69
453.31	1141.69
453.53	1151.69
453.751	1088.69
453.971	1051.69
454.192	1079.69
454.412	1157.69
454.633	1114.69
454.853	1093.69
455.073	1071.69
455.294	1061.69
455.514	1045.69
455.734	1068.69
455.955	1088.69
456.175	1065.69
456.395	1060.69
456.616	1064.69
456.836	1095.69
457.056	1099.69
457.276	1076.69
457.497	1025.69
457.717	991.69
457.937	1026.69
458.157	1057.69
458.377	1025.69
458.598	1036.69
458.818	1027.69
459.038	1063.69
459.258	1125.69
459.478	1150.69
459.698	1079.69
459.918	1138.69
460.138	1186.69
460.358	1210.69
460.578	1229.69
460.798	1284.69
461.018	1314.69
461.238	1295.69
461.458	1233.69
461.678	1223.69
461.898	1199.69
462.118	1187.69
462.338	1215.69
462.558	1244.69
462.777	1208.69
462.997	1307.69
463.217	1380.69
463.437	1333.69
463.657	1238.69
463.876	1236.69
464.096	1238.69
464.316	1248.69
464.536	1285.69
464.755	1286.69
464.975	1274.69
465.195	1249.69
465.414	1287.69
465.634	1312.69
465.854	1285.69
466.073	1407.69
466.293	1358.69
466.512	1171.69
466.732	1187.69
466.951	1211.69
467.171	1239.69
467.391	1185.69
467.61	1199.69
467.829	1220.69
468.049	1333.69
468.268	1426.69
468.488	1305.69
468.707	1268.69
468.927	1231.69
469.146	1194.69
469.365	1209.69
469.585	1227.69
469.804	1195.69
470.023	1210.69
470.243	1225.69
470.462	1217.69
470.681	1195.69
470.901	1193.69
471.12	1225.69
471.339	1222.69
471.558	1181.69
471.777	1209.69
471.997	1221.69
472.216	1186.69
472.435	1128.69
472.654	1130.69
472.873	1196.69
473.092	1211.69
473.311	1157.69
473.53	1123.69
473.749	1130.69
473.968	1186.69
474.187	1217.69
474.406	1214.69
474.625	1211.69
474.844	1195.69
475.063	1197.69
475.282	1210.69
475.501	1186.69
475.72	1187.69
475.939	1266.69
476.158	1249.69
476.377	1226.69
476.596	1191.69
476.814	1205.69
477.033	1201.69
477.252	1255.69
477.471	1263.69
477.69	1252.69
477.908	1254.69
478.127	1343.69
478.346	1423.69
478.564	1415.69
478.783	1406.69
479.002	1442.69
479.22	1393.69
479.439	1454.69
479.658	1594.69
479.876	1495.69
480.095	1347.69
480.313	1323.69
480.532	1257.69
480.751	1254.69
480.969	1297.69
481.188	1244.69
481.406	1213.69
481.624	1158.69
481.843	1253.69
482.061	1281.69
482.28	1304.69
482.498	1322.69
482.717	1320.69
482.935	1258.69
483.153	1312.69
483.372	1311.69
483.59	1333.69
483.808	1355.69
484.027	1326.69
484.245	1416.69
484.463	1729.69
484.681	1892.69
484.9	1502.69
485.118	1372.69
485.336	1305.69
485.554	1361.69
485.772	1382.69
485.99	1345.69
486.209	1368.69
486.427	1349.69
486.645	1395.69
486.863	1401.69
487.081	1455.69
487.299	1439.69
487.517	1423.69
487.735	1431.69
487.953	1471.69
488.171	1473.69
488.389	1450.69
488.607	1415.69
488.825	1615.69
489.043	1503.69
489.261	1379.69
489.479	1438.69
489.696	1454.69
489.914	1463.69
490.132	1414.69
490.35	1453.69
490.568	1501.69
490.786	1490.69
491.003	1448.69
491.221	1500.69
491.439	1576.69
491.657	1632.69
491.874	1617.69
492.092	1632.69
492.31	1690.69
492.527	1666.69
492.745	1619.69
492.963	1563.69
493.18	1582.69
493.398	1662.69
493.615	1702.69
493.833	1578.69
494.05	1541.69
494.268	1559.69
494.485	1563.69
494.703	1521.69
494.92	1510.69
495.138	1537.69
495.355	1529.69
495.573	1595.69
495.79	1658.69
496.008	1651.69
496.225	1550.69
496.442	1566.69
496.66	1577.69
496.877	1555.69
497.094	1633.69
497.312	1614.69
497.529	1617.69
497.746	1652.69
497.963	1852.69
498.181	1963.69
498.398	1883.69
498.615	1845.69
498.832	1740.69
499.049	1741.69
499.267	1748.69
499.484	1850.69
499.701	1968.69
499.918	2037.69
500.135	2173.69
500.352	2309.69
500.569	2305.69
500.786	2499.69
501.003	2268.69
501.22	2045.69
501.437	2058.69
501.654	2089.69
501.871	1988.69
502.088	1731.69
502.305	1756.69
502.522	1639.69
502.739	1578.69
502.956	1513.69
503.172	1559.69
503.389	1511.69
503.606	1467.69
503.823	1463.69
504.04	1459.69
504.256	1447.69
504.473	1485.69
504.69	1496.69
504.907	1448.69
505.123	1395.69
505.34	1538.69
505.557	2011.69
505.773	1617.69
505.99	1403.69
506.207	1287.69
506.423	1276.69
506.64	1250.69
506.856	1273.69
507.073	1473.69
507.289	1622.69
507.506	1474.69
507.722	1306.69
507.939	1242.69
508.155	1231.69
508.372	1242.69
508.588	1188.69
508.805	1195.69
509.021	1147.69
509.238	1119.69
509.454	1153.69
509.67	1111.69
509.887	1106.69
510.103	1107.69
510.319	1084.69
510.536	1173.69
510.752	1217.69
510.968	1191.69
511.184	1271.69
511.401	1235.69
511.617	1127.69
511.833	1080.69
512.049	1101.69
512.265	1089.69
512.481	1074.69
512.698	1137.69
512.914	1157.69
513.13	1155.69
513.346	1145.69
513.562	1060.69
513.778	1096.69
513.994	1150.69
514.21	1167.69
514.426	1190.69
514.642	1294.69
514.858	1194.69
515.074	1127.69
515.29	1139.69
515.506	1161.69
515.721	1150.69
515.937	1166.69
516.153	1283.69
516.369	1233.69
516.585	1168.69
516.801	1108.69
517.016	1164.69
517.232	1172.69
517.448	1161.69
517.664	1182.69
517.879	1198.69
518.095	1260.69
518.311	1193.69
518.527	1150.69
518.742	1163.69
518.958	1151.69
519.173	1127.69
519.389	1177.69
519.605	1148.69
519.82	1173.69
520.036	1177.69
520.251	1109.69
520.467	1137.69
520.682	1257.69
520.898	1238.69
521.113	1111.69
521.329	1094.69
521.544	1165.69
521.76	1122.69
521.975	1078.69
522.19	1089.69
522.406	1108.69
522.621	1386.69
522.836	1318.69
523.052	1102.69
523.267	1089.69
523.482	1095.69
523.698	1038.69
523.913	1025.69
524.128	1059.69
524.343	1144.69
524.559	1148.69
524.774	1085.69
524.989	1059.69
525.204	1051.69
525.419	1020.69
525.634	1033.69
525.849	1048.69
526.064	1057.69
526.28	1054.69
526.495	983.69
526.71	979.69
526.925	980.69
527.14	994.69
527.355	952.69
527.57	983.69
527.785	999.69
527.999	995.69
528.214	926.69
528.429	981.69
528.644	1018.69
528.859	1067.69
529.074	1067.69
529.289	1095.69
529.503	1107.69
529.718	1067.69
529.933	982.69
530.148	966.69
530.363	962.69
530.577	993.69
530.792	971.69
531.007	984.69
531.221	975.69
531.436	979.69
531.651	1029.69
531.865	1033.69
532.08	1005.69
532.295	949.69
532.509	923.69
532.724	932.69
532.938	991.69
533.153	1067.69
533.367	1046.69
533.582	1017.69
533.796	999.69
534.011	1007.69
534.225	983.69
534.44	961.69
534.654	958.69
534.868	956.69
535.083	1012.69
535.297	1021.69
535.511	996.69
535.726	993.69
535.94	994.69
536.154	949.69
536.369	938.69
536.583	901.69
536.797	893.69
537.011	949.69
537.225	905.69
537.44	898.69
537.654	977.69
537.868	956.69
538.082	891.69
538.296	896.69
538.51	900.69
538.724	908.69
538.938	953.69
539.153	979.69
539.367	987.69
539.581	957.69
539.795	1001.69
540.009	954.69
540.222	949.69
540.436	963.69
540.65	1029.69
540.864	1070.69
541.078	1052.69
541.292	1026.69
541.506	1066.69
541.72	1086.69
541.934	1143.69
542.147	1174.69
542.361	1151.69
542.575	1042.69
542.789	1011.69
543.002	934.69
543.216	969.69
543.43	1010.69
543.644	1026.69
543.857	1094.69
544.071	1072.69
544.285	1070.69
544.498	1073.69
544.712	1091.69
544.925	1096.69
545.139	1112.69
545.352	1077.69
545.566	1068.69
545.779	1073.69
545.993	1073.69
546.206	1113.69
546.42	1083.69
546.633	1035.69
546.847	1047.69
547.06	1068.69
547.274	1064.69
547.487	1048.69
547.7	1086.69
547.914	1071.69
548.127	1080.69
548.34	1073.69
548.554	1085.69
548.767	1049.69
548.98	1075.69
549.193	1086.69
549.407	1118.69
549.62	1097.69
549.833	1094.69
550.046	1025.69
550.259	1029.69
550.473	1052.69
550.686	1029.69
550.899	989.69
551.112	969.69
551.325	955.69
551.538	1041.69
551.751	1149.69
551.964	927.69
552.177	926.69
552.39	973.69
552.603	992.69
552.816	1023.69
553.029	1063.69
553.242	1070.69
553.455	1037.69
553.667	1034.69
553.88	1032.69
554.093	993.69
554.306	986.69
554.519	963.69
554.732	970.69
554.944	974.69
555.157	980.69
555.37	955.69
555.583	924.69
555.795	914.69
556.008	894.69
556.221	861.69
556.433	877.69
556.646	868.69
556.859	849.69
557.071	871.69
557.284	885.69
557.496	864.69
557.709	845.69
557.921	855.69
558.134	857.69
558.346	846.69
558.559	827.69
558.771	836.69
558.984	823.69
559.196	821.69
559.409	804.69
559.621	804.69
559.833	808.69
560.046	813.69
560.258	831.69
560.47	813.69
560.683	818.69
560.895	819.69
561.107	812.69
561.32	822.69
561.532	828.69
561.744	807.69
561.956	845.69
562.168	787.69
562.381	801.69
562.593	762.69
562.805	783.69
563.017	781.69
563.229	778.69
563.441	777.69
563.653	795.69
563.865	760.69
564.077	743.69
564.289	787.69
564.501	798.69
564.713	803.69
564.925	841.69
565.137	871.69
565.349	830.69
565.561	790.69
565.773	800.69
565.985	789.69
566.197	811.69
566.408	889.69
566.62	888.69
566.832	901.69
567.044	909.69
567.255	865.69
567.467	882.69
567.679	892.69
567.891	883.69
568.102	874.69
568.314	840.69
568.526	765.69
568.737	757.69
568.949	717.69
569.161	684.69
569.372	673.69
569.584	673.69
569.795	694.69
570.007	665.69
570.218	649.69
570.43	630.69
570.641	625.69
570.853	660.69
571.064	652.69
571.276	667.69
571.487	643.69
571.698	631.69
571.91	621.69
572.121	629.69
572.333	605.69
572.544	591.69
572.755	568.69
572.966	570.69
573.178	560.69
573.389	582.69
573.6	599.69
573.811	663.69
574.023	598.69
574.234	549.69
574.445	542.69
574.656	573.69
574.867	543.69
575.078	567.69
575.289	548.69
575.501	565.69
575.712	567.69
575.923	544.69
576.134	578.69
576.345	554.69
576.556	543.69
576.767	555.69
576.978	543.69
577.188	520.69
577.399	508.69
577.61	520.69
577.821	500.69
578.032	508.69
578.243	511.69
578.454	515.69
578.665	513.69
578.875	492.69
579.086	486.69
579.297	505.69
579.508	498.69
579.718	505.69
579.929	495.69
580.14	470.69
580.35	478.69
580.561	497.69
580.772	540.69
580.982	509.69
581.193	499.69
581.403	478.69
581.614	478.69
581.825	474.69
582.035	491.69
582.246	469.69
582.456	497.69
582.667	489.69
582.877	467.69
583.087	465.69
583.298	460.69
583.508	474.69
583.719	474.69
583.929	463.69
584.139	460.69
584.35	445.69
584.56	461.69
584.77	456.69
584.981	468.69
585.191	445.69
585.401	484.69
585.611	479.69
585.821	471.69
586.032	469.69
586.242	437.69
586.452	449.69
586.662	460.69
586.872	453.69
587.082	437.69
587.292	461.69
587.502	436.69
587.713	453.69
587.923	461.69
588.133	425.69
588.343	465.69
588.553	460.69
588.762	446.69
588.972	443.69
589.182	453.69
589.392	444.69
589.602	473.69
589.812	463.69
590.022	447.69
590.232	443.69
590.441	436.69
590.651	445.69
590.861	443.69
591.071	411.69
591.281	422.69
591.49	458.69
591.7	447.69
591.91	430.69
592.119	417.69
592.329	419.69
592.539	463.69
592.748	450.69
592.958	457.69
593.167	459.69
593.377	463.69
593.587	469.69
593.796	471.69
594.006	451.69
594.215	474.69
594.424	471.69
594.634	472.69
594.843	452.69
595.053	459.69
595.262	462.69
595.472	453.69
595.681	438.69
595.89	457.69
596.1	443.69
596.309	417.69
596.518	435.69
596.727	423.69
596.937	429.69
597.146	419.69
597.355	414.69
597.564	421.69
597.774	405.69
597.983	376.69
598.192	378.69
598.401	377.69
598.61	381.69
598.819	390.69
599.028	395.69
599.237	407.69
599.446	391.69
599.655	387.69
599.864	382.69
600.073	377.69
600.282	411.69
600.491	393.69
600.7	397.69
600.909	390.69
601.118	394.69
601.327	386.69
601.536	404.69
601.745	415.69
601.953	383.69
602.162	389.69
602.371	406.69
602.58	413.69
602.789	395.69
602.997	415.69
603.206	404.69
603.415	412.69
603.623	396.69
603.832	402.69
604.041	394.69
604.249	388.69
604.458	362.69
604.666	372.69
604.875	375.69
605.084	388.69
605.292	415.69
605.501	409.69
605.709	411.69
605.918	395.69
606.126	406.69
606.334	404.69
606.543	392.69
606.751	400.69
606.96	383.69
607.168	399.69
607.376	405.69
607.585	369.69
607.793	399.69
608.001	406.69
608.21	398.69
608.418	408.69
608.626	400.69
608.834	409.69
609.043	390.69
609.251	405.69
609.459	395.69
609.667	413.69
609.875	414.69
610.083	410.69
610.291	412.69
610.499	399.69
610.707	399.69
610.916	403.69
611.124	390.69
611.332	396.69
611.54	399.69
611.748	374.69
611.955	383.69
612.163	365.69
612.371	395.69
612.579	386.69
612.787	401.69
612.995	393.69
613.203	393.69
613.411	403.69
613.618	365.69
613.826	395.69
614.034	387.69
614.242	387.69
614.449	381.69
614.657	377.69
614.865	404.69
615.072	388.69
615.28	374.69
615.488	395.69
615.695	396.69
615.903	419.69
616.111	381.69
616.318	381.69
616.526	396.69
616.733	384.69
616.941	400.69
617.148	389.69
617.356	371.69
617.563	374.69
617.771	374.69
617.978	370.69
618.185	364.69
618.393	401.69
618.6	369.69
618.807	371.69
619.015	377.69
619.222	374.69
619.429	355.69
619.637	337.69
619.844	324.69
620.051	369.69
620.258	371.69
620.466	351.69
620.673	351.69
620.88	353.69
621.087	332.69
621.294	342.69
621.501	322.69
621.708	327.69
621.915	378.69
622.122	352.69
622.329	369.69
622.536	348.69
622.743	343.69
622.95	358.69
623.157	350.69
623.364	347.69
623.571	351.69
623.778	360.69
623.985	343.69
624.192	351.69
624.399	358.69
624.606	346.69
624.812	331.69
625.019	317.69
625.226	335.69
625.433	333.69
625.639	331.69
625.846	325.69
626.053	294.69
626.259	292.69
626.466	296.69
626.673	278.69
626.879	291.69
627.086	309.69
627.293	312.69
627.499	311.69
627.706	314.69
627.912	329.69
628.119	339.69
628.325	328.69
628.532	311.69
628.738	309.69
628.945	326.69
629.151	296.69
629.357	302.69
629.564	310.69
629.77	303.69
629.976	292.69
630.183	277.69
630.389	289.69
630.595	309.69
630.802	310.69
631.008	298.69
631.214	291.69
631.42	305.69
631.627	285.69
631.833	298.69
632.039	300.69
632.245	311.69
632.451	289.69
632.657	278.69
632.863	283.69
633.069	283.69
633.275	300.69
633.481	288.69
633.688	279.69
633.893	283.69
634.099	279.69
634.305	284.69
634.511	269.69
634.717	270.69
634.923	259.69
635.129	270.69
635.335	269.69
635.541	260.69
635.747	262.69
635.952	274.69
636.158	277.69
636.364	298.69
636.57	288.69
636.775	268.69
636.981	283.69
637.187	294.69
637.392	264.69
637.598	269.69
637.804	279.69
638.009	273.69
638.215	269.69
638.421	266.69
638.626	274.69
638.832	295.69
639.037	263.69
639.243	271.69
639.448	259.69
639.654	274.69
639.859	269.69
640.065	267.69
640.27	275.69
640.475	277.69
640.681	270.69
640.886	297.69
641.091	261.69
641.297	253.69
641.502	268.69
641.707	279.69
641.913	285.69
642.118	258.69
642.323	272.69
642.528	266.69
642.733	283.69
642.939	269.69
643.144	273.69
643.349	268.69
643.554	260.69
643.759	265.69
643.964	255.69
644.169	261.69
644.374	255.69
644.579	242.69
644.784	265.69
644.989	247.69
645.194	253.69
645.399	269.69
645.604	238.69
645.809	252.69
646.014	263.69
646.219	251.69
646.423	267.69
646.628	253.69
646.833	256.69
647.038	255.69
647.243	261.69
647.447	268.69
647.652	259.69
647.857	269.69
648.062	255.69
648.266	251.69
648.471	257.69
648.676	256.69
648.88	239.69
649.085	259.69
649.289	260.69
649.494	256.69
649.698	257.69
649.903	257.69
650.107	245.69
650.312	245.69
650.516	241.69
650.721	241.69
650.925	244.69
651.13	241.69
651.334	236.69
651.539	253.69
651.743	243.69
651.947	223.69
652.152	259.69
652.356	227.69
652.56	236.69
652.764	228.69
652.969	246.69
653.173	217.69
653.377	220.69
653.581	227.69
653.785	205.69
653.99	209.69
654.194	225.69
654.398	231.69
654.602	195.69
654.806	205.69
655.01	216.69
655.214	223.69
655.418	219.69
655.622	213.69
655.826	230.69
656.03	225.69
656.234	231.69
656.438	240.69
656.642	239.69
656.846	241.69
657.049	230.69
657.253	226.69
657.457	191.69
657.661	181.69
657.865	185.69
658.068	192.69
658.272	161.69
658.476	173.69
658.68	163.69
658.883	151.69
659.087	148.69
659.291	138.69
659.494	149.69
659.698	134.69
659.901	139.69
660.105	142.69
660.309	131.69
660.512	117.69
660.716	129.69
660.919	118.69
661.123	118.69
661.326	116.69
661.53	119.69
661.733	117.69
661.936	109.69
662.14	103.69
662.343	88.69
662.546	104.69
662.75	113.69
662.953	93.69
663.156	79.69
663.36	103.69
663.563	100.69
663.766	99.69
663.969	91.69
664.173	94.69
664.376	81.69
664.579	101.69
664.782	81.69
664.985	76.69
665.188	98.69
665.391	88.69
665.594	86.69
665.797	94.69
666	88.69
666.203	69.69
666.406	77.69
666.609	86.69
666.812	86.69
667.015	82.69
667.218	89.69
667.421	79.69
667.624	103.69
667.827	83.69
668.03	84.69
668.232	91.69
668.435	76.69
668.638	75.69
668.841	92.69
669.043	86.69
669.246	74.69
669.449	77.69
669.651	90.69
669.854	74.69
670.057	73.69
670.259	81.69
670.462	86.69
670.665	77.69
670.867	89.69
671.07	91.69
671.272	95.69
671.475	96.69
671.677	89.69
671.88	74.69
672.082	85.69
672.284	78.69
672.487	92.69
672.689	87.69
672.892	89.69
