Data from WStandard_LampEnergy8_LIBS07252019.E.O._I.C._HRD10591_16-00-58-929.txt Node
Date: Thu Jul 25 16:00:58 EDT 2019
User: cochatt
Spectrometer: HR+D1059
Trigger mode: 1
Integration Time (sec): 1.000000E-1
Scans to average: 1
Electric dark correction enabled: true
Nonlinearity correction enabled: false
Boxcar width: 0
XAxis mode: Wavelengths
Number of Pixels in Spectrum: 2048
>>>>>Begin Spectral Data<<<<<
223.165	-25.94
223.4	-25.94
223.635	-25.94
223.869	-19.94
224.104	-16.94
224.338	-4.94
224.573	-15.94
224.808	-13.94
225.042	-6.94
225.277	0.06
225.511	3.06
225.746	3.06
225.98	12.06
226.215	7.06
226.449	26.06
226.683	4.06
226.918	26.06
227.152	23.06
227.387	27.06
227.621	31.06
227.856	44.06
228.09	29.06
228.324	43.06
228.559	56.06
228.793	103.06
229.027	224.06
229.262	205.06
229.496	211.06
229.73	224.06
229.964	241.06
230.199	236.06
230.433	262.06
230.667	260.06
230.901	275.06
231.136	255.06
231.37	251.06
231.604	254.06
231.838	251.06
232.072	248.06
232.306	263.06
232.541	264.06
232.775	287.06
233.009	311.06
233.243	297.06
233.477	277.06
233.711	293.06
233.945	315.06
234.179	301.06
234.413	307.06
234.647	340.06
234.881	329.06
235.115	310.06
235.349	288.06
235.583	307.06
235.817	297.06
236.051	293.06
236.285	306.06
236.519	316.06
236.753	345.06
236.987	344.06
237.221	356.06
237.455	376.06
237.689	363.06
237.922	358.06
238.156	335.06
238.39	353.06
238.624	381.06
238.858	383.06
239.091	378.06
239.325	412.06
239.559	445.06
239.793	487.06
240.027	483.06
240.26	468.06
240.494	373.06
240.728	369.06
240.961	377.06
241.195	379.06
241.429	437.06
241.662	394.06
241.896	381.06
242.13	395.06
242.363	421.06
242.597	431.06
242.83	454.06
243.064	475.06
243.298	488.06
243.531	437.06
243.765	468.06
243.998	451.06
244.232	387.06
244.465	375.06
244.699	395.06
244.932	454.06
245.166	496.06
245.399	460.06
245.633	457.06
245.866	426.06
246.099	492.06
246.333	463.06
246.566	441.06
246.8	507.06
247.033	576.06
247.266	525.06
247.5	527.06
247.733	539.06
247.966	536.06
248.2	605.06
248.433	579.06
248.666	604.06
248.899	669.06
249.133	738.06
249.366	800.06
249.599	671.06
249.832	585.06
250.066	625.06
250.299	609.06
250.532	575.06
250.765	524.06
250.998	571.06
251.231	599.06
251.465	589.06
251.698	552.06
251.931	575.06
252.164	574.06
252.397	616.06
252.63	598.06
252.863	533.06
253.096	513.06
253.329	569.06
253.562	605.06
253.795	599.06
254.028	589.06
254.261	574.06
254.494	543.06
254.727	537.06
254.96	581.06
255.193	629.06
255.426	691.06
255.659	768.06
255.892	771.06
256.124	657.06
256.357	634.06
256.59	701.06
256.823	697.06
257.056	700.06
257.289	809.06
257.521	877.06
257.754	780.06
257.987	759.06
258.22	805.06
258.452	796.06
258.685	665.06
258.918	661.06
259.151	649.06
259.383	649.06
259.616	575.06
259.849	611.06
260.081	665.06
260.314	737.06
260.547	787.06
260.779	793.06
261.012	740.06
261.244	648.06
261.477	656.06
261.71	666.06
261.942	671.06
262.175	649.06
262.407	685.06
262.64	635.06
262.872	601.06
263.105	581.06
263.337	613.06
263.57	601.06
263.802	637.06
264.035	603.06
264.267	557.06
264.499	563.06
264.732	604.06
264.964	633.06
265.197	668.06
265.429	699.06
265.661	758.06
265.894	833.06
266.126	817.06
266.358	778.06
266.591	781.06
266.823	835.06
267.055	753.06
267.287	769.06
267.52	752.06
267.752	755.06
267.984	768.06
268.216	771.06
268.448	790.06
268.681	761.06
268.913	731.06
269.145	697.06
269.377	674.06
269.609	745.06
269.841	874.06
270.073	1004.06
270.306	1079.06
270.538	1097.06
270.77	938.06
271.002	800.06
271.234	774.06
271.466	781.06
271.698	909.06
271.93	1017.06
272.162	1008.06
272.394	928.06
272.626	859.06
272.858	811.06
273.09	697.06
273.322	688.06
273.553	645.06
273.785	667.06
274.017	681.06
274.249	749.06
274.481	771.06
274.713	709.06
274.945	671.06
275.176	672.06
275.408	664.06
275.64	668.06
275.872	667.06
276.104	731.06
276.335	811.06
276.567	890.06
276.799	889.06
277.031	838.06
277.262	801.06
277.494	810.06
277.726	899.06
277.957	867.06
278.189	790.06
278.421	740.06
278.652	728.06
278.884	718.06
279.115	703.06
279.347	742.06
279.579	732.06
279.81	736.06
280.042	791.06
280.273	860.06
280.505	873.06
280.736	884.06
280.968	797.06
281.199	725.06
281.431	709.06
281.662	693.06
281.894	707.06
282.125	739.06
282.356	779.06
282.588	777.06
282.819	765.06
283.051	827.06
283.282	876.06
283.513	815.06
283.745	744.06
283.976	703.06
284.207	702.06
284.439	726.06
284.67	721.06
284.901	755.06
285.132	781.06
285.364	745.06
285.595	763.06
285.826	751.06
286.057	732.06
286.288	733.06
286.52	789.06
286.751	818.06
286.982	825.06
287.213	773.06
287.444	723.06
287.675	713.06
287.906	759.06
288.138	801.06
288.369	776.06
288.6	739.06
288.831	737.06
289.062	717.06
289.293	758.06
289.524	749.06
289.755	765.06
289.986	768.06
290.217	723.06
290.448	728.06
290.679	766.06
290.91	810.06
291.141	799.06
291.371	794.06
291.602	809.06
291.833	781.06
292.064	835.06
292.295	801.06
292.526	827.06
292.757	834.06
292.987	805.06
293.218	800.06
293.449	883.06
293.68	941.06
293.91	958.06
294.141	908.06
294.372	915.06
294.603	934.06
294.833	975.06
295.064	908.06
295.295	828.06
295.525	795.06
295.756	737.06
295.987	719.06
296.217	761.06
296.448	761.06
296.679	720.06
296.909	736.06
297.14	738.06
297.37	781.06
297.601	827.06
297.831	883.06
298.062	869.06
298.292	807.06
298.523	770.06
298.753	768.06
298.984	785.06
299.214	793.06
299.445	791.06
299.675	813.06
299.905	857.06
300.136	772.06
300.366	776.06
300.597	747.06
300.827	762.06
301.057	815.06
301.288	819.06
301.518	843.06
301.748	876.06
301.979	924.06
302.209	892.06
302.439	950.06
302.669	980.06
302.9	937.06
303.13	851.06
303.36	849.06
303.59	853.06
303.82	833.06
304.051	831.06
304.281	864.06
304.511	874.06
304.741	933.06
304.971	1005.06
305.201	1051.06
305.431	933.06
305.661	815.06
305.891	756.06
306.121	764.06
306.352	816.06
306.582	835.06
306.812	851.06
307.042	912.06
307.272	945.06
307.502	987.06
307.731	1031.06
307.961	1073.06
308.191	945.06
308.421	868.06
308.651	821.06
308.881	821.06
309.111	810.06
309.341	809.06
309.571	796.06
309.8	822.06
310.03	788.06
310.26	795.06
310.49	800.06
310.72	846.06
310.949	847.06
311.179	893.06
311.409	863.06
311.639	830.06
311.868	828.06
312.098	851.06
312.328	853.06
312.557	846.06
312.787	854.06
313.017	873.06
313.246	888.06
313.476	851.06
313.706	894.06
313.935	881.06
314.165	894.06
314.394	917.06
314.624	1002.06
314.853	1016.06
315.083	1025.06
315.312	1033.06
315.542	961.06
315.771	895.06
316.001	910.06
316.23	944.06
316.46	932.06
316.689	919.06
316.919	867.06
317.148	847.06
317.377	855.06
317.607	978.06
317.836	1033.06
318.065	1033.06
318.295	1024.06
318.524	996.06
318.753	959.06
318.983	936.06
319.212	897.06
319.441	871.06
319.67	878.06
319.9	919.06
320.129	993.06
320.358	995.06
320.587	1029.06
320.816	1005.06
321.046	985.06
321.275	962.06
321.504	966.06
321.733	1054.06
321.962	1005.06
322.191	925.06
322.42	929.06
322.649	915.06
322.878	922.06
323.108	896.06
323.337	922.06
323.566	913.06
323.795	940.06
324.024	957.06
324.253	924.06
324.482	883.06
324.71	905.06
324.939	867.06
325.168	865.06
325.397	917.06
325.626	963.06
325.855	935.06
326.084	898.06
326.313	922.06
326.542	933.06
326.77	963.06
326.999	976.06
327.228	899.06
327.457	877.06
327.686	876.06
327.914	865.06
328.143	903.06
328.372	913.06
328.6	924.06
328.829	920.06
329.058	891.06
329.287	917.06
329.515	940.06
329.744	974.06
329.972	987.06
330.201	1011.06
330.43	968.06
330.658	955.06
330.887	979.06
331.115	989.06
331.344	973.06
331.572	961.06
331.801	952.06
332.03	982.06
332.258	985.06
332.486	972.06
332.715	1001.06
332.943	988.06
333.172	975.06
333.4	968.06
333.629	1036.06
333.857	1086.06
334.085	1185.06
334.314	1369.06
334.542	1402.06
334.771	1277.06
334.999	1121.06
335.227	1061.06
335.455	1061.06
335.684	1054.06
335.912	1048.06
336.14	1067.06
336.369	1043.06
336.597	1012.06
336.825	984.06
337.053	1028.06
337.281	1084.06
337.51	1132.06
337.738	1140.06
337.966	1078.06
338.194	979.06
338.422	1002.06
338.65	986.06
338.878	930.06
339.106	944.06
339.334	907.06
339.562	927.06
339.79	956.06
340.018	990.06
340.246	1020.06
340.474	1041.06
340.702	1008.06
340.93	997.06
341.158	1018.06
341.386	982.06
341.614	976.06
341.842	963.06
342.07	994.06
342.298	974.06
342.526	948.06
342.754	955.06
342.981	935.06
343.209	939.06
343.437	940.06
343.665	1001.06
343.893	1010.06
344.12	1053.06
344.348	1059.06
344.576	992.06
344.804	967.06
345.031	963.06
345.259	1002.06
345.487	936.06
345.714	907.06
345.942	902.06
346.17	918.06
346.397	921.06
346.625	930.06
346.853	913.06
347.08	898.06
347.308	881.06
347.535	935.06
347.763	945.06
347.99	897.06
348.218	872.06
348.445	874.06
348.673	910.06
348.9	933.06
349.128	980.06
349.355	989.06
349.583	945.06
349.81	923.06
350.037	857.06
350.265	864.06
350.492	858.06
350.72	907.06
350.947	914.06
351.174	908.06
351.402	869.06
351.629	839.06
351.856	841.06
352.083	829.06
352.311	869.06
352.538	877.06
352.765	926.06
352.992	945.06
353.22	883.06
353.447	888.06
353.674	880.06
353.901	900.06
354.128	889.06
354.355	908.06
354.583	925.06
354.81	948.06
355.037	951.06
355.264	908.06
355.491	921.06
355.718	899.06
355.945	893.06
356.172	895.06
356.399	870.06
356.626	883.06
356.853	929.06
357.08	1001.06
357.307	1060.06
357.534	1034.06
357.761	948.06
357.988	895.06
358.215	829.06
358.441	859.06
358.668	854.06
358.895	879.06
359.122	959.06
359.349	1011.06
359.576	987.06
359.802	908.06
360.029	892.06
360.256	869.06
360.483	910.06
360.709	953.06
360.936	975.06
361.163	992.06
361.39	1114.06
361.616	1104.06
361.843	1123.06
362.07	1013.06
362.296	939.06
362.523	924.06
362.749	940.06
362.976	924.06
363.203	930.06
363.429	893.06
363.656	925.06
363.882	930.06
364.109	1052.06
364.335	1052.06
364.562	996.06
364.788	937.06
365.015	902.06
365.241	901.06
365.468	918.06
365.694	977.06
365.92	964.06
366.147	946.06
366.373	890.06
366.599	895.06
366.826	907.06
367.052	925.06
367.278	929.06
367.505	931.06
367.731	975.06
367.957	943.06
368.184	990.06
368.41	1026.06
368.636	1039.06
368.862	1039.06
369.089	1057.06
369.315	999.06
369.541	945.06
369.767	930.06
369.993	915.06
370.219	914.06
370.445	963.06
370.672	1013.06
370.898	1041.06
371.124	1012.06
371.35	999.06
371.576	986.06
371.802	1037.06
372.028	1008.06
372.254	927.06
372.48	925.06
372.706	948.06
372.932	955.06
373.158	941.06
373.384	936.06
373.61	973.06
373.835	1027.06
374.061	951.06
374.287	985.06
374.513	978.06
374.739	976.06
374.965	982.06
375.191	980.06
375.416	1008.06
375.642	1032.06
375.868	1074.06
376.094	1087.06
376.319	1001.06
376.545	991.06
376.771	1047.06
376.997	1072.06
377.222	1037.06
377.448	999.06
377.674	1006.06
377.899	1063.06
378.125	1108.06
378.35	1061.06
378.576	995.06
378.802	947.06
379.027	934.06
379.253	947.06
379.478	964.06
379.704	975.06
379.929	956.06
380.155	977.06
380.38	983.06
380.606	1011.06
380.831	1000.06
381.057	1028.06
381.282	1043.06
381.507	1033.06
381.733	1111.06
381.958	1120.06
382.184	1047.06
382.409	1025.06
382.634	1038.06
382.86	1034.06
383.085	1001.06
383.31	1086.06
383.535	1145.06
383.761	1198.06
383.986	1151.06
384.211	1104.06
384.436	1112.06
384.662	1140.06
384.887	1182.06
385.112	1117.06
385.337	1114.06
385.562	1115.06
385.787	1101.06
386.013	1140.06
386.238	1140.06
386.463	1148.06
386.688	1229.06
386.913	1263.06
387.138	1215.06
387.363	1188.06
387.588	1162.06
387.813	1163.06
388.038	1157.06
388.263	1186.06
388.488	1123.06
388.713	1067.06
388.938	1087.06
389.163	1077.06
389.387	1097.06
389.612	1124.06
389.837	1148.06
390.062	1101.06
390.287	1120.06
390.512	1107.06
390.736	1103.06
390.961	1112.06
391.186	1124.06
391.411	1088.06
391.636	1126.06
391.86	1107.06
392.085	1103.06
392.31	1096.06
392.534	1111.06
392.759	1132.06
392.984	1108.06
393.208	1135.06
393.433	1173.06
393.658	1219.06
393.882	1202.06
394.107	1120.06
394.331	1136.06
394.556	1115.06
394.78	1167.06
395.005	1168.06
395.229	1184.06
395.454	1280.06
395.678	1265.06
395.903	1211.06
396.127	1212.06
396.352	1246.06
396.576	1217.06
396.801	1243.06
397.025	1241.06
397.249	1226.06
397.474	1194.06
397.698	1228.06
397.922	1234.06
398.147	1327.06
398.371	1346.06
398.595	1299.06
398.82	1255.06
399.044	1305.06
399.268	1364.06
399.492	1461.06
399.717	1468.06
399.941	1487.06
400.165	1439.06
400.389	1429.06
400.613	1427.06
400.837	1655.06
401.062	1784.06
401.286	1520.06
401.51	1431.06
401.734	1447.06
401.958	1407.06
402.182	1333.06
402.406	1265.06
402.63	1260.06
402.854	1266.06
403.078	1298.06
403.302	1306.06
403.526	1365.06
403.75	1370.06
403.974	1316.06
404.198	1351.06
404.422	1412.06
404.645	1464.06
404.869	1388.06
405.093	1319.06
405.317	1320.06
405.541	1356.06
405.765	1364.06
405.988	1340.06
406.212	1373.06
406.436	1425.06
406.66	1447.06
406.883	1482.06
407.107	1657.06
407.331	1805.06
407.555	1874.06
407.778	1656.06
408.002	1441.06
408.226	1399.06
408.449	1417.06
408.673	1379.06
408.896	1363.06
409.12	1361.06
409.344	1346.06
409.567	1323.06
409.791	1332.06
410.014	1372.06
410.238	1484.06
410.461	1497.06
410.685	1342.06
410.908	1301.06
411.132	1365.06
411.355	1332.06
411.578	1323.06
411.802	1301.06
412.025	1363.06
412.249	1292.06
412.472	1316.06
412.695	1329.06
412.919	1281.06
413.142	1296.06
413.365	1268.06
413.589	1347.06
413.812	1409.06
414.035	1425.06
414.258	1308.06
414.482	1312.06
414.705	1286.06
414.928	1301.06
415.151	1296.06
415.374	1300.06
415.597	1324.06
415.821	1296.06
416.044	1345.06
416.267	1327.06
416.49	1249.06
416.713	1257.06
416.936	1307.06
417.159	1381.06
417.382	1340.06
417.605	1285.06
417.828	1313.06
418.051	1301.06
418.274	1282.06
418.497	1267.06
418.72	1260.06
418.943	1251.06
419.166	1324.06
419.389	1360.06
419.611	1297.06
419.834	1256.06
420.057	1253.06
420.28	1299.06
420.503	1268.06
420.726	1341.06
420.948	1293.06
421.171	1273.06
421.394	1312.06
421.617	1297.06
421.839	1321.06
422.062	1298.06
422.285	1275.06
422.507	1277.06
422.73	1205.06
422.953	1210.06
423.175	1215.06
423.398	1265.06
423.621	1281.06
423.843	1265.06
424.066	1330.06
424.288	1349.06
424.511	1396.06
424.733	1317.06
424.956	1245.06
425.178	1264.06
425.401	1216.06
425.623	1252.06
425.846	1265.06
426.068	1301.06
426.291	1348.06
426.513	1322.06
426.735	1240.06
426.958	1412.06
427.18	1471.06
427.402	1354.06
427.625	1398.06
427.847	1377.06
428.069	1237.06
428.292	1254.06
428.514	1221.06
428.736	1233.06
428.958	1216.06
429.181	1284.06
429.403	1477.06
429.625	1724.06
429.847	1440.06
430.069	1279.06
430.292	1405.06
430.514	1473.06
430.736	1330.06
430.958	1369.06
431.18	1279.06
431.402	1187.06
431.624	1202.06
431.846	1177.06
432.068	1128.06
432.29	1107.06
432.512	1156.06
432.734	1259.06
432.956	1259.06
433.178	1296.06
433.4	1329.06
433.622	1310.06
433.844	1260.06
434.066	1189.06
434.287	1168.06
434.509	1183.06
434.731	1244.06
434.953	1343.06
435.175	1311.06
435.397	1285.06
435.618	1249.06
435.84	1229.06
436.062	1204.06
436.284	1237.06
436.505	1241.06
436.727	1317.06
436.949	1247.06
437.17	1207.06
437.392	1237.06
437.614	1225.06
437.835	1169.06
438.057	1218.06
438.278	1230.06
438.5	1207.06
438.721	1200.06
438.943	1258.06
439.165	1187.06
439.386	1218.06
439.608	1241.06
439.829	1217.06
440.05	1221.06
440.272	1244.06
440.493	1239.06
440.715	1247.06
440.936	1312.06
441.158	1420.06
441.379	1411.06
441.6	1399.06
441.822	1344.06
442.043	1322.06
442.264	1315.06
442.486	1244.06
442.707	1255.06
442.928	1264.06
443.149	1271.06
443.371	1337.06
443.592	1396.06
443.813	1352.06
444.034	1345.06
444.255	1346.06
444.476	1367.06
444.698	1389.06
444.919	1393.06
445.14	1491.06
445.361	1435.06
445.582	1429.06
445.803	1373.06
446.024	1364.06
446.245	1424.06
446.466	1347.06
446.687	1288.06
446.908	1327.06
447.129	1263.06
447.35	1243.06
447.571	1276.06
447.792	1266.06
448.013	1250.06
448.234	1260.06
448.455	1305.06
448.675	1293.06
448.896	1203.06
449.117	1188.06
449.338	1211.06
449.559	1253.06
449.779	1294.06
450	1384.06
450.221	1455.06
450.442	1399.06
450.662	1272.06
450.883	1196.06
451.104	1157.06
451.324	1157.06
451.545	1197.06
451.766	1173.06
451.986	1109.06
452.207	1119.06
452.428	1063.06
452.648	1105.06
452.869	1103.06
453.089	1117.06
453.31	1151.06
453.53	1129.06
453.751	1128.06
453.971	1061.06
454.192	1082.06
454.412	1145.06
454.633	1144.06
454.853	1082.06
455.073	1047.06
455.294	1088.06
455.514	1066.06
455.734	1066.06
455.955	1095.06
456.175	1053.06
456.395	1052.06
456.616	1077.06
456.836	1070.06
457.056	1071.06
457.276	1064.06
457.497	1061.06
457.717	1007.06
457.937	1021.06
458.157	1051.06
458.377	1048.06
458.598	1047.06
458.818	1037.06
459.038	1095.06
459.258	1139.06
459.478	1110.06
459.698	1088.06
459.918	1162.06
460.138	1188.06
460.358	1259.06
460.578	1194.06
460.798	1288.06
461.018	1309.06
461.238	1251.06
461.458	1232.06
461.678	1252.06
461.898	1220.06
462.118	1201.06
462.338	1245.06
462.558	1252.06
462.777	1256.06
462.997	1307.06
463.217	1354.06
463.437	1297.06
463.657	1262.06
463.876	1254.06
464.096	1241.06
464.316	1270.06
464.536	1319.06
464.755	1262.06
464.975	1295.06
465.195	1249.06
465.414	1309.06
465.634	1281.06
465.854	1260.06
466.073	1367.06
466.293	1339.06
466.512	1200.06
466.732	1193.06
466.951	1210.06
467.171	1218.06
467.391	1184.06
467.61	1160.06
467.829	1195.06
468.049	1314.06
468.268	1417.06
468.488	1296.06
468.707	1255.06
468.927	1237.06
469.146	1210.06
469.365	1195.06
469.585	1212.06
469.804	1188.06
470.023	1234.06
470.243	1258.06
470.462	1213.06
470.681	1191.06
470.901	1222.06
471.12	1236.06
471.339	1237.06
471.558	1200.06
471.777	1181.06
471.997	1201.06
472.216	1159.06
472.435	1116.06
472.654	1123.06
472.873	1172.06
473.092	1238.06
473.311	1179.06
473.53	1102.06
473.749	1130.06
473.968	1192.06
474.187	1195.06
474.406	1226.06
474.625	1190.06
474.844	1190.06
475.063	1224.06
475.282	1190.06
475.501	1163.06
475.72	1194.06
475.939	1285.06
476.158	1212.06
476.377	1197.06
476.596	1193.06
476.814	1240.06
477.033	1210.06
477.252	1239.06
477.471	1263.06
477.69	1268.06
477.908	1282.06
478.127	1333.06
478.346	1408.06
478.564	1416.06
478.783	1417.06
479.002	1411.06
479.22	1410.06
479.439	1426.06
479.658	1556.06
479.876	1536.06
480.095	1386.06
480.313	1294.06
480.532	1273.06
480.751	1258.06
480.969	1331.06
481.188	1267.06
481.406	1234.06
481.624	1217.06
481.843	1223.06
482.061	1247.06
482.28	1307.06
482.498	1304.06
482.717	1263.06
482.935	1265.06
483.153	1349.06
483.372	1411.06
483.59	1358.06
483.808	1337.06
484.027	1343.06
484.245	1411.06
484.463	1728.06
484.681	1849.06
484.9	1450.06
485.118	1356.06
485.336	1357.06
485.554	1355.06
485.772	1373.06
485.99	1357.06
486.209	1418.06
486.427	1359.06
486.645	1387.06
486.863	1400.06
487.081	1417.06
487.299	1439.06
487.517	1459.06
487.735	1473.06
487.953	1496.06
488.171	1446.06
488.389	1447.06
488.607	1422.06
488.825	1578.06
489.043	1529.06
489.261	1393.06
489.479	1463.06
489.696	1447.06
489.914	1422.06
490.132	1420.06
490.35	1441.06
490.568	1536.06
490.786	1478.06
491.003	1442.06
491.221	1507.06
491.439	1541.06
491.657	1558.06
491.874	1611.06
492.092	1628.06
492.31	1686.06
492.527	1640.06
492.745	1625.06
492.963	1589.06
493.18	1598.06
493.398	1670.06
493.615	1687.06
493.833	1588.06
494.05	1563.06
494.268	1555.06
494.485	1547.06
494.703	1549.06
494.92	1507.06
495.138	1515.06
495.355	1520.06
495.573	1573.06
495.79	1649.06
496.008	1657.06
496.225	1577.06
496.442	1606.06
496.66	1606.06
496.877	1584.06
497.094	1625.06
497.312	1666.06
497.529	1583.06
497.746	1628.06
497.963	1834.06
498.181	1939.06
498.398	1866.06
498.615	1828.06
498.832	1736.06
499.049	1703.06
499.267	1722.06
499.484	1927.06
499.701	1989.06
499.918	2041.06
500.135	2223.06
500.352	2269.06
500.569	2279.06
500.786	2440.06
501.003	2247.06
501.22	2063.06
501.437	2029.06
501.654	2065.06
501.871	1944.06
502.088	1731.06
502.305	1768.06
502.522	1641.06
502.739	1587.06
502.956	1543.06
503.172	1573.06
503.389	1520.06
503.606	1497.06
503.823	1465.06
504.04	1465.06
504.256	1492.06
504.473	1530.06
504.69	1527.06
504.907	1460.06
505.123	1385.06
505.34	1516.06
505.557	1949.06
505.773	1583.06
505.99	1416.06
506.207	1307.06
506.423	1259.06
506.64	1272.06
506.856	1307.06
507.073	1480.06
507.289	1559.06
507.506	1473.06
507.722	1277.06
507.939	1237.06
508.155	1226.06
508.372	1205.06
508.588	1187.06
508.805	1186.06
509.021	1153.06
509.238	1162.06
509.454	1125.06
509.67	1131.06
509.887	1118.06
510.103	1116.06
510.319	1138.06
510.536	1194.06
510.752	1225.06
510.968	1188.06
511.184	1249.06
511.401	1212.06
511.617	1102.06
511.833	1061.06
512.049	1064.06
512.265	1095.06
512.481	1094.06
512.698	1147.06
512.914	1161.06
513.13	1148.06
513.346	1107.06
513.562	1081.06
513.778	1114.06
513.994	1165.06
514.21	1191.06
514.426	1191.06
514.642	1260.06
514.858	1250.06
515.074	1128.06
515.29	1110.06
515.506	1111.06
515.721	1206.06
515.937	1195.06
516.153	1274.06
516.369	1245.06
516.585	1175.06
516.801	1144.06
517.016	1164.06
517.232	1171.06
517.448	1202.06
517.664	1234.06
517.879	1193.06
518.095	1240.06
518.311	1219.06
518.527	1160.06
518.742	1181.06
518.958	1128.06
519.173	1130.06
519.389	1137.06
519.605	1182.06
519.82	1182.06
520.036	1174.06
520.251	1133.06
520.467	1161.06
520.682	1224.06
520.898	1226.06
521.113	1111.06
521.329	1082.06
521.544	1185.06
521.76	1125.06
521.975	1101.06
522.19	1092.06
522.406	1106.06
522.621	1348.06
522.836	1286.06
523.052	1111.06
523.267	1104.06
523.482	1111.06
523.698	1055.06
523.913	1044.06
524.128	1072.06
524.343	1136.06
524.559	1151.06
524.774	1063.06
524.989	1105.06
525.204	1069.06
525.419	1031.06
525.634	1035.06
525.849	1051.06
526.064	1063.06
526.28	1041.06
526.495	987.06
526.71	983.06
526.925	982.06
527.14	991.06
527.355	973.06
527.57	970.06
527.785	1033.06
527.999	961.06
528.214	976.06
528.429	988.06
528.644	996.06
528.859	1062.06
529.074	1074.06
529.289	1103.06
529.503	1077.06
529.718	1067.06
529.933	1003.06
530.148	983.06
530.363	963.06
530.577	974.06
530.792	980.06
531.007	967.06
531.221	937.06
531.436	971.06
531.651	1006.06
531.865	1059.06
532.08	992.06
532.295	951.06
532.509	943.06
532.724	938.06
532.938	993.06
533.153	1048.06
533.367	1008.06
533.582	1004.06
533.796	990.06
534.011	1009.06
534.225	999.06
534.44	963.06
534.654	942.06
534.868	965.06
535.083	1004.06
535.297	1021.06
535.511	978.06
535.726	997.06
535.94	981.06
536.154	968.06
536.369	950.06
536.583	930.06
536.797	917.06
537.011	962.06
537.225	932.06
537.44	947.06
537.654	974.06
537.868	953.06
538.082	892.06
538.296	882.06
538.51	911.06
538.724	938.06
538.938	934.06
539.153	977.06
539.367	965.06
539.581	969.06
539.795	971.06
540.009	968.06
540.222	916.06
540.436	947.06
540.65	1068.06
540.864	1075.06
541.078	1031.06
541.292	1041.06
541.506	1068.06
541.72	1101.06
541.934	1123.06
542.147	1163.06
542.361	1135.06
542.575	1043.06
542.789	1005.06
543.002	992.06
543.216	970.06
543.43	1010.06
543.644	1081.06
543.857	1103.06
544.071	1082.06
544.285	1069.06
544.498	1076.06
544.712	1049.06
544.925	1092.06
545.139	1094.06
545.352	1083.06
545.566	1057.06
545.779	1045.06
545.993	1045.06
546.206	1105.06
546.42	1046.06
546.633	1024.06
546.847	1052.06
547.06	1069.06
547.274	1056.06
547.487	1081.06
547.7	1075.06
547.914	1104.06
548.127	1084.06
548.34	1070.06
548.554	1040.06
548.767	1028.06
548.98	1101.06
549.193	1045.06
549.407	1100.06
549.62	1066.06
549.833	1035.06
550.046	1033.06
550.259	1033.06
550.473	1018.06
550.686	999.06
550.899	984.06
551.112	976.06
551.325	984.06
551.538	1036.06
551.751	1123.06
551.964	883.06
552.177	916.06
552.39	946.06
552.603	997.06
552.816	1028.06
553.029	1048.06
553.242	1058.06
553.455	998.06
553.667	1032.06
553.88	1060.06
554.093	976.06
554.306	976.06
554.519	959.06
554.732	959.06
554.944	975.06
555.157	961.06
555.37	925.06
555.583	931.06
555.795	894.06
556.008	882.06
556.221	845.06
556.433	858.06
556.646	867.06
556.859	856.06
557.071	874.06
557.284	893.06
557.496	866.06
557.709	886.06
557.921	885.06
558.134	869.06
558.346	875.06
558.559	839.06
558.771	833.06
558.984	828.06
559.196	851.06
559.409	799.06
559.621	794.06
559.833	808.06
560.046	823.06
560.258	806.06
560.47	813.06
560.683	791.06
560.895	824.06
561.107	831.06
561.32	819.06
561.532	812.06
561.744	801.06
561.956	817.06
562.168	800.06
562.381	759.06
562.593	780.06
562.805	787.06
563.017	761.06
563.229	787.06
563.441	808.06
563.653	785.06
563.865	803.06
564.077	756.06
564.289	757.06
564.501	792.06
564.713	765.06
564.925	791.06
565.137	875.06
565.349	811.06
565.561	816.06
565.773	812.06
565.985	834.06
566.197	885.06
566.408	890.06
566.62	860.06
566.832	901.06
567.044	928.06
567.255	903.06
567.467	872.06
567.679	906.06
567.891	952.06
568.102	868.06
568.314	801.06
568.526	801.06
568.737	749.06
568.949	757.06
569.161	701.06
569.372	711.06
569.584	696.06
569.795	685.06
570.007	685.06
570.218	639.06
570.43	641.06
570.641	656.06
570.853	668.06
571.064	664.06
571.276	669.06
571.487	652.06
571.698	660.06
571.91	651.06
572.121	588.06
572.333	617.06
572.544	616.06
572.755	600.06
572.966	573.06
573.178	570.06
573.389	572.06
573.6	596.06
573.811	631.06
574.023	596.06
574.234	596.06
574.445	545.06
574.656	547.06
574.867	535.06
575.078	563.06
575.289	546.06
575.501	553.06
575.712	556.06
575.923	534.06
576.134	572.06
576.345	535.06
576.556	534.06
576.767	542.06
576.978	541.06
577.188	537.06
577.399	536.06
577.61	519.06
577.821	514.06
578.032	521.06
578.243	517.06
578.454	513.06
578.665	495.06
578.875	491.06
579.086	482.06
579.297	510.06
579.508	515.06
579.718	499.06
579.929	482.06
580.14	486.06
580.35	473.06
580.561	504.06
580.772	539.06
580.982	490.06
581.193	468.06
581.403	479.06
581.614	472.06
581.825	467.06
582.035	473.06
582.246	496.06
582.456	488.06
582.667	482.06
582.877	471.06
583.087	472.06
583.298	471.06
583.508	475.06
583.719	466.06
583.929	480.06
584.139	491.06
584.35	441.06
584.56	439.06
584.77	486.06
584.981	479.06
585.191	475.06
585.401	491.06
585.611	465.06
585.821	448.06
586.032	432.06
586.242	444.06
586.452	455.06
586.662	456.06
586.872	427.06
587.082	436.06
587.292	473.06
587.502	448.06
587.713	469.06
587.923	461.06
588.133	467.06
588.343	456.06
588.553	435.06
588.762	433.06
588.972	445.06
589.182	463.06
589.392	432.06
589.602	477.06
589.812	452.06
590.022	426.06
590.232	453.06
590.441	440.06
590.651	447.06
590.861	428.06
591.071	456.06
591.281	420.06
591.49	438.06
591.7	457.06
591.91	436.06
592.119	443.06
592.329	481.06
592.539	461.06
592.748	464.06
592.958	447.06
593.167	458.06
593.377	480.06
593.587	477.06
593.796	460.06
594.006	459.06
594.215	467.06
594.424	473.06
594.634	468.06
594.843	459.06
595.053	484.06
595.262	451.06
595.472	442.06
595.681	449.06
595.89	444.06
596.1	425.06
596.309	414.06
596.518	425.06
596.727	434.06
596.937	419.06
597.146	412.06
597.355	405.06
597.564	408.06
597.774	407.06
597.983	392.06
598.192	371.06
598.401	387.06
598.61	391.06
598.819	399.06
599.028	410.06
599.237	428.06
599.446	383.06
599.655	370.06
599.864	390.06
600.073	401.06
600.282	384.06
600.491	372.06
600.7	384.06
600.909	372.06
601.118	407.06
601.327	394.06
601.536	402.06
601.745	396.06
601.953	426.06
602.162	422.06
602.371	401.06
602.58	411.06
602.789	411.06
602.997	414.06
603.206	417.06
603.415	400.06
603.623	420.06
603.832	388.06
604.041	374.06
604.249	383.06
604.458	387.06
604.666	384.06
604.875	379.06
605.084	360.06
605.292	414.06
605.501	399.06
605.709	404.06
605.918	409.06
606.126	389.06
606.334	389.06
606.543	403.06
606.751	394.06
606.96	403.06
607.168	389.06
607.376	383.06
607.585	397.06
607.793	396.06
608.001	394.06
608.21	408.06
608.418	407.06
608.626	389.06
608.834	408.06
609.043	400.06
609.251	387.06
609.459	388.06
609.667	405.06
609.875	401.06
610.083	401.06
610.291	409.06
610.499	411.06
610.707	394.06
610.916	396.06
611.124	386.06
611.332	417.06
611.54	403.06
611.748	405.06
611.955	398.06
612.163	372.06
612.371	379.06
612.579	393.06
612.787	387.06
612.995	391.06
613.203	395.06
613.411	376.06
613.618	380.06
613.826	377.06
614.034	387.06
614.242	377.06
614.449	385.06
614.657	376.06
614.865	387.06
615.072	417.06
615.28	362.06
615.488	393.06
615.695	411.06
615.903	377.06
616.111	377.06
616.318	371.06
616.526	379.06
616.733	375.06
616.941	389.06
617.148	380.06
617.356	381.06
617.563	398.06
617.771	380.06
617.978	370.06
618.185	367.06
618.393	377.06
618.6	386.06
618.807	379.06
619.015	393.06
619.222	379.06
619.429	368.06
619.637	369.06
619.844	347.06
620.051	359.06
620.258	368.06
620.466	361.06
620.673	340.06
620.88	326.06
621.087	347.06
621.294	348.06
621.501	334.06
621.708	339.06
621.915	368.06
622.122	354.06
622.329	360.06
622.536	348.06
622.743	350.06
622.95	336.06
623.157	344.06
623.364	362.06
623.571	343.06
623.778	340.06
623.985	339.06
624.192	341.06
624.399	348.06
624.606	337.06
624.812	345.06
625.019	324.06
625.226	320.06
625.433	310.06
625.639	317.06
625.846	300.06
626.053	311.06
626.259	298.06
626.466	291.06
626.673	296.06
626.879	294.06
627.086	287.06
627.293	311.06
627.499	300.06
627.706	296.06
627.912	325.06
628.119	329.06
628.325	312.06
628.532	315.06
628.738	298.06
628.945	312.06
629.151	305.06
629.357	311.06
629.564	316.06
629.77	311.06
629.976	305.06
630.183	299.06
630.389	303.06
630.595	313.06
630.802	289.06
631.008	295.06
631.214	281.06
631.42	302.06
631.627	309.06
631.833	295.06
632.039	287.06
632.245	279.06
632.451	275.06
632.657	279.06
632.863	288.06
633.069	284.06
633.275	274.06
633.481	289.06
633.688	271.06
633.893	262.06
634.099	276.06
634.305	280.06
634.511	272.06
634.717	288.06
634.923	269.06
635.129	257.06
635.335	275.06
635.541	274.06
635.747	276.06
635.952	264.06
636.158	273.06
636.364	275.06
636.57	270.06
636.775	285.06
636.981	291.06
637.187	277.06
637.392	278.06
637.598	270.06
637.804	276.06
638.009	285.06
638.215	276.06
638.421	256.06
638.626	271.06
638.832	283.06
639.037	259.06
639.243	253.06
639.448	276.06
639.654	273.06
639.859	249.06
640.065	255.06
640.27	257.06
640.475	266.06
640.681	271.06
640.886	264.06
641.091	264.06
641.297	246.06
641.502	261.06
641.707	266.06
641.913	260.06
642.118	260.06
642.323	260.06
642.528	269.06
642.733	268.06
642.939	269.06
643.144	257.06
643.349	259.06
643.554	249.06
643.759	271.06
643.964	260.06
644.169	251.06
644.374	244.06
644.579	257.06
644.784	265.06
644.989	274.06
645.194	248.06
645.399	233.06
645.604	254.06
645.809	245.06
646.014	257.06
646.219	243.06
646.423	245.06
646.628	265.06
646.833	262.06
647.038	252.06
647.243	244.06
647.447	248.06
647.652	255.06
647.857	261.06
648.062	257.06
648.266	248.06
648.471	261.06
648.676	264.06
648.88	255.06
649.085	252.06
649.289	255.06
649.494	263.06
649.698	243.06
649.903	240.06
650.107	252.06
650.312	244.06
650.516	247.06
650.721	239.06
650.925	228.06
651.13	251.06
651.334	239.06
651.539	243.06
651.743	216.06
651.947	257.06
652.152	233.06
652.356	240.06
652.56	237.06
652.764	203.06
652.969	224.06
653.173	204.06
653.377	196.06
653.581	236.06
653.785	216.06
653.99	203.06
654.194	209.06
654.398	220.06
654.602	211.06
654.806	237.06
655.01	221.06
655.214	220.06
655.418	212.06
655.622	243.06
655.826	239.06
656.03	240.06
656.234	229.06
656.438	259.06
656.642	269.06
656.846	263.06
657.049	226.06
657.253	230.06
657.457	223.06
657.661	187.06
657.865	178.06
658.068	172.06
658.272	170.06
658.476	148.06
658.68	155.06
658.883	152.06
659.087	152.06
659.291	150.06
659.494	138.06
659.698	137.06
659.901	129.06
660.105	129.06
660.309	134.06
660.512	122.06
660.716	120.06
660.919	116.06
661.123	114.06
661.326	101.06
661.53	107.06
661.733	111.06
661.936	104.06
662.14	95.06
662.343	104.06
662.546	88.06
662.75	85.06
662.953	101.06
663.156	85.06
663.36	87.06
663.563	94.06
663.766	101.06
663.969	83.06
664.173	75.06
664.376	76.06
664.579	88.06
664.782	82.06
664.985	76.06
665.188	94.06
665.391	86.06
665.594	85.06
665.797	77.06
666	74.06
666.203	80.06
666.406	79.06
666.609	91.06
666.812	65.06
667.015	81.06
667.218	90.06
667.421	78.06
667.624	75.06
667.827	90.06
668.03	68.06
668.232	76.06
668.435	84.06
668.638	80.06
668.841	91.06
669.043	83.06
669.246	85.06
669.449	83.06
669.651	76.06
669.854	72.06
670.057	82.06
670.259	80.06
670.462	81.06
670.665	93.06
670.867	76.06
671.07	76.06
671.272	65.06
671.475	82.06
671.677	78.06
671.88	88.06
672.082	74.06
672.284	84.06
672.487	66.06
672.689	77.06
672.892	78.06
