Data from WStandard_LampEnergy5.5LIBS07252019.E.O._I.C._HRD10591_16-08-35-920.txt Node
Date: Thu Jul 25 16:08:35 EDT 2019
User: cochatt
Spectrometer: HR+D1059
Trigger mode: 1
Integration Time (sec): 1.000000E-1
Scans to average: 1
Electric dark correction enabled: true
Nonlinearity correction enabled: false
Boxcar width: 0
XAxis mode: Wavelengths
Number of Pixels in Spectrum: 2048
>>>>>Begin Spectral Data<<<<<
223.165	-9.75
223.4	-9.75
223.635	-9.75
223.869	-10.75
224.104	-14.75
224.338	-12.75
224.573	-12.75
224.808	-18.75
225.042	-12.75
225.277	-4.75
225.511	-14.75
225.746	13.25
225.98	8.25
226.215	4.25
226.449	18.25
226.683	10.25
226.918	34.25
227.152	23.25
227.387	41.25
227.621	45.25
227.856	37.25
228.09	49.25
228.324	40.25
228.559	68.25
228.793	156.25
229.027	342.25
229.262	365.25
229.496	389.25
229.73	414.25
229.964	426.25
230.199	454.25
230.433	446.25
230.667	493.25
230.901	534.25
231.136	477.25
231.37	464.25
231.604	455.25
231.838	441.25
232.072	465.25
232.306	441.25
232.541	475.25
232.775	534.25
233.009	602.25
233.243	581.25
233.477	515.25
233.711	541.25
233.945	576.25
234.179	556.25
234.413	572.25
234.647	624.25
234.881	615.25
235.115	546.25
235.349	535.25
235.583	564.25
235.817	540.25
236.051	534.25
236.285	561.25
236.519	592.25
236.753	673.25
236.987	662.25
237.221	683.25
237.455	757.25
237.689	740.25
237.922	688.25
238.156	653.25
238.39	679.25
238.624	682.25
238.858	737.25
239.091	773.25
239.325	788.25
239.559	915.25
239.793	956.25
240.027	1028.25
240.26	1063.25
240.494	749.25
240.728	723.25
240.961	733.25
241.195	732.25
241.429	843.25
241.662	832.25
241.896	758.25
242.13	737.25
242.363	848.25
242.597	942.25
242.83	885.25
243.064	884.25
243.298	938.25
243.531	946.25
243.765	906.25
243.998	928.25
244.232	794.25
244.465	753.25
244.699	783.25
244.932	896.25
245.166	1040.25
245.399	973.25
245.633	898.25
245.866	880.25
246.099	924.25
246.333	936.25
246.566	964.25
246.8	1053.25
247.033	1154.25
247.266	1053.25
247.5	1062.25
247.733	1062.25
247.966	1121.25
248.2	1214.25
248.433	1145.25
248.666	1205.25
248.899	1318.25
249.133	1548.25
249.366	1732.25
249.599	1385.25
249.832	1249.25
250.066	1247.25
250.299	1290.25
250.532	1200.25
250.765	1066.25
250.998	1155.25
251.231	1185.25
251.465	1243.25
251.698	1156.25
251.931	1156.25
252.164	1157.25
252.397	1243.25
252.63	1216.25
252.863	1063.25
253.096	1099.25
253.329	1122.25
253.562	1189.25
253.795	1256.25
254.028	1253.25
254.261	1188.25
254.494	1169.25
254.727	1089.25
254.96	1153.25
255.193	1249.25
255.426	1426.25
255.659	1621.25
255.892	1685.25
256.124	1363.25
256.357	1306.25
256.59	1436.25
256.823	1416.25
257.056	1419.25
257.289	1687.25
257.521	1882.25
257.754	1672.25
257.987	1577.25
258.22	1736.25
258.452	1724.25
258.685	1378.25
258.918	1376.25
259.151	1381.25
259.383	1328.25
259.616	1159.25
259.849	1221.25
260.081	1378.25
260.314	1515.25
260.547	1718.25
260.779	1715.25
261.012	1602.25
261.244	1445.25
261.477	1354.25
261.71	1405.25
261.942	1377.25
262.175	1323.25
262.407	1457.25
262.64	1367.25
262.872	1272.25
263.105	1219.25
263.337	1248.25
263.57	1264.25
263.802	1311.25
264.035	1208.25
264.267	1161.25
264.499	1124.25
264.732	1221.25
264.964	1284.25
265.197	1321.25
265.429	1383.25
265.661	1508.25
265.894	1684.25
266.126	1786.25
266.358	1571.25
266.591	1664.25
266.823	1818.25
267.055	1631.25
267.287	1540.25
267.52	1565.25
267.752	1539.25
267.984	1478.25
268.216	1618.25
268.448	1667.25
268.681	1618.25
268.913	1500.25
269.145	1404.25
269.377	1389.25
269.609	1490.25
269.841	1724.25
270.073	1990.25
270.306	2269.25
270.538	2414.25
270.77	2011.25
271.002	1712.25
271.234	1604.25
271.466	1590.25
271.698	1800.25
271.93	2194.25
272.162	2220.25
272.394	1941.25
272.626	1897.25
272.858	1670.25
273.09	1428.25
273.322	1434.25
273.553	1348.25
273.785	1401.25
274.017	1432.25
274.249	1534.25
274.481	1547.25
274.713	1474.25
274.945	1357.25
275.176	1404.25
275.408	1406.25
275.64	1358.25
275.872	1357.25
276.104	1434.25
276.335	1647.25
276.567	1875.25
276.799	1902.25
277.031	1685.25
277.262	1592.25
277.494	1620.25
277.726	1813.25
277.957	1834.25
278.189	1655.25
278.421	1522.25
278.652	1462.25
278.884	1445.25
279.115	1468.25
279.347	1497.25
279.579	1443.25
279.81	1409.25
280.042	1585.25
280.273	1792.25
280.505	1814.25
280.736	1775.25
280.968	1714.25
281.199	1525.25
281.431	1401.25
281.662	1431.25
281.894	1418.25
282.125	1465.25
282.356	1540.25
282.588	1559.25
282.819	1523.25
283.051	1622.25
283.282	1759.25
283.513	1722.25
283.745	1482.25
283.976	1373.25
284.207	1360.25
284.439	1460.25
284.67	1510.25
284.901	1524.25
285.132	1516.25
285.364	1490.25
285.595	1502.25
285.826	1486.25
286.057	1484.25
286.288	1477.25
286.52	1518.25
286.751	1628.25
286.982	1698.25
287.213	1581.25
287.444	1457.25
287.675	1403.25
287.906	1538.25
288.138	1613.25
288.369	1558.25
288.6	1497.25
288.831	1425.25
289.062	1469.25
289.293	1482.25
289.524	1508.25
289.755	1553.25
289.986	1543.25
290.217	1425.25
290.448	1459.25
290.679	1500.25
290.91	1513.25
291.141	1586.25
291.371	1633.25
291.602	1557.25
291.833	1589.25
292.064	1617.25
292.295	1585.25
292.526	1619.25
292.757	1706.25
292.987	1626.25
293.218	1505.25
293.449	1649.25
293.68	1834.25
293.91	2029.25
294.141	1893.25
294.372	1719.25
294.603	1812.25
294.833	1885.25
295.064	1787.25
295.295	1606.25
295.525	1552.25
295.756	1457.25
295.987	1374.25
296.217	1468.25
296.448	1441.25
296.679	1470.25
296.909	1476.25
297.14	1457.25
297.37	1472.25
297.601	1618.25
297.831	1698.25
298.062	1719.25
298.292	1534.25
298.523	1492.25
298.753	1478.25
298.984	1507.25
299.214	1506.25
299.445	1508.25
299.675	1618.25
299.905	1592.25
300.136	1570.25
300.366	1547.25
300.597	1511.25
300.827	1468.25
301.057	1514.25
301.288	1602.25
301.518	1569.25
301.748	1614.25
301.979	1701.25
302.209	1758.25
302.439	1858.25
302.669	1963.25
302.9	1808.25
303.13	1622.25
303.36	1658.25
303.59	1645.25
303.82	1649.25
304.051	1566.25
304.281	1651.25
304.511	1624.25
304.741	1669.25
304.971	1871.25
305.201	2066.25
305.431	1902.25
305.661	1548.25
305.891	1440.25
306.121	1421.25
306.352	1435.25
306.582	1562.25
306.812	1685.25
307.042	1760.25
307.272	1806.25
307.502	1801.25
307.731	1988.25
307.961	2135.25
308.191	1984.25
308.421	1676.25
308.651	1599.25
308.881	1544.25
309.111	1556.25
309.341	1501.25
309.571	1563.25
309.8	1560.25
310.03	1549.25
310.26	1540.25
310.49	1532.25
310.72	1558.25
310.949	1627.25
311.179	1669.25
311.409	1646.25
311.639	1600.25
311.868	1504.25
312.098	1565.25
312.328	1597.25
312.557	1524.25
312.787	1570.25
313.017	1622.25
313.246	1620.25
313.476	1613.25
313.706	1653.25
313.935	1641.25
314.165	1680.25
314.394	1708.25
314.624	1770.25
314.853	1888.25
315.083	1979.25
315.312	2078.25
315.542	1894.25
315.771	1683.25
316.001	1660.25
316.23	1723.25
316.46	1769.25
316.689	1748.25
316.919	1638.25
317.148	1582.25
317.377	1556.25
317.607	1703.25
317.836	1932.25
318.065	2001.25
318.295	1893.25
318.524	1832.25
318.753	1759.25
318.983	1736.25
319.212	1718.25
319.441	1671.25
319.67	1656.25
319.9	1702.25
320.129	1795.25
320.358	1872.25
320.587	1920.25
320.816	1880.25
321.046	1870.25
321.275	1726.25
321.504	1753.25
321.733	1927.25
321.962	1897.25
322.191	1689.25
322.42	1696.25
322.649	1657.25
322.878	1715.25
323.108	1690.25
323.337	1762.25
323.566	1793.25
323.795	1771.25
324.024	1768.25
324.253	1694.25
324.482	1736.25
324.71	1681.25
324.939	1607.25
325.168	1619.25
325.397	1682.25
325.626	1752.25
325.855	1761.25
326.084	1670.25
326.313	1685.25
326.542	1713.25
326.77	1769.25
326.999	1775.25
327.228	1724.25
327.457	1579.25
327.686	1574.25
327.914	1633.25
328.143	1689.25
328.372	1689.25
328.6	1705.25
328.829	1668.25
329.058	1650.25
329.287	1669.25
329.515	1732.25
329.744	1689.25
329.972	1781.25
330.201	1862.25
330.43	1833.25
330.658	1754.25
330.887	1804.25
331.115	1797.25
331.344	1785.25
331.572	1754.25
331.801	1754.25
332.03	1726.25
332.258	1773.25
332.486	1807.25
332.715	1804.25
332.943	1842.25
333.172	1804.25
333.4	1797.25
333.629	1852.25
333.857	1968.25
334.085	2159.25
334.314	2421.25
334.542	2676.25
334.771	2493.25
334.999	2155.25
335.227	2018.25
335.455	1938.25
335.684	1899.25
335.912	1976.25
336.14	2038.25
336.369	1956.25
336.597	1848.25
336.825	1778.25
337.053	1873.25
337.281	1986.25
337.51	2044.25
337.738	2161.25
337.966	2053.25
338.194	1875.25
338.422	1801.25
338.65	1751.25
338.878	1741.25
339.106	1682.25
339.334	1723.25
339.562	1636.25
339.79	1688.25
340.018	1798.25
340.246	1894.25
340.474	1907.25
340.702	1833.25
340.93	1842.25
341.158	1819.25
341.386	1829.25
341.614	1781.25
341.842	1738.25
342.07	1784.25
342.298	1764.25
342.526	1825.25
342.754	1788.25
342.981	1746.25
343.209	1734.25
343.437	1726.25
343.665	1760.25
343.893	1807.25
344.12	1882.25
344.348	1914.25
344.576	1843.25
344.804	1756.25
345.031	1753.25
345.259	1786.25
345.487	1737.25
345.714	1688.25
345.942	1629.25
346.17	1648.25
346.397	1672.25
346.625	1696.25
346.853	1611.25
347.08	1568.25
347.308	1596.25
347.535	1627.25
347.763	1715.25
347.99	1674.25
348.218	1578.25
348.445	1593.25
348.673	1624.25
348.9	1703.25
349.128	1747.25
349.355	1846.25
349.583	1741.25
349.81	1658.25
350.037	1521.25
350.265	1530.25
350.492	1565.25
350.72	1580.25
350.947	1607.25
351.174	1727.25
351.402	1632.25
351.629	1515.25
351.856	1527.25
352.083	1509.25
352.311	1527.25
352.538	1579.25
352.765	1648.25
352.992	1677.25
353.22	1656.25
353.447	1570.25
353.674	1613.25
353.901	1635.25
354.128	1612.25
354.355	1592.25
354.583	1637.25
354.81	1688.25
355.037	1659.25
355.264	1701.25
355.491	1653.25
355.718	1654.25
355.945	1633.25
356.172	1617.25
356.399	1575.25
356.626	1601.25
356.853	1664.25
357.08	1748.25
357.307	1900.25
357.534	1941.25
357.761	1718.25
357.988	1560.25
358.215	1526.25
358.441	1536.25
358.668	1501.25
358.895	1568.25
359.122	1635.25
359.349	1790.25
359.576	1810.25
359.802	1613.25
360.029	1584.25
360.256	1558.25
360.483	1556.25
360.709	1581.25
360.936	1662.25
361.163	1725.25
361.39	1895.25
361.616	2018.25
361.843	1978.25
362.07	1896.25
362.296	1646.25
362.523	1580.25
362.749	1588.25
362.976	1649.25
363.203	1635.25
363.429	1605.25
363.656	1572.25
363.882	1650.25
364.109	1820.25
364.335	1945.25
364.562	1804.25
364.788	1731.25
365.015	1639.25
365.241	1597.25
365.468	1651.25
365.694	1691.25
365.92	1758.25
366.147	1689.25
366.373	1552.25
366.599	1532.25
366.826	1513.25
367.052	1559.25
367.278	1577.25
367.505	1631.25
367.731	1656.25
367.957	1657.25
368.184	1713.25
368.41	1798.25
368.636	1829.25
368.862	1815.25
369.089	1862.25
369.315	1768.25
369.541	1709.25
369.767	1618.25
369.993	1614.25
370.219	1574.25
370.445	1658.25
370.672	1725.25
370.898	1825.25
371.124	1778.25
371.35	1735.25
371.576	1753.25
371.802	1828.25
372.028	1733.25
372.254	1649.25
372.48	1646.25
372.706	1597.25
372.932	1650.25
373.158	1636.25
373.384	1674.25
373.61	1742.25
373.835	1815.25
374.061	1730.25
374.287	1698.25
374.513	1686.25
374.739	1732.25
374.965	1712.25
375.191	1768.25
375.416	1770.25
375.642	1737.25
375.868	1806.25
376.094	1867.25
376.319	1819.25
376.545	1688.25
376.771	1713.25
376.997	1852.25
377.222	1801.25
377.448	1765.25
377.674	1766.25
377.899	1757.25
378.125	1901.25
378.35	1849.25
378.576	1697.25
378.802	1614.25
379.027	1655.25
379.253	1668.25
379.478	1698.25
379.704	1666.25
379.929	1687.25
380.155	1703.25
380.38	1721.25
380.606	1698.25
380.831	1707.25
381.057	1759.25
381.282	1835.25
381.507	1733.25
381.733	1874.25
381.958	1973.25
382.184	1802.25
382.409	1742.25
382.634	1777.25
382.86	1782.25
383.085	1765.25
383.31	1826.25
383.535	1946.25
383.761	2049.25
383.986	1984.25
384.211	1894.25
384.436	1866.25
384.662	1976.25
384.887	2058.25
385.112	1952.25
385.337	1992.25
385.562	1948.25
385.787	1931.25
386.013	2007.25
386.238	2013.25
386.463	1952.25
386.688	2138.25
386.913	2198.25
387.138	2194.25
387.363	2047.25
387.588	1985.25
387.813	1950.25
388.038	2002.25
388.263	2036.25
388.488	1998.25
388.713	1827.25
388.938	1853.25
389.163	1865.25
389.387	1907.25
389.612	1920.25
389.837	1952.25
390.062	1975.25
390.287	1951.25
390.512	1914.25
390.736	1913.25
390.961	1893.25
391.186	1844.25
391.411	1878.25
391.636	1929.25
391.86	1969.25
392.085	1960.25
392.31	1950.25
392.534	1925.25
392.759	1986.25
392.984	1943.25
393.208	1999.25
393.433	2045.25
393.658	2074.25
393.882	2069.25
394.107	1970.25
394.331	1917.25
394.556	1937.25
394.78	1918.25
395.005	1999.25
395.229	2072.25
395.454	2233.25
395.678	2218.25
395.903	2144.25
396.127	2060.25
396.352	2097.25
396.576	2130.25
396.801	2167.25
397.025	2102.25
397.249	2108.25
397.474	2104.25
397.698	2052.25
397.922	2127.25
398.147	2242.25
398.371	2305.25
398.595	2291.25
398.82	2178.25
399.044	2244.25
399.268	2391.25
399.492	2462.25
399.717	2572.25
399.941	2620.25
400.165	2529.25
400.389	2458.25
400.613	2460.25
400.837	2685.25
401.062	3061.25
401.286	2674.25
401.51	2395.25
401.734	2510.25
401.958	2461.25
402.182	2294.25
402.406	2211.25
402.63	2183.25
402.854	2177.25
403.078	2241.25
403.302	2264.25
403.526	2305.25
403.75	2289.25
403.974	2302.25
404.198	2324.25
404.422	2422.25
404.645	2488.25
404.869	2436.25
405.093	2265.25
405.317	2236.25
405.541	2324.25
405.765	2335.25
405.988	2346.25
406.212	2390.25
406.436	2432.25
406.66	2456.25
406.883	2550.25
407.107	2776.25
407.331	2974.25
407.555	3210.25
407.778	2982.25
408.002	2444.25
408.226	2409.25
408.449	2428.25
408.673	2342.25
408.896	2380.25
409.12	2420.25
409.344	2368.25
409.567	2272.25
409.791	2322.25
410.014	2376.25
410.238	2472.25
410.461	2584.25
410.685	2363.25
410.908	2258.25
411.132	2314.25
411.355	2251.25
411.578	2230.25
411.802	2267.25
412.025	2291.25
412.249	2216.25
412.472	2148.25
412.695	2150.25
412.919	2174.25
413.142	2183.25
413.365	2176.25
413.589	2273.25
413.812	2306.25
414.035	2452.25
414.258	2246.25
414.482	2196.25
414.705	2208.25
414.928	2166.25
415.151	2188.25
415.374	2187.25
415.597	2234.25
415.821	2252.25
416.044	2357.25
416.267	2374.25
416.49	2138.25
416.713	2069.25
416.936	2151.25
417.159	2272.25
417.382	2258.25
417.605	2155.25
417.828	2206.25
418.051	2256.25
418.274	2181.25
418.497	2094.25
418.72	2136.25
418.943	2128.25
419.166	2294.25
419.389	2421.25
419.611	2224.25
419.834	2137.25
420.057	2242.25
420.28	2120.25
420.503	2122.25
420.726	2216.25
420.948	2202.25
421.171	2126.25
421.394	2149.25
421.617	2185.25
421.839	2158.25
422.062	2191.25
422.285	2086.25
422.507	2070.25
422.73	2038.25
422.953	2014.25
423.175	2019.25
423.398	2130.25
423.621	2143.25
423.843	2146.25
424.066	2192.25
424.288	2233.25
424.511	2294.25
424.733	2214.25
424.956	2022.25
425.178	2000.25
425.401	2036.25
425.623	2046.25
425.846	2062.25
426.068	2144.25
426.291	2154.25
426.513	2143.25
426.735	2155.25
426.958	2273.25
427.18	2471.25
427.402	2252.25
427.625	2318.25
427.847	2320.25
428.069	2176.25
428.292	2076.25
428.514	2034.25
428.736	2050.25
428.958	2065.25
429.181	2059.25
429.403	2321.25
429.625	2874.25
429.847	2528.25
430.069	2170.25
430.292	2325.25
430.514	2438.25
430.736	2240.25
430.958	2332.25
431.18	2224.25
431.402	2078.25
431.624	2022.25
431.846	2083.25
432.068	1999.25
432.29	2063.25
432.512	2044.25
432.734	2098.25
432.956	2121.25
433.178	2240.25
433.4	2177.25
433.622	2274.25
433.844	2102.25
434.066	2042.25
434.287	2037.25
434.509	2093.25
434.731	2184.25
434.953	2366.25
435.175	2276.25
435.397	2173.25
435.618	2213.25
435.84	2168.25
436.062	2116.25
436.284	2174.25
436.505	2163.25
436.727	2180.25
436.949	2135.25
437.17	2079.25
437.392	2041.25
437.614	2052.25
437.835	1987.25
438.057	2155.25
438.278	2273.25
438.5	2105.25
438.721	2061.25
438.943	2076.25
439.165	2039.25
439.386	2008.25
439.608	1982.25
439.829	2019.25
440.05	2019.25
440.272	2020.25
440.493	1957.25
440.715	2010.25
440.936	2171.25
441.158	2406.25
441.379	2359.25
441.6	2269.25
441.822	2231.25
442.043	2163.25
442.264	2159.25
442.486	2020.25
442.707	2060.25
442.928	2003.25
443.149	2088.25
443.371	2231.25
443.592	2302.25
443.813	2281.25
444.034	2252.25
444.255	2251.25
444.476	2297.25
444.698	2329.25
444.919	2358.25
445.14	2409.25
445.361	2437.25
445.582	2434.25
445.803	2372.25
446.024	2242.25
446.245	2311.25
446.466	2269.25
446.687	2136.25
446.908	2106.25
447.129	2061.25
447.35	2171.25
447.571	2123.25
447.792	2007.25
448.013	1965.25
448.234	2032.25
448.455	2137.25
448.675	2118.25
448.896	1978.25
449.117	1928.25
449.338	2005.25
449.559	2092.25
449.779	2246.25
450	2409.25
450.221	2616.25
450.442	2550.25
450.662	2243.25
450.883	1945.25
451.104	1946.25
451.324	2026.25
451.545	2021.25
451.766	2011.25
451.986	1892.25
452.207	1912.25
452.428	1795.25
452.648	1837.25
452.869	1893.25
453.089	2050.25
453.31	2017.25
453.53	2089.25
453.751	2032.25
453.971	1858.25
454.192	1900.25
454.412	2106.25
454.633	1998.25
454.853	1898.25
455.073	1788.25
455.294	1777.25
455.514	1792.25
455.734	1800.25
455.955	1834.25
456.175	1847.25
456.395	1840.25
456.616	1882.25
456.836	1947.25
457.056	1882.25
457.276	1885.25
457.497	1861.25
457.717	1769.25
457.937	1814.25
458.157	1868.25
458.377	1834.25
458.598	1841.25
458.818	1852.25
459.038	1940.25
459.258	2062.25
459.478	2107.25
459.698	2017.25
459.918	2041.25
460.138	2092.25
460.358	2178.25
460.578	2186.25
460.798	2252.25
461.018	2451.25
461.238	2304.25
461.458	2178.25
461.678	2226.25
461.898	2150.25
462.118	2101.25
462.338	2249.25
462.558	2171.25
462.777	2192.25
462.997	2266.25
463.217	2467.25
463.437	2404.25
463.657	2245.25
463.876	2214.25
464.096	2170.25
464.316	2191.25
464.536	2248.25
464.755	2304.25
464.975	2364.25
465.195	2249.25
465.414	2326.25
465.634	2326.25
465.854	2167.25
466.073	2312.25
466.293	2254.25
466.512	2017.25
466.732	2016.25
466.951	2073.25
467.171	2125.25
467.391	2027.25
467.61	1934.25
467.829	1970.25
468.049	2125.25
468.268	2372.25
468.488	2231.25
468.707	2112.25
468.927	2048.25
469.146	2015.25
469.365	1976.25
469.585	2008.25
469.804	1979.25
470.023	2031.25
470.243	2053.25
470.462	2007.25
470.681	1915.25
470.901	2036.25
471.12	2030.25
471.339	1989.25
471.558	1946.25
471.777	1896.25
471.997	1957.25
472.216	1957.25
472.435	1916.25
472.654	1917.25
472.873	2025.25
473.092	2154.25
473.311	2103.25
473.53	1922.25
473.749	1872.25
473.968	1987.25
474.187	2036.25
474.406	2198.25
474.625	2071.25
474.844	2036.25
475.063	2018.25
475.282	2133.25
475.501	2020.25
475.72	1972.25
475.939	2122.25
476.158	2107.25
476.377	2048.25
476.596	2049.25
476.814	2148.25
477.033	2112.25
477.252	2165.25
477.471	2267.25
477.69	2095.25
477.908	2082.25
478.127	2232.25
478.346	2414.25
478.564	2436.25
478.783	2370.25
479.002	2475.25
479.22	2427.25
479.439	2522.25
479.658	2841.25
479.876	2804.25
480.095	2404.25
480.313	2306.25
480.532	2211.25
480.751	2265.25
480.969	2314.25
481.188	2326.25
481.406	2297.25
481.624	2219.25
481.843	2246.25
482.061	2280.25
482.28	2346.25
482.498	2401.25
482.717	2345.25
482.935	2241.25
483.153	2281.25
483.372	2268.25
483.59	2219.25
483.808	2261.25
484.027	2294.25
484.245	2436.25
484.463	2802.25
484.681	3201.25
484.9	2436.25
485.118	2340.25
485.336	2333.25
485.554	2340.25
485.772	2476.25
485.99	2409.25
486.209	2432.25
486.427	2434.25
486.645	2388.25
486.863	2390.25
487.081	2465.25
487.299	2510.25
487.517	2475.25
487.735	2341.25
487.953	2328.25
488.171	2305.25
488.389	2339.25
488.607	2339.25
488.825	2539.25
489.043	2581.25
489.261	2320.25
489.479	2446.25
489.696	2535.25
489.914	2464.25
490.132	2443.25
490.35	2340.25
490.568	2455.25
490.786	2354.25
491.003	2272.25
491.221	2310.25
491.439	2435.25
491.657	2384.25
491.874	2414.25
492.092	2477.25
492.31	2452.25
492.527	2418.25
492.745	2362.25
492.963	2413.25
493.18	2494.25
493.398	2643.25
493.615	2733.25
493.833	2492.25
494.05	2392.25
494.268	2408.25
494.485	2490.25
494.703	2455.25
494.92	2396.25
495.138	2427.25
495.355	2484.25
495.573	2537.25
495.79	2712.25
496.008	2775.25
496.225	2568.25
496.442	2592.25
496.66	2657.25
496.877	2556.25
497.094	2684.25
497.312	2721.25
497.529	2640.25
497.746	2727.25
497.963	3170.25
498.181	3539.25
498.398	3256.25
498.615	3245.25
498.832	3157.25
499.049	3106.25
499.267	3050.25
499.484	3290.25
499.701	3625.25
499.918	3634.25
500.135	3869.25
500.352	4136.25
500.569	4051.25
500.786	4374.25
501.003	4154.25
501.22	3702.25
501.437	3645.25
501.654	3598.25
501.871	3445.25
502.088	3091.25
502.305	3135.25
502.522	2976.25
502.739	2733.25
502.956	2711.25
503.172	2701.25
503.389	2593.25
503.606	2557.25
503.823	2630.25
504.04	2560.25
504.256	2580.25
504.473	2595.25
504.69	2680.25
504.907	2518.25
505.123	2399.25
505.34	2543.25
505.557	3253.25
505.773	2784.25
505.99	2394.25
506.207	2265.25
506.423	2192.25
506.64	2193.25
506.856	2188.25
507.073	2464.25
507.289	2663.25
507.506	2582.25
507.722	2194.25
507.939	2149.25
508.155	2123.25
508.372	2160.25
508.588	2067.25
508.805	2033.25
509.021	2010.25
509.238	2019.25
509.454	1962.25
509.67	2033.25
509.887	2023.25
510.103	1983.25
510.319	2057.25
510.536	2138.25
510.752	2137.25
510.968	2123.25
511.184	2316.25
511.401	2294.25
511.617	1983.25
511.833	1920.25
512.049	1933.25
512.265	1948.25
512.481	1933.25
512.698	1992.25
512.914	2182.25
513.13	2093.25
513.346	1942.25
513.562	1880.25
513.778	1965.25
513.994	2080.25
514.21	2113.25
514.426	2144.25
514.642	2389.25
514.858	2238.25
515.074	2024.25
515.29	1962.25
515.506	2077.25
515.721	2108.25
515.937	2073.25
516.153	2332.25
516.369	2313.25
516.585	2142.25
516.801	2029.25
517.016	2028.25
517.232	2069.25
517.448	2155.25
517.664	2142.25
517.879	2157.25
518.095	2263.25
518.311	2174.25
518.527	2052.25
518.742	2065.25
518.958	1973.25
519.173	1984.25
519.389	1980.25
519.605	2029.25
519.82	2047.25
520.036	2060.25
520.251	1981.25
520.467	1987.25
520.682	2129.25
520.898	2237.25
521.113	1992.25
521.329	1901.25
521.544	2066.25
521.76	2019.25
521.975	1948.25
522.19	1882.25
522.406	1880.25
522.621	2238.25
522.836	2262.25
523.052	1878.25
523.267	1869.25
523.482	1885.25
523.698	1799.25
523.913	1736.25
524.128	1821.25
524.343	1947.25
524.559	1979.25
524.774	1808.25
524.989	1771.25
525.204	1777.25
525.419	1721.25
525.634	1770.25
525.849	1795.25
526.064	1787.25
526.28	1818.25
526.495	1731.25
526.71	1739.25
526.925	1740.25
527.14	1732.25
527.355	1697.25
527.57	1680.25
527.785	1737.25
527.999	1690.25
528.214	1662.25
528.429	1613.25
528.644	1670.25
528.859	1723.25
529.074	1715.25
529.289	1687.25
529.503	1723.25
529.718	1736.25
529.933	1717.25
530.148	1630.25
530.363	1658.25
530.577	1685.25
530.792	1677.25
531.007	1699.25
531.221	1699.25
531.436	1746.25
531.651	1780.25
531.865	1848.25
532.08	1770.25
532.295	1648.25
532.509	1600.25
532.724	1693.25
532.938	1726.25
533.153	1853.25
533.367	1786.25
533.582	1725.25
533.796	1689.25
534.011	1673.25
534.225	1692.25
534.44	1676.25
534.654	1640.25
534.868	1649.25
535.083	1710.25
535.297	1733.25
535.511	1659.25
535.726	1670.25
535.94	1705.25
536.154	1648.25
536.369	1626.25
536.583	1637.25
536.797	1602.25
537.011	1679.25
537.225	1604.25
537.44	1553.25
537.654	1645.25
537.868	1561.25
538.082	1529.25
538.296	1536.25
538.51	1551.25
538.724	1574.25
538.938	1527.25
539.153	1576.25
539.367	1586.25
539.581	1610.25
539.795	1685.25
540.009	1629.25
540.222	1639.25
540.436	1605.25
540.65	1760.25
540.864	1824.25
541.078	1683.25
541.292	1551.25
541.506	1568.25
541.72	1599.25
541.934	1593.25
542.147	1584.25
542.361	1580.25
542.575	1520.25
542.789	1538.25
543.002	1450.25
543.216	1507.25
543.43	1649.25
543.644	1650.25
543.857	1678.25
544.071	1632.25
544.285	1598.25
544.498	1545.25
544.712	1573.25
544.925	1610.25
545.139	1651.25
545.352	1564.25
545.566	1513.25
545.779	1451.25
545.993	1513.25
546.206	1552.25
546.42	1465.25
546.633	1506.25
546.847	1490.25
547.06	1483.25
547.274	1481.25
547.487	1458.25
547.7	1510.25
547.914	1493.25
548.127	1475.25
548.34	1503.25
548.554	1523.25
548.767	1490.25
548.98	1510.25
549.193	1493.25
549.407	1570.25
549.62	1582.25
549.833	1477.25
550.046	1479.25
550.259	1482.25
550.473	1482.25
550.686	1498.25
550.899	1463.25
551.112	1417.25
551.325	1411.25
551.538	1498.25
551.751	1754.25
551.964	1421.25
552.177	1396.25
552.39	1412.25
552.603	1489.25
552.816	1475.25
553.029	1548.25
553.242	1573.25
553.455	1486.25
553.667	1493.25
553.88	1469.25
554.093	1437.25
554.306	1396.25
554.519	1414.25
554.732	1356.25
554.944	1419.25
555.157	1416.25
555.37	1405.25
555.583	1403.25
555.795	1349.25
556.008	1329.25
556.221	1273.25
556.433	1300.25
556.646	1282.25
556.859	1260.25
557.071	1238.25
557.284	1261.25
557.496	1281.25
557.709	1240.25
557.921	1243.25
558.134	1237.25
558.346	1267.25
558.559	1240.25
558.771	1222.25
558.984	1227.25
559.196	1170.25
559.409	1172.25
559.621	1190.25
559.833	1208.25
560.046	1288.25
560.258	1252.25
560.47	1221.25
560.683	1202.25
560.895	1180.25
561.107	1221.25
561.32	1239.25
561.532	1274.25
561.744	1205.25
561.956	1236.25
562.168	1197.25
562.381	1154.25
562.593	1172.25
562.805	1198.25
563.017	1170.25
563.229	1191.25
563.441	1219.25
563.653	1189.25
563.865	1181.25
564.077	1165.25
564.289	1193.25
564.501	1178.25
564.713	1226.25
564.925	1241.25
565.137	1339.25
565.349	1266.25
565.561	1271.25
565.773	1261.25
565.985	1276.25
566.197	1366.25
566.408	1410.25
566.62	1454.25
566.832	1454.25
567.044	1451.25
567.255	1445.25
567.467	1452.25
567.679	1516.25
567.891	1504.25
568.102	1476.25
568.314	1441.25
568.526	1396.25
568.737	1309.25
568.949	1252.25
569.161	1237.25
569.372	1186.25
569.584	1143.25
569.795	1143.25
570.007	1151.25
570.218	1106.25
570.43	1082.25
570.641	1077.25
570.853	1076.25
571.064	1067.25
571.276	1062.25
571.487	1074.25
571.698	1002.25
571.91	1017.25
572.121	1013.25
572.333	1004.25
572.544	989.25
572.755	949.25
572.966	1010.25
573.178	964.25
573.389	986.25
573.6	1013.25
573.811	1085.25
574.023	992.25
574.234	958.25
574.445	927.25
574.656	923.25
574.867	921.25
575.078	939.25
575.289	930.25
575.501	926.25
575.712	877.25
575.923	901.25
576.134	903.25
576.345	885.25
576.556	906.25
576.767	865.25
576.978	854.25
577.188	838.25
577.399	827.25
577.61	836.25
577.821	852.25
578.032	835.25
578.243	832.25
578.454	838.25
578.665	809.25
578.875	817.25
579.086	808.25
579.297	812.25
579.508	874.25
579.718	842.25
579.929	804.25
580.14	796.25
580.35	780.25
580.561	813.25
580.772	887.25
580.982	808.25
581.193	784.25
581.403	793.25
581.614	768.25
581.825	800.25
582.035	781.25
582.246	794.25
582.456	805.25
582.667	780.25
582.877	761.25
583.087	744.25
583.298	776.25
583.508	754.25
583.719	765.25
583.929	794.25
584.139	768.25
584.35	768.25
584.56	748.25
584.77	769.25
584.981	782.25
585.191	756.25
585.401	798.25
585.611	775.25
585.821	759.25
586.032	754.25
586.242	723.25
586.452	708.25
586.662	736.25
586.872	730.25
587.082	725.25
587.292	768.25
587.502	761.25
587.713	787.25
587.923	748.25
588.133	735.25
588.343	734.25
588.553	736.25
588.762	739.25
588.972	718.25
589.182	734.25
589.392	713.25
589.602	757.25
589.812	737.25
590.022	706.25
590.232	702.25
590.441	746.25
590.651	738.25
590.861	723.25
591.071	715.25
591.281	730.25
591.49	709.25
591.7	722.25
591.91	730.25
592.119	710.25
592.329	725.25
592.539	739.25
592.748	757.25
592.958	761.25
593.167	749.25
593.377	773.25
593.587	777.25
593.796	779.25
594.006	746.25
594.215	747.25
594.424	769.25
594.634	740.25
594.843	744.25
595.053	738.25
595.262	710.25
595.472	717.25
595.681	706.25
595.89	714.25
596.1	679.25
596.309	684.25
596.518	700.25
596.727	702.25
596.937	665.25
597.146	633.25
597.355	630.25
597.564	644.25
597.774	634.25
597.983	649.25
598.192	629.25
598.401	629.25
598.61	600.25
598.819	605.25
599.028	604.25
599.237	627.25
599.446	610.25
599.655	599.25
599.864	582.25
600.073	578.25
600.282	597.25
600.491	604.25
600.7	572.25
600.909	610.25
601.118	583.25
601.327	572.25
601.536	591.25
601.745	581.25
601.953	593.25
602.162	592.25
602.371	585.25
602.58	582.25
602.789	583.25
602.997	579.25
603.206	570.25
603.415	604.25
603.623	573.25
603.832	582.25
604.041	576.25
604.249	535.25
604.458	561.25
604.666	559.25
604.875	539.25
605.084	562.25
605.292	571.25
605.501	554.25
605.709	549.25
605.918	530.25
606.126	565.25
606.334	560.25
606.543	541.25
606.751	572.25
606.96	549.25
607.168	557.25
607.376	540.25
607.585	538.25
607.793	517.25
608.001	536.25
608.21	526.25
608.418	547.25
608.626	530.25
608.834	516.25
609.043	528.25
609.251	524.25
609.459	522.25
609.667	547.25
609.875	538.25
610.083	546.25
610.291	552.25
610.499	539.25
610.707	554.25
610.916	520.25
611.124	496.25
611.332	532.25
611.54	525.25
611.748	521.25
611.955	520.25
612.163	530.25
612.371	517.25
612.579	510.25
612.787	494.25
612.995	501.25
613.203	544.25
613.411	501.25
613.618	491.25
613.826	505.25
614.034	525.25
614.242	512.25
614.449	523.25
614.657	534.25
614.865	512.25
615.072	516.25
615.28	501.25
615.488	494.25
615.695	526.25
615.903	552.25
616.111	522.25
616.318	524.25
616.526	508.25
616.733	499.25
616.941	488.25
617.148	495.25
617.356	498.25
617.563	496.25
617.771	500.25
617.978	495.25
618.185	499.25
618.393	508.25
618.6	472.25
618.807	479.25
619.015	519.25
619.222	458.25
619.429	458.25
619.637	482.25
619.844	478.25
620.051	454.25
620.258	463.25
620.466	474.25
620.673	456.25
620.88	453.25
621.087	445.25
621.294	441.25
621.501	455.25
621.708	464.25
621.915	467.25
622.122	446.25
622.329	467.25
622.536	456.25
622.743	436.25
622.95	442.25
623.157	440.25
623.364	447.25
623.571	445.25
623.778	442.25
623.985	433.25
624.192	447.25
624.399	437.25
624.606	427.25
624.812	425.25
625.019	429.25
625.226	437.25
625.433	440.25
625.639	410.25
625.846	418.25
626.053	414.25
626.259	409.25
626.466	389.25
626.673	403.25
626.879	382.25
627.086	396.25
627.293	411.25
627.499	412.25
627.706	417.25
627.912	394.25
628.119	412.25
628.325	386.25
628.532	384.25
628.738	402.25
628.945	408.25
629.151	393.25
629.357	419.25
629.564	385.25
629.77	389.25
629.976	385.25
630.183	373.25
630.389	382.25
630.595	375.25
630.802	375.25
631.008	388.25
631.214	378.25
631.42	356.25
631.627	370.25
631.833	370.25
632.039	357.25
632.245	373.25
632.451	370.25
632.657	353.25
632.863	361.25
633.069	365.25
633.275	364.25
633.481	366.25
633.688	364.25
633.893	362.25
634.099	331.25
634.305	334.25
634.511	377.25
634.717	364.25
634.923	340.25
635.129	341.25
635.335	358.25
635.541	357.25
635.747	347.25
635.952	361.25
636.158	354.25
636.364	355.25
636.57	345.25
636.775	334.25
636.981	335.25
637.187	344.25
637.392	347.25
637.598	339.25
637.804	331.25
638.009	343.25
638.215	350.25
638.421	334.25
638.626	343.25
638.832	335.25
639.037	324.25
639.243	313.25
639.448	344.25
639.654	340.25
639.859	323.25
640.065	311.25
640.27	312.25
640.475	304.25
640.681	315.25
640.886	329.25
641.091	330.25
641.297	321.25
641.502	329.25
641.707	313.25
641.913	332.25
642.118	328.25
642.323	313.25
642.528	315.25
642.733	288.25
642.939	334.25
643.144	298.25
643.349	332.25
643.554	325.25
643.759	322.25
643.964	297.25
644.169	299.25
644.374	325.25
644.579	313.25
644.784	315.25
644.989	300.25
645.194	292.25
645.399	305.25
645.604	315.25
645.809	306.25
646.014	312.25
646.219	312.25
646.423	303.25
646.628	321.25
646.833	318.25
647.038	294.25
647.243	307.25
647.447	309.25
647.652	297.25
647.857	302.25
648.062	310.25
648.266	316.25
648.471	310.25
648.676	312.25
648.88	297.25
649.085	313.25
649.289	315.25
649.494	306.25
649.698	302.25
649.903	323.25
650.107	304.25
650.312	299.25
650.516	280.25
650.721	276.25
650.925	296.25
651.13	283.25
651.334	277.25
651.539	254.25
651.743	280.25
651.947	294.25
652.152	263.25
652.356	285.25
652.56	262.25
652.764	267.25
652.969	246.25
653.173	233.25
653.377	250.25
653.581	268.25
653.785	247.25
653.99	231.25
654.194	234.25
654.398	234.25
654.602	243.25
654.806	235.25
655.01	236.25
655.214	242.25
655.418	249.25
655.622	237.25
655.826	236.25
656.03	264.25
656.234	263.25
656.438	275.25
656.642	272.25
656.846	269.25
657.049	235.25
657.253	232.25
657.457	210.25
657.661	185.25
657.865	183.25
658.068	170.25
658.272	156.25
658.476	154.25
658.68	161.25
658.883	157.25
659.087	141.25
659.291	137.25
659.494	133.25
659.698	134.25
659.901	127.25
660.105	127.25
660.309	113.25
660.512	132.25
660.716	123.25
660.919	105.25
661.123	109.25
661.326	106.25
661.53	109.25
661.733	104.25
661.936	94.25
662.14	92.25
662.343	95.25
662.546	96.25
662.75	94.25
662.953	96.25
663.156	89.25
663.36	90.25
663.563	80.25
663.766	81.25
663.969	84.25
664.173	88.25
664.376	77.25
664.579	80.25
664.782	93.25
664.985	86.25
665.188	84.25
665.391	78.25
665.594	76.25
665.797	70.25
666	90.25
666.203	78.25
666.406	77.25
666.609	88.25
666.812	82.25
667.015	88.25
667.218	92.25
667.421	83.25
667.624	67.25
667.827	82.25
668.03	77.25
668.232	87.25
668.435	73.25
668.638	90.25
668.841	81.25
669.043	77.25
669.246	83.25
669.449	94.25
669.651	91.25
669.854	85.25
670.057	83.25
670.259	86.25
670.462	87.25
670.665	79.25
670.867	76.25
671.07	95.25
671.272	72.25
671.475	92.25
671.677	80.25
671.88	75.25
672.082	88.25
672.284	87.25
672.487	82.25
672.689	72.25
672.892	70.25
