Data from WStandard_LampEnergy8_LIBS07252019.E.O._I.C._HRD10591_15-58-36-929.txt Node
Date: Thu Jul 25 15:58:36 EDT 2019
User: cochatt
Spectrometer: HR+D1059
Trigger mode: 1
Integration Time (sec): 1.000000E-1
Scans to average: 1
Electric dark correction enabled: true
Nonlinearity correction enabled: false
Boxcar width: 0
XAxis mode: Wavelengths
Number of Pixels in Spectrum: 2048
>>>>>Begin Spectral Data<<<<<
223.165	-23.94
223.4	-23.94
223.635	-23.94
223.869	-16.94
224.104	-11.94
224.338	-19.94
224.573	-18.94
224.808	-11.94
225.042	-6.94
225.277	-0.94
225.511	-8.94
225.746	5.06
225.98	-9.94
226.215	26.06
226.449	26.06
226.683	28.06
226.918	26.06
227.152	19.06
227.387	33.06
227.621	39.06
227.856	46.06
228.09	51.06
228.324	61.06
228.559	46.06
228.793	103.06
229.027	220.06
229.262	209.06
229.496	211.06
229.73	229.06
229.964	265.06
230.199	255.06
230.433	274.06
230.667	276.06
230.901	287.06
231.136	267.06
231.37	288.06
231.604	255.06
231.838	265.06
232.072	273.06
232.306	241.06
232.541	272.06
232.775	327.06
233.009	329.06
233.243	310.06
233.477	293.06
233.711	307.06
233.945	316.06
234.179	316.06
234.413	338.06
234.647	347.06
234.881	318.06
235.115	292.06
235.349	311.06
235.583	305.06
235.817	311.06
236.051	290.06
236.285	327.06
236.519	329.06
236.753	350.06
236.987	376.06
237.221	360.06
237.455	396.06
237.689	378.06
237.922	348.06
238.156	374.06
238.39	365.06
238.624	381.06
238.858	421.06
239.091	407.06
239.325	410.06
239.559	491.06
239.793	498.06
240.027	507.06
240.26	497.06
240.494	387.06
240.728	373.06
240.961	385.06
241.195	402.06
241.429	407.06
241.662	428.06
241.896	410.06
242.13	411.06
242.363	446.06
242.597	471.06
242.83	450.06
243.064	459.06
243.298	494.06
243.531	477.06
243.765	481.06
243.998	466.06
244.232	416.06
244.465	417.06
244.699	422.06
244.932	460.06
245.166	530.06
245.399	509.06
245.633	467.06
245.866	468.06
246.099	492.06
246.333	512.06
246.566	498.06
246.8	534.06
247.033	590.06
247.266	532.06
247.5	530.06
247.733	537.06
247.966	578.06
248.2	623.06
248.433	589.06
248.666	633.06
248.899	673.06
249.133	750.06
249.366	821.06
249.599	685.06
249.832	621.06
250.066	645.06
250.299	643.06
250.532	626.06
250.765	552.06
250.998	569.06
251.231	599.06
251.465	602.06
251.698	563.06
251.931	584.06
252.164	612.06
252.397	621.06
252.63	612.06
252.863	556.06
253.096	558.06
253.329	581.06
253.562	610.06
253.795	628.06
254.028	603.06
254.261	589.06
254.494	589.06
254.727	579.06
254.96	601.06
255.193	643.06
255.426	725.06
255.659	810.06
255.892	805.06
256.124	699.06
256.357	663.06
256.59	724.06
256.823	720.06
257.056	717.06
257.289	850.06
257.521	887.06
257.754	815.06
257.987	798.06
258.22	858.06
258.452	797.06
258.685	693.06
258.918	652.06
259.151	680.06
259.383	658.06
259.616	599.06
259.849	633.06
260.081	699.06
260.314	758.06
260.547	813.06
260.779	822.06
261.012	767.06
261.244	701.06
261.477	686.06
261.71	696.06
261.942	687.06
262.175	682.06
262.407	703.06
262.64	683.06
262.872	620.06
263.105	600.06
263.337	647.06
263.57	651.06
263.802	647.06
264.035	602.06
264.267	595.06
264.499	565.06
264.732	644.06
264.964	664.06
265.197	679.06
265.429	720.06
265.661	793.06
265.894	845.06
266.126	902.06
266.358	795.06
266.591	819.06
266.823	881.06
267.055	801.06
267.287	783.06
267.52	773.06
267.752	761.06
267.984	767.06
268.216	814.06
268.448	842.06
268.681	805.06
268.913	719.06
269.145	709.06
269.377	704.06
269.609	775.06
269.841	901.06
270.073	1026.06
270.306	1109.06
270.538	1137.06
270.77	979.06
271.002	841.06
271.234	803.06
271.466	811.06
271.698	935.06
271.93	1083.06
272.162	1056.06
272.394	964.06
272.626	900.06
272.858	796.06
273.09	706.06
273.322	724.06
273.553	668.06
273.785	719.06
274.017	743.06
274.249	775.06
274.481	771.06
274.713	741.06
274.945	727.06
275.176	703.06
275.408	705.06
275.64	670.06
275.872	690.06
276.104	742.06
276.335	844.06
276.567	956.06
276.799	939.06
277.031	841.06
277.262	825.06
277.494	857.06
277.726	932.06
277.957	895.06
278.189	817.06
278.421	761.06
278.652	740.06
278.884	758.06
279.115	757.06
279.347	767.06
279.579	740.06
279.81	747.06
280.042	845.06
280.273	888.06
280.505	897.06
280.736	892.06
280.968	845.06
281.199	736.06
281.431	705.06
281.662	726.06
281.894	733.06
282.125	766.06
282.356	781.06
282.588	773.06
282.819	796.06
283.051	839.06
283.282	876.06
283.513	854.06
283.745	775.06
283.976	734.06
284.207	734.06
284.439	753.06
284.67	764.06
284.901	773.06
285.132	783.06
285.364	776.06
285.595	793.06
285.826	758.06
286.057	773.06
286.288	779.06
286.52	819.06
286.751	874.06
286.982	873.06
287.213	815.06
287.444	724.06
287.675	772.06
287.906	805.06
288.138	829.06
288.369	813.06
288.6	776.06
288.831	753.06
289.062	733.06
289.293	784.06
289.524	797.06
289.755	817.06
289.986	786.06
290.217	749.06
290.448	755.06
290.679	790.06
290.91	804.06
291.141	804.06
291.371	850.06
291.602	827.06
291.833	826.06
292.064	853.06
292.295	863.06
292.526	851.06
292.757	887.06
292.987	870.06
293.218	839.06
293.449	854.06
293.68	994.06
293.91	1031.06
294.141	947.06
294.372	927.06
294.603	955.06
294.833	996.06
295.064	924.06
295.295	836.06
295.525	821.06
295.756	788.06
295.987	753.06
296.217	766.06
296.448	791.06
296.679	780.06
296.909	804.06
297.14	770.06
297.37	784.06
297.601	816.06
297.831	902.06
298.062	897.06
298.292	821.06
298.523	788.06
298.753	805.06
298.984	844.06
299.214	804.06
299.445	834.06
299.675	826.06
299.905	844.06
300.136	829.06
300.366	782.06
300.597	788.06
300.827	753.06
301.057	818.06
301.288	877.06
301.518	875.06
301.748	889.06
301.979	931.06
302.209	945.06
302.439	1009.06
302.669	1018.06
302.9	928.06
303.13	881.06
303.36	864.06
303.59	889.06
303.82	859.06
304.051	871.06
304.281	874.06
304.511	873.06
304.741	960.06
304.971	1037.06
305.201	1063.06
305.431	941.06
305.661	804.06
305.891	732.06
306.121	784.06
306.352	797.06
306.582	863.06
306.812	920.06
307.042	961.06
307.272	964.06
307.502	991.06
307.731	1087.06
307.961	1098.06
308.191	1025.06
308.421	905.06
308.651	854.06
308.881	842.06
309.111	841.06
309.341	847.06
309.571	841.06
309.8	805.06
310.03	815.06
310.26	831.06
310.49	823.06
310.72	860.06
310.949	910.06
311.179	907.06
311.409	870.06
311.639	838.06
311.868	844.06
312.098	845.06
312.328	869.06
312.557	837.06
312.787	874.06
313.017	869.06
313.246	895.06
313.476	899.06
313.706	907.06
313.935	891.06
314.165	890.06
314.394	918.06
314.624	1016.06
314.853	1047.06
315.083	1093.06
315.312	1085.06
315.542	1001.06
315.771	911.06
316.001	936.06
316.23	980.06
316.46	956.06
316.689	953.06
316.919	916.06
317.148	897.06
317.377	899.06
317.607	990.06
317.836	1084.06
318.065	1109.06
318.295	1035.06
318.524	1009.06
318.753	980.06
318.983	979.06
319.212	949.06
319.441	932.06
319.67	923.06
319.9	977.06
320.129	1002.06
320.358	1019.06
320.587	1030.06
320.816	1035.06
321.046	1017.06
321.275	978.06
321.504	1001.06
321.733	1062.06
321.962	1017.06
322.191	945.06
322.42	963.06
322.649	941.06
322.878	932.06
323.108	946.06
323.337	978.06
323.566	959.06
323.795	958.06
324.024	985.06
324.253	970.06
324.482	974.06
324.71	901.06
324.939	909.06
325.168	917.06
325.397	963.06
325.626	970.06
325.855	934.06
326.084	948.06
326.313	959.06
326.542	953.06
326.77	975.06
326.999	977.06
327.228	902.06
327.457	867.06
327.686	917.06
327.914	903.06
328.143	908.06
328.372	940.06
328.6	938.06
328.829	951.06
329.058	908.06
329.287	917.06
329.515	941.06
329.744	988.06
329.972	1032.06
330.201	1071.06
330.43	1022.06
330.658	991.06
330.887	999.06
331.115	1019.06
331.344	993.06
331.572	979.06
331.801	977.06
332.03	968.06
332.258	1005.06
332.486	994.06
332.715	1021.06
332.943	971.06
333.172	996.06
333.4	1018.06
333.629	1037.06
333.857	1117.06
334.085	1254.06
334.314	1399.06
334.542	1436.06
334.771	1311.06
334.999	1159.06
335.227	1098.06
335.455	1031.06
335.684	1096.06
335.912	1111.06
336.14	1130.06
336.369	1068.06
336.597	1008.06
336.825	1010.06
337.053	1069.06
337.281	1127.06
337.51	1157.06
337.738	1172.06
337.966	1086.06
338.194	1019.06
338.422	986.06
338.65	990.06
338.878	990.06
339.106	952.06
339.334	942.06
339.562	933.06
339.79	975.06
340.018	1069.06
340.246	1074.06
340.474	1037.06
340.702	1043.06
340.93	1053.06
341.158	1002.06
341.386	1009.06
341.614	975.06
341.842	982.06
342.07	994.06
342.298	1015.06
342.526	1013.06
342.754	982.06
342.981	993.06
343.209	1003.06
343.437	971.06
343.665	966.06
343.893	1019.06
344.12	1085.06
344.348	1059.06
344.576	1002.06
344.804	1002.06
345.031	997.06
345.259	993.06
345.487	936.06
345.714	909.06
345.942	950.06
346.17	917.06
346.397	953.06
346.625	949.06
346.853	909.06
347.08	907.06
347.308	869.06
347.535	907.06
347.763	964.06
347.99	912.06
348.218	915.06
348.445	905.06
348.673	940.06
348.9	972.06
349.128	993.06
349.355	993.06
349.583	993.06
349.81	922.06
350.037	879.06
350.265	877.06
350.492	873.06
350.72	899.06
350.947	929.06
351.174	973.06
351.402	925.06
351.629	902.06
351.856	854.06
352.083	883.06
352.311	875.06
352.538	901.06
352.765	943.06
352.992	942.06
353.22	966.06
353.447	898.06
353.674	900.06
353.901	907.06
354.128	917.06
354.355	920.06
354.583	951.06
354.81	975.06
355.037	989.06
355.264	963.06
355.491	950.06
355.718	928.06
355.945	917.06
356.172	901.06
356.399	907.06
356.626	919.06
356.853	955.06
357.08	1034.06
357.307	1113.06
357.534	1075.06
357.761	950.06
357.988	873.06
358.215	892.06
358.441	901.06
358.668	885.06
358.895	901.06
359.122	994.06
359.349	1063.06
359.576	1030.06
359.802	937.06
360.029	917.06
360.256	901.06
360.483	923.06
360.709	944.06
360.936	981.06
361.163	1052.06
361.39	1122.06
361.616	1210.06
361.843	1125.06
362.07	1049.06
362.296	921.06
362.523	924.06
362.749	934.06
362.976	984.06
363.203	967.06
363.429	917.06
363.656	905.06
363.882	973.06
364.109	1062.06
364.335	1109.06
364.562	1038.06
364.788	1000.06
365.015	941.06
365.241	927.06
365.468	912.06
365.694	1003.06
365.92	1014.06
366.147	957.06
366.373	903.06
366.599	894.06
366.826	889.06
367.052	899.06
367.278	923.06
367.505	931.06
367.731	967.06
367.957	955.06
368.184	982.06
368.41	1055.06
368.636	1085.06
368.862	1086.06
369.089	1076.06
369.315	1009.06
369.541	991.06
369.767	953.06
369.993	929.06
370.219	961.06
370.445	985.06
370.672	1032.06
370.898	1048.06
371.124	1043.06
371.35	1019.06
371.576	1056.06
371.802	1051.06
372.028	997.06
372.254	963.06
372.48	928.06
372.706	947.06
372.932	975.06
373.158	946.06
373.384	979.06
373.61	1026.06
373.835	1050.06
374.061	993.06
374.287	999.06
374.513	985.06
374.739	1023.06
374.965	1004.06
375.191	1021.06
375.416	1040.06
375.642	1037.06
375.868	1076.06
376.094	1119.06
376.319	1091.06
376.545	1026.06
376.771	1073.06
376.997	1105.06
377.222	1082.06
377.448	1043.06
377.674	1051.06
377.899	1053.06
378.125	1106.06
378.35	1067.06
378.576	1014.06
378.802	933.06
379.027	981.06
379.253	974.06
379.478	1023.06
379.704	1003.06
379.929	999.06
380.155	1017.06
380.38	1015.06
380.606	1021.06
380.831	1007.06
381.057	1066.06
381.282	1081.06
381.507	1061.06
381.733	1144.06
381.958	1169.06
382.184	1053.06
382.409	1055.06
382.634	1050.06
382.86	1036.06
383.085	1051.06
383.31	1102.06
383.535	1196.06
383.761	1247.06
383.986	1177.06
384.211	1113.06
384.436	1143.06
384.662	1171.06
384.887	1204.06
385.112	1158.06
385.337	1185.06
385.562	1137.06
385.787	1131.06
386.013	1163.06
386.238	1173.06
386.463	1169.06
386.688	1262.06
386.913	1358.06
387.138	1271.06
387.363	1201.06
387.588	1218.06
387.813	1163.06
388.038	1201.06
388.263	1231.06
388.488	1182.06
388.713	1074.06
388.938	1083.06
389.163	1092.06
389.387	1134.06
389.612	1102.06
389.837	1155.06
390.062	1155.06
390.287	1149.06
390.512	1128.06
390.736	1112.06
390.961	1081.06
391.186	1070.06
391.411	1113.06
391.636	1153.06
391.86	1126.06
392.085	1141.06
392.31	1138.06
392.534	1157.06
392.759	1181.06
392.984	1177.06
393.208	1159.06
393.433	1173.06
393.658	1277.06
393.882	1251.06
394.107	1174.06
394.331	1145.06
394.556	1142.06
394.78	1177.06
395.005	1196.06
395.229	1260.06
395.454	1291.06
395.678	1284.06
395.903	1237.06
396.127	1203.06
396.352	1246.06
396.576	1241.06
396.801	1250.06
397.025	1245.06
397.249	1258.06
397.474	1230.06
397.698	1224.06
397.922	1287.06
398.147	1353.06
398.371	1362.06
398.595	1398.06
398.82	1306.06
399.044	1335.06
399.268	1393.06
399.492	1465.06
399.717	1489.06
399.941	1493.06
400.165	1478.06
400.389	1442.06
400.613	1428.06
400.837	1667.06
401.062	1795.06
401.286	1536.06
401.51	1463.06
401.734	1482.06
401.958	1435.06
402.182	1337.06
402.406	1313.06
402.63	1272.06
402.854	1317.06
403.078	1309.06
403.302	1335.06
403.526	1372.06
403.75	1345.06
403.974	1395.06
404.198	1371.06
404.422	1415.06
404.645	1494.06
404.869	1441.06
405.093	1330.06
405.317	1299.06
405.541	1373.06
405.765	1363.06
405.988	1357.06
406.212	1388.06
406.436	1417.06
406.66	1439.06
406.883	1452.06
407.107	1654.06
407.331	1823.06
407.555	1944.06
407.778	1709.06
408.002	1442.06
408.226	1415.06
408.449	1426.06
408.673	1374.06
408.896	1399.06
409.12	1406.06
409.344	1382.06
409.567	1336.06
409.791	1378.06
410.014	1399.06
410.238	1473.06
410.461	1537.06
410.685	1358.06
410.908	1359.06
411.132	1390.06
411.355	1386.06
411.578	1333.06
411.802	1374.06
412.025	1370.06
412.249	1319.06
412.472	1330.06
412.695	1305.06
412.919	1303.06
413.142	1295.06
413.365	1356.06
413.589	1365.06
413.812	1404.06
414.035	1446.06
414.258	1335.06
414.482	1320.06
414.705	1337.06
414.928	1277.06
415.151	1327.06
415.374	1304.06
415.597	1327.06
415.821	1371.06
416.044	1357.06
416.267	1355.06
416.49	1291.06
416.713	1304.06
416.936	1353.06
417.159	1411.06
417.382	1373.06
417.605	1299.06
417.828	1326.06
418.051	1383.06
418.274	1345.06
418.497	1316.06
418.72	1281.06
418.943	1286.06
419.166	1288.06
419.389	1348.06
419.611	1300.06
419.834	1309.06
420.057	1294.06
420.28	1270.06
420.503	1294.06
420.726	1330.06
420.948	1304.06
421.171	1301.06
421.394	1335.06
421.617	1341.06
421.839	1341.06
422.062	1308.06
422.285	1261.06
422.507	1263.06
422.73	1275.06
422.953	1239.06
423.175	1239.06
423.398	1291.06
423.621	1291.06
423.843	1301.06
424.066	1336.06
424.288	1403.06
424.511	1419.06
424.733	1375.06
424.956	1265.06
425.178	1241.06
425.401	1273.06
425.623	1273.06
425.846	1262.06
426.068	1352.06
426.291	1383.06
426.513	1329.06
426.735	1331.06
426.958	1453.06
427.18	1509.06
427.402	1426.06
427.625	1407.06
427.847	1357.06
428.069	1278.06
428.292	1287.06
428.514	1254.06
428.736	1258.06
428.958	1271.06
429.181	1301.06
429.403	1466.06
429.625	1764.06
429.847	1482.06
430.069	1301.06
430.292	1457.06
430.514	1448.06
430.736	1318.06
430.958	1418.06
431.18	1307.06
431.402	1226.06
431.624	1205.06
431.846	1195.06
432.068	1121.06
432.29	1163.06
432.512	1207.06
432.734	1258.06
432.956	1301.06
433.178	1322.06
433.4	1332.06
433.622	1301.06
433.844	1271.06
434.066	1219.06
434.287	1220.06
434.509	1231.06
434.731	1285.06
434.953	1381.06
435.175	1324.06
435.397	1282.06
435.618	1272.06
435.84	1265.06
436.062	1222.06
436.284	1259.06
436.505	1267.06
436.727	1356.06
436.949	1267.06
437.17	1249.06
437.392	1228.06
437.614	1225.06
437.835	1202.06
438.057	1241.06
438.278	1275.06
438.5	1234.06
438.721	1233.06
438.943	1264.06
439.165	1221.06
439.386	1219.06
439.608	1250.06
439.829	1238.06
440.05	1268.06
440.272	1269.06
440.493	1252.06
440.715	1283.06
440.936	1382.06
441.158	1470.06
441.379	1443.06
441.6	1396.06
441.822	1374.06
442.043	1357.06
442.264	1350.06
442.486	1275.06
442.707	1283.06
442.928	1247.06
443.149	1308.06
443.371	1340.06
443.592	1389.06
443.813	1394.06
444.034	1383.06
444.255	1372.06
444.476	1422.06
444.698	1423.06
444.919	1380.06
445.14	1515.06
445.361	1459.06
445.582	1477.06
445.803	1426.06
446.024	1366.06
446.245	1423.06
446.466	1419.06
446.687	1331.06
446.908	1339.06
447.129	1318.06
447.35	1329.06
447.571	1307.06
447.792	1252.06
448.013	1247.06
448.234	1298.06
448.455	1329.06
448.675	1335.06
448.896	1182.06
449.117	1206.06
449.338	1260.06
449.559	1285.06
449.779	1354.06
450	1408.06
450.221	1511.06
450.442	1442.06
450.662	1279.06
450.883	1211.06
451.104	1169.06
451.324	1228.06
451.545	1217.06
451.766	1192.06
451.986	1142.06
452.207	1158.06
452.428	1093.06
452.648	1092.06
452.869	1115.06
453.089	1167.06
453.31	1159.06
453.53	1172.06
453.751	1109.06
453.971	1067.06
454.192	1094.06
454.412	1138.06
454.633	1150.06
454.853	1122.06
455.073	1057.06
455.294	1076.06
455.514	1065.06
455.734	1062.06
455.955	1091.06
456.175	1069.06
456.395	1034.06
456.616	1065.06
456.836	1119.06
457.056	1096.06
457.276	1123.06
457.497	1077.06
457.717	1017.06
457.937	1046.06
458.157	1060.06
458.377	1040.06
458.598	1038.06
458.818	1071.06
459.038	1123.06
459.258	1166.06
459.478	1162.06
459.698	1115.06
459.918	1159.06
460.138	1228.06
460.358	1219.06
460.578	1216.06
460.798	1304.06
461.018	1345.06
461.238	1323.06
461.458	1300.06
461.678	1249.06
461.898	1231.06
462.118	1202.06
462.338	1238.06
462.558	1281.06
462.777	1262.06
462.997	1331.06
463.217	1374.06
463.437	1363.06
463.657	1270.06
463.876	1262.06
464.096	1234.06
464.316	1257.06
464.536	1276.06
464.755	1278.06
464.975	1329.06
465.195	1260.06
465.414	1309.06
465.634	1286.06
465.854	1317.06
466.073	1409.06
466.293	1362.06
466.512	1221.06
466.732	1211.06
466.951	1245.06
467.171	1231.06
467.391	1204.06
467.61	1199.06
467.829	1213.06
468.049	1366.06
468.268	1444.06
468.488	1345.06
468.707	1262.06
468.927	1239.06
469.146	1222.06
469.365	1248.06
469.585	1225.06
469.804	1261.06
470.023	1256.06
470.243	1268.06
470.462	1242.06
470.681	1231.06
470.901	1237.06
471.12	1241.06
471.339	1234.06
471.558	1189.06
471.777	1187.06
471.997	1199.06
472.216	1194.06
472.435	1119.06
472.654	1155.06
472.873	1183.06
473.092	1226.06
473.311	1185.06
473.53	1147.06
473.749	1151.06
473.968	1210.06
474.187	1239.06
474.406	1271.06
474.625	1232.06
474.844	1206.06
475.063	1206.06
475.282	1245.06
475.501	1215.06
475.72	1191.06
475.939	1288.06
476.158	1241.06
476.377	1198.06
476.596	1239.06
476.814	1265.06
477.033	1247.06
477.252	1293.06
477.471	1341.06
477.69	1283.06
477.908	1258.06
478.127	1363.06
478.346	1434.06
478.564	1445.06
478.783	1442.06
479.002	1443.06
479.22	1423.06
479.439	1469.06
479.658	1610.06
479.876	1492.06
480.095	1398.06
480.313	1377.06
480.532	1315.06
480.751	1314.06
480.969	1356.06
481.188	1293.06
481.406	1242.06
481.624	1243.06
481.843	1304.06
482.061	1297.06
482.28	1346.06
482.498	1354.06
482.717	1349.06
482.935	1329.06
483.153	1369.06
483.372	1403.06
483.59	1343.06
483.808	1330.06
484.027	1358.06
484.245	1474.06
484.463	1765.06
484.681	1926.06
484.9	1494.06
485.118	1384.06
485.336	1325.06
485.554	1388.06
485.772	1408.06
485.99	1371.06
486.209	1412.06
486.427	1365.06
486.645	1405.06
486.863	1411.06
487.081	1457.06
487.299	1488.06
487.517	1445.06
487.735	1455.06
487.953	1497.06
488.171	1503.06
488.389	1462.06
488.607	1454.06
488.825	1610.06
489.043	1587.06
489.261	1405.06
489.479	1486.06
489.696	1470.06
489.914	1482.06
490.132	1458.06
490.35	1482.06
490.568	1569.06
490.786	1501.06
491.003	1476.06
491.221	1573.06
491.439	1599.06
491.657	1577.06
491.874	1595.06
492.092	1659.06
492.31	1732.06
492.527	1686.06
492.745	1604.06
492.963	1598.06
493.18	1616.06
493.398	1701.06
493.615	1718.06
493.833	1576.06
494.05	1612.06
494.268	1577.06
494.485	1599.06
494.703	1552.06
494.92	1532.06
495.138	1551.06
495.355	1565.06
495.573	1606.06
495.79	1693.06
496.008	1702.06
496.225	1605.06
496.442	1629.06
496.66	1626.06
496.877	1572.06
497.094	1652.06
497.312	1646.06
497.529	1618.06
497.746	1673.06
497.963	1858.06
498.181	1958.06
498.398	1880.06
498.615	1833.06
498.832	1765.06
499.049	1765.06
499.267	1791.06
499.484	1913.06
499.701	2062.06
499.918	2067.06
500.135	2262.06
500.352	2356.06
500.569	2375.06
500.786	2565.06
501.003	2317.06
501.22	2123.06
501.437	2035.06
501.654	2115.06
501.871	1986.06
502.088	1818.06
502.305	1742.06
502.522	1665.06
502.739	1601.06
502.956	1589.06
503.172	1552.06
503.389	1543.06
503.606	1493.06
503.823	1506.06
504.04	1511.06
504.256	1490.06
504.473	1538.06
504.69	1548.06
504.907	1470.06
505.123	1417.06
505.34	1559.06
505.557	2043.06
505.773	1628.06
505.99	1386.06
506.207	1318.06
506.423	1313.06
506.64	1288.06
506.856	1318.06
507.073	1540.06
507.289	1596.06
507.506	1538.06
507.722	1306.06
507.939	1258.06
508.155	1270.06
508.372	1266.06
508.588	1222.06
508.805	1182.06
509.021	1212.06
509.238	1182.06
509.454	1177.06
509.67	1171.06
509.887	1159.06
510.103	1134.06
510.319	1179.06
510.536	1200.06
510.752	1226.06
510.968	1252.06
511.184	1293.06
511.401	1230.06
511.617	1126.06
511.833	1132.06
512.049	1132.06
512.265	1113.06
512.481	1134.06
512.698	1156.06
512.914	1194.06
513.13	1187.06
513.346	1138.06
513.562	1121.06
513.778	1093.06
513.994	1208.06
514.21	1181.06
514.426	1229.06
514.642	1312.06
514.858	1246.06
515.074	1187.06
515.29	1155.06
515.506	1157.06
515.721	1161.06
515.937	1179.06
516.153	1310.06
516.369	1238.06
516.585	1164.06
516.801	1153.06
517.016	1176.06
517.232	1183.06
517.448	1202.06
517.664	1205.06
517.879	1259.06
518.095	1268.06
518.311	1250.06
518.527	1174.06
518.742	1177.06
518.958	1138.06
519.173	1157.06
519.389	1163.06
519.605	1158.06
519.82	1181.06
520.036	1199.06
520.251	1154.06
520.467	1168.06
520.682	1273.06
520.898	1260.06
521.113	1161.06
521.329	1119.06
521.544	1228.06
521.76	1159.06
521.975	1115.06
522.19	1124.06
522.406	1106.06
522.621	1379.06
522.836	1304.06
523.052	1098.06
523.267	1093.06
523.482	1083.06
523.698	1090.06
523.913	1056.06
524.128	1074.06
524.343	1141.06
524.559	1196.06
524.774	1121.06
524.989	1095.06
525.204	1088.06
525.419	1056.06
525.634	1056.06
525.849	1054.06
526.064	1067.06
526.28	1081.06
526.495	1026.06
526.71	1005.06
526.925	1027.06
527.14	999.06
527.355	984.06
527.57	981.06
527.785	1057.06
527.999	1017.06
528.214	991.06
528.429	1026.06
528.644	1062.06
528.859	1055.06
529.074	1086.06
529.289	1121.06
529.503	1114.06
529.718	1082.06
529.933	1063.06
530.148	971.06
530.363	985.06
530.577	990.06
530.792	991.06
531.007	979.06
531.221	990.06
531.436	986.06
531.651	1026.06
531.865	1069.06
532.08	1003.06
532.295	990.06
532.509	926.06
532.724	961.06
532.938	989.06
533.153	1082.06
533.367	1044.06
533.582	1090.06
533.796	1046.06
534.011	1018.06
534.225	1013.06
534.44	965.06
534.654	957.06
534.868	983.06
535.083	1039.06
535.297	1027.06
535.511	1031.06
535.726	989.06
535.94	980.06
536.154	999.06
536.369	979.06
536.583	953.06
536.797	938.06
537.011	969.06
537.225	921.06
537.44	929.06
537.654	978.06
537.868	955.06
538.082	931.06
538.296	914.06
538.51	949.06
538.724	957.06
538.938	963.06
539.153	1011.06
539.367	990.06
539.581	970.06
539.795	987.06
540.009	979.06
540.222	968.06
540.436	996.06
540.65	1080.06
540.864	1089.06
541.078	1079.06
541.292	1031.06
541.506	1091.06
541.72	1098.06
541.934	1138.06
542.147	1179.06
542.361	1153.06
542.575	1077.06
542.789	1006.06
543.002	966.06
543.216	962.06
543.43	1023.06
543.644	1081.06
543.857	1134.06
544.071	1122.06
544.285	1126.06
544.498	1092.06
544.712	1106.06
544.925	1110.06
545.139	1123.06
545.352	1128.06
545.566	1048.06
545.779	1055.06
545.993	1086.06
546.206	1096.06
546.42	1059.06
546.633	1062.06
546.847	1066.06
547.06	1079.06
547.274	1082.06
547.487	1111.06
547.7	1103.06
547.914	1090.06
548.127	1090.06
548.34	1083.06
548.554	1061.06
548.767	1053.06
548.98	1082.06
549.193	1057.06
549.407	1125.06
549.62	1141.06
549.833	1083.06
550.046	1083.06
550.259	1078.06
550.473	1038.06
550.686	1047.06
550.899	1032.06
551.112	1005.06
551.325	971.06
551.538	1057.06
551.751	1137.06
551.964	945.06
552.177	919.06
552.39	936.06
552.603	1009.06
552.816	1028.06
553.029	1065.06
553.242	1075.06
553.455	1081.06
553.667	1041.06
553.88	1043.06
554.093	1023.06
554.306	962.06
554.519	940.06
554.732	936.06
554.944	963.06
555.157	997.06
555.37	950.06
555.583	940.06
555.795	930.06
556.008	894.06
556.221	910.06
556.433	874.06
556.646	877.06
556.859	883.06
557.071	862.06
557.284	875.06
557.496	877.06
557.709	876.06
557.921	887.06
558.134	876.06
558.346	867.06
558.559	857.06
558.771	830.06
558.984	822.06
559.196	821.06
559.409	792.06
559.621	830.06
559.833	828.06
560.046	843.06
560.258	835.06
560.47	810.06
560.683	835.06
560.895	797.06
561.107	830.06
561.32	835.06
561.532	830.06
561.744	799.06
561.956	838.06
562.168	799.06
562.381	782.06
562.593	772.06
562.805	796.06
563.017	806.06
563.229	795.06
563.441	807.06
563.653	810.06
563.865	777.06
564.077	789.06
564.289	787.06
564.501	780.06
564.713	838.06
564.925	830.06
565.137	886.06
565.349	808.06
565.561	803.06
565.773	822.06
565.985	837.06
566.197	904.06
566.408	925.06
566.62	894.06
566.832	895.06
567.044	909.06
567.255	895.06
567.467	903.06
567.679	909.06
567.891	899.06
568.102	911.06
568.314	861.06
568.526	803.06
568.737	779.06
568.949	753.06
569.161	713.06
569.372	706.06
569.584	677.06
569.795	676.06
570.007	701.06
570.218	655.06
570.43	662.06
570.641	669.06
570.853	667.06
571.064	667.06
571.276	675.06
571.487	641.06
571.698	677.06
571.91	637.06
572.121	635.06
572.333	617.06
572.544	602.06
572.755	623.06
572.966	609.06
573.178	579.06
573.389	592.06
573.6	609.06
573.811	671.06
574.023	597.06
574.234	563.06
574.445	569.06
574.656	574.06
574.867	551.06
575.078	579.06
575.289	590.06
575.501	561.06
575.712	561.06
575.923	557.06
576.134	579.06
576.345	567.06
576.556	559.06
576.767	562.06
576.978	541.06
577.188	533.06
577.399	535.06
577.61	528.06
577.821	542.06
578.032	519.06
578.243	509.06
578.454	524.06
578.665	520.06
578.875	493.06
579.086	502.06
579.297	502.06
579.508	524.06
579.718	512.06
579.929	493.06
580.14	465.06
580.35	469.06
580.561	482.06
580.772	571.06
580.982	527.06
581.193	507.06
581.403	485.06
581.614	484.06
581.825	477.06
582.035	465.06
582.246	494.06
582.456	489.06
582.667	507.06
582.877	477.06
583.087	482.06
583.298	477.06
583.508	472.06
583.719	463.06
583.929	471.06
584.139	465.06
584.35	457.06
584.56	465.06
584.77	473.06
584.981	481.06
585.191	492.06
585.401	469.06
585.611	466.06
585.821	496.06
586.032	482.06
586.242	437.06
586.452	445.06
586.662	475.06
586.872	492.06
587.082	453.06
587.292	473.06
587.502	461.06
587.713	473.06
587.923	452.06
588.133	455.06
588.343	454.06
588.553	470.06
588.762	430.06
588.972	454.06
589.182	476.06
589.392	487.06
589.602	458.06
589.812	461.06
590.022	435.06
590.232	453.06
590.441	488.06
590.651	447.06
590.861	455.06
591.071	446.06
591.281	439.06
591.49	426.06
591.7	453.06
591.91	450.06
592.119	439.06
592.329	477.06
592.539	466.06
592.748	482.06
592.958	457.06
593.167	479.06
593.377	465.06
593.587	451.06
593.796	474.06
594.006	474.06
594.215	450.06
594.424	478.06
594.634	457.06
594.843	451.06
595.053	485.06
595.262	471.06
595.472	454.06
595.681	434.06
595.89	445.06
596.1	429.06
596.309	438.06
596.518	448.06
596.727	447.06
596.937	441.06
597.146	414.06
597.355	424.06
597.564	417.06
597.774	402.06
597.983	424.06
598.192	400.06
598.401	390.06
598.61	389.06
598.819	407.06
599.028	398.06
599.237	410.06
599.446	415.06
599.655	409.06
599.864	393.06
600.073	398.06
600.282	399.06
600.491	395.06
600.7	396.06
600.909	394.06
601.118	413.06
601.327	412.06
601.536	416.06
601.745	413.06
601.953	414.06
602.162	409.06
602.371	409.06
602.58	411.06
602.789	417.06
602.997	401.06
603.206	389.06
603.415	411.06
603.623	410.06
603.832	411.06
604.041	381.06
604.249	380.06
604.458	391.06
604.666	391.06
604.875	396.06
605.084	393.06
605.292	420.06
605.501	407.06
605.709	412.06
605.918	405.06
606.126	402.06
606.334	413.06
606.543	403.06
606.751	412.06
606.96	417.06
607.168	394.06
607.376	393.06
607.585	402.06
607.793	382.06
608.001	388.06
608.21	398.06
608.418	391.06
608.626	423.06
608.834	405.06
609.043	394.06
609.251	413.06
609.459	393.06
609.667	403.06
609.875	406.06
610.083	433.06
610.291	419.06
610.499	403.06
610.707	417.06
610.916	425.06
611.124	391.06
611.332	406.06
611.54	410.06
611.748	390.06
611.955	388.06
612.163	403.06
612.371	387.06
612.579	381.06
612.787	397.06
612.995	409.06
613.203	389.06
613.411	391.06
613.618	396.06
613.826	380.06
614.034	394.06
614.242	388.06
614.449	382.06
614.657	393.06
614.865	396.06
615.072	392.06
615.28	380.06
615.488	396.06
615.695	392.06
615.903	386.06
616.111	381.06
616.318	387.06
616.526	391.06
616.733	395.06
616.941	376.06
617.148	418.06
617.356	377.06
617.563	383.06
617.771	379.06
617.978	356.06
618.185	382.06
618.393	371.06
618.6	357.06
618.807	373.06
619.015	387.06
619.222	374.06
619.429	366.06
619.637	366.06
619.844	362.06
620.051	361.06
620.258	374.06
620.466	345.06
620.673	350.06
620.88	353.06
621.087	342.06
621.294	347.06
621.501	347.06
621.708	337.06
621.915	352.06
622.122	345.06
622.329	365.06
622.536	368.06
622.743	349.06
622.95	349.06
623.157	354.06
623.364	336.06
623.571	332.06
623.778	349.06
623.985	355.06
624.192	342.06
624.399	355.06
624.606	361.06
624.812	349.06
625.019	339.06
625.226	357.06
625.433	315.06
625.639	319.06
625.846	318.06
626.053	298.06
626.259	290.06
626.466	289.06
626.673	286.06
626.879	295.06
627.086	293.06
627.293	310.06
627.499	309.06
627.706	321.06
627.912	316.06
628.119	305.06
628.325	326.06
628.532	323.06
628.738	308.06
628.945	333.06
629.151	315.06
629.357	325.06
629.564	323.06
629.77	299.06
629.976	302.06
630.183	294.06
630.389	303.06
630.595	314.06
630.802	300.06
631.008	309.06
631.214	302.06
631.42	308.06
631.627	292.06
631.833	294.06
632.039	285.06
632.245	298.06
632.451	299.06
632.657	297.06
632.863	294.06
633.069	283.06
633.275	292.06
633.481	283.06
633.688	282.06
633.893	288.06
634.099	280.06
634.305	282.06
634.511	277.06
634.717	277.06
634.923	269.06
635.129	270.06
635.335	275.06
635.541	259.06
635.747	298.06
635.952	275.06
636.158	277.06
636.364	282.06
636.57	281.06
636.775	287.06
636.981	271.06
637.187	286.06
637.392	274.06
637.598	283.06
637.804	297.06
638.009	272.06
638.215	291.06
638.421	277.06
638.626	261.06
638.832	282.06
639.037	275.06
639.243	274.06
639.448	250.06
639.654	265.06
639.859	276.06
640.065	273.06
640.27	276.06
640.475	247.06
640.681	264.06
640.886	267.06
641.091	280.06
641.297	267.06
641.502	255.06
641.707	264.06
641.913	256.06
642.118	253.06
642.323	265.06
642.528	268.06
642.733	279.06
642.939	263.06
643.144	269.06
643.349	271.06
643.554	269.06
643.759	263.06
643.964	258.06
644.169	260.06
644.374	249.06
644.579	245.06
644.784	298.06
644.989	267.06
645.194	259.06
645.399	258.06
645.604	252.06
645.809	265.06
646.014	263.06
646.219	268.06
646.423	271.06
646.628	259.06
646.833	269.06
647.038	274.06
647.243	243.06
647.447	263.06
647.652	275.06
647.857	259.06
648.062	261.06
648.266	281.06
648.471	257.06
648.676	272.06
648.88	247.06
649.085	259.06
649.289	268.06
649.494	268.06
649.698	254.06
649.903	259.06
650.107	257.06
650.312	251.06
650.516	259.06
650.721	248.06
650.925	233.06
651.13	241.06
651.334	240.06
651.539	250.06
651.743	225.06
651.947	223.06
652.152	245.06
652.356	236.06
652.56	226.06
652.764	245.06
652.969	229.06
653.173	209.06
653.377	241.06
653.581	227.06
653.785	236.06
653.99	225.06
654.194	238.06
654.398	213.06
654.602	215.06
654.806	218.06
655.01	217.06
655.214	233.06
655.418	237.06
655.622	220.06
655.826	226.06
656.03	253.06
656.234	244.06
656.438	253.06
656.642	264.06
656.846	255.06
657.049	234.06
657.253	221.06
657.457	221.06
657.661	190.06
657.865	173.06
658.068	172.06
658.272	188.06
658.476	167.06
658.68	168.06
658.883	172.06
659.087	144.06
659.291	140.06
659.494	149.06
659.698	138.06
659.901	134.06
660.105	141.06
660.309	125.06
660.512	129.06
660.716	126.06
660.919	123.06
661.123	118.06
661.326	126.06
661.53	133.06
661.733	94.06
661.936	113.06
662.14	99.06
662.343	107.06
662.546	97.06
662.75	97.06
662.953	98.06
663.156	95.06
663.36	89.06
663.563	91.06
663.766	83.06
663.969	87.06
664.173	89.06
664.376	78.06
664.579	72.06
664.782	77.06
664.985	91.06
665.188	88.06
665.391	89.06
665.594	74.06
665.797	87.06
666	95.06
666.203	85.06
666.406	84.06
666.609	88.06
666.812	87.06
667.015	94.06
667.218	94.06
667.421	74.06
667.624	77.06
667.827	79.06
668.03	73.06
668.232	88.06
668.435	90.06
668.638	79.06
668.841	82.06
669.043	84.06
669.246	80.06
669.449	64.06
669.651	86.06
669.854	84.06
670.057	74.06
670.259	89.06
670.462	76.06
670.665	96.06
670.867	84.06
671.07	63.06
671.272	74.06
671.475	82.06
671.677	79.06
671.88	79.06
672.082	83.06
672.284	80.06
672.487	80.06
672.689	98.06
672.892	93.06
