Data from WStandard_LampEnergy8_LIBS07252019.E.O._I.C._HRD10591_15-59-30-929.txt Node
Date: Thu Jul 25 15:59:30 EDT 2019
User: cochatt
Spectrometer: HR+D1059
Trigger mode: 1
Integration Time (sec): 1.000000E-1
Scans to average: 1
Electric dark correction enabled: true
Nonlinearity correction enabled: false
Boxcar width: 0
XAxis mode: Wavelengths
Number of Pixels in Spectrum: 2048
>>>>>Begin Spectral Data<<<<<
223.165	-6.44
223.4	-6.44
223.635	-6.44
223.869	-17.44
224.104	-37.44
224.338	-1.44
224.573	-17.44
224.808	-16.44
225.042	-0.44
225.277	3.56
225.511	14.56
225.746	-4.44
225.98	4.56
226.215	-2.44
226.449	16.56
226.683	25.56
226.918	16.56
227.152	22.56
227.387	23.56
227.621	46.56
227.856	39.56
228.09	46.56
228.324	34.56
228.559	43.56
228.793	110.56
229.027	203.56
229.262	203.56
229.496	213.56
229.73	214.56
229.964	242.56
230.199	244.56
230.433	263.56
230.667	272.56
230.901	267.56
231.136	268.56
231.37	239.56
231.604	243.56
231.838	254.56
232.072	266.56
232.306	263.56
232.541	280.56
232.775	309.56
233.009	314.56
233.243	319.56
233.477	297.56
233.711	298.56
233.945	285.56
234.179	282.56
234.413	321.56
234.647	330.56
234.881	304.56
235.115	299.56
235.349	286.56
235.583	296.56
235.817	295.56
236.051	292.56
236.285	295.56
236.519	326.56
236.753	354.56
236.987	359.56
237.221	373.56
237.455	382.56
237.689	357.56
237.922	341.56
238.156	335.56
238.39	342.56
238.624	362.56
238.858	382.56
239.091	390.56
239.325	421.56
239.559	492.56
239.793	462.56
240.027	496.56
240.26	500.56
240.494	396.56
240.728	378.56
240.961	376.56
241.195	400.56
241.429	413.56
241.662	433.56
241.896	392.56
242.13	380.56
242.363	434.56
242.597	432.56
242.83	452.56
243.064	473.56
243.298	473.56
243.531	473.56
243.765	479.56
243.998	457.56
244.232	411.56
244.465	391.56
244.699	424.56
244.932	469.56
245.166	502.56
245.399	475.56
245.633	467.56
245.866	467.56
246.099	471.56
246.333	488.56
246.566	495.56
246.8	522.56
247.033	584.56
247.266	539.56
247.5	551.56
247.733	548.56
247.966	580.56
248.2	616.56
248.433	579.56
248.666	611.56
248.899	662.56
249.133	720.56
249.366	807.56
249.599	675.56
249.832	613.56
250.066	611.56
250.299	614.56
250.532	568.56
250.765	547.56
250.998	559.56
251.231	582.56
251.465	610.56
251.698	566.56
251.931	570.56
252.164	615.56
252.397	599.56
252.63	610.56
252.863	529.56
253.096	525.56
253.329	575.56
253.562	583.56
253.795	628.56
254.028	611.56
254.261	570.56
254.494	571.56
254.727	566.56
254.96	580.56
255.193	642.56
255.426	729.56
255.659	790.56
255.892	788.56
256.124	656.56
256.357	647.56
256.59	708.56
256.823	702.56
257.056	715.56
257.289	829.56
257.521	882.56
257.754	822.56
257.987	776.56
258.22	797.56
258.452	809.56
258.685	695.56
258.918	666.56
259.151	650.56
259.383	626.56
259.616	606.56
259.849	608.56
260.081	706.56
260.314	756.56
260.547	833.56
260.779	798.56
261.012	783.56
261.244	706.56
261.477	667.56
261.71	706.56
261.942	663.56
262.175	686.56
262.407	706.56
262.64	664.56
262.872	650.56
263.105	623.56
263.337	632.56
263.57	618.56
263.802	639.56
264.035	609.56
264.267	578.56
264.499	568.56
264.732	611.56
264.964	646.56
265.197	659.56
265.429	689.56
265.661	762.56
265.894	847.56
266.126	864.56
266.358	779.56
266.591	824.56
266.823	867.56
267.055	781.56
267.287	777.56
267.52	792.56
267.752	748.56
267.984	770.56
268.216	783.56
268.448	820.56
268.681	772.56
268.913	717.56
269.145	700.56
269.377	689.56
269.609	770.56
269.841	900.56
270.073	1009.56
270.306	1120.56
270.538	1130.56
270.77	961.56
271.002	839.56
271.234	801.56
271.466	826.56
271.698	930.56
271.93	1044.56
272.162	1054.56
272.394	930.56
272.626	913.56
272.858	806.56
273.09	692.56
273.322	702.56
273.553	692.56
273.785	688.56
274.017	716.56
274.249	742.56
274.481	771.56
274.713	681.56
274.945	698.56
275.176	706.56
275.408	693.56
275.64	688.56
275.872	686.56
276.104	755.56
276.335	826.56
276.567	946.56
276.799	901.56
277.031	812.56
277.262	801.56
277.494	841.56
277.726	887.56
277.957	876.56
278.189	815.56
278.421	761.56
278.652	728.56
278.884	726.56
279.115	733.56
279.347	769.56
279.579	722.56
279.81	740.56
280.042	831.56
280.273	858.56
280.505	868.56
280.736	898.56
280.968	830.56
281.199	730.56
281.431	677.56
281.662	715.56
281.894	752.56
282.125	740.56
282.356	780.56
282.588	754.56
282.819	784.56
283.051	836.56
283.282	886.56
283.513	866.56
283.745	772.56
283.976	724.56
284.207	730.56
284.439	748.56
284.67	755.56
284.901	775.56
285.132	772.56
285.364	796.56
285.595	773.56
285.826	743.56
286.057	752.56
286.288	731.56
286.52	772.56
286.751	838.56
286.982	861.56
287.213	786.56
287.444	729.56
287.675	742.56
287.906	803.56
288.138	806.56
288.369	802.56
288.6	760.56
288.831	731.56
289.062	739.56
289.293	763.56
289.524	755.56
289.755	802.56
289.986	779.56
290.217	727.56
290.448	728.56
290.679	784.56
290.91	770.56
291.141	776.56
291.371	811.56
291.602	828.56
291.833	810.56
292.064	824.56
292.295	838.56
292.526	858.56
292.757	852.56
292.987	831.56
293.218	808.56
293.449	865.56
293.68	970.56
293.91	1010.56
294.141	947.56
294.372	930.56
294.603	978.56
294.833	956.56
295.064	926.56
295.295	866.56
295.525	803.56
295.756	760.56
295.987	734.56
296.217	739.56
296.448	782.56
296.679	766.56
296.909	778.56
297.14	770.56
297.37	788.56
297.601	824.56
297.831	881.56
298.062	886.56
298.292	811.56
298.523	786.56
298.753	781.56
298.984	805.56
299.214	806.56
299.445	797.56
299.675	849.56
299.905	840.56
300.136	791.56
300.366	783.56
300.597	784.56
300.827	759.56
301.057	807.56
301.288	847.56
301.518	851.56
301.748	897.56
301.979	879.56
302.209	940.56
302.439	971.56
302.669	985.56
302.9	938.56
303.13	830.56
303.36	830.56
303.59	862.56
303.82	858.56
304.051	870.56
304.281	841.56
304.511	897.56
304.741	958.56
304.971	1024.56
305.201	1078.56
305.431	982.56
305.661	811.56
305.891	743.56
306.121	735.56
306.352	795.56
306.582	869.56
306.812	926.56
307.042	974.56
307.272	983.56
307.502	997.56
307.731	1036.56
307.961	1108.56
308.191	999.56
308.421	892.56
308.651	830.56
308.881	837.56
309.111	843.56
309.341	817.56
309.571	832.56
309.8	833.56
310.03	827.56
310.26	814.56
310.49	819.56
310.72	837.56
310.949	876.56
311.179	875.56
311.409	869.56
311.639	856.56
311.868	832.56
312.098	858.56
312.328	836.56
312.557	838.56
312.787	864.56
313.017	891.56
313.246	878.56
313.476	866.56
313.706	913.56
313.935	879.56
314.165	912.56
314.394	932.56
314.624	956.56
314.853	1019.56
315.083	1032.56
315.312	1033.56
315.542	998.56
315.771	920.56
316.001	916.56
316.23	970.56
316.46	934.56
316.689	925.56
316.919	875.56
317.148	851.56
317.377	884.56
317.607	984.56
317.836	1059.56
318.065	1080.56
318.295	1051.56
318.524	998.56
318.753	966.56
318.983	937.56
319.212	902.56
319.441	898.56
319.67	916.56
319.9	958.56
320.129	974.56
320.358	1013.56
320.587	1032.56
320.816	1050.56
321.046	1014.56
321.275	972.56
321.504	966.56
321.733	1042.56
321.962	1012.56
322.191	971.56
322.42	939.56
322.649	910.56
322.878	910.56
323.108	918.56
323.337	943.56
323.566	980.56
323.795	930.56
324.024	945.56
324.253	914.56
324.482	939.56
324.71	889.56
324.939	878.56
325.168	895.56
325.397	947.56
325.626	961.56
325.855	938.56
326.084	920.56
326.313	919.56
326.542	934.56
326.77	967.56
326.999	946.56
327.228	918.56
327.457	876.56
327.686	881.56
327.914	941.56
328.143	953.56
328.372	922.56
328.6	920.56
328.829	920.56
329.058	897.56
329.287	913.56
329.515	926.56
329.744	954.56
329.972	1030.56
330.201	1045.56
330.43	996.56
330.658	991.56
330.887	977.56
331.115	992.56
331.344	997.56
331.572	970.56
331.801	982.56
332.03	966.56
332.258	978.56
332.486	987.56
332.715	1004.56
332.943	988.56
333.172	985.56
333.4	1002.56
333.629	1050.56
333.857	1115.56
334.085	1199.56
334.314	1353.56
334.542	1451.56
334.771	1299.56
334.999	1172.56
335.227	1123.56
335.455	1067.56
335.684	1057.56
335.912	1089.56
336.14	1094.56
336.369	1059.56
336.597	1016.56
336.825	981.56
337.053	1046.56
337.281	1107.56
337.51	1147.56
337.738	1170.56
337.966	1098.56
338.194	1001.56
338.422	953.56
338.65	971.56
338.878	964.56
339.106	952.56
339.334	929.56
339.562	925.56
339.79	961.56
340.018	1037.56
340.246	1032.56
340.474	1045.56
340.702	1009.56
340.93	1048.56
341.158	1003.56
341.386	995.56
341.614	994.56
341.842	979.56
342.07	992.56
342.298	992.56
342.526	988.56
342.754	974.56
342.981	986.56
343.209	976.56
343.437	954.56
343.665	980.56
343.893	1000.56
344.12	1043.56
344.348	1062.56
344.576	990.56
344.804	994.56
345.031	1006.56
345.259	1001.56
345.487	926.56
345.714	902.56
345.942	897.56
346.17	939.56
346.397	911.56
346.625	929.56
346.853	885.56
347.08	900.56
347.308	922.56
347.535	920.56
347.763	980.56
347.99	915.56
348.218	910.56
348.445	952.56
348.673	940.56
348.9	972.56
349.128	993.56
349.355	969.56
349.583	982.56
349.81	930.56
350.037	876.56
350.265	857.56
350.492	900.56
350.72	894.56
350.947	903.56
351.174	955.56
351.402	893.56
351.629	867.56
351.856	866.56
352.083	848.56
352.311	869.56
352.538	904.56
352.765	940.56
352.992	939.56
353.22	903.56
353.447	876.56
353.674	918.56
353.901	900.56
354.128	899.56
354.355	903.56
354.583	938.56
354.81	946.56
355.037	938.56
355.264	945.56
355.491	914.56
355.718	930.56
355.945	910.56
356.172	909.56
356.399	895.56
356.626	901.56
356.853	926.56
357.08	1025.56
357.307	1103.56
357.534	1070.56
357.761	970.56
357.988	867.56
358.215	880.56
358.441	878.56
358.668	884.56
358.895	910.56
359.122	992.56
359.349	1034.56
359.576	1000.56
359.802	931.56
360.029	895.56
360.256	884.56
360.483	919.56
360.709	955.56
360.936	987.56
361.163	1038.56
361.39	1082.56
361.616	1168.56
361.843	1130.56
362.07	1041.56
362.296	932.56
362.523	916.56
362.749	907.56
362.976	929.56
363.203	942.56
363.429	912.56
363.656	886.56
363.882	942.56
364.109	1032.56
364.335	1101.56
364.562	1028.56
364.788	978.56
365.015	935.56
365.241	905.56
365.468	926.56
365.694	974.56
365.92	1018.56
366.147	958.56
366.373	903.56
366.599	930.56
366.826	902.56
367.052	882.56
367.278	916.56
367.505	934.56
367.731	972.56
367.957	967.56
368.184	1019.56
368.41	1045.56
368.636	1070.56
368.862	1068.56
369.089	1063.56
369.315	1002.56
369.541	971.56
369.767	923.56
369.993	924.56
370.219	929.56
370.445	967.56
370.672	1035.56
370.898	1054.56
371.124	1015.56
371.35	1011.56
371.576	1042.56
371.802	1038.56
372.028	988.56
372.254	931.56
372.48	948.56
372.706	951.56
372.932	922.56
373.158	954.56
373.384	978.56
373.61	1012.56
373.835	1020.56
374.061	987.56
374.287	975.56
374.513	975.56
374.739	980.56
374.965	1006.56
375.191	1011.56
375.416	1000.56
375.642	1020.56
375.868	1100.56
376.094	1091.56
376.319	1039.56
376.545	968.56
376.771	1024.56
376.997	1092.56
377.222	1061.56
377.448	1041.56
377.674	1031.56
377.899	1041.56
378.125	1115.56
378.35	1079.56
378.576	978.56
378.802	926.56
379.027	960.56
379.253	976.56
379.478	981.56
379.704	993.56
379.929	987.56
380.155	993.56
380.38	980.56
380.606	995.56
380.831	1017.56
381.057	1066.56
381.282	1061.56
381.507	1048.56
381.733	1076.56
381.958	1150.56
382.184	1077.56
382.409	1050.56
382.634	1032.56
382.86	1063.56
383.085	1029.56
383.31	1073.56
383.535	1178.56
383.761	1172.56
383.986	1168.56
384.211	1121.56
384.436	1120.56
384.662	1186.56
384.887	1224.56
385.112	1121.56
385.337	1151.56
385.562	1125.56
385.787	1128.56
386.013	1139.56
386.238	1172.56
386.463	1172.56
386.688	1248.56
386.913	1308.56
387.138	1252.56
387.363	1183.56
387.588	1206.56
387.813	1161.56
388.038	1209.56
388.263	1236.56
388.488	1148.56
388.713	1087.56
388.938	1072.56
389.163	1100.56
389.387	1120.56
389.612	1100.56
389.837	1125.56
390.062	1140.56
390.287	1150.56
390.512	1106.56
390.736	1115.56
390.961	1113.56
391.186	1071.56
391.411	1086.56
391.636	1144.56
391.86	1169.56
392.085	1126.56
392.31	1079.56
392.534	1097.56
392.759	1137.56
392.984	1119.56
393.208	1182.56
393.433	1181.56
393.658	1231.56
393.882	1214.56
394.107	1181.56
394.331	1111.56
394.556	1129.56
394.78	1150.56
395.005	1191.56
395.229	1224.56
395.454	1311.56
395.678	1318.56
395.903	1231.56
396.127	1208.56
396.352	1213.56
396.576	1250.56
396.801	1265.56
397.025	1262.56
397.249	1214.56
397.474	1224.56
397.698	1204.56
397.922	1285.56
398.147	1311.56
398.371	1333.56
398.595	1350.56
398.82	1293.56
399.044	1317.56
399.268	1379.56
399.492	1447.56
399.717	1494.56
399.941	1467.56
400.165	1444.56
400.389	1422.56
400.613	1482.56
400.837	1687.56
401.062	1782.56
401.286	1530.56
401.51	1446.56
401.734	1464.56
401.958	1369.56
402.182	1332.56
402.406	1259.56
402.63	1279.56
402.854	1282.56
403.078	1321.56
403.302	1328.56
403.526	1334.56
403.75	1348.56
403.974	1355.56
404.198	1347.56
404.422	1428.56
404.645	1451.56
404.869	1382.56
405.093	1322.56
405.317	1297.56
405.541	1354.56
405.765	1344.56
405.988	1389.56
406.212	1400.56
406.436	1425.56
406.66	1446.56
406.883	1499.56
407.107	1642.56
407.331	1782.56
407.555	1918.56
407.778	1675.56
408.002	1412.56
408.226	1436.56
408.449	1395.56
408.673	1370.56
408.896	1388.56
409.12	1399.56
409.344	1380.56
409.567	1337.56
409.791	1360.56
410.014	1426.56
410.238	1472.56
410.461	1522.56
410.685	1386.56
410.908	1343.56
411.132	1372.56
411.355	1352.56
411.578	1337.56
411.802	1348.56
412.025	1359.56
412.249	1340.56
412.472	1276.56
412.695	1290.56
412.919	1295.56
413.142	1278.56
413.365	1329.56
413.589	1363.56
413.812	1443.56
414.035	1417.56
414.258	1332.56
414.482	1300.56
414.705	1348.56
414.928	1304.56
415.151	1267.56
415.374	1278.56
415.597	1346.56
415.821	1324.56
416.044	1344.56
416.267	1371.56
416.49	1253.56
416.713	1295.56
416.936	1322.56
417.159	1379.56
417.382	1377.56
417.605	1315.56
417.828	1315.56
418.051	1354.56
418.274	1294.56
418.497	1320.56
418.72	1299.56
418.943	1281.56
419.166	1344.56
419.389	1370.56
419.611	1316.56
419.834	1275.56
420.057	1313.56
420.28	1270.56
420.503	1307.56
420.726	1345.56
420.948	1308.56
421.171	1241.56
421.394	1267.56
421.617	1355.56
421.839	1358.56
422.062	1326.56
422.285	1291.56
422.507	1264.56
422.73	1252.56
422.953	1184.56
423.175	1217.56
423.398	1308.56
423.621	1259.56
423.843	1302.56
424.066	1326.56
424.288	1343.56
424.511	1378.56
424.733	1338.56
424.956	1249.56
425.178	1246.56
425.401	1221.56
425.623	1252.56
425.846	1276.56
426.068	1350.56
426.291	1371.56
426.513	1347.56
426.735	1330.56
426.958	1427.56
427.18	1476.56
427.402	1349.56
427.625	1426.56
427.847	1374.56
428.069	1268.56
428.292	1238.56
428.514	1224.56
428.736	1249.56
428.958	1249.56
429.181	1273.56
429.403	1489.56
429.625	1754.56
429.847	1487.56
430.069	1323.56
430.292	1462.56
430.514	1466.56
430.736	1361.56
430.958	1332.56
431.18	1306.56
431.402	1210.56
431.624	1234.56
431.846	1183.56
432.068	1121.56
432.29	1148.56
432.512	1179.56
432.734	1226.56
432.956	1295.56
433.178	1319.56
433.4	1331.56
433.622	1293.56
433.844	1261.56
434.066	1201.56
434.287	1167.56
434.509	1185.56
434.731	1255.56
434.953	1372.56
435.175	1289.56
435.397	1266.56
435.618	1279.56
435.84	1242.56
436.062	1207.56
436.284	1252.56
436.505	1279.56
436.727	1328.56
436.949	1276.56
437.17	1273.56
437.392	1226.56
437.614	1170.56
437.835	1164.56
438.057	1212.56
438.278	1260.56
438.5	1203.56
438.721	1207.56
438.943	1249.56
439.165	1214.56
439.386	1199.56
439.608	1258.56
439.829	1258.56
440.05	1263.56
440.272	1235.56
440.493	1259.56
440.715	1320.56
440.936	1366.56
441.158	1435.56
441.379	1378.56
441.6	1378.56
441.822	1345.56
442.043	1365.56
442.264	1305.56
442.486	1264.56
442.707	1223.56
442.928	1251.56
443.149	1326.56
443.371	1372.56
443.592	1387.56
443.813	1369.56
444.034	1360.56
444.255	1375.56
444.476	1380.56
444.698	1406.56
444.919	1351.56
445.14	1516.56
445.361	1462.56
445.582	1462.56
445.803	1424.56
446.024	1363.56
446.245	1415.56
446.466	1430.56
446.687	1349.56
446.908	1360.56
447.129	1266.56
447.35	1322.56
447.571	1310.56
447.792	1215.56
448.013	1195.56
448.234	1251.56
448.455	1316.56
448.675	1317.56
448.896	1224.56
449.117	1210.56
449.338	1228.56
449.559	1275.56
449.779	1312.56
450	1435.56
450.221	1469.56
450.442	1401.56
450.662	1283.56
450.883	1160.56
451.104	1157.56
451.324	1188.56
451.545	1201.56
451.766	1169.56
451.986	1138.56
452.207	1120.56
452.428	1080.56
452.648	1094.56
452.869	1128.56
453.089	1131.56
453.31	1134.56
453.53	1155.56
453.751	1110.56
453.971	1058.56
454.192	1089.56
454.412	1131.56
454.633	1128.56
454.853	1147.56
455.073	1068.56
455.294	1059.56
455.514	1084.56
455.734	1073.56
455.955	1090.56
456.175	1075.56
456.395	1090.56
456.616	1114.56
456.836	1136.56
457.056	1089.56
457.276	1064.56
457.497	1033.56
457.717	1018.56
457.937	1053.56
458.157	1062.56
458.377	1068.56
458.598	1032.56
458.818	1046.56
459.038	1103.56
459.258	1168.56
459.478	1112.56
459.698	1126.56
459.918	1178.56
460.138	1215.56
460.358	1213.56
460.578	1226.56
460.798	1294.56
461.018	1368.56
461.238	1279.56
461.458	1242.56
461.678	1251.56
461.898	1219.56
462.118	1207.56
462.338	1254.56
462.558	1263.56
462.777	1288.56
462.997	1303.56
463.217	1346.56
463.437	1327.56
463.657	1263.56
463.876	1294.56
464.096	1231.56
464.316	1243.56
464.536	1305.56
464.755	1292.56
464.975	1321.56
465.195	1282.56
465.414	1315.56
465.634	1264.56
465.854	1292.56
466.073	1370.56
466.293	1335.56
466.512	1242.56
466.732	1195.56
466.951	1246.56
467.171	1223.56
467.391	1199.56
467.61	1171.56
467.829	1233.56
468.049	1316.56
468.268	1433.56
468.488	1330.56
468.707	1277.56
468.927	1204.56
469.146	1190.56
469.365	1200.56
469.585	1246.56
469.804	1200.56
470.023	1193.56
470.243	1253.56
470.462	1250.56
470.681	1227.56
470.901	1260.56
471.12	1196.56
471.339	1212.56
471.558	1207.56
471.777	1184.56
471.997	1234.56
472.216	1146.56
472.435	1147.56
472.654	1147.56
472.873	1168.56
473.092	1198.56
473.311	1173.56
473.53	1144.56
473.749	1140.56
473.968	1155.56
474.187	1211.56
474.406	1216.56
474.625	1188.56
474.844	1210.56
475.063	1230.56
475.282	1216.56
475.501	1180.56
475.72	1175.56
475.939	1294.56
476.158	1242.56
476.377	1194.56
476.596	1253.56
476.814	1212.56
477.033	1226.56
477.252	1286.56
477.471	1316.56
477.69	1284.56
477.908	1286.56
478.127	1353.56
478.346	1430.56
478.564	1394.56
478.783	1390.56
479.002	1461.56
479.22	1422.56
479.439	1499.56
479.658	1584.56
479.876	1539.56
480.095	1404.56
480.313	1339.56
480.532	1300.56
480.751	1310.56
480.969	1312.56
481.188	1272.56
481.406	1233.56
481.624	1223.56
481.843	1237.56
482.061	1263.56
482.28	1315.56
482.498	1344.56
482.717	1343.56
482.935	1310.56
483.153	1322.56
483.372	1347.56
483.59	1349.56
483.808	1365.56
484.027	1362.56
484.245	1432.56
484.463	1688.56
484.681	1888.56
484.9	1471.56
485.118	1386.56
485.336	1350.56
485.554	1342.56
485.772	1385.56
485.99	1351.56
486.209	1377.56
486.427	1386.56
486.645	1372.56
486.863	1414.56
487.081	1456.56
487.299	1427.56
487.517	1451.56
487.735	1443.56
487.953	1487.56
488.171	1457.56
488.389	1465.56
488.607	1461.56
488.825	1618.56
489.043	1542.56
489.261	1398.56
489.479	1464.56
489.696	1496.56
489.914	1477.56
490.132	1418.56
490.35	1415.56
490.568	1537.56
490.786	1499.56
491.003	1499.56
491.221	1560.56
491.439	1566.56
491.657	1596.56
491.874	1593.56
492.092	1632.56
492.31	1718.56
492.527	1663.56
492.745	1602.56
492.963	1580.56
493.18	1606.56
493.398	1690.56
493.615	1684.56
493.833	1590.56
494.05	1541.56
494.268	1571.56
494.485	1596.56
494.703	1565.56
494.92	1544.56
495.138	1522.56
495.355	1530.56
495.573	1595.56
495.79	1665.56
496.008	1682.56
496.225	1610.56
496.442	1592.56
496.66	1621.56
496.877	1593.56
497.094	1671.56
497.312	1628.56
497.529	1599.56
497.746	1674.56
497.963	1885.56
498.181	1978.56
498.398	1882.56
498.615	1855.56
498.832	1758.56
499.049	1743.56
499.267	1771.56
499.484	1886.56
499.701	2042.56
499.918	2046.56
500.135	2212.56
500.352	2332.56
500.569	2334.56
500.786	2515.56
501.003	2258.56
501.22	2096.56
501.437	2027.56
501.654	2116.56
501.871	1983.56
502.088	1758.56
502.305	1754.56
502.522	1664.56
502.739	1625.56
502.956	1556.56
503.172	1528.56
503.389	1512.56
503.606	1475.56
503.823	1499.56
504.04	1485.56
504.256	1459.56
504.473	1474.56
504.69	1529.56
504.907	1458.56
505.123	1405.56
505.34	1504.56
505.557	1944.56
505.773	1653.56
505.99	1390.56
506.207	1301.56
506.423	1292.56
506.64	1287.56
506.856	1317.56
507.073	1521.56
507.289	1624.56
507.506	1491.56
507.722	1280.56
507.939	1257.56
508.155	1262.56
508.372	1251.56
508.588	1181.56
508.805	1180.56
509.021	1148.56
509.238	1165.56
509.454	1128.56
509.67	1148.56
509.887	1125.56
510.103	1125.56
510.319	1164.56
510.536	1194.56
510.752	1227.56
510.968	1183.56
511.184	1227.56
511.401	1258.56
511.617	1112.56
511.833	1107.56
512.049	1102.56
512.265	1086.56
512.481	1118.56
512.698	1155.56
512.914	1164.56
513.13	1156.56
513.346	1103.56
513.562	1090.56
513.778	1087.56
513.994	1151.56
514.21	1180.56
514.426	1195.56
514.642	1318.56
514.858	1229.56
515.074	1135.56
515.29	1118.56
515.506	1168.56
515.721	1168.56
515.937	1209.56
516.153	1330.56
516.369	1238.56
516.585	1212.56
516.801	1145.56
517.016	1137.56
517.232	1200.56
517.448	1219.56
517.664	1217.56
517.879	1241.56
518.095	1274.56
518.311	1203.56
518.527	1196.56
518.742	1156.56
518.958	1135.56
519.173	1144.56
519.389	1179.56
519.605	1184.56
519.82	1179.56
520.036	1161.56
520.251	1141.56
520.467	1170.56
520.682	1266.56
520.898	1223.56
521.113	1120.56
521.329	1100.56
521.544	1203.56
521.76	1141.56
521.975	1076.56
522.19	1070.56
522.406	1095.56
522.621	1369.56
522.836	1293.56
523.052	1088.56
523.267	1121.56
523.482	1124.56
523.698	1071.56
523.913	1034.56
524.128	1100.56
524.343	1129.56
524.559	1157.56
524.774	1087.56
524.989	1084.56
525.204	1061.56
525.419	1029.56
525.634	1056.56
525.849	1031.56
526.064	1058.56
526.28	1044.56
526.495	1037.56
526.71	996.56
526.925	978.56
527.14	981.56
527.355	944.56
527.57	987.56
527.785	1034.56
527.999	966.56
528.214	970.56
528.429	968.56
528.644	1018.56
528.859	1030.56
529.074	1049.56
529.289	1114.56
529.503	1080.56
529.718	1098.56
529.933	1018.56
530.148	965.56
530.363	981.56
530.577	950.56
530.792	985.56
531.007	979.56
531.221	998.56
531.436	984.56
531.651	1018.56
531.865	1037.56
532.08	1034.56
532.295	940.56
532.509	942.56
532.724	952.56
532.938	1013.56
533.153	1030.56
533.367	1031.56
533.582	1031.56
533.796	1024.56
534.011	1028.56
534.225	1003.56
534.44	974.56
534.654	945.56
534.868	985.56
535.083	1011.56
535.297	1022.56
535.511	1006.56
535.726	1001.56
535.94	991.56
536.154	960.56
536.369	960.56
536.583	937.56
536.797	930.56
537.011	968.56
537.225	928.56
537.44	930.56
537.654	1015.56
537.868	944.56
538.082	898.56
538.296	907.56
538.51	914.56
538.724	908.56
538.938	922.56
539.153	1016.56
539.367	1001.56
539.581	960.56
539.795	986.56
540.009	947.56
540.222	939.56
540.436	952.56
540.65	1072.56
540.864	1096.56
541.078	1028.56
541.292	1033.56
541.506	1079.56
541.72	1111.56
541.934	1129.56
542.147	1169.56
542.361	1123.56
542.575	1042.56
542.789	1004.56
543.002	979.56
543.216	978.56
543.43	1034.56
543.644	1052.56
543.857	1117.56
544.071	1090.56
544.285	1111.56
544.498	1105.56
544.712	1075.56
544.925	1092.56
545.139	1101.56
545.352	1078.56
545.566	1052.56
545.779	1034.56
545.993	1086.56
546.206	1072.56
546.42	1051.56
546.633	1028.56
546.847	1044.56
547.06	1074.56
547.274	1082.56
547.487	1079.56
547.7	1078.56
547.914	1076.56
548.127	1081.56
548.34	1058.56
548.554	1090.56
548.767	1027.56
548.98	1060.56
549.193	1049.56
549.407	1095.56
549.62	1092.56
549.833	1038.56
550.046	1009.56
550.259	1047.56
550.473	1028.56
550.686	1026.56
550.899	1009.56
551.112	997.56
551.325	987.56
551.538	1047.56
551.751	1146.56
551.964	916.56
552.177	935.56
552.39	942.56
552.603	960.56
552.816	1010.56
553.029	1042.56
553.242	1077.56
553.455	1026.56
553.667	1030.56
553.88	1014.56
554.093	1003.56
554.306	997.56
554.519	989.56
554.732	944.56
554.944	951.56
555.157	976.56
555.37	948.56
555.583	952.56
555.795	912.56
556.008	896.56
556.221	850.56
556.433	862.56
556.646	868.56
556.859	870.56
557.071	878.56
557.284	852.56
557.496	889.56
557.709	875.56
557.921	863.56
558.134	855.56
558.346	886.56
558.559	851.56
558.771	834.56
558.984	784.56
559.196	820.56
559.409	819.56
559.621	790.56
559.833	809.56
560.046	815.56
560.258	823.56
560.47	818.56
560.683	822.56
560.895	812.56
561.107	801.56
561.32	834.56
561.532	822.56
561.744	820.56
561.956	828.56
562.168	764.56
562.381	767.56
562.593	774.56
562.805	795.56
563.017	770.56
563.229	782.56
563.441	796.56
563.653	772.56
563.865	762.56
564.077	747.56
564.289	779.56
564.501	786.56
564.713	787.56
564.925	834.56
565.137	893.56
565.349	809.56
565.561	802.56
565.773	800.56
565.985	822.56
566.197	861.56
566.408	892.56
566.62	890.56
566.832	920.56
567.044	918.56
567.255	846.56
567.467	894.56
567.679	912.56
567.891	914.56
568.102	854.56
568.314	857.56
568.526	794.56
568.737	772.56
568.949	732.56
569.161	688.56
569.372	703.56
569.584	682.56
569.795	666.56
570.007	664.56
570.218	668.56
570.43	642.56
570.641	642.56
570.853	659.56
571.064	676.56
571.276	660.56
571.487	653.56
571.698	653.56
571.91	632.56
572.121	598.56
572.333	617.56
572.544	608.56
572.755	586.56
572.966	575.56
573.178	567.56
573.389	590.56
573.6	580.56
573.811	652.56
574.023	585.56
574.234	595.56
574.445	567.56
574.656	556.56
574.867	539.56
575.078	565.56
575.289	565.56
575.501	554.56
575.712	548.56
575.923	556.56
576.134	555.56
576.345	576.56
576.556	553.56
576.767	540.56
576.978	536.56
577.188	504.56
577.399	522.56
577.61	496.56
577.821	490.56
578.032	499.56
578.243	530.56
578.454	533.56
578.665	506.56
578.875	519.56
579.086	487.56
579.297	498.56
579.508	521.56
579.718	519.56
579.929	519.56
580.14	491.56
580.35	476.56
580.561	518.56
580.772	568.56
580.982	522.56
581.193	506.56
581.403	487.56
581.614	447.56
581.825	474.56
582.035	488.56
582.246	462.56
582.456	496.56
582.667	489.56
582.877	485.56
583.087	484.56
583.298	462.56
583.508	470.56
583.719	475.56
583.929	489.56
584.139	461.56
584.35	447.56
584.56	460.56
584.77	462.56
584.981	475.56
585.191	464.56
585.401	474.56
585.611	469.56
585.821	462.56
586.032	462.56
586.242	443.56
586.452	448.56
586.662	464.56
586.872	464.56
587.082	457.56
587.292	454.56
587.502	450.56
587.713	463.56
587.923	455.56
588.133	455.56
588.343	449.56
588.553	426.56
588.762	457.56
588.972	441.56
589.182	440.56
589.392	416.56
589.602	474.56
589.812	438.56
590.022	415.56
590.232	421.56
590.441	430.56
590.651	437.56
590.861	428.56
591.071	436.56
591.281	415.56
591.49	412.56
591.7	443.56
591.91	442.56
592.119	449.56
592.329	451.56
592.539	453.56
592.748	443.56
592.958	461.56
593.167	466.56
593.377	466.56
593.587	464.56
593.796	464.56
594.006	457.56
594.215	464.56
594.424	464.56
594.634	482.56
594.843	466.56
595.053	466.56
595.262	442.56
595.472	445.56
595.681	446.56
595.89	437.56
596.1	427.56
596.309	425.56
596.518	436.56
596.727	444.56
596.937	430.56
597.146	418.56
597.355	410.56
597.564	426.56
597.774	410.56
597.983	401.56
598.192	382.56
598.401	394.56
598.61	388.56
598.819	389.56
599.028	390.56
599.237	394.56
599.446	389.56
599.655	398.56
599.864	400.56
600.073	384.56
600.282	378.56
600.491	361.56
600.7	374.56
600.909	353.56
601.118	407.56
601.327	386.56
601.536	403.56
601.745	407.56
601.953	405.56
602.162	407.56
602.371	395.56
602.58	400.56
602.789	409.56
602.997	417.56
603.206	419.56
603.415	409.56
603.623	414.56
603.832	413.56
604.041	397.56
604.249	366.56
604.458	385.56
604.666	398.56
604.875	378.56
605.084	392.56
605.292	386.56
605.501	407.56
605.709	382.56
605.918	395.56
606.126	414.56
606.334	402.56
606.543	399.56
606.751	417.56
606.96	400.56
607.168	378.56
607.376	378.56
607.585	391.56
607.793	380.56
608.001	410.56
608.21	374.56
608.418	408.56
608.626	386.56
608.834	411.56
609.043	391.56
609.251	397.56
609.459	391.56
609.667	395.56
609.875	412.56
610.083	408.56
610.291	396.56
610.499	400.56
610.707	403.56
610.916	378.56
611.124	392.56
611.332	399.56
611.54	394.56
611.748	385.56
611.955	389.56
612.163	383.56
612.371	383.56
612.579	388.56
612.787	386.56
612.995	409.56
613.203	392.56
613.411	382.56
613.618	386.56
613.826	382.56
614.034	380.56
614.242	352.56
614.449	376.56
614.657	394.56
614.865	391.56
615.072	395.56
615.28	399.56
615.488	390.56
615.695	402.56
615.903	391.56
616.111	395.56
616.318	396.56
616.526	399.56
616.733	381.56
616.941	370.56
617.148	396.56
617.356	386.56
617.563	381.56
617.771	376.56
617.978	376.56
618.185	370.56
618.393	378.56
618.6	381.56
618.807	368.56
619.015	388.56
619.222	383.56
619.429	348.56
619.637	355.56
619.844	340.56
620.051	353.56
620.258	360.56
620.466	346.56
620.673	341.56
620.88	339.56
621.087	347.56
621.294	352.56
621.501	346.56
621.708	331.56
621.915	336.56
622.122	359.56
622.329	337.56
622.536	341.56
622.743	335.56
622.95	359.56
623.157	334.56
623.364	353.56
623.571	352.56
623.778	336.56
623.985	349.56
624.192	351.56
624.399	336.56
624.606	354.56
624.812	332.56
625.019	330.56
625.226	326.56
625.433	311.56
625.639	322.56
625.846	309.56
626.053	303.56
626.259	303.56
626.466	291.56
626.673	282.56
626.879	300.56
627.086	307.56
627.293	323.56
627.499	307.56
627.706	316.56
627.912	310.56
628.119	329.56
628.325	314.56
628.532	310.56
628.738	327.56
628.945	322.56
629.151	306.56
629.357	311.56
629.564	314.56
629.77	310.56
629.976	307.56
630.183	302.56
630.389	293.56
630.595	314.56
630.802	296.56
631.008	301.56
631.214	302.56
631.42	296.56
631.627	285.56
631.833	270.56
632.039	291.56
632.245	297.56
632.451	291.56
632.657	281.56
632.863	294.56
633.069	291.56
633.275	303.56
633.481	288.56
633.688	278.56
633.893	281.56
634.099	275.56
634.305	259.56
634.511	265.56
634.717	264.56
634.923	271.56
635.129	240.56
635.335	244.56
635.541	260.56
635.747	289.56
635.952	279.56
636.158	266.56
636.364	286.56
636.57	285.56
636.775	261.56
636.981	273.56
637.187	271.56
637.392	278.56
637.598	275.56
637.804	268.56
638.009	278.56
638.215	278.56
638.421	265.56
638.626	262.56
638.832	261.56
639.037	282.56
639.243	276.56
639.448	271.56
639.654	264.56
639.859	271.56
640.065	267.56
640.27	248.56
640.475	258.56
640.681	272.56
640.886	258.56
641.091	258.56
641.297	262.56
641.502	244.56
641.707	262.56
641.913	259.56
642.118	249.56
642.323	259.56
642.528	244.56
642.733	248.56
642.939	249.56
643.144	266.56
643.349	264.56
643.554	258.56
643.759	236.56
643.964	235.56
644.169	257.56
644.374	235.56
644.579	246.56
644.784	274.56
644.989	263.56
645.194	266.56
645.399	260.56
645.604	256.56
645.809	256.56
646.014	247.56
646.219	258.56
646.423	260.56
646.628	263.56
646.833	246.56
647.038	266.56
647.243	254.56
647.447	244.56
647.652	260.56
647.857	251.56
648.062	264.56
648.266	255.56
648.471	278.56
648.676	256.56
648.88	266.56
649.085	245.56
649.289	241.56
649.494	255.56
649.698	259.56
649.903	241.56
650.107	247.56
650.312	254.56
650.516	240.56
650.721	230.56
650.925	248.56
651.13	235.56
651.334	241.56
651.539	250.56
651.743	241.56
651.947	246.56
652.152	219.56
652.356	226.56
652.56	224.56
652.764	219.56
652.969	224.56
653.173	229.56
653.377	217.56
653.581	219.56
653.785	222.56
653.99	215.56
654.194	222.56
654.398	222.56
654.602	218.56
654.806	224.56
655.01	222.56
655.214	212.56
655.418	230.56
655.622	224.56
655.826	227.56
656.03	210.56
656.234	230.56
656.438	252.56
656.642	265.56
656.846	250.56
657.049	231.56
657.253	198.56
657.457	198.56
657.661	188.56
657.865	169.56
658.068	181.56
658.272	169.56
658.476	176.56
658.68	140.56
658.883	158.56
659.087	139.56
659.291	155.56
659.494	130.56
659.698	128.56
659.901	138.56
660.105	114.56
660.309	118.56
660.512	116.56
660.716	123.56
660.919	120.56
661.123	131.56
661.326	118.56
661.53	113.56
661.733	107.56
661.936	103.56
662.14	99.56
662.343	98.56
662.546	100.56
662.75	96.56
662.953	92.56
663.156	99.56
663.36	90.56
663.563	89.56
663.766	93.56
663.969	81.56
664.173	81.56
664.376	95.56
664.579	89.56
664.782	76.56
664.985	85.56
665.188	70.56
665.391	89.56
665.594	70.56
665.797	65.56
666	91.56
666.203	78.56
666.406	83.56
666.609	71.56
666.812	81.56
667.015	81.56
667.218	90.56
667.421	74.56
667.624	90.56
667.827	82.56
668.03	82.56
668.232	73.56
668.435	75.56
668.638	94.56
668.841	75.56
669.043	80.56
669.246	95.56
669.449	101.56
669.651	98.56
669.854	91.56
670.057	72.56
670.259	73.56
670.462	95.56
670.665	88.56
670.867	74.56
671.07	92.56
671.272	88.56
671.475	84.56
671.677	80.56
671.88	71.56
672.082	73.56
672.284	90.56
672.487	82.56
672.689	68.56
672.892	74.56
