Data from WStandard_LampEnergy8_LIBS07252019.E.O._I.C._HRD10591_15-59-10-929.txt Node
Date: Thu Jul 25 15:59:10 EDT 2019
User: cochatt
Spectrometer: HR+D1059
Trigger mode: 1
Integration Time (sec): 1.000000E-1
Scans to average: 1
Electric dark correction enabled: true
Nonlinearity correction enabled: false
Boxcar width: 0
XAxis mode: Wavelengths
Number of Pixels in Spectrum: 2048
>>>>>Begin Spectral Data<<<<<
223.165	-27.06
223.4	-27.06
223.635	-27.06
223.869	-10.06
224.104	-15.06
224.338	-20.06
224.573	-10.06
224.808	-17.06
225.042	-18.06
225.277	-10.06
225.511	11.94
225.746	2.94
225.98	12.94
226.215	-1.06
226.449	18.94
226.683	19.94
226.918	26.94
227.152	34.94
227.387	41.94
227.621	30.94
227.856	31.94
228.09	51.94
228.324	55.94
228.559	55.94
228.793	100.94
229.027	188.94
229.262	210.94
229.496	191.94
229.73	207.94
229.964	243.94
230.199	223.94
230.433	267.94
230.667	275.94
230.901	275.94
231.136	253.94
231.37	234.94
231.604	251.94
231.838	256.94
232.072	265.94
232.306	255.94
232.541	273.94
232.775	294.94
233.009	317.94
233.243	301.94
233.477	282.94
233.711	298.94
233.945	298.94
234.179	287.94
234.413	320.94
234.647	338.94
234.881	313.94
235.115	282.94
235.349	294.94
235.583	276.94
235.817	289.94
236.051	279.94
236.285	282.94
236.519	318.94
236.753	353.94
236.987	331.94
237.221	330.94
237.455	366.94
237.689	359.94
237.922	357.94
238.156	328.94
238.39	342.94
238.624	363.94
238.858	398.94
239.091	395.94
239.325	413.94
239.559	464.94
239.793	478.94
240.027	481.94
240.26	478.94
240.494	384.94
240.728	379.94
240.961	363.94
241.195	391.94
241.429	389.94
241.662	391.94
241.896	380.94
242.13	383.94
242.363	408.94
242.597	421.94
242.83	419.94
243.064	423.94
243.298	473.94
243.531	453.94
243.765	447.94
243.998	443.94
244.232	385.94
244.465	395.94
244.699	414.94
244.932	454.94
245.166	488.94
245.399	475.94
245.633	437.94
245.866	445.94
246.099	472.94
246.333	453.94
246.566	480.94
246.8	508.94
247.033	542.94
247.266	549.94
247.5	532.94
247.733	539.94
247.966	568.94
248.2	597.94
248.433	576.94
248.666	603.94
248.899	655.94
249.133	726.94
249.366	777.94
249.599	656.94
249.832	577.94
250.066	606.94
250.299	621.94
250.532	570.94
250.765	523.94
250.998	545.94
251.231	577.94
251.465	597.94
251.698	557.94
251.931	547.94
252.164	586.94
252.397	608.94
252.63	609.94
252.863	521.94
253.096	549.94
253.329	540.94
253.562	594.94
253.795	623.94
254.028	601.94
254.261	563.94
254.494	550.94
254.727	523.94
254.96	572.94
255.193	610.94
255.426	687.94
255.659	758.94
255.892	787.94
256.124	660.94
256.357	651.94
256.59	694.94
256.823	674.94
257.056	695.94
257.289	801.94
257.521	869.94
257.754	794.94
257.987	756.94
258.22	826.94
258.452	800.94
258.685	693.94
258.918	651.94
259.151	643.94
259.383	632.94
259.616	577.94
259.849	621.94
260.081	679.94
260.314	711.94
260.547	798.94
260.779	802.94
261.012	750.94
261.244	682.94
261.477	653.94
261.71	675.94
261.942	686.94
262.175	658.94
262.407	689.94
262.64	653.94
262.872	602.94
263.105	611.94
263.337	605.94
263.57	599.94
263.802	619.94
264.035	577.94
264.267	583.94
264.499	574.94
264.732	624.94
264.964	618.94
265.197	655.94
265.429	687.94
265.661	747.94
265.894	829.94
266.126	854.94
266.358	750.94
266.591	795.94
266.823	843.94
267.055	789.94
267.287	778.94
267.52	756.94
267.752	757.94
267.984	750.94
268.216	749.94
268.448	791.94
268.681	745.94
268.913	709.94
269.145	671.94
269.377	688.94
269.609	737.94
269.841	863.94
270.073	986.94
270.306	1069.94
270.538	1082.94
270.77	928.94
271.002	815.94
271.234	802.94
271.466	789.94
271.698	889.94
271.93	1042.94
272.162	1012.94
272.394	929.94
272.626	859.94
272.858	756.94
273.09	694.94
273.322	696.94
273.553	659.94
273.785	651.94
274.017	691.94
274.249	731.94
274.481	756.94
274.713	704.94
274.945	653.94
275.176	692.94
275.408	672.94
275.64	689.94
275.872	665.94
276.104	745.94
276.335	805.94
276.567	887.94
276.799	903.94
277.031	829.94
277.262	783.94
277.494	818.94
277.726	892.94
277.957	864.94
278.189	785.94
278.421	758.94
278.652	744.94
278.884	742.94
279.115	729.94
279.347	727.94
279.579	713.94
279.81	718.94
280.042	785.94
280.273	849.94
280.505	850.94
280.736	864.94
280.968	804.94
281.199	713.94
281.431	697.94
281.662	684.94
281.894	722.94
282.125	731.94
282.356	757.94
282.588	775.94
282.819	775.94
283.051	841.94
283.282	877.94
283.513	841.94
283.745	747.94
283.976	685.94
284.207	720.94
284.439	731.94
284.67	737.94
284.901	714.94
285.132	769.94
285.364	767.94
285.595	752.94
285.826	751.94
286.057	754.94
286.288	747.94
286.52	778.94
286.751	853.94
286.982	817.94
287.213	759.94
287.444	700.94
287.675	727.94
287.906	782.94
288.138	828.94
288.369	789.94
288.6	738.94
288.831	699.94
289.062	728.94
289.293	729.94
289.524	748.94
289.755	758.94
289.986	771.94
290.217	731.94
290.448	751.94
290.679	755.94
290.91	761.94
291.141	792.94
291.371	798.94
291.602	813.94
291.833	789.94
292.064	794.94
292.295	831.94
292.526	837.94
292.757	848.94
292.987	810.94
293.218	794.94
293.449	867.94
293.68	948.94
293.91	987.94
294.141	928.94
294.372	887.94
294.603	929.94
294.833	948.94
295.064	897.94
295.295	814.94
295.525	794.94
295.756	749.94
295.987	720.94
296.217	770.94
296.448	769.94
296.679	785.94
296.909	765.94
297.14	749.94
297.37	781.94
297.601	815.94
297.831	874.94
298.062	875.94
298.292	804.94
298.523	777.94
298.753	777.94
298.984	799.94
299.214	795.94
299.445	800.94
299.675	850.94
299.905	827.94
300.136	808.94
300.366	773.94
300.597	776.94
300.827	769.94
301.057	792.94
301.288	825.94
301.518	825.94
301.748	863.94
301.979	882.94
302.209	923.94
302.439	975.94
302.669	979.94
302.9	870.94
303.13	841.94
303.36	865.94
303.59	852.94
303.82	822.94
304.051	841.94
304.281	845.94
304.511	850.94
304.741	911.94
304.971	1005.94
305.201	1054.94
305.431	920.94
305.661	774.94
305.891	770.94
306.121	729.94
306.352	773.94
306.582	849.94
306.812	889.94
307.042	926.94
307.272	929.94
307.502	984.94
307.731	1037.94
307.961	1061.94
308.191	982.94
308.421	866.94
308.651	847.94
308.881	813.94
309.111	826.94
309.341	783.94
309.571	823.94
309.8	823.94
310.03	800.94
310.26	831.94
310.49	836.94
310.72	831.94
310.949	869.94
311.179	849.94
311.409	819.94
311.639	822.94
311.868	842.94
312.098	838.94
312.328	832.94
312.557	838.94
312.787	839.94
313.017	856.94
313.246	882.94
313.476	879.94
313.706	865.94
313.935	877.94
314.165	871.94
314.394	915.94
314.624	921.94
314.853	983.94
315.083	1034.94
315.312	1056.94
315.542	963.94
315.771	866.94
316.001	897.94
316.23	933.94
316.46	916.94
316.689	920.94
316.919	828.94
317.148	841.94
317.377	887.94
317.607	953.94
317.836	1041.94
318.065	1063.94
318.295	1016.94
318.524	949.94
318.753	927.94
318.983	927.94
319.212	899.94
319.441	922.94
319.67	901.94
319.9	915.94
320.129	987.94
320.358	1010.94
320.587	1010.94
320.816	1032.94
321.046	985.94
321.275	934.94
321.504	975.94
321.733	1027.94
321.962	966.94
322.191	934.94
322.42	919.94
322.649	880.94
322.878	907.94
323.108	919.94
323.337	956.94
323.566	956.94
323.795	926.94
324.024	928.94
324.253	910.94
324.482	918.94
324.71	881.94
324.939	834.94
325.168	885.94
325.397	901.94
325.626	961.94
325.855	935.94
326.084	909.94
326.313	923.94
326.542	927.94
326.77	938.94
326.999	901.94
327.228	890.94
327.457	874.94
327.686	863.94
327.914	864.94
328.143	941.94
328.372	901.94
328.6	914.94
328.829	884.94
329.058	907.94
329.287	880.94
329.515	925.94
329.744	967.94
329.972	1019.94
330.201	1035.94
330.43	1011.94
330.658	987.94
330.887	965.94
331.115	963.94
331.344	982.94
331.572	963.94
331.801	941.94
332.03	965.94
332.258	1004.94
332.486	1010.94
332.715	979.94
332.943	983.94
333.172	974.94
333.4	965.94
333.629	1017.94
333.857	1098.94
334.085	1232.94
334.314	1321.94
334.542	1383.94
334.771	1240.94
334.999	1156.94
335.227	1049.94
335.455	1054.94
335.684	1048.94
335.912	1055.94
336.14	1072.94
336.369	1019.94
336.597	969.94
336.825	980.94
337.053	1001.94
337.281	1088.94
337.51	1149.94
337.738	1140.94
337.966	1095.94
338.194	970.94
338.422	987.94
338.65	958.94
338.878	915.94
339.106	939.94
339.334	907.94
339.562	905.94
339.79	965.94
340.018	992.94
340.246	1017.94
340.474	1043.94
340.702	981.94
340.93	1000.94
341.158	1002.94
341.386	953.94
341.614	945.94
341.842	942.94
342.07	955.94
342.298	978.94
342.526	981.94
342.754	944.94
342.981	948.94
343.209	923.94
343.437	953.94
343.665	971.94
343.893	1010.94
344.12	1043.94
344.348	1013.94
344.576	997.94
344.804	947.94
345.031	970.94
345.259	956.94
345.487	906.94
345.714	931.94
345.942	929.94
346.17	901.94
346.397	910.94
346.625	925.94
346.853	893.94
347.08	851.94
347.308	899.94
347.535	919.94
347.763	938.94
347.99	920.94
348.218	889.94
348.445	882.94
348.673	899.94
348.9	950.94
349.128	941.94
349.355	1005.94
349.583	932.94
349.81	907.94
350.037	863.94
350.265	870.94
350.492	878.94
350.72	884.94
350.947	928.94
351.174	933.94
351.402	868.94
351.629	846.94
351.856	830.94
352.083	849.94
352.311	850.94
352.538	884.94
352.765	928.94
352.992	936.94
353.22	915.94
353.447	873.94
353.674	887.94
353.901	903.94
354.128	880.94
354.355	883.94
354.583	926.94
354.81	969.94
355.037	950.94
355.264	903.94
355.491	911.94
355.718	905.94
355.945	915.94
356.172	873.94
356.399	883.94
356.626	891.94
356.853	892.94
357.08	1011.94
357.307	1105.94
357.534	1032.94
357.761	950.94
357.988	893.94
358.215	880.94
358.441	867.94
358.668	862.94
358.895	913.94
359.122	979.94
359.349	1027.94
359.576	965.94
359.802	895.94
360.029	885.94
360.256	878.94
360.483	903.94
360.709	899.94
360.936	959.94
361.163	1011.94
361.39	1066.94
361.616	1121.94
361.843	1107.94
362.07	1036.94
362.296	905.94
362.523	900.94
362.749	907.94
362.976	912.94
363.203	931.94
363.429	892.94
363.656	918.94
363.882	965.94
364.109	1060.94
364.335	1081.94
364.562	996.94
364.788	984.94
365.015	924.94
365.241	856.94
365.468	943.94
365.694	925.94
365.92	998.94
366.147	953.94
366.373	875.94
366.599	874.94
366.826	875.94
367.052	900.94
367.278	905.94
367.505	912.94
367.731	921.94
367.957	945.94
368.184	954.94
368.41	1021.94
368.636	1033.94
368.862	1067.94
369.089	1038.94
369.315	1016.94
369.541	971.94
369.767	936.94
369.993	903.94
370.219	921.94
370.445	957.94
370.672	991.94
370.898	987.94
371.124	996.94
371.35	978.94
371.576	1023.94
371.802	1021.94
372.028	982.94
372.254	955.94
372.48	931.94
372.706	925.94
372.932	919.94
373.158	941.94
373.384	951.94
373.61	989.94
373.835	1025.94
374.061	984.94
374.287	984.94
374.513	969.94
374.739	983.94
374.965	976.94
375.191	1034.94
375.416	980.94
375.642	1010.94
375.868	1105.94
376.094	1069.94
376.319	1027.94
376.545	998.94
376.771	1035.94
376.997	1072.94
377.222	1027.94
377.448	1015.94
377.674	1026.94
377.899	1054.94
378.125	1094.94
378.35	1070.94
378.576	982.94
378.802	924.94
379.027	958.94
379.253	958.94
379.478	962.94
379.704	958.94
379.929	978.94
380.155	963.94
380.38	953.94
380.606	967.94
380.831	979.94
381.057	1054.94
381.282	1012.94
381.507	1042.94
381.733	1082.94
381.958	1153.94
382.184	1034.94
382.409	1017.94
382.634	1033.94
382.86	1049.94
383.085	1025.94
383.31	1035.94
383.535	1162.94
383.761	1194.94
383.986	1161.94
384.211	1109.94
384.436	1087.94
384.662	1144.94
384.887	1207.94
385.112	1083.94
385.337	1131.94
385.562	1119.94
385.787	1126.94
386.013	1137.94
386.238	1119.94
386.463	1159.94
386.688	1253.94
386.913	1296.94
387.138	1213.94
387.363	1167.94
387.588	1121.94
387.813	1122.94
388.038	1173.94
388.263	1203.94
388.488	1146.94
388.713	1057.94
388.938	1093.94
389.163	1078.94
389.387	1106.94
389.612	1115.94
389.837	1163.94
390.062	1154.94
390.287	1120.94
390.512	1085.94
390.736	1114.94
390.961	1089.94
391.186	1055.94
391.411	1064.94
391.636	1118.94
391.86	1133.94
392.085	1124.94
392.31	1117.94
392.534	1093.94
392.759	1120.94
392.984	1102.94
393.208	1090.94
393.433	1167.94
393.658	1197.94
393.882	1192.94
394.107	1167.94
394.331	1105.94
394.556	1129.94
394.78	1110.94
395.005	1171.94
395.229	1195.94
395.454	1286.94
395.678	1305.94
395.903	1216.94
396.127	1179.94
396.352	1180.94
396.576	1217.94
396.801	1206.94
397.025	1198.94
397.249	1214.94
397.474	1208.94
397.698	1202.94
397.922	1227.94
398.147	1281.94
398.371	1315.94
398.595	1323.94
398.82	1298.94
399.044	1333.94
399.268	1337.94
399.492	1487.94
399.717	1493.94
399.941	1473.94
400.165	1457.94
400.389	1414.94
400.613	1417.94
400.837	1629.94
401.062	1802.94
401.286	1529.94
401.51	1387.94
401.734	1458.94
401.958	1354.94
402.182	1319.94
402.406	1265.94
402.63	1246.94
402.854	1273.94
403.078	1283.94
403.302	1301.94
403.526	1338.94
403.75	1336.94
403.974	1354.94
404.198	1354.94
404.422	1400.94
404.645	1431.94
404.869	1395.94
405.093	1291.94
405.317	1298.94
405.541	1328.94
405.765	1308.94
405.988	1333.94
406.212	1362.94
406.436	1377.94
406.66	1440.94
406.883	1486.94
407.107	1654.94
407.331	1755.94
407.555	1890.94
407.778	1641.94
408.002	1426.94
408.226	1424.94
408.449	1413.94
408.673	1358.94
408.896	1349.94
409.12	1380.94
409.344	1350.94
409.567	1310.94
409.791	1349.94
410.014	1376.94
410.238	1503.94
410.461	1487.94
410.685	1370.94
410.908	1347.94
411.132	1353.94
411.355	1331.94
411.578	1327.94
411.802	1331.94
412.025	1353.94
412.249	1318.94
412.472	1291.94
412.695	1244.94
412.919	1283.94
413.142	1265.94
413.365	1300.94
413.589	1332.94
413.812	1362.94
414.035	1457.94
414.258	1305.94
414.482	1279.94
414.705	1283.94
414.928	1280.94
415.151	1267.94
415.374	1282.94
415.597	1326.94
415.821	1318.94
416.044	1363.94
416.267	1325.94
416.49	1278.94
416.713	1258.94
416.936	1315.94
417.159	1368.94
417.382	1331.94
417.605	1264.94
417.828	1290.94
418.051	1330.94
418.274	1305.94
418.497	1243.94
418.72	1244.94
418.943	1263.94
419.166	1320.94
419.389	1315.94
419.611	1334.94
419.834	1284.94
420.057	1277.94
420.28	1265.94
420.503	1254.94
420.726	1289.94
420.948	1257.94
421.171	1258.94
421.394	1252.94
421.617	1319.94
421.839	1295.94
422.062	1306.94
422.285	1239.94
422.507	1259.94
422.73	1233.94
422.953	1199.94
423.175	1220.94
423.398	1213.94
423.621	1245.94
423.843	1278.94
424.066	1292.94
424.288	1359.94
424.511	1395.94
424.733	1336.94
424.956	1215.94
425.178	1226.94
425.401	1228.94
425.623	1277.94
425.846	1237.94
426.068	1307.94
426.291	1321.94
426.513	1275.94
426.735	1292.94
426.958	1407.94
427.18	1486.94
427.402	1351.94
427.625	1420.94
427.847	1333.94
428.069	1237.94
428.292	1206.94
428.514	1236.94
428.736	1192.94
428.958	1249.94
429.181	1257.94
429.403	1473.94
429.625	1698.94
429.847	1434.94
430.069	1302.94
430.292	1460.94
430.514	1413.94
430.736	1362.94
430.958	1361.94
431.18	1261.94
431.402	1230.94
431.624	1177.94
431.846	1139.94
432.068	1100.94
432.29	1107.94
432.512	1155.94
432.734	1182.94
432.956	1262.94
433.178	1304.94
433.4	1300.94
433.622	1326.94
433.844	1224.94
434.066	1175.94
434.287	1145.94
434.509	1184.94
434.731	1213.94
434.953	1344.94
435.175	1301.94
435.397	1252.94
435.618	1227.94
435.84	1217.94
436.062	1214.94
436.284	1263.94
436.505	1245.94
436.727	1265.94
436.949	1225.94
437.17	1222.94
437.392	1217.94
437.614	1190.94
437.835	1151.94
438.057	1186.94
438.278	1228.94
438.5	1200.94
438.721	1216.94
438.943	1230.94
439.165	1226.94
439.386	1213.94
439.608	1222.94
439.829	1237.94
440.05	1202.94
440.272	1238.94
440.493	1214.94
440.715	1237.94
440.936	1345.94
441.158	1414.94
441.379	1349.94
441.6	1362.94
441.822	1343.94
442.043	1310.94
442.264	1301.94
442.486	1220.94
442.707	1205.94
442.928	1237.94
443.149	1280.94
443.371	1334.94
443.592	1353.94
443.813	1379.94
444.034	1335.94
444.255	1357.94
444.476	1386.94
444.698	1377.94
444.919	1350.94
445.14	1450.94
445.361	1425.94
445.582	1435.94
445.803	1394.94
446.024	1319.94
446.245	1377.94
446.466	1353.94
446.687	1308.94
446.908	1333.94
447.129	1282.94
447.35	1295.94
447.571	1281.94
447.792	1191.94
448.013	1234.94
448.234	1287.94
448.455	1311.94
448.675	1313.94
448.896	1201.94
449.117	1204.94
449.338	1212.94
449.559	1272.94
449.779	1284.94
450	1396.94
450.221	1469.94
450.442	1394.94
450.662	1241.94
450.883	1162.94
451.104	1162.94
451.324	1189.94
451.545	1183.94
451.766	1162.94
451.986	1113.94
452.207	1107.94
452.428	1050.94
452.648	1062.94
452.869	1143.94
453.089	1095.94
453.31	1103.94
453.53	1147.94
453.751	1105.94
453.971	1041.94
454.192	1095.94
454.412	1144.94
454.633	1133.94
454.853	1095.94
455.073	1005.94
455.294	1042.94
455.514	1063.94
455.734	1056.94
455.955	1053.94
456.175	1069.94
456.395	1067.94
456.616	1072.94
456.836	1087.94
457.056	1055.94
457.276	1044.94
457.497	1050.94
457.717	1016.94
457.937	1025.94
458.157	1025.94
458.377	1012.94
458.598	1030.94
458.818	1056.94
459.038	1093.94
459.258	1126.94
459.478	1132.94
459.698	1079.94
459.918	1144.94
460.138	1189.94
460.358	1214.94
460.578	1207.94
460.798	1317.94
461.018	1322.94
461.238	1235.94
461.458	1238.94
461.678	1222.94
461.898	1198.94
462.118	1193.94
462.338	1255.94
462.558	1217.94
462.777	1253.94
462.997	1285.94
463.217	1331.94
463.437	1325.94
463.657	1265.94
463.876	1221.94
464.096	1247.94
464.316	1225.94
464.536	1283.94
464.755	1271.94
464.975	1260.94
465.195	1251.94
465.414	1281.94
465.634	1286.94
465.854	1244.94
466.073	1358.94
466.293	1329.94
466.512	1180.94
466.732	1179.94
466.951	1231.94
467.171	1201.94
467.391	1223.94
467.61	1172.94
467.829	1231.94
468.049	1311.94
468.268	1426.94
468.488	1318.94
468.707	1231.94
468.927	1184.94
469.146	1192.94
469.365	1201.94
469.585	1201.94
469.804	1192.94
470.023	1220.94
470.243	1219.94
470.462	1181.94
470.681	1223.94
470.901	1209.94
471.12	1174.94
471.339	1214.94
471.558	1168.94
471.777	1163.94
471.997	1207.94
472.216	1178.94
472.435	1093.94
472.654	1112.94
472.873	1141.94
473.092	1163.94
473.311	1145.94
473.53	1103.94
473.749	1134.94
473.968	1190.94
474.187	1174.94
474.406	1212.94
474.625	1223.94
474.844	1192.94
475.063	1218.94
475.282	1246.94
475.501	1169.94
475.72	1210.94
475.939	1274.94
476.158	1212.94
476.377	1208.94
476.596	1189.94
476.814	1183.94
477.033	1220.94
477.252	1251.94
477.471	1284.94
477.69	1251.94
477.908	1258.94
478.127	1346.94
478.346	1405.94
478.564	1373.94
478.783	1384.94
479.002	1425.94
479.22	1419.94
479.439	1473.94
479.658	1565.94
479.876	1494.94
480.095	1335.94
480.313	1315.94
480.532	1262.94
480.751	1275.94
480.969	1266.94
481.188	1256.94
481.406	1250.94
481.624	1229.94
481.843	1248.94
482.061	1268.94
482.28	1289.94
482.498	1330.94
482.717	1303.94
482.935	1305.94
483.153	1339.94
483.372	1340.94
483.59	1323.94
483.808	1349.94
484.027	1357.94
484.245	1432.94
484.463	1706.94
484.681	1814.94
484.9	1444.94
485.118	1330.94
485.336	1323.94
485.554	1330.94
485.772	1390.94
485.99	1342.94
486.209	1364.94
486.427	1376.94
486.645	1383.94
486.863	1394.94
487.081	1453.94
487.299	1433.94
487.517	1417.94
487.735	1454.94
487.953	1469.94
488.171	1461.94
488.389	1440.94
488.607	1439.94
488.825	1585.94
489.043	1546.94
489.261	1403.94
489.479	1466.94
489.696	1466.94
489.914	1435.94
490.132	1413.94
490.35	1391.94
490.568	1499.94
490.786	1469.94
491.003	1453.94
491.221	1532.94
491.439	1534.94
491.657	1589.94
491.874	1601.94
492.092	1617.94
492.31	1666.94
492.527	1659.94
492.745	1599.94
492.963	1539.94
493.18	1627.94
493.398	1660.94
493.615	1683.94
493.833	1549.94
494.05	1515.94
494.268	1557.94
494.485	1549.94
494.703	1529.94
494.92	1533.94
495.138	1529.94
495.355	1550.94
495.573	1626.94
495.79	1678.94
496.008	1665.94
496.225	1571.94
496.442	1565.94
496.66	1586.94
496.877	1583.94
497.094	1627.94
497.312	1593.94
497.529	1584.94
497.746	1619.94
497.963	1851.94
498.181	1941.94
498.398	1855.94
498.615	1815.94
498.832	1749.94
499.049	1729.94
499.267	1734.94
499.484	1857.94
499.701	2025.94
499.918	2016.94
500.135	2134.94
500.352	2304.94
500.569	2304.94
500.786	2509.94
501.003	2280.94
501.22	2049.94
501.437	2013.94
501.654	2045.94
501.871	1969.94
502.088	1691.94
502.305	1758.94
502.522	1661.94
502.739	1591.94
502.956	1551.94
503.172	1568.94
503.389	1470.94
503.606	1433.94
503.823	1485.94
504.04	1442.94
504.256	1470.94
504.473	1476.94
504.69	1482.94
504.907	1433.94
505.123	1368.94
505.34	1518.94
505.557	1977.94
505.773	1637.94
505.99	1375.94
506.207	1296.94
506.423	1285.94
506.64	1264.94
506.856	1291.94
507.073	1455.94
507.289	1555.94
507.506	1450.94
507.722	1278.94
507.939	1227.94
508.155	1230.94
508.372	1225.94
508.588	1203.94
508.805	1173.94
509.021	1159.94
509.238	1149.94
509.454	1124.94
509.67	1141.94
509.887	1105.94
510.103	1125.94
510.319	1111.94
510.536	1203.94
510.752	1234.94
510.968	1187.94
511.184	1264.94
511.401	1208.94
511.617	1119.94
511.833	1111.94
512.049	1117.94
512.265	1102.94
512.481	1065.94
512.698	1116.94
512.914	1177.94
513.13	1135.94
513.346	1133.94
513.562	1081.94
513.778	1111.94
513.994	1154.94
514.21	1150.94
514.426	1176.94
514.642	1280.94
514.858	1219.94
515.074	1151.94
515.29	1090.94
515.506	1149.94
515.721	1119.94
515.937	1172.94
516.153	1243.94
516.369	1225.94
516.585	1186.94
516.801	1123.94
517.016	1141.94
517.232	1179.94
517.448	1195.94
517.664	1209.94
517.879	1221.94
518.095	1267.94
518.311	1187.94
518.527	1195.94
518.742	1133.94
518.958	1090.94
519.173	1135.94
519.389	1133.94
519.605	1153.94
519.82	1174.94
520.036	1183.94
520.251	1109.94
520.467	1143.94
520.682	1245.94
520.898	1233.94
521.113	1096.94
521.329	1105.94
521.544	1166.94
521.76	1116.94
521.975	1057.94
522.19	1093.94
522.406	1089.94
522.621	1391.94
522.836	1336.94
523.052	1098.94
523.267	1132.94
523.482	1077.94
523.698	1032.94
523.913	1021.94
524.128	1086.94
524.343	1108.94
524.559	1145.94
524.774	1066.94
524.989	1089.94
525.204	1069.94
525.419	1045.94
525.634	1049.94
525.849	1055.94
526.064	1023.94
526.28	1023.94
526.495	990.94
526.71	973.94
526.925	987.94
527.14	960.94
527.355	961.94
527.57	965.94
527.785	973.94
527.999	982.94
528.214	992.94
528.429	997.94
528.644	1011.94
528.859	1048.94
529.074	1042.94
529.289	1070.94
529.503	1094.94
529.718	1064.94
529.933	1000.94
530.148	982.94
530.363	957.94
530.577	968.94
530.792	951.94
531.007	965.94
531.221	950.94
531.436	992.94
531.651	1009.94
531.865	1055.94
532.08	998.94
532.295	961.94
532.509	917.94
532.724	953.94
532.938	997.94
533.153	1052.94
533.367	1012.94
533.582	1017.94
533.796	1006.94
534.011	1007.94
534.225	951.94
534.44	956.94
534.654	932.94
534.868	986.94
535.083	1005.94
535.297	1009.94
535.511	978.94
535.726	979.94
535.94	965.94
536.154	952.94
536.369	939.94
536.583	921.94
536.797	921.94
537.011	937.94
537.225	899.94
537.44	907.94
537.654	961.94
537.868	927.94
538.082	867.94
538.296	913.94
538.51	902.94
538.724	929.94
538.938	958.94
539.153	953.94
539.367	969.94
539.581	938.94
539.795	943.94
540.009	968.94
540.222	912.94
540.436	964.94
540.65	1014.94
540.864	1049.94
541.078	1033.94
541.292	1018.94
541.506	1066.94
541.72	1052.94
541.934	1137.94
542.147	1148.94
542.361	1121.94
542.575	1057.94
542.789	1000.94
543.002	934.94
543.216	944.94
543.43	999.94
543.644	1060.94
543.857	1103.94
544.071	1086.94
544.285	1069.94
544.498	1077.94
544.712	1089.94
544.925	1107.94
545.139	1102.94
545.352	1042.94
545.566	1021.94
545.779	1051.94
545.993	1092.94
546.206	1088.94
546.42	1059.94
546.633	1028.94
546.847	1053.94
547.06	1074.94
547.274	1062.94
547.487	1098.94
547.7	1043.94
547.914	1062.94
548.127	1063.94
548.34	1062.94
548.554	1050.94
548.767	1025.94
548.98	1031.94
549.193	1069.94
549.407	1079.94
549.62	1113.94
549.833	1020.94
550.046	1029.94
550.259	1014.94
550.473	1001.94
550.686	1023.94
550.899	1011.94
551.112	982.94
551.325	962.94
551.538	1011.94
551.751	1103.94
551.964	897.94
552.177	925.94
552.39	941.94
552.603	994.94
552.816	973.94
553.029	1053.94
553.242	1055.94
553.455	1036.94
553.667	1043.94
553.88	1022.94
554.093	1007.94
554.306	962.94
554.519	946.94
554.732	949.94
554.944	948.94
555.157	969.94
555.37	936.94
555.583	938.94
555.795	904.94
556.008	894.94
556.221	867.94
556.433	865.94
556.646	873.94
556.859	855.94
557.071	855.94
557.284	850.94
557.496	862.94
557.709	847.94
557.921	823.94
558.134	848.94
558.346	858.94
558.559	848.94
558.771	840.94
558.984	823.94
559.196	789.94
559.409	776.94
559.621	797.94
559.833	791.94
560.046	803.94
560.258	812.94
560.47	813.94
560.683	780.94
560.895	797.94
561.107	786.94
561.32	822.94
561.532	804.94
561.744	818.94
561.956	786.94
562.168	769.94
562.381	797.94
562.593	774.94
562.805	761.94
563.017	761.94
563.229	794.94
563.441	794.94
563.653	759.94
563.865	787.94
564.077	753.94
564.289	769.94
564.501	779.94
564.713	808.94
564.925	803.94
565.137	865.94
565.349	807.94
565.561	802.94
565.773	813.94
565.985	804.94
566.197	853.94
566.408	897.94
566.62	891.94
566.832	865.94
567.044	917.94
567.255	844.94
567.467	858.94
567.679	886.94
567.891	901.94
568.102	856.94
568.314	833.94
568.526	801.94
568.737	755.94
568.949	738.94
569.161	685.94
569.372	679.94
569.584	654.94
569.795	671.94
570.007	659.94
570.218	647.94
570.43	666.94
570.641	668.94
570.853	670.94
571.064	665.94
571.276	624.94
571.487	655.94
571.698	624.94
571.91	624.94
572.121	639.94
572.333	619.94
572.544	609.94
572.755	582.94
572.966	559.94
573.178	589.94
573.389	574.94
573.6	605.94
573.811	615.94
574.023	586.94
574.234	566.94
574.445	549.94
574.656	523.94
574.867	533.94
575.078	567.94
575.289	559.94
575.501	563.94
575.712	548.94
575.923	543.94
576.134	558.94
576.345	554.94
576.556	548.94
576.767	547.94
576.978	531.94
577.188	488.94
577.399	516.94
577.61	533.94
577.821	482.94
578.032	491.94
578.243	510.94
578.454	494.94
578.665	490.94
578.875	470.94
579.086	475.94
579.297	498.94
579.508	516.94
579.718	475.94
579.929	487.94
580.14	486.94
580.35	480.94
580.561	512.94
580.772	548.94
580.982	519.94
581.193	507.94
581.403	472.94
581.614	468.94
581.825	468.94
582.035	501.94
582.246	505.94
582.456	497.94
582.667	465.94
582.877	479.94
583.087	467.94
583.298	449.94
583.508	463.94
583.719	441.94
583.929	467.94
584.139	485.94
584.35	435.94
584.56	447.94
584.77	451.94
584.981	470.94
585.191	462.94
585.401	486.94
585.611	457.94
585.821	443.94
586.032	448.94
586.242	446.94
586.452	448.94
586.662	448.94
586.872	455.94
587.082	447.94
587.292	453.94
587.502	442.94
587.713	435.94
587.923	430.94
588.133	439.94
588.343	436.94
588.553	421.94
588.762	462.94
588.972	443.94
589.182	451.94
589.392	422.94
589.602	453.94
589.812	440.94
590.022	434.94
590.232	432.94
590.441	442.94
590.651	426.94
590.861	432.94
591.071	412.94
591.281	420.94
591.49	417.94
591.7	422.94
591.91	429.94
592.119	429.94
592.329	459.94
592.539	459.94
592.748	453.94
592.958	470.94
593.167	472.94
593.377	443.94
593.587	451.94
593.796	445.94
594.006	445.94
594.215	441.94
594.424	451.94
594.634	435.94
594.843	452.94
595.053	461.94
595.262	459.94
595.472	437.94
595.681	462.94
595.89	413.94
596.1	432.94
596.309	432.94
596.518	421.94
596.727	438.94
596.937	450.94
597.146	405.94
597.355	409.94
597.564	392.94
597.774	381.94
597.983	403.94
598.192	377.94
598.401	379.94
598.61	392.94
598.819	374.94
599.028	377.94
599.237	406.94
599.446	388.94
599.655	390.94
599.864	374.94
600.073	383.94
600.282	373.94
600.491	361.94
600.7	373.94
600.909	394.94
601.118	387.94
601.327	388.94
601.536	393.94
601.745	393.94
601.953	406.94
602.162	410.94
602.371	405.94
602.58	409.94
602.789	410.94
602.997	389.94
603.206	415.94
603.415	422.94
603.623	413.94
603.832	393.94
604.041	395.94
604.249	366.94
604.458	352.94
604.666	371.94
604.875	368.94
605.084	413.94
605.292	399.94
605.501	396.94
605.709	384.94
605.918	394.94
606.126	399.94
606.334	400.94
606.543	407.94
606.751	382.94
606.96	377.94
607.168	385.94
607.376	385.94
607.585	401.94
607.793	397.94
608.001	393.94
608.21	393.94
608.418	391.94
608.626	414.94
608.834	422.94
609.043	407.94
609.251	382.94
609.459	399.94
609.667	380.94
609.875	398.94
610.083	413.94
610.291	380.94
610.499	396.94
610.707	397.94
610.916	406.94
611.124	401.94
611.332	389.94
611.54	406.94
611.748	397.94
611.955	368.94
612.163	407.94
612.371	373.94
612.579	401.94
612.787	358.94
612.995	373.94
613.203	371.94
613.411	389.94
613.618	374.94
613.826	394.94
614.034	358.94
614.242	367.94
614.449	371.94
614.657	378.94
614.865	392.94
615.072	376.94
615.28	382.94
615.488	395.94
615.695	386.94
615.903	379.94
616.111	387.94
616.318	391.94
616.526	382.94
616.733	385.94
616.941	367.94
617.148	363.94
617.356	371.94
617.563	384.94
617.771	365.94
617.978	375.94
618.185	357.94
618.393	381.94
618.6	379.94
618.807	381.94
619.015	367.94
619.222	365.94
619.429	342.94
619.637	367.94
619.844	350.94
620.051	328.94
620.258	341.94
620.466	355.94
620.673	333.94
620.88	334.94
621.087	344.94
621.294	337.94
621.501	342.94
621.708	349.94
621.915	335.94
622.122	352.94
622.329	346.94
622.536	338.94
622.743	342.94
622.95	349.94
623.157	332.94
623.364	350.94
623.571	336.94
623.778	350.94
623.985	335.94
624.192	345.94
624.399	344.94
624.606	327.94
624.812	337.94
625.019	321.94
625.226	317.94
625.433	299.94
625.639	322.94
625.846	298.94
626.053	286.94
626.259	284.94
626.466	294.94
626.673	266.94
626.879	267.94
627.086	293.94
627.293	306.94
627.499	299.94
627.706	306.94
627.912	328.94
628.119	314.94
628.325	306.94
628.532	314.94
628.738	314.94
628.945	318.94
629.151	298.94
629.357	304.94
629.564	303.94
629.77	294.94
629.976	304.94
630.183	307.94
630.389	295.94
630.595	297.94
630.802	316.94
631.008	294.94
631.214	305.94
631.42	276.94
631.627	275.94
631.833	273.94
632.039	281.94
632.245	277.94
632.451	294.94
632.657	278.94
632.863	284.94
633.069	291.94
633.275	279.94
633.481	264.94
633.688	246.94
633.893	280.94
634.099	277.94
634.305	266.94
634.511	256.94
634.717	265.94
634.923	264.94
635.129	256.94
635.335	257.94
635.541	263.94
635.747	264.94
635.952	286.94
636.158	285.94
636.364	288.94
636.57	266.94
636.775	285.94
636.981	289.94
637.187	292.94
637.392	266.94
637.598	266.94
637.804	288.94
638.009	286.94
638.215	253.94
638.421	259.94
638.626	255.94
638.832	274.94
639.037	271.94
639.243	255.94
639.448	272.94
639.654	265.94
639.859	260.94
640.065	259.94
640.27	265.94
640.475	282.94
640.681	263.94
640.886	252.94
641.091	267.94
641.297	269.94
641.502	261.94
641.707	250.94
641.913	256.94
642.118	259.94
642.323	253.94
642.528	271.94
642.733	253.94
642.939	264.94
643.144	255.94
643.349	253.94
643.554	253.94
643.759	231.94
643.964	246.94
644.169	259.94
644.374	265.94
644.579	250.94
644.784	247.94
644.989	242.94
645.194	239.94
645.399	248.94
645.604	263.94
645.809	255.94
646.014	243.94
646.219	255.94
646.423	258.94
646.628	242.94
646.833	257.94
647.038	231.94
647.243	249.94
647.447	224.94
647.652	271.94
647.857	239.94
648.062	259.94
648.266	278.94
648.471	262.94
648.676	265.94
648.88	256.94
649.085	264.94
649.289	257.94
649.494	237.94
649.698	239.94
649.903	243.94
650.107	255.94
650.312	234.94
650.516	239.94
650.721	240.94
650.925	255.94
651.13	242.94
651.334	231.94
651.539	240.94
651.743	238.94
651.947	232.94
652.152	239.94
652.356	245.94
652.56	226.94
652.764	229.94
652.969	232.94
653.173	217.94
653.377	208.94
653.581	225.94
653.785	225.94
653.99	216.94
654.194	217.94
654.398	200.94
654.602	203.94
654.806	202.94
655.01	220.94
655.214	214.94
655.418	209.94
655.622	218.94
655.826	233.94
656.03	234.94
656.234	246.94
656.438	264.94
656.642	253.94
656.846	248.94
657.049	235.94
657.253	201.94
657.457	203.94
657.661	207.94
657.865	185.94
658.068	170.94
658.272	155.94
658.476	154.94
658.68	173.94
658.883	141.94
659.087	147.94
659.291	153.94
659.494	142.94
659.698	130.94
659.901	129.94
660.105	124.94
660.309	123.94
660.512	116.94
660.716	113.94
660.919	117.94
661.123	112.94
661.326	113.94
661.53	96.94
661.733	115.94
661.936	104.94
662.14	99.94
662.343	100.94
662.546	94.94
662.75	89.94
662.953	93.94
663.156	99.94
663.36	74.94
663.563	79.94
663.766	102.94
663.969	81.94
664.173	85.94
664.376	86.94
664.579	89.94
664.782	89.94
664.985	75.94
665.188	89.94
665.391	90.94
665.594	81.94
665.797	91.94
666	79.94
666.203	82.94
666.406	86.94
666.609	81.94
666.812	94.94
667.015	78.94
667.218	89.94
667.421	78.94
667.624	69.94
667.827	79.94
668.03	75.94
668.232	82.94
668.435	63.94
668.638	78.94
668.841	79.94
669.043	85.94
669.246	87.94
669.449	76.94
669.651	82.94
669.854	78.94
670.057	98.94
670.259	93.94
670.462	75.94
670.665	82.94
670.867	86.94
671.07	83.94
671.272	78.94
671.475	102.94
671.677	75.94
671.88	67.94
672.082	96.94
672.284	93.94
672.487	81.94
672.689	80.94
672.892	75.94
