Data from WStandard_LampEnergy8_LIBS07252019.E.O._I.C._HRD10591_15-58-41-930.txt Node
Date: Thu Jul 25 15:58:41 EDT 2019
User: cochatt
Spectrometer: HR+D1059
Trigger mode: 1
Integration Time (sec): 1.000000E-1
Scans to average: 1
Electric dark correction enabled: true
Nonlinearity correction enabled: false
Boxcar width: 0
XAxis mode: Wavelengths
Number of Pixels in Spectrum: 2048
>>>>>Begin Spectral Data<<<<<
223.165	-9.88
223.4	-9.88
223.635	-9.88
223.869	-20.88
224.104	-33.88
224.338	-18.88
224.573	-10.88
224.808	0.12
225.042	-12.88
225.277	-7.88
225.511	-9.88
225.746	11.12
225.98	2.12
226.215	21.12
226.449	18.12
226.683	20.12
226.918	27.12
227.152	25.12
227.387	30.12
227.621	49.12
227.856	40.12
228.09	45.12
228.324	55.12
228.559	61.12
228.793	106.12
229.027	208.12
229.262	217.12
229.496	207.12
229.73	238.12
229.964	263.12
230.199	241.12
230.433	273.12
230.667	293.12
230.901	303.12
231.136	291.12
231.37	242.12
231.604	259.12
231.838	265.12
232.072	269.12
232.306	249.12
232.541	272.12
232.775	309.12
233.009	318.12
233.243	302.12
233.477	292.12
233.711	292.12
233.945	306.12
234.179	296.12
234.413	309.12
234.647	345.12
234.881	326.12
235.115	297.12
235.349	306.12
235.583	309.12
235.817	296.12
236.051	301.12
236.285	311.12
236.519	331.12
236.753	359.12
236.987	377.12
237.221	367.12
237.455	381.12
237.689	375.12
237.922	335.12
238.156	351.12
238.39	365.12
238.624	371.12
238.858	419.12
239.091	398.12
239.325	419.12
239.559	467.12
239.793	483.12
240.027	519.12
240.26	506.12
240.494	387.12
240.728	382.12
240.961	397.12
241.195	372.12
241.429	420.12
241.662	413.12
241.896	423.12
242.13	413.12
242.363	461.12
242.597	470.12
242.83	467.12
243.064	458.12
243.298	472.12
243.531	486.12
243.765	455.12
243.998	457.12
244.232	410.12
244.465	411.12
244.699	417.12
244.932	483.12
245.166	532.12
245.399	491.12
245.633	472.12
245.866	460.12
246.099	491.12
246.333	502.12
246.566	499.12
246.8	532.12
247.033	574.12
247.266	551.12
247.5	531.12
247.733	557.12
247.966	584.12
248.2	615.12
248.433	601.12
248.666	642.12
248.899	655.12
249.133	746.12
249.366	825.12
249.599	671.12
249.832	623.12
250.066	643.12
250.299	620.12
250.532	589.12
250.765	534.12
250.998	572.12
251.231	586.12
251.465	612.12
251.698	586.12
251.931	575.12
252.164	610.12
252.397	630.12
252.63	596.12
252.863	561.12
253.096	535.12
253.329	576.12
253.562	594.12
253.795	619.12
254.028	599.12
254.261	582.12
254.494	580.12
254.727	571.12
254.96	580.12
255.193	662.12
255.426	730.12
255.659	783.12
255.892	813.12
256.124	674.12
256.357	656.12
256.59	700.12
256.823	723.12
257.056	702.12
257.289	840.12
257.521	899.12
257.754	821.12
257.987	801.12
258.22	851.12
258.452	787.12
258.685	690.12
258.918	686.12
259.151	690.12
259.383	656.12
259.616	585.12
259.849	627.12
260.081	684.12
260.314	766.12
260.547	830.12
260.779	813.12
261.012	798.12
261.244	699.12
261.477	660.12
261.71	709.12
261.942	690.12
262.175	705.12
262.407	695.12
262.64	663.12
262.872	603.12
263.105	629.12
263.337	623.12
263.57	645.12
263.802	635.12
264.035	617.12
264.267	585.12
264.499	584.12
264.732	596.12
264.964	651.12
265.197	697.12
265.429	707.12
265.661	780.12
265.894	848.12
266.126	851.12
266.358	777.12
266.591	795.12
266.823	868.12
267.055	789.12
267.287	804.12
267.52	770.12
267.752	747.12
267.984	785.12
268.216	811.12
268.448	838.12
268.681	821.12
268.913	738.12
269.145	713.12
269.377	688.12
269.609	786.12
269.841	875.12
270.073	1024.12
270.306	1085.12
270.538	1135.12
270.77	954.12
271.002	829.12
271.234	830.12
271.466	822.12
271.698	910.12
271.93	1061.12
272.162	1046.12
272.394	945.12
272.626	916.12
272.858	805.12
273.09	719.12
273.322	718.12
273.553	676.12
273.785	702.12
274.017	713.12
274.249	761.12
274.481	758.12
274.713	718.12
274.945	708.12
275.176	695.12
275.408	698.12
275.64	682.12
275.872	723.12
276.104	735.12
276.335	852.12
276.567	941.12
276.799	892.12
277.031	833.12
277.262	797.12
277.494	857.12
277.726	882.12
277.957	897.12
278.189	800.12
278.421	760.12
278.652	740.12
278.884	749.12
279.115	740.12
279.347	744.12
279.579	726.12
279.81	737.12
280.042	822.12
280.273	878.12
280.505	899.12
280.736	889.12
280.968	834.12
281.199	742.12
281.431	709.12
281.662	710.12
281.894	725.12
282.125	737.12
282.356	775.12
282.588	781.12
282.819	803.12
283.051	850.12
283.282	897.12
283.513	870.12
283.745	765.12
283.976	721.12
284.207	735.12
284.439	717.12
284.67	756.12
284.901	767.12
285.132	809.12
285.364	795.12
285.595	782.12
285.826	761.12
286.057	773.12
286.288	749.12
286.52	805.12
286.751	854.12
286.982	851.12
287.213	839.12
287.444	739.12
287.675	739.12
287.906	811.12
288.138	841.12
288.369	821.12
288.6	795.12
288.831	769.12
289.062	785.12
289.293	794.12
289.524	764.12
289.755	781.12
289.986	773.12
290.217	756.12
290.448	743.12
290.679	766.12
290.91	801.12
291.141	789.12
291.371	817.12
291.602	825.12
291.833	828.12
292.064	835.12
292.295	830.12
292.526	860.12
292.757	870.12
292.987	850.12
293.218	829.12
293.449	896.12
293.68	991.12
293.91	1001.12
294.141	955.12
294.372	934.12
294.603	936.12
294.833	974.12
295.064	922.12
295.295	837.12
295.525	796.12
295.756	754.12
295.987	727.12
296.217	747.12
296.448	774.12
296.679	778.12
296.909	797.12
297.14	785.12
297.37	790.12
297.601	835.12
297.831	884.12
298.062	873.12
298.292	809.12
298.523	779.12
298.753	786.12
298.984	800.12
299.214	809.12
299.445	819.12
299.675	849.12
299.905	827.12
300.136	820.12
300.366	787.12
300.597	780.12
300.827	784.12
301.057	847.12
301.288	837.12
301.518	858.12
301.748	887.12
301.979	927.12
302.209	947.12
302.439	996.12
302.669	1029.12
302.9	964.12
303.13	864.12
303.36	891.12
303.59	873.12
303.82	881.12
304.051	881.12
304.281	895.12
304.511	873.12
304.741	939.12
304.971	1036.12
305.201	1059.12
305.431	963.12
305.661	809.12
305.891	753.12
306.121	760.12
306.352	821.12
306.582	875.12
306.812	907.12
307.042	953.12
307.272	970.12
307.502	991.12
307.731	1075.12
307.961	1080.12
308.191	1017.12
308.421	897.12
308.651	846.12
308.881	841.12
309.111	834.12
309.341	845.12
309.571	812.12
309.8	833.12
310.03	827.12
310.26	823.12
310.49	846.12
310.72	848.12
310.949	878.12
311.179	900.12
311.409	894.12
311.639	849.12
311.868	876.12
312.098	867.12
312.328	864.12
312.557	837.12
312.787	853.12
313.017	893.12
313.246	867.12
313.476	878.12
313.706	901.12
313.935	897.12
314.165	890.12
314.394	934.12
314.624	975.12
314.853	1033.12
315.083	1077.12
315.312	1040.12
315.542	980.12
315.771	899.12
316.001	912.12
316.23	933.12
316.46	935.12
316.689	938.12
316.919	892.12
317.148	850.12
317.377	884.12
317.607	969.12
317.836	1061.12
318.065	1069.12
318.295	1046.12
318.524	1001.12
318.753	964.12
318.983	964.12
319.212	920.12
319.441	915.12
319.67	920.12
319.9	941.12
320.129	1036.12
320.358	1026.12
320.587	1051.12
320.816	1080.12
321.046	1007.12
321.275	954.12
321.504	985.12
321.733	1048.12
321.962	1000.12
322.191	959.12
322.42	952.12
322.649	915.12
322.878	933.12
323.108	908.12
323.337	974.12
323.566	975.12
323.795	923.12
324.024	945.12
324.253	941.12
324.482	936.12
324.71	928.12
324.939	863.12
325.168	905.12
325.397	953.12
325.626	951.12
325.855	979.12
326.084	940.12
326.313	928.12
326.542	955.12
326.77	968.12
326.999	986.12
327.228	933.12
327.457	862.12
327.686	910.12
327.914	905.12
328.143	940.12
328.372	932.12
328.6	930.12
328.829	955.12
329.058	925.12
329.287	909.12
329.515	937.12
329.744	970.12
329.972	1008.12
330.201	1055.12
330.43	1030.12
330.658	959.12
330.887	987.12
331.115	978.12
331.344	1016.12
331.572	1003.12
331.801	988.12
332.03	995.12
332.258	1002.12
332.486	1030.12
332.715	1003.12
332.943	995.12
333.172	984.12
333.4	961.12
333.629	1037.12
333.857	1106.12
334.085	1227.12
334.314	1401.12
334.542	1459.12
334.771	1295.12
334.999	1151.12
335.227	1107.12
335.455	1067.12
335.684	1074.12
335.912	1101.12
336.14	1107.12
336.369	1060.12
336.597	996.12
336.825	1003.12
337.053	1045.12
337.281	1089.12
337.51	1149.12
337.738	1185.12
337.966	1111.12
338.194	1025.12
338.422	983.12
338.65	1003.12
338.878	957.12
339.106	945.12
339.334	944.12
339.562	924.12
339.79	964.12
340.018	1021.12
340.246	1045.12
340.474	1044.12
340.702	1033.12
340.93	1044.12
341.158	1016.12
341.386	997.12
341.614	1013.12
341.842	1007.12
342.07	1000.12
342.298	995.12
342.526	994.12
342.754	970.12
342.981	964.12
343.209	981.12
343.437	979.12
343.665	988.12
343.893	1005.12
344.12	1045.12
344.348	1051.12
344.576	990.12
344.804	957.12
345.031	979.12
345.259	980.12
345.487	960.12
345.714	907.12
345.942	896.12
346.17	931.12
346.397	959.12
346.625	942.12
346.853	894.12
347.08	922.12
347.308	915.12
347.535	929.12
347.763	984.12
347.99	934.12
348.218	883.12
348.445	921.12
348.673	919.12
348.9	954.12
349.128	1004.12
349.355	991.12
349.583	963.12
349.81	914.12
350.037	897.12
350.265	848.12
350.492	894.12
350.72	919.12
350.947	928.12
351.174	967.12
351.402	863.12
351.629	830.12
351.856	870.12
352.083	860.12
352.311	881.12
352.538	915.12
352.765	967.12
352.992	966.12
353.22	903.12
353.447	880.12
353.674	936.12
353.901	918.12
354.128	909.12
354.355	927.12
354.583	952.12
354.81	938.12
355.037	958.12
355.264	955.12
355.491	936.12
355.718	934.12
355.945	900.12
356.172	888.12
356.399	909.12
356.626	917.12
356.853	962.12
357.08	1046.12
357.307	1078.12
357.534	1052.12
357.761	958.12
357.988	909.12
358.215	889.12
358.441	876.12
358.668	894.12
358.895	890.12
359.122	971.12
359.349	1052.12
359.576	979.12
359.802	920.12
360.029	899.12
360.256	884.12
360.483	895.12
360.709	953.12
360.936	995.12
361.163	1025.12
361.39	1105.12
361.616	1162.12
361.843	1161.12
362.07	1023.12
362.296	925.12
362.523	922.12
362.749	921.12
362.976	954.12
363.203	961.12
363.429	912.12
363.656	878.12
363.882	985.12
364.109	1079.12
364.335	1118.12
364.562	1024.12
364.788	970.12
365.015	961.12
365.241	916.12
365.468	938.12
365.694	998.12
365.92	1024.12
366.147	963.12
366.373	893.12
366.599	899.12
366.826	885.12
367.052	867.12
367.278	904.12
367.505	941.12
367.731	973.12
367.957	965.12
368.184	1007.12
368.41	1085.12
368.636	1087.12
368.862	1066.12
369.089	1060.12
369.315	1027.12
369.541	996.12
369.767	926.12
369.993	932.12
370.219	931.12
370.445	938.12
370.672	1036.12
370.898	1059.12
371.124	995.12
371.35	994.12
371.576	1004.12
371.802	1041.12
372.028	1024.12
372.254	959.12
372.48	953.12
372.706	933.12
372.932	947.12
373.158	963.12
373.384	991.12
373.61	1035.12
373.835	1059.12
374.061	950.12
374.287	972.12
374.513	981.12
374.739	1003.12
374.965	993.12
375.191	1034.12
375.416	1009.12
375.642	1040.12
375.868	1093.12
376.094	1129.12
376.319	1043.12
376.545	988.12
376.771	1049.12
376.997	1085.12
377.222	1052.12
377.448	1034.12
377.674	1052.12
377.899	1057.12
378.125	1102.12
378.35	1089.12
378.576	986.12
378.802	982.12
379.027	937.12
379.253	965.12
379.478	991.12
379.704	984.12
379.929	965.12
380.155	999.12
380.38	984.12
380.606	986.12
380.831	1017.12
381.057	1069.12
381.282	1051.12
381.507	1065.12
381.733	1154.12
381.958	1133.12
382.184	1063.12
382.409	1014.12
382.634	1035.12
382.86	1011.12
383.085	1031.12
383.31	1094.12
383.535	1205.12
383.761	1236.12
383.986	1183.12
384.211	1084.12
384.436	1134.12
384.662	1155.12
384.887	1209.12
385.112	1151.12
385.337	1114.12
385.562	1140.12
385.787	1124.12
386.013	1165.12
386.238	1172.12
386.463	1140.12
386.688	1227.12
386.913	1325.12
387.138	1237.12
387.363	1174.12
387.588	1157.12
387.813	1144.12
388.038	1187.12
388.263	1193.12
388.488	1174.12
388.713	1114.12
388.938	1090.12
389.163	1109.12
389.387	1130.12
389.612	1141.12
389.837	1166.12
390.062	1146.12
390.287	1151.12
390.512	1117.12
390.736	1117.12
390.961	1122.12
391.186	1086.12
391.411	1102.12
391.636	1116.12
391.86	1155.12
392.085	1155.12
392.31	1102.12
392.534	1130.12
392.759	1153.12
392.984	1119.12
393.208	1146.12
393.433	1205.12
393.658	1235.12
393.882	1196.12
394.107	1165.12
394.331	1150.12
394.556	1156.12
394.78	1131.12
395.005	1225.12
395.229	1227.12
395.454	1278.12
395.678	1305.12
395.903	1217.12
396.127	1184.12
396.352	1193.12
396.576	1248.12
396.801	1247.12
397.025	1246.12
397.249	1230.12
397.474	1223.12
397.698	1211.12
397.922	1256.12
398.147	1305.12
398.371	1367.12
398.595	1364.12
398.82	1280.12
399.044	1325.12
399.268	1387.12
399.492	1434.12
399.717	1523.12
399.941	1477.12
400.165	1464.12
400.389	1428.12
400.613	1402.12
400.837	1674.12
401.062	1857.12
401.286	1537.12
401.51	1446.12
401.734	1446.12
401.958	1385.12
402.182	1308.12
402.406	1308.12
402.63	1251.12
402.854	1311.12
403.078	1321.12
403.302	1333.12
403.526	1335.12
403.75	1334.12
403.974	1345.12
404.198	1381.12
404.422	1403.12
404.645	1461.12
404.869	1451.12
405.093	1309.12
405.317	1297.12
405.541	1359.12
405.765	1376.12
405.988	1339.12
406.212	1405.12
406.436	1417.12
406.66	1429.12
406.883	1498.12
407.107	1697.12
407.331	1822.12
407.555	1922.12
407.778	1683.12
408.002	1421.12
408.226	1417.12
408.449	1432.12
408.673	1376.12
408.896	1412.12
409.12	1423.12
409.344	1370.12
409.567	1329.12
409.791	1367.12
410.014	1397.12
410.238	1475.12
410.461	1535.12
410.685	1385.12
410.908	1315.12
411.132	1351.12
411.355	1352.12
411.578	1309.12
411.802	1356.12
412.025	1351.12
412.249	1339.12
412.472	1300.12
412.695	1293.12
412.919	1293.12
413.142	1292.12
413.365	1324.12
413.589	1360.12
413.812	1431.12
414.035	1413.12
414.258	1332.12
414.482	1321.12
414.705	1333.12
414.928	1264.12
415.151	1325.12
415.374	1317.12
415.597	1315.12
415.821	1338.12
416.044	1339.12
416.267	1319.12
416.49	1295.12
416.713	1257.12
416.936	1319.12
417.159	1407.12
417.382	1340.12
417.605	1278.12
417.828	1277.12
418.051	1319.12
418.274	1308.12
418.497	1271.12
418.72	1287.12
418.943	1295.12
419.166	1329.12
419.389	1382.12
419.611	1294.12
419.834	1287.12
420.057	1319.12
420.28	1289.12
420.503	1284.12
420.726	1305.12
420.948	1265.12
421.171	1272.12
421.394	1272.12
421.617	1327.12
421.839	1327.12
422.062	1332.12
422.285	1273.12
422.507	1287.12
422.73	1231.12
422.953	1214.12
423.175	1224.12
423.398	1265.12
423.621	1289.12
423.843	1261.12
424.066	1341.12
424.288	1396.12
424.511	1422.12
424.733	1347.12
424.956	1262.12
425.178	1237.12
425.401	1206.12
425.623	1278.12
425.846	1259.12
426.068	1313.12
426.291	1345.12
426.513	1305.12
426.735	1327.12
426.958	1409.12
427.18	1489.12
427.402	1384.12
427.625	1466.12
427.847	1384.12
428.069	1289.12
428.292	1257.12
428.514	1228.12
428.736	1205.12
428.958	1260.12
429.181	1263.12
429.403	1490.12
429.625	1790.12
429.847	1459.12
430.069	1321.12
430.292	1457.12
430.514	1489.12
430.736	1367.12
430.958	1383.12
431.18	1323.12
431.402	1219.12
431.624	1203.12
431.846	1173.12
432.068	1132.12
432.29	1111.12
432.512	1166.12
432.734	1226.12
432.956	1294.12
433.178	1344.12
433.4	1308.12
433.622	1283.12
433.844	1255.12
434.066	1222.12
434.287	1167.12
434.509	1198.12
434.731	1289.12
434.953	1358.12
435.175	1353.12
435.397	1258.12
435.618	1273.12
435.84	1268.12
436.062	1235.12
436.284	1282.12
436.505	1294.12
436.727	1293.12
436.949	1279.12
437.17	1243.12
437.392	1203.12
437.614	1224.12
437.835	1188.12
438.057	1230.12
438.278	1269.12
438.5	1221.12
438.721	1190.12
438.943	1233.12
439.165	1249.12
439.386	1219.12
439.608	1246.12
439.829	1256.12
440.05	1272.12
440.272	1254.12
440.493	1239.12
440.715	1302.12
440.936	1351.12
441.158	1411.12
441.379	1407.12
441.6	1397.12
441.822	1365.12
442.043	1357.12
442.264	1291.12
442.486	1227.12
442.707	1268.12
442.928	1259.12
443.149	1297.12
443.371	1365.12
443.592	1394.12
443.813	1409.12
444.034	1380.12
444.255	1372.12
444.476	1367.12
444.698	1409.12
444.919	1415.12
445.14	1491.12
445.361	1429.12
445.582	1468.12
445.803	1426.12
446.024	1359.12
446.245	1402.12
446.466	1373.12
446.687	1334.12
446.908	1334.12
447.129	1297.12
447.35	1321.12
447.571	1332.12
447.792	1276.12
448.013	1197.12
448.234	1274.12
448.455	1335.12
448.675	1319.12
448.896	1224.12
449.117	1161.12
449.338	1255.12
449.559	1287.12
449.779	1322.12
450	1418.12
450.221	1469.12
450.442	1413.12
450.662	1298.12
450.883	1185.12
451.104	1173.12
451.324	1185.12
451.545	1244.12
451.766	1173.12
451.986	1144.12
452.207	1133.12
452.428	1125.12
452.648	1103.12
452.869	1117.12
453.089	1150.12
453.31	1166.12
453.53	1123.12
453.751	1077.12
453.971	1053.12
454.192	1111.12
454.412	1163.12
454.633	1133.12
454.853	1126.12
455.073	1068.12
455.294	1059.12
455.514	1069.12
455.734	1066.12
455.955	1052.12
456.175	1084.12
456.395	1071.12
456.616	1084.12
456.836	1092.12
457.056	1091.12
457.276	1080.12
457.497	1038.12
457.717	1033.12
457.937	1044.12
458.157	1054.12
458.377	1032.12
458.598	1049.12
458.818	1050.12
459.038	1117.12
459.258	1156.12
459.478	1161.12
459.698	1109.12
459.918	1149.12
460.138	1209.12
460.358	1238.12
460.578	1224.12
460.798	1294.12
461.018	1352.12
461.238	1293.12
461.458	1268.12
461.678	1245.12
461.898	1206.12
462.118	1193.12
462.338	1262.12
462.558	1287.12
462.777	1242.12
462.997	1317.12
463.217	1357.12
463.437	1354.12
463.657	1226.12
463.876	1253.12
464.096	1249.12
464.316	1256.12
464.536	1322.12
464.755	1293.12
464.975	1310.12
465.195	1283.12
465.414	1331.12
465.634	1299.12
465.854	1335.12
466.073	1381.12
466.293	1385.12
466.512	1240.12
466.732	1227.12
466.951	1228.12
467.171	1248.12
467.391	1201.12
467.61	1223.12
467.829	1217.12
468.049	1329.12
468.268	1452.12
468.488	1331.12
468.707	1246.12
468.927	1241.12
469.146	1221.12
469.365	1231.12
469.585	1225.12
469.804	1210.12
470.023	1224.12
470.243	1249.12
470.462	1228.12
470.681	1240.12
470.901	1230.12
471.12	1219.12
471.339	1223.12
471.558	1206.12
471.777	1191.12
471.997	1197.12
472.216	1161.12
472.435	1118.12
472.654	1121.12
472.873	1183.12
473.092	1226.12
473.311	1177.12
473.53	1145.12
473.749	1151.12
473.968	1182.12
474.187	1238.12
474.406	1237.12
474.625	1153.12
474.844	1223.12
475.063	1199.12
475.282	1230.12
475.501	1187.12
475.72	1215.12
475.939	1253.12
476.158	1228.12
476.377	1219.12
476.596	1221.12
476.814	1206.12
477.033	1215.12
477.252	1293.12
477.471	1325.12
477.69	1275.12
477.908	1306.12
478.127	1337.12
478.346	1407.12
478.564	1407.12
478.783	1391.12
479.002	1450.12
479.22	1368.12
479.439	1459.12
479.658	1613.12
479.876	1494.12
480.095	1375.12
480.313	1311.12
480.532	1288.12
480.751	1301.12
480.969	1303.12
481.188	1266.12
481.406	1211.12
481.624	1220.12
481.843	1278.12
482.061	1294.12
482.28	1319.12
482.498	1355.12
482.717	1306.12
482.935	1297.12
483.153	1346.12
483.372	1369.12
483.59	1373.12
483.808	1317.12
484.027	1349.12
484.245	1462.12
484.463	1761.12
484.681	1913.12
484.9	1449.12
485.118	1394.12
485.336	1331.12
485.554	1381.12
485.772	1399.12
485.99	1361.12
486.209	1407.12
486.427	1385.12
486.645	1397.12
486.863	1415.12
487.081	1469.12
487.299	1439.12
487.517	1411.12
487.735	1450.12
487.953	1522.12
488.171	1502.12
488.389	1452.12
488.607	1445.12
488.825	1652.12
489.043	1571.12
489.261	1415.12
489.479	1474.12
489.696	1481.12
489.914	1452.12
490.132	1428.12
490.35	1443.12
490.568	1526.12
490.786	1491.12
491.003	1434.12
491.221	1511.12
491.439	1603.12
491.657	1595.12
491.874	1626.12
492.092	1689.12
492.31	1676.12
492.527	1679.12
492.745	1649.12
492.963	1618.12
493.18	1616.12
493.398	1671.12
493.615	1675.12
493.833	1580.12
494.05	1547.12
494.268	1568.12
494.485	1597.12
494.703	1515.12
494.92	1499.12
495.138	1544.12
495.355	1582.12
495.573	1624.12
495.79	1677.12
496.008	1659.12
496.225	1585.12
496.442	1615.12
496.66	1605.12
496.877	1597.12
497.094	1626.12
497.312	1633.12
497.529	1580.12
497.746	1633.12
497.963	1886.12
498.181	1948.12
498.398	1906.12
498.615	1850.12
498.832	1735.12
499.049	1757.12
499.267	1815.12
499.484	1910.12
499.701	2012.12
499.918	2034.12
500.135	2195.12
500.352	2341.12
500.569	2342.12
500.786	2536.12
501.003	2326.12
501.22	2149.12
501.437	2048.12
501.654	2068.12
501.871	1969.12
502.088	1769.12
502.305	1766.12
502.522	1689.12
502.739	1615.12
502.956	1553.12
503.172	1570.12
503.389	1520.12
503.606	1470.12
503.823	1464.12
504.04	1476.12
504.256	1501.12
504.473	1489.12
504.69	1533.12
504.907	1425.12
505.123	1408.12
505.34	1511.12
505.557	1996.12
505.773	1641.12
505.99	1388.12
506.207	1329.12
506.423	1287.12
506.64	1245.12
506.856	1314.12
507.073	1552.12
507.289	1585.12
507.506	1523.12
507.722	1304.12
507.939	1265.12
508.155	1241.12
508.372	1247.12
508.588	1196.12
508.805	1197.12
509.021	1171.12
509.238	1153.12
509.454	1161.12
509.67	1146.12
509.887	1123.12
510.103	1143.12
510.319	1173.12
510.536	1206.12
510.752	1209.12
510.968	1217.12
511.184	1282.12
511.401	1221.12
511.617	1127.12
511.833	1109.12
512.049	1084.12
512.265	1100.12
512.481	1111.12
512.698	1180.12
512.914	1213.12
513.13	1175.12
513.346	1134.12
513.562	1098.12
513.778	1134.12
513.994	1195.12
514.21	1176.12
514.426	1207.12
514.642	1333.12
514.858	1246.12
515.074	1139.12
515.29	1145.12
515.506	1156.12
515.721	1181.12
515.937	1162.12
516.153	1306.12
516.369	1232.12
516.585	1188.12
516.801	1161.12
517.016	1151.12
517.232	1206.12
517.448	1220.12
517.664	1198.12
517.879	1240.12
518.095	1293.12
518.311	1218.12
518.527	1173.12
518.742	1155.12
518.958	1107.12
519.173	1134.12
519.389	1158.12
519.605	1161.12
519.82	1164.12
520.036	1174.12
520.251	1143.12
520.467	1154.12
520.682	1236.12
520.898	1261.12
521.113	1135.12
521.329	1093.12
521.544	1173.12
521.76	1134.12
521.975	1124.12
522.19	1089.12
522.406	1116.12
522.621	1391.12
522.836	1299.12
523.052	1078.12
523.267	1099.12
523.482	1122.12
523.698	1085.12
523.913	1018.12
524.128	1102.12
524.343	1153.12
524.559	1177.12
524.774	1083.12
524.989	1058.12
525.204	1071.12
525.419	1070.12
525.634	1061.12
525.849	1057.12
526.064	1091.12
526.28	1045.12
526.495	991.12
526.71	1002.12
526.925	990.12
527.14	984.12
527.355	984.12
527.57	980.12
527.785	1041.12
527.999	1006.12
528.214	969.12
528.429	970.12
528.644	1014.12
528.859	1085.12
529.074	1094.12
529.289	1066.12
529.503	1101.12
529.718	1090.12
529.933	1041.12
530.148	976.12
530.363	972.12
530.577	980.12
530.792	974.12
531.007	985.12
531.221	964.12
531.436	984.12
531.651	999.12
531.865	1088.12
532.08	1045.12
532.295	991.12
532.509	947.12
532.724	947.12
532.938	993.12
533.153	1037.12
533.367	1005.12
533.582	1035.12
533.796	1027.12
534.011	1006.12
534.225	1005.12
534.44	979.12
534.654	953.12
534.868	954.12
535.083	1052.12
535.297	1036.12
535.511	1011.12
535.726	1003.12
535.94	985.12
536.154	977.12
536.369	940.12
536.583	939.12
536.797	939.12
537.011	963.12
537.225	946.12
537.44	930.12
537.654	978.12
537.868	911.12
538.082	917.12
538.296	901.12
538.51	917.12
538.724	964.12
538.938	951.12
539.153	1004.12
539.367	980.12
539.581	972.12
539.795	1017.12
540.009	955.12
540.222	913.12
540.436	964.12
540.65	1064.12
540.864	1073.12
541.078	1070.12
541.292	1023.12
541.506	1080.12
541.72	1106.12
541.934	1144.12
542.147	1189.12
542.361	1147.12
542.575	1069.12
542.789	1036.12
543.002	968.12
543.216	971.12
543.43	1031.12
543.644	1063.12
543.857	1111.12
544.071	1118.12
544.285	1070.12
544.498	1065.12
544.712	1112.12
544.925	1086.12
545.139	1099.12
545.352	1095.12
545.566	1037.12
545.779	1060.12
545.993	1092.12
546.206	1087.12
546.42	1073.12
546.633	1061.12
546.847	1068.12
547.06	1062.12
547.274	1086.12
547.487	1078.12
547.7	1095.12
547.914	1073.12
548.127	1069.12
548.34	1062.12
548.554	1069.12
548.767	1083.12
548.98	1110.12
549.193	1087.12
549.407	1111.12
549.62	1119.12
549.833	1077.12
550.046	1068.12
550.259	1061.12
550.473	996.12
550.686	1011.12
550.899	1016.12
551.112	969.12
551.325	967.12
551.538	1045.12
551.751	1143.12
551.964	945.12
552.177	923.12
552.39	962.12
552.603	996.12
552.816	1011.12
553.029	1055.12
553.242	1082.12
553.455	1052.12
553.667	1044.12
553.88	1015.12
554.093	1003.12
554.306	992.12
554.519	950.12
554.732	950.12
554.944	952.12
555.157	1004.12
555.37	962.12
555.583	943.12
555.795	913.12
556.008	915.12
556.221	888.12
556.433	873.12
556.646	869.12
556.859	889.12
557.071	853.12
557.284	865.12
557.496	862.12
557.709	871.12
557.921	853.12
558.134	863.12
558.346	848.12
558.559	848.12
558.771	811.12
558.984	845.12
559.196	812.12
559.409	804.12
559.621	799.12
559.833	823.12
560.046	836.12
560.258	834.12
560.47	792.12
560.683	806.12
560.895	838.12
561.107	811.12
561.32	831.12
561.532	858.12
561.744	804.12
561.956	825.12
562.168	771.12
562.381	772.12
562.593	793.12
562.805	819.12
563.017	795.12
563.229	787.12
563.441	803.12
563.653	768.12
563.865	793.12
564.077	788.12
564.289	777.12
564.501	777.12
564.713	795.12
564.925	849.12
565.137	895.12
565.349	797.12
565.561	803.12
565.773	805.12
565.985	826.12
566.197	855.12
566.408	902.12
566.62	911.12
566.832	911.12
567.044	885.12
567.255	878.12
567.467	887.12
567.679	901.12
567.891	935.12
568.102	884.12
568.314	838.12
568.526	791.12
568.737	740.12
568.949	718.12
569.161	696.12
569.372	660.12
569.584	681.12
569.795	690.12
570.007	671.12
570.218	653.12
570.43	650.12
570.641	667.12
570.853	666.12
571.064	651.12
571.276	646.12
571.487	649.12
571.698	641.12
571.91	622.12
572.121	609.12
572.333	619.12
572.544	603.12
572.755	604.12
572.966	573.12
573.178	582.12
573.389	591.12
573.6	615.12
573.811	659.12
574.023	583.12
574.234	588.12
574.445	563.12
574.656	570.12
574.867	562.12
575.078	561.12
575.289	570.12
575.501	550.12
575.712	541.12
575.923	558.12
576.134	571.12
576.345	562.12
576.556	565.12
576.767	540.12
576.978	531.12
577.188	541.12
577.399	517.12
577.61	531.12
577.821	521.12
578.032	515.12
578.243	528.12
578.454	503.12
578.665	485.12
578.875	482.12
579.086	527.12
579.297	494.12
579.508	523.12
579.718	493.12
579.929	507.12
580.14	477.12
580.35	483.12
580.561	515.12
580.772	553.12
580.982	511.12
581.193	488.12
581.403	481.12
581.614	473.12
581.825	488.12
582.035	479.12
582.246	475.12
582.456	484.12
582.667	502.12
582.877	488.12
583.087	453.12
583.298	483.12
583.508	476.12
583.719	473.12
583.929	477.12
584.139	493.12
584.35	454.12
584.56	445.12
584.77	450.12
584.981	476.12
585.191	453.12
585.401	509.12
585.611	479.12
585.821	490.12
586.032	454.12
586.242	453.12
586.452	444.12
586.662	456.12
586.872	454.12
587.082	447.12
587.292	459.12
587.502	467.12
587.713	474.12
587.923	449.12
588.133	481.12
588.343	476.12
588.553	444.12
588.762	442.12
588.972	455.12
589.182	462.12
589.392	441.12
589.602	461.12
589.812	445.12
590.022	429.12
590.232	437.12
590.441	448.12
590.651	444.12
590.861	443.12
591.071	433.12
591.281	459.12
591.49	428.12
591.7	435.12
591.91	441.12
592.119	459.12
592.329	447.12
592.539	471.12
592.748	461.12
592.958	447.12
593.167	455.12
593.377	458.12
593.587	477.12
593.796	471.12
594.006	448.12
594.215	454.12
594.424	451.12
594.634	451.12
594.843	462.12
595.053	453.12
595.262	446.12
595.472	455.12
595.681	441.12
595.89	443.12
596.1	442.12
596.309	421.12
596.518	412.12
596.727	429.12
596.937	444.12
597.146	407.12
597.355	422.12
597.564	415.12
597.774	407.12
597.983	379.12
598.192	395.12
598.401	413.12
598.61	384.12
598.819	403.12
599.028	394.12
599.237	415.12
599.446	396.12
599.655	405.12
599.864	387.12
600.073	383.12
600.282	379.12
600.491	380.12
600.7	380.12
600.909	380.12
601.118	397.12
601.327	411.12
601.536	429.12
601.745	400.12
601.953	421.12
602.162	435.12
602.371	420.12
602.58	435.12
602.789	427.12
602.997	406.12
603.206	415.12
603.415	406.12
603.623	414.12
603.832	395.12
604.041	378.12
604.249	392.12
604.458	372.12
604.666	377.12
604.875	371.12
605.084	401.12
605.292	393.12
605.501	405.12
605.709	406.12
605.918	392.12
606.126	391.12
606.334	410.12
606.543	391.12
606.751	399.12
606.96	419.12
607.168	422.12
607.376	394.12
607.585	393.12
607.793	395.12
608.001	421.12
608.21	399.12
608.418	405.12
608.626	402.12
608.834	403.12
609.043	405.12
609.251	399.12
609.459	383.12
609.667	398.12
609.875	406.12
610.083	420.12
610.291	422.12
610.499	387.12
610.707	435.12
610.916	391.12
611.124	399.12
611.332	376.12
611.54	406.12
611.748	385.12
611.955	399.12
612.163	412.12
612.371	408.12
612.579	392.12
612.787	389.12
612.995	413.12
613.203	398.12
613.411	369.12
613.618	388.12
613.826	400.12
614.034	375.12
614.242	385.12
614.449	385.12
614.657	405.12
614.865	391.12
615.072	390.12
615.28	393.12
615.488	405.12
615.695	394.12
615.903	390.12
616.111	379.12
616.318	389.12
616.526	382.12
616.733	396.12
616.941	389.12
617.148	362.12
617.356	397.12
617.563	391.12
617.771	377.12
617.978	381.12
618.185	392.12
618.393	348.12
618.6	365.12
618.807	379.12
619.015	399.12
619.222	385.12
619.429	358.12
619.637	358.12
619.844	328.12
620.051	362.12
620.258	344.12
620.466	352.12
620.673	358.12
620.88	342.12
621.087	348.12
621.294	366.12
621.501	327.12
621.708	325.12
621.915	356.12
622.122	362.12
622.329	356.12
622.536	363.12
622.743	328.12
622.95	341.12
623.157	326.12
623.364	335.12
623.571	339.12
623.778	338.12
623.985	349.12
624.192	364.12
624.399	345.12
624.606	338.12
624.812	334.12
625.019	337.12
625.226	335.12
625.433	360.12
625.639	307.12
625.846	310.12
626.053	305.12
626.259	296.12
626.466	299.12
626.673	295.12
626.879	279.12
627.086	293.12
627.293	275.12
627.499	309.12
627.706	326.12
627.912	336.12
628.119	334.12
628.325	322.12
628.532	306.12
628.738	312.12
628.945	320.12
629.151	310.12
629.357	319.12
629.564	323.12
629.77	298.12
629.976	329.12
630.183	306.12
630.389	296.12
630.595	316.12
630.802	317.12
631.008	308.12
631.214	305.12
631.42	299.12
631.627	292.12
631.833	281.12
632.039	293.12
632.245	293.12
632.451	290.12
632.657	294.12
632.863	286.12
633.069	275.12
633.275	283.12
633.481	266.12
633.688	266.12
633.893	277.12
634.099	284.12
634.305	281.12
634.511	279.12
634.717	279.12
634.923	271.12
635.129	250.12
635.335	271.12
635.541	268.12
635.747	285.12
635.952	280.12
636.158	291.12
636.364	280.12
636.57	295.12
636.775	277.12
636.981	292.12
637.187	269.12
637.392	280.12
637.598	305.12
637.804	290.12
638.009	287.12
638.215	282.12
638.421	282.12
638.626	262.12
638.832	290.12
639.037	268.12
639.243	258.12
639.448	268.12
639.654	266.12
639.859	286.12
640.065	255.12
640.27	291.12
640.475	283.12
640.681	273.12
640.886	279.12
641.091	266.12
641.297	263.12
641.502	263.12
641.707	257.12
641.913	280.12
642.118	264.12
642.323	271.12
642.528	263.12
642.733	279.12
642.939	266.12
643.144	269.12
643.349	244.12
643.554	247.12
643.759	262.12
643.964	263.12
644.169	266.12
644.374	244.12
644.579	269.12
644.784	254.12
644.989	270.12
645.194	251.12
645.399	258.12
645.604	263.12
645.809	273.12
646.014	267.12
646.219	258.12
646.423	250.12
646.628	263.12
646.833	262.12
647.038	272.12
647.243	280.12
647.447	264.12
647.652	265.12
647.857	260.12
648.062	267.12
648.266	258.12
648.471	260.12
648.676	244.12
648.88	259.12
649.085	248.12
649.289	264.12
649.494	241.12
649.698	250.12
649.903	267.12
650.107	242.12
650.312	257.12
650.516	248.12
650.721	252.12
650.925	257.12
651.13	260.12
651.334	247.12
651.539	236.12
651.743	238.12
651.947	241.12
652.152	237.12
652.356	234.12
652.56	222.12
652.764	230.12
652.969	222.12
653.173	220.12
653.377	229.12
653.581	229.12
653.785	221.12
653.99	208.12
654.194	231.12
654.398	220.12
654.602	229.12
654.806	213.12
655.01	215.12
655.214	231.12
655.418	213.12
655.622	221.12
655.826	222.12
656.03	244.12
656.234	217.12
656.438	267.12
656.642	260.12
656.846	239.12
657.049	230.12
657.253	205.12
657.457	190.12
657.661	197.12
657.865	179.12
658.068	182.12
658.272	153.12
658.476	143.12
658.68	167.12
658.883	153.12
659.087	154.12
659.291	149.12
659.494	155.12
659.698	141.12
659.901	117.12
660.105	127.12
660.309	123.12
660.512	139.12
660.716	132.12
660.919	137.12
661.123	123.12
661.326	121.12
661.53	106.12
661.733	110.12
661.936	108.12
662.14	99.12
662.343	108.12
662.546	85.12
662.75	83.12
662.953	89.12
663.156	101.12
663.36	98.12
663.563	91.12
663.766	96.12
663.969	87.12
664.173	88.12
664.376	81.12
664.579	82.12
664.782	93.12
664.985	87.12
665.188	100.12
665.391	92.12
665.594	89.12
665.797	98.12
666	88.12
666.203	86.12
666.406	82.12
666.609	92.12
666.812	95.12
667.015	89.12
667.218	92.12
667.421	83.12
667.624	77.12
667.827	76.12
668.03	81.12
668.232	77.12
668.435	88.12
668.638	79.12
668.841	86.12
669.043	80.12
669.246	73.12
669.449	92.12
669.651	86.12
669.854	82.12
670.057	90.12
670.259	91.12
670.462	87.12
670.665	94.12
670.867	83.12
671.07	94.12
671.272	99.12
671.475	93.12
671.677	70.12
671.88	82.12
672.082	91.12
672.284	97.12
672.487	84.12
672.689	79.12
672.892	89.12
