Data from WStandard_LampEnergy10_LIBS07252019.E.O._I.C._HRD10591_15-55-42-928.txt Node
Date: Thu Jul 25 15:55:42 EDT 2019
User: cochatt
Spectrometer: HR+D1059
Trigger mode: 1
Integration Time (sec): 1.000000E-1
Scans to average: 1
Electric dark correction enabled: true
Nonlinearity correction enabled: false
Boxcar width: 0
XAxis mode: Wavelengths
Number of Pixels in Spectrum: 2048
>>>>>Begin Spectral Data<<<<<
223.165	-24.94
223.4	-24.94
223.635	-24.94
223.869	-12.94
224.104	-5.94
224.338	-20.94
224.573	-14.94
224.808	-1.94
225.042	3.06
225.277	-1.94
225.511	-8.94
225.746	2.06
225.98	6.06
226.215	16.06
226.449	6.06
226.683	6.06
226.918	19.06
227.152	34.06
227.387	34.06
227.621	35.06
227.856	32.06
228.09	45.06
228.324	52.06
228.559	56.06
228.793	83.06
229.027	108.06
229.262	138.06
229.496	131.06
229.73	159.06
229.964	155.06
230.199	166.06
230.433	174.06
230.667	152.06
230.901	178.06
231.136	166.06
231.37	166.06
231.604	174.06
231.838	175.06
232.072	190.06
232.306	192.06
232.541	192.06
232.775	198.06
233.009	194.06
233.243	219.06
233.477	198.06
233.711	189.06
233.945	213.06
234.179	195.06
234.413	201.06
234.647	204.06
234.881	215.06
235.115	199.06
235.349	202.06
235.583	195.06
235.817	180.06
236.051	194.06
236.285	193.06
236.519	197.06
236.753	228.06
236.987	222.06
237.221	220.06
237.455	239.06
237.689	231.06
237.922	206.06
238.156	231.06
238.39	216.06
238.624	222.06
238.858	248.06
239.091	254.06
239.325	250.06
239.559	302.06
239.793	277.06
240.027	299.06
240.26	280.06
240.494	239.06
240.728	244.06
240.961	249.06
241.195	242.06
241.429	245.06
241.662	260.06
241.896	224.06
242.13	243.06
242.363	264.06
242.597	276.06
242.83	268.06
243.064	263.06
243.298	294.06
243.531	290.06
243.765	279.06
243.998	272.06
244.232	258.06
244.465	240.06
244.699	253.06
244.932	284.06
245.166	311.06
245.399	289.06
245.633	294.06
245.866	291.06
246.099	301.06
246.333	308.06
246.566	304.06
246.8	311.06
247.033	331.06
247.266	300.06
247.5	321.06
247.733	306.06
247.966	333.06
248.2	370.06
248.433	361.06
248.666	361.06
248.899	403.06
249.133	441.06
249.366	458.06
249.599	389.06
249.832	346.06
250.066	380.06
250.299	351.06
250.532	346.06
250.765	320.06
250.998	345.06
251.231	353.06
251.465	342.06
251.698	349.06
251.931	342.06
252.164	343.06
252.397	369.06
252.63	362.06
252.863	327.06
253.096	324.06
253.329	319.06
253.562	329.06
253.795	342.06
254.028	327.06
254.261	340.06
254.494	320.06
254.727	324.06
254.96	328.06
255.193	362.06
255.426	394.06
255.659	448.06
255.892	452.06
256.124	382.06
256.357	373.06
256.59	420.06
256.823	421.06
257.056	432.06
257.289	469.06
257.521	497.06
257.754	458.06
257.987	455.06
258.22	480.06
258.452	470.06
258.685	382.06
258.918	385.06
259.151	396.06
259.383	372.06
259.616	325.06
259.849	363.06
260.081	388.06
260.314	438.06
260.547	457.06
260.779	454.06
261.012	432.06
261.244	391.06
261.477	385.06
261.71	389.06
261.942	396.06
262.175	382.06
262.407	400.06
262.64	382.06
262.872	368.06
263.105	361.06
263.337	364.06
263.57	356.06
263.802	367.06
264.035	335.06
264.267	349.06
264.499	346.06
264.732	380.06
264.964	373.06
265.197	409.06
265.429	415.06
265.661	467.06
265.894	491.06
266.126	491.06
266.358	459.06
266.591	467.06
266.823	478.06
267.055	434.06
267.287	432.06
267.52	421.06
267.752	427.06
267.984	446.06
268.216	478.06
268.448	469.06
268.681	445.06
268.913	414.06
269.145	395.06
269.377	400.06
269.609	463.06
269.841	510.06
270.073	563.06
270.306	635.06
270.538	612.06
270.77	528.06
271.002	477.06
271.234	490.06
271.466	472.06
271.698	523.06
271.93	590.06
272.162	589.06
272.394	543.06
272.626	509.06
272.858	481.06
273.09	398.06
273.322	406.06
273.553	377.06
273.785	382.06
274.017	408.06
274.249	434.06
274.481	446.06
274.713	408.06
274.945	413.06
275.176	410.06
275.408	410.06
275.64	415.06
275.872	401.06
276.104	450.06
276.335	487.06
276.567	520.06
276.799	513.06
277.031	480.06
277.262	476.06
277.494	499.06
277.726	502.06
277.957	499.06
278.189	457.06
278.421	427.06
278.652	413.06
278.884	398.06
279.115	436.06
279.347	443.06
279.579	446.06
279.81	449.06
280.042	457.06
280.273	506.06
280.505	514.06
280.736	532.06
280.968	476.06
281.199	434.06
281.431	400.06
281.662	410.06
281.894	419.06
282.125	423.06
282.356	452.06
282.588	448.06
282.819	452.06
283.051	503.06
283.282	521.06
283.513	484.06
283.745	436.06
283.976	426.06
284.207	422.06
284.439	419.06
284.67	429.06
284.901	459.06
285.132	453.06
285.364	452.06
285.595	459.06
285.826	442.06
286.057	470.06
286.288	428.06
286.52	468.06
286.751	472.06
286.982	507.06
287.213	479.06
287.444	434.06
287.675	435.06
287.906	455.06
288.138	487.06
288.369	464.06
288.6	424.06
288.831	436.06
289.062	447.06
289.293	455.06
289.524	436.06
289.755	463.06
289.986	464.06
290.217	432.06
290.448	427.06
290.679	456.06
290.91	461.06
291.141	458.06
291.371	486.06
291.602	489.06
291.833	489.06
292.064	479.06
292.295	488.06
292.526	507.06
292.757	511.06
292.987	467.06
293.218	495.06
293.449	526.06
293.68	558.06
293.91	585.06
294.141	549.06
294.372	528.06
294.603	556.06
294.833	583.06
295.064	561.06
295.295	472.06
295.525	483.06
295.756	455.06
295.987	436.06
296.217	446.06
296.448	461.06
296.679	450.06
296.909	440.06
297.14	444.06
297.37	455.06
297.601	507.06
297.831	528.06
298.062	552.06
298.292	464.06
298.523	450.06
298.753	463.06
298.984	464.06
299.214	474.06
299.445	494.06
299.675	456.06
299.905	478.06
300.136	451.06
300.366	456.06
300.597	453.06
300.827	485.06
301.057	493.06
301.288	522.06
301.518	471.06
301.748	510.06
301.979	552.06
302.209	572.06
302.439	588.06
302.669	575.06
302.9	548.06
303.13	510.06
303.36	498.06
303.59	523.06
303.82	518.06
304.051	518.06
304.281	540.06
304.511	532.06
304.741	576.06
304.971	642.06
305.201	629.06
305.431	548.06
305.661	484.06
305.891	452.06
306.121	488.06
306.352	490.06
306.582	503.06
306.812	538.06
307.042	551.06
307.272	565.06
307.502	583.06
307.731	607.06
307.961	635.06
308.191	584.06
308.421	488.06
308.651	492.06
308.881	498.06
309.111	512.06
309.341	484.06
309.571	486.06
309.8	482.06
310.03	490.06
310.26	489.06
310.49	482.06
310.72	509.06
310.949	520.06
311.179	517.06
311.409	505.06
311.639	522.06
311.868	523.06
312.098	515.06
312.328	491.06
312.557	520.06
312.787	509.06
313.017	529.06
313.246	513.06
313.476	521.06
313.706	534.06
313.935	538.06
314.165	532.06
314.394	557.06
314.624	565.06
314.853	581.06
315.083	624.06
315.312	631.06
315.542	570.06
315.771	540.06
316.001	544.06
316.23	585.06
316.46	566.06
316.689	549.06
316.919	494.06
317.148	501.06
317.377	534.06
317.607	574.06
317.836	623.06
318.065	621.06
318.295	626.06
318.524	585.06
318.753	568.06
318.983	564.06
319.212	571.06
319.441	559.06
319.67	550.06
319.9	551.06
320.129	607.06
320.358	600.06
320.587	626.06
320.816	642.06
321.046	598.06
321.275	582.06
321.504	593.06
321.733	626.06
321.962	577.06
322.191	568.06
322.42	524.06
322.649	563.06
322.878	550.06
323.108	558.06
323.337	585.06
323.566	566.06
323.795	560.06
324.024	571.06
324.253	551.06
324.482	575.06
324.71	544.06
324.939	541.06
325.168	548.06
325.397	572.06
325.626	578.06
325.855	565.06
326.084	554.06
326.313	575.06
326.542	580.06
326.77	593.06
326.999	562.06
327.228	559.06
327.457	512.06
327.686	549.06
327.914	538.06
328.143	575.06
328.372	553.06
328.6	561.06
328.829	553.06
329.058	553.06
329.287	555.06
329.515	557.06
329.744	581.06
329.972	608.06
330.201	628.06
330.43	620.06
330.658	593.06
330.887	591.06
331.115	594.06
331.344	606.06
331.572	568.06
331.801	598.06
332.03	588.06
332.258	588.06
332.486	598.06
332.715	610.06
332.943	582.06
333.172	612.06
333.4	598.06
333.629	610.06
333.857	666.06
334.085	750.06
334.314	794.06
334.542	834.06
334.771	770.06
334.999	682.06
335.227	652.06
335.455	636.06
335.684	643.06
335.912	674.06
336.14	660.06
336.369	628.06
336.597	606.06
336.825	604.06
337.053	647.06
337.281	660.06
337.51	706.06
337.738	679.06
337.966	654.06
338.194	617.06
338.422	604.06
338.65	600.06
338.878	581.06
339.106	553.06
339.334	588.06
339.562	568.06
339.79	582.06
340.018	628.06
340.246	645.06
340.474	636.06
340.702	602.06
340.93	609.06
341.158	580.06
341.386	578.06
341.614	575.06
341.842	590.06
342.07	576.06
342.298	620.06
342.526	585.06
342.754	602.06
342.981	590.06
343.209	601.06
343.437	588.06
343.665	577.06
343.893	617.06
344.12	614.06
344.348	605.06
344.576	626.06
344.804	586.06
345.031	587.06
345.259	588.06
345.487	563.06
345.714	559.06
345.942	536.06
346.17	553.06
346.397	573.06
346.625	554.06
346.853	529.06
347.08	541.06
347.308	557.06
347.535	602.06
347.763	590.06
347.99	558.06
348.218	552.06
348.445	547.06
348.673	562.06
348.9	584.06
349.128	596.06
349.355	626.06
349.583	601.06
349.81	565.06
350.037	574.06
350.265	534.06
350.492	536.06
350.72	562.06
350.947	575.06
351.174	603.06
351.402	553.06
351.629	534.06
351.856	518.06
352.083	539.06
352.311	555.06
352.538	551.06
352.765	567.06
352.992	575.06
353.22	539.06
353.447	550.06
353.674	559.06
353.901	540.06
354.128	548.06
354.355	570.06
354.583	583.06
354.81	602.06
355.037	580.06
355.264	576.06
355.491	577.06
355.718	551.06
355.945	574.06
356.172	547.06
356.399	543.06
356.626	565.06
356.853	581.06
357.08	627.06
357.307	687.06
357.534	650.06
357.761	584.06
357.988	553.06
358.215	533.06
358.441	540.06
358.668	524.06
358.895	552.06
359.122	615.06
359.349	626.06
359.576	604.06
359.802	561.06
360.029	564.06
360.256	558.06
360.483	550.06
360.709	595.06
360.936	592.06
361.163	619.06
361.39	697.06
361.616	715.06
361.843	699.06
362.07	642.06
362.296	584.06
362.523	552.06
362.749	567.06
362.976	565.06
363.203	579.06
363.429	578.06
363.656	565.06
363.882	595.06
364.109	675.06
364.335	660.06
364.562	632.06
364.788	563.06
365.015	584.06
365.241	569.06
365.468	570.06
365.694	619.06
365.92	627.06
366.147	560.06
366.373	540.06
366.599	580.06
366.826	556.06
367.052	564.06
367.278	578.06
367.505	591.06
367.731	602.06
367.957	604.06
368.184	645.06
368.41	686.06
368.636	636.06
368.862	678.06
369.089	644.06
369.315	629.06
369.541	604.06
369.767	602.06
369.993	589.06
370.219	609.06
370.445	604.06
370.672	647.06
370.898	692.06
371.124	666.06
371.35	632.06
371.576	654.06
371.802	647.06
372.028	636.06
372.254	617.06
372.48	586.06
372.706	605.06
372.932	614.06
373.158	618.06
373.384	635.06
373.61	652.06
373.835	667.06
374.061	631.06
374.287	631.06
374.513	647.06
374.739	632.06
374.965	642.06
375.191	660.06
375.416	639.06
375.642	667.06
375.868	711.06
376.094	695.06
376.319	680.06
376.545	624.06
376.771	652.06
376.997	696.06
377.222	691.06
377.448	662.06
377.674	670.06
377.899	695.06
378.125	705.06
378.35	695.06
378.576	630.06
378.802	607.06
379.027	638.06
379.253	634.06
379.478	639.06
379.704	627.06
379.929	646.06
380.155	660.06
380.38	668.06
380.606	684.06
380.831	663.06
381.057	704.06
381.282	696.06
381.507	695.06
381.733	734.06
381.958	749.06
382.184	695.06
382.409	709.06
382.634	674.06
382.86	678.06
383.085	656.06
383.31	720.06
383.535	792.06
383.761	783.06
383.986	727.06
384.211	729.06
384.436	739.06
384.662	774.06
384.887	773.06
385.112	738.06
385.337	733.06
385.562	739.06
385.787	725.06
386.013	770.06
386.238	746.06
386.463	754.06
386.688	849.06
386.913	884.06
387.138	818.06
387.363	778.06
387.588	749.06
387.813	737.06
388.038	806.06
388.263	826.06
388.488	768.06
388.713	727.06
388.938	714.06
389.163	730.06
389.387	748.06
389.612	757.06
389.837	751.06
390.062	744.06
390.287	733.06
390.512	748.06
390.736	720.06
390.961	719.06
391.186	718.06
391.411	729.06
391.636	716.06
391.86	726.06
392.085	771.06
392.31	741.06
392.534	738.06
392.759	762.06
392.984	759.06
393.208	758.06
393.433	806.06
393.658	837.06
393.882	823.06
394.107	795.06
394.331	796.06
394.556	773.06
394.78	772.06
395.005	838.06
395.229	821.06
395.454	858.06
395.678	862.06
395.903	843.06
396.127	802.06
396.352	806.06
396.576	829.06
396.801	836.06
397.025	827.06
397.249	839.06
397.474	812.06
397.698	820.06
397.922	857.06
398.147	878.06
398.371	902.06
398.595	886.06
398.82	886.06
399.044	871.06
399.268	921.06
399.492	940.06
399.717	969.06
399.941	980.06
400.165	976.06
400.389	948.06
400.613	986.06
400.837	1129.06
401.062	1172.06
401.286	988.06
401.51	949.06
401.734	964.06
401.958	926.06
402.182	926.06
402.406	864.06
402.63	867.06
402.854	884.06
403.078	870.06
403.302	910.06
403.526	898.06
403.75	926.06
403.974	939.06
404.198	902.06
404.422	978.06
404.645	953.06
404.869	975.06
405.093	910.06
405.317	907.06
405.541	903.06
405.765	902.06
405.988	917.06
406.212	911.06
406.436	962.06
406.66	982.06
406.883	1015.06
407.107	1140.06
407.331	1215.06
407.555	1262.06
407.778	1125.06
408.002	989.06
408.226	962.06
408.449	965.06
408.673	919.06
408.896	958.06
409.12	960.06
409.344	955.06
409.567	924.06
409.791	913.06
410.014	956.06
410.238	1026.06
410.461	1044.06
410.685	964.06
410.908	947.06
411.132	924.06
411.355	902.06
411.578	902.06
411.802	958.06
412.025	953.06
412.249	931.06
412.472	915.06
412.695	935.06
412.919	909.06
413.142	886.06
413.365	917.06
413.589	951.06
413.812	970.06
414.035	977.06
414.258	916.06
414.482	906.06
414.705	951.06
414.928	900.06
415.151	924.06
415.374	932.06
415.597	935.06
415.821	944.06
416.044	948.06
416.267	956.06
416.49	894.06
416.713	912.06
416.936	955.06
417.159	966.06
417.382	968.06
417.605	923.06
417.828	937.06
418.051	943.06
418.274	942.06
418.497	938.06
418.72	909.06
418.943	892.06
419.166	960.06
419.389	979.06
419.611	955.06
419.834	924.06
420.057	939.06
420.28	928.06
420.503	936.06
420.726	971.06
420.948	949.06
421.171	909.06
421.394	934.06
421.617	966.06
421.839	994.06
422.062	969.06
422.285	949.06
422.507	955.06
422.73	889.06
422.953	876.06
423.175	847.06
423.398	885.06
423.621	898.06
423.843	937.06
424.066	987.06
424.288	1037.06
424.511	1036.06
424.733	1002.06
424.956	914.06
425.178	902.06
425.401	924.06
425.623	927.06
425.846	934.06
426.068	966.06
426.291	962.06
426.513	936.06
426.735	942.06
426.958	1029.06
427.18	1076.06
427.402	987.06
427.625	1027.06
427.847	1014.06
428.069	895.06
428.292	938.06
428.514	884.06
428.736	885.06
428.958	928.06
429.181	936.06
429.403	1063.06
429.625	1229.06
429.847	1050.06
430.069	935.06
430.292	1037.06
430.514	1013.06
430.736	941.06
430.958	967.06
431.18	951.06
431.402	874.06
431.624	860.06
431.846	805.06
432.068	747.06
432.29	747.06
432.512	782.06
432.734	888.06
432.956	952.06
433.178	968.06
433.4	963.06
433.622	953.06
433.844	908.06
434.066	856.06
434.287	817.06
434.509	804.06
434.731	818.06
434.953	889.06
435.175	932.06
435.397	897.06
435.618	887.06
435.84	829.06
436.062	832.06
436.284	902.06
436.505	928.06
436.727	950.06
436.949	938.06
437.17	877.06
437.392	862.06
437.614	840.06
437.835	811.06
438.057	847.06
438.278	840.06
438.5	869.06
438.721	875.06
438.943	926.06
439.165	918.06
439.386	932.06
439.608	962.06
439.829	948.06
440.05	940.06
440.272	932.06
440.493	942.06
440.715	938.06
440.936	1059.06
441.158	1038.06
441.379	1052.06
441.6	1033.06
441.822	1003.06
442.043	1016.06
442.264	974.06
442.486	958.06
442.707	932.06
442.928	952.06
443.149	963.06
443.371	1028.06
443.592	1007.06
443.813	1013.06
444.034	1028.06
444.255	1001.06
444.476	1015.06
444.698	1029.06
444.919	1056.06
445.14	1111.06
445.361	1101.06
445.582	1063.06
445.803	1055.06
446.024	1033.06
446.245	1050.06
446.466	1048.06
446.687	1021.06
446.908	1021.06
447.129	1047.06
447.35	1031.06
447.571	979.06
447.792	936.06
448.013	956.06
448.234	967.06
448.455	976.06
448.675	975.06
448.896	936.06
449.117	917.06
449.338	910.06
449.559	955.06
449.779	978.06
450	1040.06
450.221	1028.06
450.442	996.06
450.662	944.06
450.883	878.06
451.104	891.06
451.324	871.06
451.545	870.06
451.766	845.06
451.986	839.06
452.207	812.06
452.428	784.06
452.648	764.06
452.869	779.06
453.089	795.06
453.31	776.06
453.53	774.06
453.751	720.06
453.971	709.06
454.192	709.06
454.412	785.06
454.633	802.06
454.853	761.06
455.073	756.06
455.294	779.06
455.514	782.06
455.734	770.06
455.955	781.06
456.175	756.06
456.395	710.06
456.616	745.06
456.836	709.06
457.056	733.06
457.276	724.06
457.497	708.06
457.717	669.06
457.937	710.06
458.157	699.06
458.377	674.06
458.598	681.06
458.818	668.06
459.038	723.06
459.258	738.06
459.478	701.06
459.698	697.06
459.918	751.06
460.138	816.06
460.358	833.06
460.578	838.06
460.798	863.06
461.018	882.06
461.238	870.06
461.458	875.06
461.678	840.06
461.898	805.06
462.118	835.06
462.338	849.06
462.558	837.06
462.777	842.06
462.997	854.06
463.217	866.06
463.437	864.06
463.657	839.06
463.876	822.06
464.096	845.06
464.316	832.06
464.536	869.06
464.755	875.06
464.975	847.06
465.195	810.06
465.414	866.06
465.634	864.06
465.854	889.06
466.073	979.06
466.293	956.06
466.512	840.06
466.732	866.06
466.951	891.06
467.171	896.06
467.391	884.06
467.61	860.06
467.829	893.06
468.049	948.06
468.268	1043.06
468.488	963.06
468.707	919.06
468.927	913.06
469.146	875.06
469.365	897.06
469.585	938.06
469.804	918.06
470.023	931.06
470.243	942.06
470.462	915.06
470.681	920.06
470.901	917.06
471.12	936.06
471.339	936.06
471.558	923.06
471.777	876.06
471.997	888.06
472.216	861.06
472.435	782.06
472.654	760.06
472.873	768.06
473.092	821.06
473.311	824.06
473.53	822.06
473.749	836.06
473.968	854.06
474.187	854.06
474.406	831.06
474.625	845.06
474.844	877.06
475.063	874.06
475.282	857.06
475.501	836.06
475.72	843.06
475.939	896.06
476.158	909.06
476.377	866.06
476.596	838.06
476.814	811.06
477.033	782.06
477.252	839.06
477.471	896.06
477.69	914.06
477.908	932.06
478.127	973.06
478.346	1016.06
478.564	976.06
478.783	997.06
479.002	1018.06
479.22	992.06
479.439	1010.06
479.658	1057.06
479.876	988.06
480.095	861.06
480.313	900.06
480.532	856.06
480.751	862.06
480.969	844.06
481.188	777.06
481.406	790.06
481.624	777.06
481.843	805.06
482.061	831.06
482.28	856.06
482.498	871.06
482.717	843.06
482.935	901.06
483.153	991.06
483.372	983.06
483.59	1004.06
483.808	962.06
484.027	959.06
484.245	988.06
484.463	1212.06
484.681	1282.06
484.9	1010.06
485.118	979.06
485.336	931.06
485.554	922.06
485.772	891.06
485.99	887.06
486.209	911.06
486.427	892.06
486.645	932.06
486.863	1018.06
487.081	1047.06
487.299	1016.06
487.517	1026.06
487.735	1098.06
487.953	1161.06
488.171	1168.06
488.389	1127.06
488.607	1125.06
488.825	1120.06
489.043	1052.06
489.261	995.06
489.479	1055.06
489.696	1043.06
489.914	1046.06
490.132	1053.06
490.35	1074.06
490.568	1124.06
490.786	1183.06
491.003	1188.06
491.221	1213.06
491.439	1239.06
491.657	1302.06
491.874	1359.06
492.092	1436.06
492.31	1500.06
492.527	1453.06
492.745	1344.06
492.963	1299.06
493.18	1312.06
493.398	1337.06
493.615	1354.06
493.833	1238.06
494.05	1226.06
494.268	1202.06
494.485	1232.06
494.703	1246.06
494.92	1208.06
495.138	1224.06
495.355	1232.06
495.573	1267.06
495.79	1274.06
496.008	1285.06
496.225	1218.06
496.442	1194.06
496.66	1243.06
496.877	1202.06
497.094	1242.06
497.312	1186.06
497.529	1161.06
497.746	1203.06
497.963	1284.06
498.181	1304.06
498.398	1265.06
498.615	1198.06
498.832	1164.06
499.049	1134.06
499.267	1160.06
499.484	1241.06
499.701	1332.06
499.918	1367.06
500.135	1447.06
500.352	1562.06
500.569	1602.06
500.786	1688.06
501.003	1568.06
501.22	1427.06
501.437	1409.06
501.654	1376.06
501.871	1347.06
502.088	1215.06
502.305	1218.06
502.522	1132.06
502.739	1090.06
502.956	1092.06
503.172	1053.06
503.389	994.06
503.606	996.06
503.823	987.06
504.04	1007.06
504.256	997.06
504.473	1002.06
504.69	1034.06
504.907	1002.06
505.123	990.06
505.34	1060.06
505.557	1334.06
505.773	1088.06
505.99	947.06
506.207	924.06
506.423	907.06
506.64	873.06
506.856	922.06
507.073	1022.06
507.289	1037.06
507.506	1006.06
507.722	879.06
507.939	849.06
508.155	840.06
508.372	843.06
508.588	810.06
508.805	798.06
509.021	788.06
509.238	778.06
509.454	790.06
509.67	740.06
509.887	746.06
510.103	724.06
510.319	722.06
510.536	782.06
510.752	751.06
510.968	758.06
511.184	806.06
511.401	779.06
511.617	702.06
511.833	692.06
512.049	730.06
512.265	699.06
512.481	704.06
512.698	735.06
512.914	751.06
513.13	763.06
513.346	700.06
513.562	683.06
513.778	719.06
513.994	755.06
514.21	755.06
514.426	771.06
514.642	798.06
514.858	766.06
515.074	701.06
515.29	724.06
515.506	717.06
515.721	742.06
515.937	729.06
516.153	791.06
516.369	776.06
516.585	755.06
516.801	732.06
517.016	730.06
517.232	760.06
517.448	779.06
517.664	781.06
517.879	794.06
518.095	820.06
518.311	788.06
518.527	779.06
518.742	764.06
518.958	757.06
519.173	742.06
519.389	799.06
519.605	794.06
519.82	813.06
520.036	791.06
520.251	767.06
520.467	780.06
520.682	822.06
520.898	784.06
521.113	710.06
521.329	703.06
521.544	775.06
521.76	739.06
521.975	748.06
522.19	735.06
522.406	727.06
522.621	924.06
522.836	845.06
523.052	742.06
523.267	754.06
523.482	723.06
523.698	728.06
523.913	728.06
524.128	750.06
524.343	798.06
524.559	807.06
524.774	773.06
524.989	760.06
525.204	775.06
525.419	731.06
525.634	745.06
525.849	731.06
526.064	728.06
526.28	701.06
526.495	680.06
526.71	636.06
526.925	642.06
527.14	624.06
527.355	632.06
527.57	610.06
527.785	662.06
527.999	676.06
528.214	665.06
528.429	688.06
528.644	735.06
528.859	790.06
529.074	825.06
529.289	869.06
529.503	901.06
529.718	797.06
529.933	735.06
530.148	657.06
530.363	654.06
530.577	638.06
530.792	631.06
531.007	614.06
531.221	616.06
531.436	633.06
531.651	648.06
531.865	669.06
532.08	654.06
532.295	635.06
532.509	601.06
532.724	605.06
532.938	653.06
533.153	690.06
533.367	702.06
533.582	730.06
533.796	746.06
534.011	729.06
534.225	697.06
534.44	641.06
534.654	657.06
534.868	663.06
535.083	681.06
535.297	676.06
535.511	678.06
535.726	677.06
535.94	682.06
536.154	648.06
536.369	639.06
536.583	603.06
536.797	592.06
537.011	626.06
537.225	576.06
537.44	592.06
537.654	644.06
537.868	630.06
538.082	580.06
538.296	606.06
538.51	636.06
538.724	678.06
538.938	703.06
539.153	740.06
539.367	720.06
539.581	695.06
539.795	678.06
540.009	648.06
540.222	638.06
540.436	678.06
540.65	738.06
540.864	805.06
541.078	814.06
541.292	846.06
541.506	879.06
541.72	942.06
541.934	1030.06
542.147	1053.06
542.361	984.06
542.575	898.06
542.789	844.06
543.002	778.06
543.216	746.06
543.43	764.06
543.644	818.06
543.857	855.06
544.071	924.06
544.285	925.06
544.498	937.06
544.712	905.06
544.925	988.06
545.139	962.06
545.352	924.06
545.566	939.06
545.779	924.06
545.993	965.06
546.206	950.06
546.42	933.06
546.633	944.06
546.847	956.06
547.06	952.06
547.274	941.06
547.487	982.06
547.7	993.06
547.914	977.06
548.127	957.06
548.34	967.06
548.554	917.06
548.767	926.06
548.98	916.06
549.193	926.06
549.407	961.06
549.62	911.06
549.833	925.06
550.046	906.06
550.259	899.06
550.473	898.06
550.686	902.06
550.899	866.06
551.112	835.06
551.325	824.06
551.538	840.06
551.751	876.06
551.964	717.06
552.177	742.06
552.39	810.06
552.603	828.06
552.816	865.06
553.029	896.06
553.242	932.06
553.455	921.06
553.667	911.06
553.88	902.06
554.093	885.06
554.306	843.06
554.519	847.06
554.732	821.06
554.944	834.06
555.157	828.06
555.37	835.06
555.583	794.06
555.795	756.06
556.008	742.06
556.221	721.06
556.433	724.06
556.646	732.06
556.859	719.06
557.071	735.06
557.284	765.06
557.496	772.06
557.709	755.06
557.921	726.06
558.134	736.06
558.346	747.06
558.559	730.06
558.771	741.06
558.984	694.06
559.196	669.06
559.409	644.06
559.621	663.06
559.833	621.06
560.046	659.06
560.258	661.06
560.47	654.06
560.683	670.06
560.895	646.06
561.107	665.06
561.32	668.06
561.532	676.06
561.744	658.06
561.956	694.06
562.168	662.06
562.381	647.06
562.593	650.06
562.805	639.06
563.017	634.06
563.229	642.06
563.441	678.06
563.653	637.06
563.865	620.06
564.077	634.06
564.289	591.06
564.501	598.06
564.713	618.06
564.925	629.06
565.137	650.06
565.349	614.06
565.561	618.06
565.773	635.06
565.985	624.06
566.197	638.06
566.408	666.06
566.62	695.06
566.832	684.06
567.044	674.06
567.255	651.06
567.467	647.06
567.679	654.06
567.891	656.06
568.102	592.06
568.314	577.06
568.526	538.06
568.737	529.06
568.949	501.06
569.161	485.06
569.372	442.06
569.584	452.06
569.795	464.06
570.007	443.06
570.218	439.06
570.43	443.06
570.641	452.06
570.853	470.06
571.064	463.06
571.276	486.06
571.487	469.06
571.698	484.06
571.91	461.06
572.121	468.06
572.333	441.06
572.544	447.06
572.755	420.06
572.966	394.06
573.178	389.06
573.389	394.06
573.6	404.06
573.811	428.06
574.023	383.06
574.234	383.06
574.445	401.06
574.656	368.06
574.867	405.06
575.078	400.06
575.289	418.06
575.501	420.06
575.712	379.06
575.923	391.06
576.134	390.06
576.345	416.06
576.556	416.06
576.767	389.06
576.978	416.06
577.188	383.06
577.399	385.06
577.61	376.06
577.821	378.06
578.032	367.06
578.243	374.06
578.454	354.06
578.665	354.06
578.875	336.06
579.086	338.06
579.297	354.06
579.508	364.06
579.718	349.06
579.929	342.06
580.14	327.06
580.35	342.06
580.561	356.06
580.772	381.06
580.982	359.06
581.193	352.06
581.403	351.06
581.614	340.06
581.825	344.06
582.035	339.06
582.246	331.06
582.456	365.06
582.667	364.06
582.877	333.06
583.087	335.06
583.298	327.06
583.508	324.06
583.719	323.06
583.929	344.06
584.139	333.06
584.35	320.06
584.56	303.06
584.77	327.06
584.981	299.06
585.191	342.06
585.401	343.06
585.611	331.06
585.821	314.06
586.032	323.06
586.242	321.06
586.452	315.06
586.662	324.06
586.872	304.06
587.082	321.06
587.292	329.06
587.502	320.06
587.713	332.06
587.923	318.06
588.133	314.06
588.343	325.06
588.553	316.06
588.762	316.06
588.972	307.06
589.182	343.06
589.392	298.06
589.602	319.06
589.812	334.06
590.022	306.06
590.232	320.06
590.441	331.06
590.651	303.06
590.861	294.06
591.071	302.06
591.281	313.06
591.49	312.06
591.7	331.06
591.91	282.06
592.119	301.06
592.329	329.06
592.539	318.06
592.748	346.06
592.958	332.06
593.167	322.06
593.377	316.06
593.587	339.06
593.796	333.06
594.006	318.06
594.215	322.06
594.424	327.06
594.634	341.06
594.843	343.06
595.053	354.06
595.262	333.06
595.472	324.06
595.681	319.06
595.89	315.06
596.1	310.06
596.309	330.06
596.518	294.06
596.727	326.06
596.937	306.06
597.146	315.06
597.355	294.06
597.564	314.06
597.774	290.06
597.983	272.06
598.192	294.06
598.401	287.06
598.61	286.06
598.819	282.06
599.028	308.06
599.237	299.06
599.446	290.06
599.655	304.06
599.864	284.06
600.073	290.06
600.282	317.06
600.491	294.06
600.7	309.06
600.909	304.06
601.118	303.06
601.327	316.06
601.536	349.06
601.745	342.06
601.953	361.06
602.162	370.06
602.371	363.06
602.58	348.06
602.789	352.06
602.997	376.06
603.206	362.06
603.415	365.06
603.623	333.06
603.832	379.06
604.041	333.06
604.249	312.06
604.458	314.06
604.666	308.06
604.875	290.06
605.084	313.06
605.292	344.06
605.501	347.06
605.709	384.06
605.918	351.06
606.126	367.06
606.334	363.06
606.543	350.06
606.751	368.06
606.96	358.06
607.168	359.06
607.376	349.06
607.585	348.06
607.793	338.06
608.001	355.06
608.21	364.06
608.418	354.06
608.626	361.06
608.834	355.06
609.043	361.06
609.251	350.06
609.459	375.06
609.667	341.06
609.875	362.06
610.083	382.06
610.291	364.06
610.499	364.06
610.707	389.06
610.916	351.06
611.124	362.06
611.332	368.06
611.54	386.06
611.748	366.06
611.955	370.06
612.163	366.06
612.371	369.06
612.579	370.06
612.787	352.06
612.995	365.06
613.203	357.06
613.411	343.06
613.618	360.06
613.826	362.06
614.034	349.06
614.242	338.06
614.449	350.06
614.657	364.06
614.865	364.06
615.072	373.06
615.28	378.06
615.488	339.06
615.695	363.06
615.903	345.06
616.111	368.06
616.318	367.06
616.526	379.06
616.733	358.06
616.941	338.06
617.148	343.06
617.356	359.06
617.563	352.06
617.771	328.06
617.978	329.06
618.185	333.06
618.393	341.06
618.6	342.06
618.807	336.06
619.015	361.06
619.222	330.06
619.429	340.06
619.637	329.06
619.844	328.06
620.051	319.06
620.258	331.06
620.466	316.06
620.673	325.06
620.88	304.06
621.087	309.06
621.294	314.06
621.501	295.06
621.708	309.06
621.915	294.06
622.122	322.06
622.329	327.06
622.536	331.06
622.743	336.06
622.95	332.06
623.157	327.06
623.364	330.06
623.571	324.06
623.778	330.06
623.985	336.06
624.192	325.06
624.399	311.06
624.606	326.06
624.812	315.06
625.019	287.06
625.226	293.06
625.433	296.06
625.639	281.06
625.846	263.06
626.053	265.06
626.259	259.06
626.466	242.06
626.673	243.06
626.879	232.06
627.086	244.06
627.293	247.06
627.499	294.06
627.706	318.06
627.912	289.06
628.119	301.06
628.325	311.06
628.532	306.06
628.738	286.06
628.945	287.06
629.151	289.06
629.357	283.06
629.564	280.06
629.77	268.06
629.976	275.06
630.183	261.06
630.389	266.06
630.595	291.06
630.802	292.06
631.008	296.06
631.214	291.06
631.42	282.06
631.627	272.06
631.833	254.06
632.039	279.06
632.245	262.06
632.451	276.06
632.657	281.06
632.863	266.06
633.069	280.06
633.275	266.06
633.481	252.06
633.688	251.06
633.893	250.06
634.099	263.06
634.305	245.06
634.511	255.06
634.717	248.06
634.923	227.06
635.129	231.06
635.335	243.06
635.541	248.06
635.747	259.06
635.952	266.06
636.158	264.06
636.364	277.06
636.57	261.06
636.775	263.06
636.981	261.06
637.187	269.06
637.392	287.06
637.598	279.06
637.804	269.06
638.009	244.06
638.215	263.06
638.421	262.06
638.626	262.06
638.832	264.06
639.037	249.06
639.243	258.06
639.448	263.06
639.654	262.06
639.859	246.06
640.065	236.06
640.27	239.06
640.475	227.06
640.681	250.06
640.886	251.06
641.091	258.06
641.297	255.06
641.502	245.06
641.707	256.06
641.913	256.06
642.118	257.06
642.323	242.06
642.528	241.06
642.733	262.06
642.939	236.06
643.144	220.06
643.349	239.06
643.554	251.06
643.759	243.06
643.964	235.06
644.169	246.06
644.374	246.06
644.579	234.06
644.784	239.06
644.989	248.06
645.194	247.06
645.399	244.06
645.604	243.06
645.809	227.06
646.014	233.06
646.219	230.06
646.423	234.06
646.628	244.06
646.833	244.06
647.038	249.06
647.243	254.06
647.447	230.06
647.652	243.06
647.857	261.06
648.062	234.06
648.266	230.06
648.471	252.06
648.676	249.06
648.88	232.06
649.085	256.06
649.289	242.06
649.494	230.06
649.698	243.06
649.903	226.06
650.107	243.06
650.312	246.06
650.516	224.06
650.721	243.06
650.925	232.06
651.13	217.06
651.334	208.06
651.539	233.06
651.743	223.06
651.947	219.06
652.152	216.06
652.356	208.06
652.56	215.06
652.764	235.06
652.969	216.06
653.173	202.06
653.377	216.06
653.581	193.06
653.785	216.06
653.99	211.06
654.194	213.06
654.398	211.06
654.602	198.06
654.806	195.06
655.01	207.06
655.214	201.06
655.418	223.06
655.622	227.06
655.826	232.06
656.03	240.06
656.234	236.06
656.438	225.06
656.642	242.06
656.846	225.06
657.049	211.06
657.253	203.06
657.457	183.06
657.661	182.06
657.865	165.06
658.068	170.06
658.272	131.06
658.476	165.06
658.68	167.06
658.883	138.06
659.087	150.06
659.291	154.06
659.494	132.06
659.698	131.06
659.901	142.06
660.105	132.06
660.309	125.06
660.512	128.06
660.716	121.06
660.919	124.06
661.123	126.06
661.326	123.06
661.53	123.06
661.733	111.06
661.936	107.06
662.14	106.06
662.343	109.06
662.546	104.06
662.75	93.06
662.953	101.06
663.156	101.06
663.36	94.06
663.563	91.06
663.766	93.06
663.969	86.06
664.173	89.06
664.376	91.06
664.579	91.06
664.782	84.06
664.985	91.06
665.188	93.06
665.391	87.06
665.594	88.06
665.797	80.06
666	103.06
666.203	74.06
666.406	96.06
666.609	95.06
666.812	87.06
667.015	100.06
667.218	78.06
667.421	83.06
667.624	89.06
667.827	78.06
668.03	77.06
668.232	70.06
668.435	79.06
668.638	95.06
668.841	76.06
669.043	67.06
669.246	76.06
669.449	88.06
669.651	77.06
669.854	78.06
670.057	88.06
670.259	74.06
670.462	95.06
670.665	79.06
670.867	75.06
671.07	96.06
671.272	75.06
671.475	83.06
671.677	85.06
671.88	84.06
672.082	83.06
672.284	85.06
672.487	87.06
672.689	88.06
672.892	88.06
