Data from WStandard_LampEnergy5.5LIBS07252019.E.O._I.C._HRD10591_16-07-42-920.txt Node
Date: Thu Jul 25 16:07:42 EDT 2019
User: cochatt
Spectrometer: HR+D1059
Trigger mode: 1
Integration Time (sec): 1.000000E-1
Scans to average: 1
Electric dark correction enabled: true
Nonlinearity correction enabled: false
Boxcar width: 0
XAxis mode: Wavelengths
Number of Pixels in Spectrum: 2048
>>>>>Begin Spectral Data<<<<<
223.165	-24.62
223.4	-24.62
223.635	-24.62
223.869	-8.62
224.104	-23.62
224.338	-10.62
224.573	-8.62
224.808	-10.62
225.042	-0.62
225.277	6.38
225.511	-16.62
225.746	10.38
225.98	17.38
226.215	13.38
226.449	10.38
226.683	17.38
226.918	15.38
227.152	13.38
227.387	40.38
227.621	48.38
227.856	50.38
228.09	51.38
228.324	45.38
228.559	55.38
228.793	151.38
229.027	374.38
229.262	375.38
229.496	401.38
229.73	403.38
229.964	435.38
230.199	466.38
230.433	481.38
230.667	519.38
230.901	552.38
231.136	495.38
231.37	487.38
231.604	474.38
231.838	469.38
232.072	474.38
232.306	459.38
232.541	489.38
232.775	574.38
233.009	608.38
233.243	601.38
233.477	551.38
233.711	579.38
233.945	575.38
234.179	540.38
234.413	611.38
234.647	675.38
234.881	609.38
235.115	548.38
235.349	567.38
235.583	580.38
235.817	592.38
236.051	555.38
236.285	563.38
236.519	595.38
236.753	687.38
236.987	702.38
237.221	703.38
237.455	785.38
237.689	745.38
237.922	707.38
238.156	691.38
238.39	697.38
238.624	736.38
238.858	774.38
239.091	812.38
239.325	847.38
239.559	933.38
239.793	995.38
240.027	1091.38
240.26	1071.38
240.494	788.38
240.728	748.38
240.961	773.38
241.195	773.38
241.429	840.38
241.662	875.38
241.896	800.38
242.13	786.38
242.363	881.38
242.597	947.38
242.83	903.38
243.064	928.38
243.298	998.38
243.531	957.38
243.765	975.38
243.998	983.38
244.232	829.38
244.465	808.38
244.699	840.38
244.932	939.38
245.166	1075.38
245.399	1017.38
245.633	918.38
245.866	895.38
246.099	971.38
246.333	991.38
246.566	979.38
246.8	1061.38
247.033	1211.38
247.266	1118.38
247.5	1091.38
247.733	1077.38
247.966	1154.38
248.2	1309.38
248.433	1239.38
248.666	1284.38
248.899	1357.38
249.133	1580.38
249.366	1805.38
249.599	1495.38
249.832	1289.38
250.066	1311.38
250.299	1329.38
250.532	1251.38
250.765	1107.38
250.998	1171.38
251.231	1238.38
251.465	1294.38
251.698	1233.38
251.931	1203.38
252.164	1213.38
252.397	1289.38
252.63	1273.38
252.863	1120.38
253.096	1115.38
253.329	1204.38
253.562	1201.38
253.795	1301.38
254.028	1318.38
254.261	1203.38
254.494	1204.38
254.727	1178.38
254.96	1173.38
255.193	1305.38
255.426	1463.38
255.659	1672.38
255.892	1769.38
256.124	1421.38
256.357	1357.38
256.59	1469.38
256.823	1505.38
257.056	1445.38
257.289	1698.38
257.521	1957.38
257.754	1759.38
257.987	1643.38
258.22	1847.38
258.452	1777.38
258.685	1412.38
258.918	1392.38
259.151	1415.38
259.383	1358.38
259.616	1235.38
259.849	1239.38
260.081	1408.38
260.314	1568.38
260.547	1729.38
260.779	1788.38
261.012	1666.38
261.244	1461.38
261.477	1424.38
261.71	1455.38
261.942	1456.38
262.175	1404.38
262.407	1512.38
262.64	1415.38
262.872	1336.38
263.105	1280.38
263.337	1316.38
263.57	1325.38
263.802	1310.38
264.035	1233.38
264.267	1217.38
264.499	1156.38
264.732	1261.38
264.964	1331.38
265.197	1374.38
265.429	1413.38
265.661	1617.38
265.894	1756.38
266.126	1861.38
266.358	1624.38
266.591	1656.38
266.823	1891.38
267.055	1675.38
267.287	1636.38
267.52	1648.38
267.752	1592.38
267.984	1595.38
268.216	1702.38
268.448	1705.38
268.681	1673.38
268.913	1540.38
269.145	1463.38
269.377	1435.38
269.609	1536.38
269.841	1804.38
270.073	2141.38
270.306	2327.38
270.538	2496.38
270.77	2093.38
271.002	1742.38
271.234	1715.38
271.466	1680.38
271.698	1864.38
271.93	2262.38
272.162	2285.38
272.394	2055.38
272.626	1953.38
272.858	1719.38
273.09	1480.38
273.322	1496.38
273.553	1406.38
273.785	1415.38
274.017	1492.38
274.249	1602.38
274.481	1643.38
274.713	1468.38
274.945	1446.38
275.176	1432.38
275.408	1392.38
275.64	1420.38
275.872	1365.38
276.104	1482.38
276.335	1699.38
276.567	1939.38
276.799	1978.38
277.031	1760.38
277.262	1630.38
277.494	1695.38
277.726	1895.38
277.957	1884.38
278.189	1715.38
278.421	1561.38
278.652	1523.38
278.884	1527.38
279.115	1507.38
279.347	1516.38
279.579	1485.38
279.81	1513.38
280.042	1642.38
280.273	1813.38
280.505	1801.38
280.736	1894.38
280.968	1787.38
281.199	1534.38
281.431	1462.38
281.662	1489.38
281.894	1484.38
282.125	1521.38
282.356	1595.38
282.588	1565.38
282.819	1583.38
283.051	1708.38
283.282	1858.38
283.513	1823.38
283.745	1591.38
283.976	1431.38
284.207	1460.38
284.439	1489.38
284.67	1528.38
284.901	1544.38
285.132	1565.38
285.364	1543.38
285.595	1599.38
285.826	1546.38
286.057	1522.38
286.288	1492.38
286.52	1592.38
286.751	1734.38
286.982	1774.38
287.213	1631.38
287.444	1471.38
287.675	1438.38
287.906	1532.38
288.138	1676.38
288.369	1631.38
288.6	1522.38
288.831	1499.38
289.062	1511.38
289.293	1551.38
289.524	1525.38
289.755	1619.38
289.986	1610.38
290.217	1461.38
290.448	1523.38
290.679	1534.38
290.91	1555.38
291.141	1594.38
291.371	1699.38
291.602	1628.38
291.833	1643.38
292.064	1673.38
292.295	1604.38
292.526	1689.38
292.757	1766.38
292.987	1691.38
293.218	1544.38
293.449	1628.38
293.68	1910.38
293.91	2094.38
294.141	1903.38
294.372	1798.38
294.603	1867.38
294.833	1948.38
295.064	1880.38
295.295	1661.38
295.525	1627.38
295.756	1507.38
295.987	1431.38
296.217	1453.38
296.448	1516.38
296.679	1503.38
296.909	1538.38
297.14	1545.38
297.37	1528.38
297.601	1600.38
297.831	1741.38
298.062	1737.38
298.292	1606.38
298.523	1548.38
298.753	1543.38
298.984	1571.38
299.214	1568.38
299.445	1591.38
299.675	1661.38
299.905	1651.38
300.136	1612.38
300.366	1584.38
300.597	1496.38
300.827	1474.38
301.057	1550.38
301.288	1669.38
301.518	1649.38
301.748	1676.38
301.979	1744.38
302.209	1787.38
302.439	1880.38
302.669	2029.38
302.9	1857.38
303.13	1673.38
303.36	1702.38
303.59	1706.38
303.82	1673.38
304.051	1685.38
304.281	1656.38
304.511	1667.38
304.741	1763.38
304.971	1938.38
305.201	2140.38
305.431	1971.38
305.661	1623.38
305.891	1482.38
306.121	1447.38
306.352	1545.38
306.582	1603.38
306.812	1716.38
307.042	1839.38
307.272	1845.38
307.502	1928.38
307.731	2010.38
307.961	2158.38
308.191	2040.38
308.421	1759.38
308.651	1645.38
308.881	1590.38
309.111	1594.38
309.341	1566.38
309.571	1607.38
309.8	1615.38
310.03	1579.38
310.26	1562.38
310.49	1557.38
310.72	1600.38
310.949	1695.38
311.179	1718.38
311.409	1662.38
311.639	1632.38
311.868	1612.38
312.098	1639.38
312.328	1624.38
312.557	1598.38
312.787	1639.38
313.017	1696.38
313.246	1669.38
313.476	1619.38
313.706	1756.38
313.935	1661.38
314.165	1685.38
314.394	1744.38
314.624	1848.38
314.853	1942.38
315.083	2049.38
315.312	2066.38
315.542	1929.38
315.771	1705.38
316.001	1695.38
316.23	1807.38
316.46	1817.38
316.689	1827.38
316.919	1719.38
317.148	1639.38
317.377	1661.38
317.607	1783.38
317.836	1993.38
318.065	2037.38
318.295	2030.38
318.524	1904.38
318.753	1829.38
318.983	1808.38
319.212	1808.38
319.441	1767.38
319.67	1718.38
319.9	1721.38
320.129	1828.38
320.358	1909.38
320.587	1967.38
320.816	1955.38
321.046	1929.38
321.275	1800.38
321.504	1804.38
321.733	1973.38
321.962	1934.38
322.191	1727.38
322.42	1753.38
322.649	1736.38
322.878	1707.38
323.108	1728.38
323.337	1767.38
323.566	1818.38
323.795	1805.38
324.024	1809.38
324.253	1785.38
324.482	1829.38
324.71	1740.38
324.939	1652.38
325.168	1677.38
325.397	1721.38
325.626	1787.38
325.855	1829.38
326.084	1743.38
326.313	1752.38
326.542	1776.38
326.77	1831.38
326.999	1811.38
327.228	1770.38
327.457	1673.38
327.686	1625.38
327.914	1681.38
328.143	1725.38
328.372	1778.38
328.6	1782.38
328.829	1748.38
329.058	1698.38
329.287	1675.38
329.515	1756.38
329.744	1782.38
329.972	1886.38
330.201	1928.38
330.43	1883.38
330.658	1838.38
330.887	1855.38
331.115	1857.38
331.344	1880.38
331.572	1849.38
331.801	1821.38
332.03	1837.38
332.258	1892.38
332.486	1875.38
332.715	1891.38
332.943	1870.38
333.172	1824.38
333.4	1873.38
333.629	1908.38
333.857	1977.38
334.085	2166.38
334.314	2472.38
334.542	2775.38
334.771	2519.38
334.999	2252.38
335.227	2081.38
335.455	1986.38
335.684	1975.38
335.912	1985.38
336.14	2107.38
336.369	2027.38
336.597	1885.38
336.825	1842.38
337.053	1924.38
337.281	1985.38
337.51	2128.38
337.738	2219.38
337.966	2123.38
338.194	1928.38
338.422	1843.38
338.65	1868.38
338.878	1766.38
339.106	1791.38
339.334	1759.38
339.562	1693.38
339.79	1779.38
340.018	1825.38
340.246	1933.38
340.474	1945.38
340.702	1885.38
340.93	1906.38
341.158	1840.38
341.386	1830.38
341.614	1856.38
341.842	1825.38
342.07	1801.38
342.298	1857.38
342.526	1822.38
342.754	1818.38
342.981	1827.38
343.209	1825.38
343.437	1781.38
343.665	1807.38
343.893	1863.38
344.12	1945.38
344.348	1961.38
344.576	1876.38
344.804	1821.38
345.031	1800.38
345.259	1836.38
345.487	1750.38
345.714	1695.38
345.942	1659.38
346.17	1679.38
346.397	1759.38
346.625	1752.38
346.853	1628.38
347.08	1671.38
347.308	1593.38
347.535	1687.38
347.763	1745.38
347.99	1742.38
348.218	1629.38
348.445	1663.38
348.673	1670.38
348.9	1718.38
349.128	1776.38
349.355	1881.38
349.583	1800.38
349.81	1731.38
350.037	1601.38
350.265	1563.38
350.492	1603.38
350.72	1626.38
350.947	1675.38
351.174	1703.38
351.402	1656.38
351.629	1595.38
351.856	1568.38
352.083	1584.38
352.311	1537.38
352.538	1634.38
352.765	1658.38
352.992	1747.38
353.22	1699.38
353.447	1631.38
353.674	1635.38
353.901	1713.38
354.128	1642.38
354.355	1620.38
354.583	1717.38
354.81	1751.38
355.037	1723.38
355.264	1707.38
355.491	1697.38
355.718	1695.38
355.945	1653.38
356.172	1635.38
356.399	1618.38
356.626	1622.38
356.853	1650.38
357.08	1786.38
357.307	1987.38
357.534	2022.38
357.761	1768.38
357.988	1643.38
358.215	1580.38
358.441	1617.38
358.668	1589.38
358.895	1596.38
359.122	1708.38
359.349	1883.38
359.576	1837.38
359.802	1685.38
360.029	1590.38
360.256	1587.38
360.483	1614.38
360.709	1642.38
360.936	1732.38
361.163	1786.38
361.39	1924.38
361.616	2127.38
361.843	2033.38
362.07	1908.38
362.296	1689.38
362.523	1616.38
362.749	1621.38
362.976	1675.38
363.203	1677.38
363.429	1700.38
363.656	1601.38
363.882	1663.38
364.109	1831.38
364.335	2015.38
364.562	1875.38
364.788	1744.38
365.015	1722.38
365.241	1632.38
365.468	1715.38
365.694	1682.38
365.92	1838.38
366.147	1733.38
366.373	1641.38
366.599	1653.38
366.826	1605.38
367.052	1604.38
367.278	1615.38
367.505	1623.38
367.731	1703.38
367.957	1685.38
368.184	1760.38
368.41	1834.38
368.636	1851.38
368.862	1896.38
369.089	1899.38
369.315	1803.38
369.541	1796.38
369.767	1720.38
369.993	1655.38
370.219	1639.38
370.445	1679.38
370.672	1769.38
370.898	1839.38
371.124	1889.38
371.35	1747.38
371.576	1741.38
371.802	1874.38
372.028	1819.38
372.254	1708.38
372.48	1697.38
372.706	1644.38
372.932	1653.38
373.158	1681.38
373.384	1681.38
373.61	1764.38
373.835	1849.38
374.061	1768.38
374.287	1725.38
374.513	1734.38
374.739	1750.38
374.965	1764.38
375.191	1761.38
375.416	1832.38
375.642	1771.38
375.868	1877.38
376.094	1957.38
376.319	1859.38
376.545	1740.38
376.771	1763.38
376.997	1847.38
377.222	1826.38
377.448	1795.38
377.674	1857.38
377.899	1833.38
378.125	1888.38
378.35	1931.38
378.576	1726.38
378.802	1670.38
379.027	1654.38
379.253	1735.38
379.478	1680.38
379.704	1704.38
379.929	1693.38
380.155	1716.38
380.38	1717.38
380.606	1746.38
380.831	1736.38
381.057	1849.38
381.282	1895.38
381.507	1795.38
381.733	1890.38
381.958	2007.38
382.184	1827.38
382.409	1801.38
382.634	1788.38
382.86	1823.38
383.085	1806.38
383.31	1867.38
383.535	2014.38
383.761	2141.38
383.986	2021.38
384.211	1963.38
384.436	1925.38
384.662	2040.38
384.887	2090.38
385.112	2034.38
385.337	2018.38
385.562	1976.38
385.787	1967.38
386.013	2061.38
386.238	2059.38
386.463	2030.38
386.688	2153.38
386.913	2283.38
387.138	2220.38
387.363	2063.38
387.588	2028.38
387.813	2027.38
388.038	2029.38
388.263	2084.38
388.488	2029.38
388.713	1887.38
388.938	1847.38
389.163	1907.38
389.387	1945.38
389.612	1914.38
389.837	2021.38
390.062	2037.38
390.287	1995.38
390.512	1974.38
390.736	1937.38
390.961	1917.38
391.186	1871.38
391.411	1858.38
391.636	1951.38
391.86	1995.38
392.085	1910.38
392.31	2004.38
392.534	1987.38
392.759	2041.38
392.984	1980.38
393.208	1995.38
393.433	2061.38
393.658	2111.38
393.882	2150.38
394.107	2031.38
394.331	2007.38
394.556	1961.38
394.78	2013.38
395.005	2030.38
395.229	2093.38
395.454	2308.38
395.678	2307.38
395.903	2205.38
396.127	2110.38
396.352	2083.38
396.576	2157.38
396.801	2166.38
397.025	2163.38
397.249	2105.38
397.474	2151.38
397.698	2132.38
397.922	2161.38
398.147	2326.38
398.371	2352.38
398.595	2349.38
398.82	2278.38
399.044	2282.38
399.268	2349.38
399.492	2573.38
399.717	2647.38
399.941	2689.38
400.165	2611.38
400.389	2538.38
400.613	2502.38
400.837	2762.38
401.062	3175.38
401.286	2767.38
401.51	2448.38
401.734	2567.38
401.958	2513.38
402.182	2324.38
402.406	2302.38
402.63	2243.38
402.854	2254.38
403.078	2257.38
403.302	2333.38
403.526	2389.38
403.75	2332.38
403.974	2315.38
404.198	2333.38
404.422	2427.38
404.645	2555.38
404.869	2521.38
405.093	2325.38
405.317	2277.38
405.541	2337.38
405.765	2388.38
405.988	2367.38
406.212	2421.38
406.436	2479.38
406.66	2493.38
406.883	2529.38
407.107	2827.38
407.331	3086.38
407.555	3291.38
407.778	3096.38
408.002	2599.38
408.226	2454.38
408.449	2498.38
408.673	2391.38
408.896	2415.38
409.12	2447.38
409.344	2442.38
409.567	2304.38
409.791	2360.38
410.014	2372.38
410.238	2475.38
410.461	2694.38
410.685	2415.38
410.908	2278.38
411.132	2332.38
411.355	2384.38
411.578	2246.38
411.802	2295.38
412.025	2341.38
412.249	2268.38
412.472	2206.38
412.695	2199.38
412.919	2211.38
413.142	2182.38
413.365	2196.38
413.589	2317.38
413.812	2415.38
414.035	2491.38
414.258	2304.38
414.482	2243.38
414.705	2243.38
414.928	2228.38
415.151	2276.38
415.374	2249.38
415.597	2312.38
415.821	2339.38
416.044	2414.38
416.267	2369.38
416.49	2152.38
416.713	2164.38
416.936	2237.38
417.159	2385.38
417.382	2341.38
417.605	2209.38
417.828	2286.38
418.051	2318.38
418.274	2265.38
418.497	2161.38
418.72	2167.38
418.943	2110.38
419.166	2321.38
419.389	2419.38
419.611	2295.38
419.834	2218.38
420.057	2257.38
420.28	2180.38
420.503	2145.38
420.726	2248.38
420.948	2238.38
421.171	2160.38
421.394	2147.38
421.617	2230.38
421.839	2220.38
422.062	2201.38
422.285	2179.38
422.507	2145.38
422.73	2076.38
422.953	2084.38
423.175	2055.38
423.398	2176.38
423.621	2163.38
423.843	2191.38
424.066	2227.38
424.288	2284.38
424.511	2320.38
424.733	2286.38
424.956	2090.38
425.178	2037.38
425.401	2071.38
425.623	2067.38
425.846	2056.38
426.068	2235.38
426.291	2246.38
426.513	2215.38
426.735	2192.38
426.958	2356.38
427.18	2500.38
427.402	2238.38
427.625	2358.38
427.847	2413.38
428.069	2241.38
428.292	2115.38
428.514	2075.38
428.736	2014.38
428.958	2101.38
429.181	2150.38
429.403	2347.38
429.625	2935.38
429.847	2587.38
430.069	2153.38
430.292	2318.38
430.514	2457.38
430.736	2264.38
430.958	2403.38
431.18	2269.38
431.402	2096.38
431.624	2089.38
431.846	2092.38
432.068	2060.38
432.29	2118.38
432.512	2101.38
432.734	2161.38
432.956	2186.38
433.178	2307.38
433.4	2256.38
433.622	2257.38
433.844	2122.38
434.066	2045.38
434.287	2061.38
434.509	2134.38
434.731	2256.38
434.953	2419.38
435.175	2386.38
435.397	2211.38
435.618	2251.38
435.84	2207.38
436.062	2217.38
436.284	2249.38
436.505	2216.38
436.727	2277.38
436.949	2172.38
437.17	2113.38
437.392	2109.38
437.614	2126.38
437.835	2055.38
438.057	2225.38
438.278	2365.38
438.5	2159.38
438.721	2111.38
438.943	2100.38
439.165	2117.38
439.386	2005.38
439.608	2070.38
439.829	2096.38
440.05	2084.38
440.272	2024.38
440.493	2038.38
440.715	2103.38
440.936	2251.38
441.158	2471.38
441.379	2368.38
441.6	2327.38
441.822	2252.38
442.043	2218.38
442.264	2204.38
442.486	2112.38
442.707	2104.38
442.928	2076.38
443.149	2109.38
443.371	2269.38
443.592	2371.38
443.813	2296.38
444.034	2288.38
444.255	2279.38
444.476	2408.38
444.698	2405.38
444.919	2340.38
445.14	2405.38
445.361	2420.38
445.582	2521.38
445.803	2393.38
446.024	2298.38
446.245	2385.38
446.466	2331.38
446.687	2231.38
446.908	2177.38
447.129	2136.38
447.35	2133.38
447.571	2143.38
447.792	2053.38
448.013	2012.38
448.234	2078.38
448.455	2174.38
448.675	2253.38
448.896	2042.38
449.117	1978.38
449.338	2052.38
449.559	2109.38
449.779	2251.38
450	2461.38
450.221	2717.38
450.442	2556.38
450.662	2246.38
450.883	2005.38
451.104	1947.38
451.324	2007.38
451.545	2121.38
451.766	2038.38
451.986	1952.38
452.207	1981.38
452.428	1918.38
452.648	1886.38
452.869	1980.38
453.089	2065.38
453.31	2057.38
453.53	2153.38
453.751	2032.38
453.971	1890.38
454.192	1931.38
454.412	2101.38
454.633	1990.38
454.853	1922.38
455.073	1821.38
455.294	1809.38
455.514	1804.38
455.734	1846.38
455.955	1898.38
456.175	1913.38
456.395	1870.38
456.616	1920.38
456.836	1999.38
457.056	1943.38
457.276	1957.38
457.497	1884.38
457.717	1785.38
457.937	1872.38
458.157	1886.38
458.377	1888.38
458.598	1877.38
458.818	1866.38
459.038	1975.38
459.258	2152.38
459.478	2129.38
459.698	2055.38
459.918	2085.38
460.138	2200.38
460.358	2225.38
460.578	2220.38
460.798	2359.38
461.018	2550.38
461.238	2349.38
461.458	2243.38
461.678	2260.38
461.898	2218.38
462.118	2090.38
462.338	2260.38
462.558	2228.38
462.777	2230.38
462.997	2367.38
463.217	2477.38
463.437	2456.38
463.657	2298.38
463.876	2247.38
464.096	2233.38
464.316	2229.38
464.536	2340.38
464.755	2291.38
464.975	2379.38
465.195	2300.38
465.414	2350.38
465.634	2412.38
465.854	2264.38
466.073	2392.38
466.293	2365.38
466.512	2103.38
466.732	2026.38
466.951	2088.38
467.171	2117.38
467.391	2051.38
467.61	1972.38
467.829	2021.38
468.049	2176.38
468.268	2467.38
468.488	2327.38
468.707	2172.38
468.927	2110.38
469.146	2051.38
469.365	2019.38
469.585	2064.38
469.804	2051.38
470.023	2049.38
470.243	2109.38
470.462	2075.38
470.681	1976.38
470.901	2055.38
471.12	2075.38
471.339	2029.38
471.558	1949.38
471.777	1936.38
471.997	1983.38
472.216	2019.38
472.435	1958.38
472.654	1971.38
472.873	2067.38
473.092	2182.38
473.311	2104.38
473.53	1966.38
473.749	1994.38
473.968	2056.38
474.187	2135.38
474.406	2254.38
474.625	2109.38
474.844	2039.38
475.063	2052.38
475.282	2092.38
475.501	2084.38
475.72	2063.38
475.939	2228.38
476.158	2091.38
476.377	2047.38
476.596	2120.38
476.814	2150.38
477.033	2161.38
477.252	2268.38
477.471	2334.38
477.69	2172.38
477.908	2143.38
478.127	2273.38
478.346	2460.38
478.564	2473.38
478.783	2451.38
479.002	2522.38
479.22	2439.38
479.439	2552.38
479.658	2857.38
479.876	2821.38
480.095	2481.38
480.313	2438.38
480.532	2280.38
480.751	2340.38
480.969	2395.38
481.188	2348.38
481.406	2291.38
481.624	2227.38
481.843	2289.38
482.061	2358.38
482.28	2347.38
482.498	2413.38
482.717	2407.38
482.935	2332.38
483.153	2295.38
483.372	2262.38
483.59	2250.38
483.808	2281.38
484.027	2350.38
484.245	2423.38
484.463	2780.38
484.681	3280.38
484.9	2597.38
485.118	2377.38
485.336	2305.38
485.554	2407.38
485.772	2511.38
485.99	2467.38
486.209	2532.38
486.427	2456.38
486.645	2478.38
486.863	2428.38
487.081	2513.38
487.299	2581.38
487.517	2519.38
487.735	2429.38
487.953	2347.38
488.171	2393.38
488.389	2351.38
488.607	2357.38
488.825	2609.38
489.043	2676.38
489.261	2399.38
489.479	2557.38
489.696	2600.38
489.914	2562.38
490.132	2456.38
490.35	2427.38
490.568	2522.38
490.786	2431.38
491.003	2368.38
491.221	2408.38
491.439	2517.38
491.657	2501.38
491.874	2528.38
492.092	2501.38
492.31	2494.38
492.527	2476.38
492.745	2453.38
492.963	2435.38
493.18	2559.38
493.398	2714.38
493.615	2754.38
493.833	2550.38
494.05	2439.38
494.268	2528.38
494.485	2551.38
494.703	2519.38
494.92	2445.38
495.138	2491.38
495.355	2488.38
495.573	2548.38
495.79	2776.38
496.008	2767.38
496.225	2585.38
496.442	2599.38
496.66	2633.38
496.877	2619.38
497.094	2721.38
497.312	2729.38
497.529	2687.38
497.746	2732.38
497.963	3275.38
498.181	3663.38
498.398	3346.38
498.615	3351.38
498.832	3224.38
499.049	3174.38
499.267	3113.38
499.484	3326.38
499.701	3631.38
499.918	3704.38
500.135	3936.38
500.352	4258.38
500.569	4129.38
500.786	4460.38
501.003	4192.38
501.22	3774.38
501.437	3685.38
501.654	3619.38
501.871	3600.38
502.088	3167.38
502.305	3161.38
502.522	3055.38
502.739	2822.38
502.956	2790.38
503.172	2723.38
503.389	2644.38
503.606	2635.38
503.823	2625.38
504.04	2643.38
504.256	2624.38
504.473	2632.38
504.69	2741.38
504.907	2652.38
505.123	2476.38
505.34	2561.38
505.557	3356.38
505.773	2833.38
505.99	2403.38
506.207	2268.38
506.423	2266.38
506.64	2238.38
506.856	2268.38
507.073	2579.38
507.289	2806.38
507.506	2624.38
507.722	2297.38
507.939	2203.38
508.155	2194.38
508.372	2192.38
508.588	2145.38
508.805	2067.38
509.021	2041.38
509.238	2062.38
509.454	1995.38
509.67	2074.38
509.887	2022.38
510.103	2038.38
510.319	2062.38
510.536	2199.38
510.752	2244.38
510.968	2229.38
511.184	2372.38
511.401	2347.38
511.617	2054.38
511.833	1994.38
512.049	2004.38
512.265	1912.38
512.481	1951.38
512.698	2062.38
512.914	2227.38
513.13	2155.38
513.346	2007.38
513.562	1994.38
513.778	1997.38
513.994	2121.38
514.21	2184.38
514.426	2173.38
514.642	2432.38
514.858	2300.38
515.074	2113.38
515.29	1991.38
515.506	2078.38
515.721	2124.38
515.937	2135.38
516.153	2441.38
516.369	2334.38
516.585	2189.38
516.801	2111.38
517.016	2084.38
517.232	2124.38
517.448	2191.38
517.664	2222.38
517.879	2187.38
518.095	2323.38
518.311	2244.38
518.527	2101.38
518.742	2057.38
518.958	1989.38
519.173	2020.38
519.389	2076.38
519.605	2047.38
519.82	2064.38
520.036	2133.38
520.251	2040.38
520.467	2038.38
520.682	2184.38
520.898	2271.38
521.113	2035.38
521.329	1973.38
521.544	2117.38
521.76	2061.38
521.975	1973.38
522.19	1942.38
522.406	1897.38
522.621	2315.38
522.836	2336.38
523.052	1900.38
523.267	1931.38
523.482	1912.38
523.698	1816.38
523.913	1793.38
524.128	1839.38
524.343	1964.38
524.559	1957.38
524.774	1894.38
524.989	1863.38
525.204	1839.38
525.419	1773.38
525.634	1788.38
525.849	1839.38
526.064	1858.38
526.28	1832.38
526.495	1773.38
526.71	1754.38
526.925	1782.38
527.14	1736.38
527.355	1758.38
527.57	1748.38
527.785	1783.38
527.999	1795.38
528.214	1697.38
528.429	1707.38
528.644	1704.38
528.859	1767.38
529.074	1723.38
529.289	1737.38
529.503	1787.38
529.718	1757.38
529.933	1719.38
530.148	1687.38
530.363	1692.38
530.577	1715.38
530.792	1733.38
531.007	1745.38
531.221	1698.38
531.436	1769.38
531.651	1845.38
531.865	1892.38
532.08	1804.38
532.295	1703.38
532.509	1639.38
532.724	1681.38
532.938	1745.38
533.153	1908.38
533.367	1779.38
533.582	1776.38
533.796	1717.38
534.011	1698.38
534.225	1771.38
534.44	1697.38
534.654	1708.38
534.868	1680.38
535.083	1768.38
535.297	1742.38
535.511	1747.38
535.726	1731.38
535.94	1699.38
536.154	1713.38
536.369	1672.38
536.583	1619.38
536.797	1661.38
537.011	1726.38
537.225	1669.38
537.44	1616.38
537.654	1681.38
537.868	1636.38
538.082	1552.38
538.296	1529.38
538.51	1557.38
538.724	1581.38
538.938	1563.38
539.153	1622.38
539.367	1630.38
539.581	1602.38
539.795	1709.38
540.009	1672.38
540.222	1664.38
540.436	1649.38
540.65	1792.38
540.864	1858.38
541.078	1699.38
541.292	1632.38
541.506	1589.38
541.72	1644.38
541.934	1605.38
542.147	1665.38
542.361	1620.38
542.575	1599.38
542.789	1539.38
543.002	1495.38
543.216	1561.38
543.43	1644.38
543.644	1713.38
543.857	1754.38
544.071	1666.38
544.285	1648.38
544.498	1611.38
544.712	1603.38
544.925	1648.38
545.139	1675.38
545.352	1583.38
545.566	1521.38
545.779	1485.38
545.993	1499.38
546.206	1574.38
546.42	1503.38
546.633	1468.38
546.847	1475.38
547.06	1533.38
547.274	1505.38
547.487	1505.38
547.7	1536.38
547.914	1513.38
548.127	1545.38
548.34	1580.38
548.554	1545.38
548.767	1532.38
548.98	1569.38
549.193	1534.38
549.407	1607.38
549.62	1633.38
549.833	1544.38
550.046	1537.38
550.259	1516.38
550.473	1510.38
550.686	1472.38
550.899	1491.38
551.112	1452.38
551.325	1464.38
551.538	1543.38
551.751	1819.38
551.964	1485.38
552.177	1433.38
552.39	1440.38
552.603	1465.38
552.816	1486.38
553.029	1586.38
553.242	1617.38
553.455	1511.38
553.667	1526.38
553.88	1501.38
554.093	1463.38
554.306	1438.38
554.519	1425.38
554.732	1383.38
554.944	1399.38
555.157	1477.38
555.37	1431.38
555.583	1443.38
555.795	1390.38
556.008	1371.38
556.221	1342.38
556.433	1335.38
556.646	1300.38
556.859	1335.38
557.071	1286.38
557.284	1280.38
557.496	1286.38
557.709	1265.38
557.921	1244.38
558.134	1276.38
558.346	1285.38
558.559	1253.38
558.771	1258.38
558.984	1237.38
559.196	1215.38
559.409	1228.38
559.621	1220.38
559.833	1212.38
560.046	1289.38
560.258	1285.38
560.47	1217.38
560.683	1216.38
560.895	1233.38
561.107	1252.38
561.32	1234.38
561.532	1281.38
561.744	1237.38
561.956	1186.38
562.168	1205.38
562.381	1210.38
562.593	1163.38
562.805	1229.38
563.017	1199.38
563.229	1197.38
563.441	1257.38
563.653	1212.38
563.865	1198.38
564.077	1212.38
564.289	1213.38
564.501	1227.38
564.713	1235.38
564.925	1294.38
565.137	1423.38
565.349	1294.38
565.561	1301.38
565.773	1279.38
565.985	1322.38
566.197	1415.38
566.408	1457.38
566.62	1497.38
566.832	1479.38
567.044	1438.38
567.255	1468.38
567.467	1477.38
567.679	1528.38
567.891	1581.38
568.102	1515.38
568.314	1487.38
568.526	1400.38
568.737	1366.38
568.949	1275.38
569.161	1226.38
569.372	1196.38
569.584	1168.38
569.795	1187.38
570.007	1183.38
570.218	1129.38
570.43	1098.38
570.641	1113.38
570.853	1087.38
571.064	1126.38
571.276	1102.38
571.487	1089.38
571.698	1059.38
571.91	1015.38
572.121	1006.38
572.333	1028.38
572.544	1020.38
572.755	978.38
572.966	996.38
573.178	1014.38
573.389	1005.38
573.6	1002.38
573.811	1093.38
574.023	1041.38
574.234	980.38
574.445	964.38
574.656	922.38
574.867	898.38
575.078	959.38
575.289	926.38
575.501	920.38
575.712	911.38
575.923	910.38
576.134	921.38
576.345	901.38
576.556	893.38
576.767	863.38
576.978	852.38
577.188	871.38
577.399	870.38
577.61	879.38
577.821	863.38
578.032	853.38
578.243	884.38
578.454	855.38
578.665	859.38
578.875	849.38
579.086	822.38
579.297	852.38
579.508	865.38
579.718	875.38
579.929	840.38
580.14	813.38
580.35	800.38
580.561	837.38
580.772	912.38
580.982	837.38
581.193	810.38
581.403	802.38
581.614	783.38
581.825	782.38
582.035	784.38
582.246	802.38
582.456	827.38
582.667	825.38
582.877	805.38
583.087	760.38
583.298	765.38
583.508	793.38
583.719	788.38
583.929	792.38
584.139	791.38
584.35	791.38
584.56	791.38
584.77	768.38
584.981	775.38
585.191	787.38
585.401	789.38
585.611	772.38
585.821	760.38
586.032	749.38
586.242	755.38
586.452	741.38
586.662	759.38
586.872	757.38
587.082	761.38
587.292	795.38
587.502	772.38
587.713	771.38
587.923	779.38
588.133	768.38
588.343	789.38
588.553	753.38
588.762	745.38
588.972	739.38
589.182	769.38
589.392	743.38
589.602	777.38
589.812	737.38
590.022	725.38
590.232	741.38
590.441	746.38
590.651	761.38
590.861	737.38
591.071	724.38
591.281	726.38
591.49	750.38
591.7	725.38
591.91	739.38
592.119	731.38
592.329	758.38
592.539	753.38
592.748	774.38
592.958	747.38
593.167	783.38
593.377	764.38
593.587	752.38
593.796	789.38
594.006	761.38
594.215	798.38
594.424	761.38
594.634	760.38
594.843	724.38
595.053	779.38
595.262	775.38
595.472	726.38
595.681	744.38
595.89	709.38
596.1	701.38
596.309	703.38
596.518	671.38
596.727	700.38
596.937	680.38
597.146	659.38
597.355	645.38
597.564	681.38
597.774	643.38
597.983	660.38
598.192	631.38
598.401	652.38
598.61	619.38
598.819	643.38
599.028	653.38
599.237	636.38
599.446	599.38
599.655	629.38
599.864	615.38
600.073	609.38
600.282	613.38
600.491	622.38
600.7	614.38
600.909	605.38
601.118	608.38
601.327	605.38
601.536	615.38
601.745	585.38
601.953	591.38
602.162	616.38
602.371	616.38
602.58	604.38
602.789	587.38
602.997	600.38
603.206	573.38
603.415	613.38
603.623	592.38
603.832	603.38
604.041	572.38
604.249	583.38
604.458	560.38
604.666	587.38
604.875	563.38
605.084	567.38
605.292	580.38
605.501	577.38
605.709	579.38
605.918	538.38
606.126	574.38
606.334	586.38
606.543	555.38
606.751	564.38
606.96	561.38
607.168	533.38
607.376	547.38
607.585	557.38
607.793	550.38
608.001	559.38
608.21	565.38
608.418	580.38
608.626	553.38
608.834	556.38
609.043	536.38
609.251	536.38
609.459	543.38
609.667	560.38
609.875	563.38
610.083	579.38
610.291	578.38
610.499	561.38
610.707	539.38
610.916	551.38
611.124	526.38
611.332	532.38
611.54	538.38
611.748	533.38
611.955	543.38
612.163	500.38
612.371	504.38
612.579	525.38
612.787	542.38
612.995	544.38
613.203	536.38
613.411	531.38
613.618	528.38
613.826	523.38
614.034	523.38
614.242	536.38
614.449	511.38
614.657	529.38
614.865	532.38
615.072	529.38
615.28	504.38
615.488	531.38
615.695	554.38
615.903	524.38
616.111	520.38
616.318	531.38
616.526	504.38
616.733	493.38
616.941	491.38
617.148	504.38
617.356	504.38
617.563	514.38
617.771	494.38
617.978	500.38
618.185	488.38
618.393	505.38
618.6	493.38
618.807	508.38
619.015	515.38
619.222	489.38
619.429	453.38
619.637	462.38
619.844	491.38
620.051	463.38
620.258	474.38
620.466	463.38
620.673	442.38
620.88	467.38
621.087	448.38
621.294	451.38
621.501	461.38
621.708	479.38
621.915	461.38
622.122	464.38
622.329	492.38
622.536	491.38
622.743	459.38
622.95	469.38
623.157	461.38
623.364	455.38
623.571	460.38
623.778	456.38
623.985	444.38
624.192	437.38
624.399	448.38
624.606	449.38
624.812	439.38
625.019	424.38
625.226	436.38
625.433	458.38
625.639	424.38
625.846	420.38
626.053	428.38
626.259	422.38
626.466	427.38
626.673	424.38
626.879	406.38
627.086	405.38
627.293	417.38
627.499	411.38
627.706	405.38
627.912	428.38
628.119	396.38
628.325	403.38
628.532	421.38
628.738	439.38
628.945	419.38
629.151	405.38
629.357	424.38
629.564	405.38
629.77	380.38
629.976	394.38
630.183	383.38
630.389	387.38
630.595	412.38
630.802	410.38
631.008	383.38
631.214	384.38
631.42	382.38
631.627	383.38
631.833	372.38
632.039	389.38
632.245	362.38
632.451	378.38
632.657	385.38
632.863	383.38
633.069	376.38
633.275	363.38
633.481	367.38
633.688	364.38
633.893	347.38
634.099	339.38
634.305	357.38
634.511	376.38
634.717	342.38
634.923	356.38
635.129	370.38
635.335	334.38
635.541	357.38
635.747	360.38
635.952	341.38
636.158	357.38
636.364	363.38
636.57	341.38
636.775	362.38
636.981	356.38
637.187	354.38
637.392	352.38
637.598	367.38
637.804	355.38
638.009	354.38
638.215	362.38
638.421	332.38
638.626	353.38
638.832	347.38
639.037	339.38
639.243	339.38
639.448	351.38
639.654	332.38
639.859	332.38
640.065	340.38
640.27	346.38
640.475	340.38
640.681	320.38
640.886	327.38
641.091	323.38
641.297	340.38
641.502	320.38
641.707	318.38
641.913	332.38
642.118	316.38
642.323	324.38
642.528	345.38
642.733	296.38
642.939	319.38
643.144	327.38
643.349	326.38
643.554	328.38
643.759	320.38
643.964	307.38
644.169	297.38
644.374	318.38
644.579	327.38
644.784	327.38
644.989	319.38
645.194	321.38
645.399	303.38
645.604	295.38
645.809	312.38
646.014	311.38
646.219	333.38
646.423	331.38
646.628	327.38
646.833	309.38
647.038	312.38
647.243	323.38
647.447	315.38
647.652	329.38
647.857	311.38
648.062	332.38
648.266	321.38
648.471	328.38
648.676	316.38
648.88	339.38
649.085	310.38
649.289	313.38
649.494	321.38
649.698	324.38
649.903	294.38
650.107	293.38
650.312	312.38
650.516	310.38
650.721	307.38
650.925	294.38
651.13	282.38
651.334	283.38
651.539	277.38
651.743	254.38
651.947	270.38
652.152	280.38
652.356	260.38
652.56	263.38
652.764	264.38
652.969	257.38
653.173	255.38
653.377	247.38
653.581	269.38
653.785	274.38
653.99	245.38
654.194	245.38
654.398	255.38
654.602	249.38
654.806	264.38
655.01	274.38
655.214	239.38
655.418	244.38
655.622	238.38
655.826	236.38
656.03	251.38
656.234	266.38
656.438	255.38
656.642	270.38
656.846	271.38
657.049	236.38
657.253	233.38
657.457	212.38
657.661	190.38
657.865	194.38
658.068	195.38
658.272	174.38
658.476	166.38
658.68	167.38
658.883	154.38
659.087	155.38
659.291	140.38
659.494	146.38
659.698	127.38
659.901	138.38
660.105	127.38
660.309	114.38
660.512	128.38
660.716	135.38
660.919	119.38
661.123	126.38
661.326	116.38
661.53	105.38
661.733	104.38
661.936	116.38
662.14	104.38
662.343	103.38
662.546	100.38
662.75	98.38
662.953	112.38
663.156	91.38
663.36	98.38
663.563	81.38
663.766	88.38
663.969	91.38
664.173	83.38
664.376	96.38
664.579	79.38
664.782	96.38
664.985	74.38
665.188	99.38
665.391	92.38
665.594	90.38
665.797	84.38
666	76.38
666.203	78.38
666.406	77.38
666.609	80.38
666.812	67.38
667.015	75.38
667.218	80.38
667.421	85.38
667.624	87.38
667.827	84.38
668.03	100.38
668.232	82.38
668.435	80.38
668.638	82.38
668.841	91.38
669.043	87.38
669.246	92.38
669.449	93.38
669.651	86.38
669.854	91.38
670.057	84.38
670.259	79.38
670.462	83.38
670.665	81.38
670.867	103.38
671.07	89.38
671.272	90.38
671.475	83.38
671.677	74.38
671.88	89.38
672.082	92.38
672.284	86.38
672.487	84.38
672.689	85.38
672.892	98.38
