Data from WStandard_LampEnergy10_LIBS07252019.E.O._I.C._HRD10591_15-52-49-927.txt Node
Date: Thu Jul 25 15:52:49 EDT 2019
User: cochatt
Spectrometer: HR+D1059
Trigger mode: 1
Integration Time (sec): 1.000000E-1
Scans to average: 1
Electric dark correction enabled: true
Nonlinearity correction enabled: false
Boxcar width: 0
XAxis mode: Wavelengths
Number of Pixels in Spectrum: 2048
>>>>>Begin Spectral Data<<<<<
223.165	-18.56
223.4	-18.56
223.635	-18.56
223.869	-21.56
224.104	-15.56
224.338	-20.56
224.573	-16.56
224.808	-7.56
225.042	-13.56
225.277	-5.56
225.511	-7.56
225.746	10.44
225.98	9.44
226.215	23.44
226.449	9.44
226.683	22.44
226.918	28.44
227.152	23.44
227.387	43.44
227.621	29.44
227.856	55.44
228.09	56.44
228.324	56.44
228.559	55.44
228.793	135.44
229.027	325.44
229.262	343.44
229.496	357.44
229.73	357.44
229.964	396.44
230.199	405.44
230.433	416.44
230.667	447.44
230.901	475.44
231.136	434.44
231.37	423.44
231.604	423.44
231.838	416.44
232.072	410.44
232.306	406.44
232.541	456.44
232.775	518.44
233.009	533.44
233.243	524.44
233.477	470.44
233.711	498.44
233.945	507.44
234.179	492.44
234.413	517.44
234.647	573.44
234.881	525.44
235.115	502.44
235.349	489.44
235.583	504.44
235.817	493.44
236.051	484.44
236.285	504.44
236.519	549.44
236.753	599.44
236.987	593.44
237.221	605.44
237.455	647.44
237.689	628.44
237.922	605.44
238.156	588.44
238.39	587.44
238.624	618.44
238.858	652.44
239.091	670.44
239.325	721.44
239.559	789.44
239.793	836.44
240.027	881.44
240.26	852.44
240.494	673.44
240.728	644.44
240.961	665.44
241.195	663.44
241.429	718.44
241.662	745.44
241.896	673.44
242.13	671.44
242.363	742.44
242.597	788.44
242.83	782.44
243.064	797.44
243.298	833.44
243.531	832.44
243.765	776.44
243.998	813.44
244.232	729.44
244.465	700.44
244.699	697.44
244.932	816.44
245.166	875.44
245.399	869.44
245.633	797.44
245.866	813.44
246.099	844.44
246.333	838.44
246.566	843.44
246.8	920.44
247.033	1026.44
247.266	962.44
247.5	922.44
247.733	903.44
247.966	983.44
248.2	1073.44
248.433	1033.44
248.666	1070.44
248.899	1191.44
249.133	1324.44
249.366	1434.44
249.599	1218.44
249.832	1086.44
250.066	1069.44
250.299	1103.44
250.532	1022.44
250.765	937.44
250.998	1008.44
251.231	1046.44
251.465	1083.44
251.698	1016.44
251.931	1043.44
252.164	1059.44
252.397	1074.44
252.63	1068.44
252.863	964.44
253.096	972.44
253.329	1041.44
253.562	1024.44
253.795	1121.44
254.028	1109.44
254.261	1032.44
254.494	1006.44
254.727	997.44
254.96	1006.44
255.193	1141.44
255.426	1250.44
255.659	1394.44
255.892	1429.44
256.124	1232.44
256.357	1140.44
256.59	1235.44
256.823	1221.44
257.056	1285.44
257.289	1476.44
257.521	1614.44
257.754	1444.44
257.987	1364.44
258.22	1508.44
258.452	1440.44
258.685	1225.44
258.918	1196.44
259.151	1193.44
259.383	1114.44
259.616	1026.44
259.849	1121.44
260.081	1255.44
260.314	1350.44
260.547	1477.44
260.779	1431.44
261.012	1361.44
261.244	1226.44
261.477	1226.44
261.71	1220.44
261.942	1216.44
262.175	1235.44
262.407	1249.44
262.64	1213.44
262.872	1116.44
263.105	1104.44
263.337	1141.44
263.57	1162.44
263.802	1129.44
264.035	1088.44
264.267	1029.44
264.499	1044.44
264.732	1099.44
264.964	1139.44
265.197	1185.44
265.429	1258.44
265.661	1400.44
265.894	1514.44
266.126	1533.44
266.358	1396.44
266.591	1436.44
266.823	1526.44
267.055	1401.44
267.287	1361.44
267.52	1419.44
267.752	1360.44
267.984	1336.44
268.216	1422.44
268.448	1452.44
268.681	1431.44
268.913	1337.44
269.145	1259.44
269.377	1267.44
269.609	1387.44
269.841	1617.44
270.073	1806.44
270.306	1980.44
270.538	2039.44
270.77	1742.44
271.002	1540.44
271.234	1461.44
271.466	1503.44
271.698	1675.44
271.93	1918.44
272.162	1885.44
272.394	1728.44
272.626	1642.44
272.858	1431.44
273.09	1237.44
273.322	1255.44
273.553	1210.44
273.785	1243.44
274.017	1299.44
274.249	1372.44
274.481	1357.44
274.713	1270.44
274.945	1233.44
275.176	1242.44
275.408	1239.44
275.64	1250.44
275.872	1249.44
276.104	1333.44
276.335	1506.44
276.567	1642.44
276.799	1653.44
277.031	1492.44
277.262	1421.44
277.494	1514.44
277.726	1633.44
277.957	1642.44
278.189	1444.44
278.421	1362.44
278.652	1319.44
278.884	1309.44
279.115	1334.44
279.347	1351.44
279.579	1336.44
279.81	1345.44
280.042	1484.44
280.273	1588.44
280.505	1546.44
280.736	1592.44
280.968	1498.44
281.199	1345.44
281.431	1292.44
281.662	1280.44
281.894	1343.44
282.125	1306.44
282.356	1402.44
282.588	1385.44
282.819	1390.44
283.051	1489.44
283.282	1586.44
283.513	1553.44
283.745	1370.44
283.976	1287.44
284.207	1337.44
284.439	1394.44
284.67	1391.44
284.901	1386.44
285.132	1440.44
285.364	1393.44
285.595	1380.44
285.826	1400.44
286.057	1365.44
286.288	1364.44
286.52	1433.44
286.751	1562.44
286.982	1566.44
287.213	1388.44
287.444	1304.44
287.675	1336.44
287.906	1430.44
288.138	1514.44
288.369	1411.44
288.6	1364.44
288.831	1325.44
289.062	1330.44
289.293	1382.44
289.524	1395.44
289.755	1426.44
289.986	1408.44
290.217	1326.44
290.448	1362.44
290.679	1394.44
290.91	1399.44
291.141	1437.44
291.371	1493.44
291.602	1477.44
291.833	1468.44
292.064	1540.44
292.295	1515.44
292.526	1528.44
292.757	1594.44
292.987	1515.44
293.218	1466.44
293.449	1589.44
293.68	1761.44
293.91	1832.44
294.141	1748.44
294.372	1629.44
294.603	1704.44
294.833	1737.44
295.064	1641.44
295.295	1518.44
295.525	1462.44
295.756	1352.44
295.987	1318.44
296.217	1356.44
296.448	1402.44
296.679	1389.44
296.909	1388.44
297.14	1370.44
297.37	1452.44
297.601	1504.44
297.831	1581.44
298.062	1570.44
298.292	1449.44
298.523	1408.44
298.753	1424.44
298.984	1458.44
299.214	1418.44
299.445	1464.44
299.675	1513.44
299.905	1501.44
300.136	1430.44
300.366	1438.44
300.597	1362.44
300.827	1426.44
301.057	1463.44
301.288	1568.44
301.518	1530.44
301.748	1578.44
301.979	1618.44
302.209	1653.44
302.439	1771.44
302.669	1832.44
302.9	1676.44
303.13	1522.44
303.36	1528.44
303.59	1587.44
303.82	1560.44
304.051	1558.44
304.281	1557.44
304.511	1595.44
304.741	1713.44
304.971	1831.44
305.201	1949.44
305.431	1783.44
305.661	1472.44
305.891	1330.44
306.121	1338.44
306.352	1452.44
306.582	1534.44
306.812	1608.44
307.042	1725.44
307.272	1744.44
307.502	1785.44
307.731	1914.44
307.961	1979.44
308.191	1796.44
308.421	1588.44
308.651	1482.44
308.881	1467.44
309.111	1484.44
309.341	1490.44
309.571	1499.44
309.8	1497.44
310.03	1473.44
310.26	1478.44
310.49	1493.44
310.72	1532.44
310.949	1545.44
311.179	1612.44
311.409	1561.44
311.639	1543.44
311.868	1535.44
312.098	1547.44
312.328	1493.44
312.557	1547.44
312.787	1525.44
313.017	1584.44
313.246	1592.44
313.476	1581.44
313.706	1607.44
313.935	1603.44
314.165	1620.44
314.394	1676.44
314.624	1767.44
314.853	1887.44
315.083	1926.44
315.312	1935.44
315.542	1776.44
315.771	1624.44
316.001	1622.44
316.23	1747.44
316.46	1699.44
316.689	1683.44
316.919	1597.44
317.148	1556.44
317.377	1612.44
317.607	1751.44
317.836	1881.44
318.065	1941.44
318.295	1847.44
318.524	1756.44
318.753	1716.44
318.983	1725.44
319.212	1660.44
319.441	1658.44
319.67	1654.44
319.9	1696.44
320.129	1792.44
320.358	1844.44
320.587	1885.44
320.816	1854.44
321.046	1833.44
321.275	1710.44
321.504	1765.44
321.733	1896.44
321.962	1842.44
322.191	1687.44
322.42	1677.44
322.649	1652.44
322.878	1645.44
323.108	1672.44
323.337	1729.44
323.566	1714.44
323.795	1701.44
324.024	1711.44
324.253	1696.44
324.482	1716.44
324.71	1649.44
324.939	1565.44
325.168	1635.44
325.397	1661.44
325.626	1716.44
325.855	1707.44
326.084	1701.44
326.313	1690.44
326.542	1718.44
326.77	1792.44
326.999	1748.44
327.228	1651.44
327.457	1592.44
327.686	1550.44
327.914	1635.44
328.143	1675.44
328.372	1661.44
328.6	1691.44
328.829	1673.44
329.058	1626.44
329.287	1653.44
329.515	1716.44
329.744	1749.44
329.972	1800.44
330.201	1862.44
330.43	1822.44
330.658	1812.44
330.887	1776.44
331.115	1801.44
331.344	1836.44
331.572	1753.44
331.801	1752.44
332.03	1768.44
332.258	1796.44
332.486	1825.44
332.715	1832.44
332.943	1818.44
333.172	1706.44
333.4	1810.44
333.629	1877.44
333.857	1988.44
334.085	2186.44
334.314	2476.44
334.542	2609.44
334.771	2371.44
334.999	2133.44
335.227	1978.44
335.455	1934.44
335.684	1910.44
335.912	1949.44
336.14	1988.44
336.369	1912.44
336.597	1817.44
336.825	1802.44
337.053	1918.44
337.281	1949.44
337.51	2068.44
337.738	2066.44
337.966	1999.44
338.194	1834.44
338.422	1797.44
338.65	1718.44
338.878	1739.44
339.106	1714.44
339.334	1709.44
339.562	1627.44
339.79	1730.44
340.018	1790.44
340.246	1917.44
340.474	1865.44
340.702	1820.44
340.93	1866.44
341.158	1847.44
341.386	1820.44
341.614	1783.44
341.842	1799.44
342.07	1803.44
342.298	1800.44
342.526	1790.44
342.754	1733.44
342.981	1728.44
343.209	1742.44
343.437	1781.44
343.665	1754.44
343.893	1846.44
344.12	1944.44
344.348	1868.44
344.576	1825.44
344.804	1791.44
345.031	1801.44
345.259	1793.44
345.487	1692.44
345.714	1636.44
345.942	1667.44
346.17	1650.44
346.397	1685.44
346.625	1684.44
346.853	1611.44
347.08	1594.44
347.308	1624.44
347.535	1649.44
347.763	1664.44
347.99	1664.44
348.218	1653.44
348.445	1598.44
348.673	1693.44
348.9	1703.44
349.128	1763.44
349.355	1773.44
349.583	1780.44
349.81	1668.44
350.037	1554.44
350.265	1507.44
350.492	1576.44
350.72	1627.44
350.947	1677.44
351.174	1675.44
351.402	1603.44
351.629	1562.44
351.856	1522.44
352.083	1502.44
352.311	1513.44
352.538	1621.44
352.765	1672.44
352.992	1718.44
353.22	1620.44
353.447	1562.44
353.674	1623.44
353.901	1669.44
354.128	1627.44
354.355	1630.44
354.583	1659.44
354.81	1730.44
355.037	1688.44
355.264	1698.44
355.491	1662.44
355.718	1604.44
355.945	1633.44
356.172	1596.44
356.399	1569.44
356.626	1579.44
356.853	1674.44
357.08	1834.44
357.307	1985.44
357.534	1860.44
357.761	1703.44
357.988	1564.44
358.215	1562.44
358.441	1554.44
358.668	1572.44
358.895	1602.44
359.122	1751.44
359.349	1890.44
359.576	1765.44
359.802	1648.44
360.029	1552.44
360.256	1547.44
360.483	1617.44
360.709	1668.44
360.936	1742.44
361.163	1797.44
361.39	1988.44
361.616	2030.44
361.843	2037.44
362.07	1857.44
362.296	1658.44
362.523	1642.44
362.749	1660.44
362.976	1640.44
363.203	1705.44
363.429	1604.44
363.656	1586.44
363.882	1702.44
364.109	1857.44
364.335	1957.44
364.562	1789.44
364.788	1723.44
365.015	1633.44
365.241	1626.44
365.468	1647.44
365.694	1759.44
365.92	1768.44
366.147	1693.44
366.373	1598.44
366.599	1571.44
366.826	1577.44
367.052	1605.44
367.278	1643.44
367.505	1660.44
367.731	1705.44
367.957	1692.44
368.184	1762.44
368.41	1800.44
368.636	1883.44
368.862	1843.44
369.089	1878.44
369.315	1810.44
369.541	1748.44
369.767	1682.44
369.993	1619.44
370.219	1667.44
370.445	1700.44
370.672	1801.44
370.898	1890.44
371.124	1837.44
371.35	1762.44
371.576	1801.44
371.802	1836.44
372.028	1758.44
372.254	1708.44
372.48	1670.44
372.706	1660.44
372.932	1670.44
373.158	1700.44
373.384	1737.44
373.61	1759.44
373.835	1824.44
374.061	1746.44
374.287	1740.44
374.513	1726.44
374.739	1760.44
374.965	1792.44
375.191	1787.44
375.416	1811.44
375.642	1799.44
375.868	1940.44
376.094	1959.44
376.319	1825.44
376.545	1750.44
376.771	1826.44
376.997	1907.44
377.222	1866.44
377.448	1810.44
377.674	1810.44
377.899	1873.44
378.125	1926.44
378.35	1873.44
378.576	1706.44
378.802	1663.44
379.027	1709.44
379.253	1700.44
379.478	1743.44
379.704	1741.44
379.929	1740.44
380.155	1744.44
380.38	1781.44
380.606	1762.44
380.831	1780.44
381.057	1937.44
381.282	1860.44
381.507	1874.44
381.733	1943.44
381.958	2036.44
382.184	1824.44
382.409	1845.44
382.634	1802.44
382.86	1824.44
383.085	1825.44
383.31	1886.44
383.535	2029.44
383.761	2125.44
383.986	2029.44
384.211	1976.44
384.436	1970.44
384.662	2054.44
384.887	2169.44
385.112	2005.44
385.337	2041.44
385.562	2009.44
385.787	1981.44
386.013	2036.44
386.238	2040.44
386.463	2097.44
386.688	2216.44
386.913	2329.44
387.138	2180.44
387.363	2076.44
387.588	2040.44
387.813	2072.44
388.038	2082.44
388.263	2149.44
388.488	2074.44
388.713	1932.44
388.938	1965.44
389.163	1903.44
389.387	1956.44
389.612	1979.44
389.837	2022.44
390.062	2024.44
390.287	2014.44
390.512	1998.44
390.736	1993.44
390.961	1953.44
391.186	1889.44
391.411	1930.44
391.636	1978.44
391.86	2002.44
392.085	2019.44
392.31	1977.44
392.534	1960.44
392.759	2002.44
392.984	2023.44
393.208	2005.44
393.433	2057.44
393.658	2134.44
393.882	2177.44
394.107	2069.44
394.331	2048.44
394.556	2009.44
394.78	2054.44
395.005	2115.44
395.229	2219.44
395.454	2312.44
395.678	2272.44
395.903	2155.44
396.127	2137.44
396.352	2131.44
396.576	2248.44
396.801	2210.44
397.025	2172.44
397.249	2166.44
397.474	2162.44
397.698	2176.44
397.922	2236.44
398.147	2347.44
398.371	2429.44
398.595	2429.44
398.82	2305.44
399.044	2360.44
399.268	2454.44
399.492	2624.44
399.717	2680.44
399.941	2675.44
400.165	2628.44
400.389	2589.44
400.613	2590.44
400.837	2893.44
401.062	3217.44
401.286	2719.44
401.51	2560.44
401.734	2609.44
401.958	2498.44
402.182	2373.44
402.406	2275.44
402.63	2229.44
402.854	2280.44
403.078	2357.44
403.302	2360.44
403.526	2426.44
403.75	2409.44
403.974	2416.44
404.198	2426.44
404.422	2539.44
404.645	2608.44
404.869	2457.44
405.093	2382.44
405.317	2336.44
405.541	2392.44
405.765	2423.44
405.988	2378.44
406.212	2456.44
406.436	2502.44
406.66	2589.44
406.883	2643.44
407.107	2935.44
407.331	3195.44
407.555	3361.44
407.778	3005.44
408.002	2573.44
408.226	2526.44
408.449	2564.44
408.673	2448.44
408.896	2474.44
409.12	2468.44
409.344	2406.44
409.567	2368.44
409.791	2392.44
410.014	2465.44
410.238	2630.44
410.461	2729.44
410.685	2436.44
410.908	2349.44
411.132	2405.44
411.355	2359.44
411.578	2364.44
411.802	2361.44
412.025	2391.44
412.249	2358.44
412.472	2314.44
412.695	2282.44
412.919	2247.44
413.142	2286.44
413.365	2315.44
413.589	2364.44
413.812	2518.44
414.035	2505.44
414.258	2384.44
414.482	2322.44
414.705	2322.44
414.928	2290.44
415.151	2258.44
415.374	2289.44
415.597	2366.44
415.821	2348.44
416.044	2401.44
416.267	2380.44
416.49	2249.44
416.713	2257.44
416.936	2331.44
417.159	2422.44
417.382	2413.44
417.605	2274.44
417.828	2279.44
418.051	2370.44
418.274	2316.44
418.497	2237.44
418.72	2260.44
418.943	2216.44
419.166	2372.44
419.389	2467.44
419.611	2352.44
419.834	2312.44
420.057	2316.44
420.28	2285.44
420.503	2266.44
420.726	2370.44
420.948	2340.44
421.171	2219.44
421.394	2283.44
421.617	2361.44
421.839	2349.44
422.062	2314.44
422.285	2271.44
422.507	2265.44
422.73	2195.44
422.953	2162.44
423.175	2173.44
423.398	2222.44
423.621	2225.44
423.843	2292.44
424.066	2335.44
424.288	2425.44
424.511	2460.44
424.733	2370.44
424.956	2144.44
425.178	2186.44
425.401	2244.44
425.623	2250.44
425.846	2201.44
426.068	2308.44
426.291	2332.44
426.513	2316.44
426.735	2368.44
426.958	2517.44
427.18	2568.44
427.402	2400.44
427.625	2409.44
427.847	2366.44
428.069	2240.44
428.292	2194.44
428.514	2164.44
428.736	2122.44
428.958	2191.44
429.181	2218.44
429.403	2570.44
429.625	2989.44
429.847	2554.44
430.069	2258.44
430.292	2480.44
430.514	2501.44
430.736	2368.44
430.958	2428.44
431.18	2312.44
431.402	2139.44
431.624	2106.44
431.846	2079.44
432.068	1980.44
432.29	2003.44
432.512	2080.44
432.734	2194.44
432.956	2267.44
433.178	2338.44
433.4	2320.44
433.622	2289.44
433.844	2175.44
434.066	2082.44
434.287	2060.44
434.509	2140.44
434.731	2207.44
434.953	2391.44
435.175	2328.44
435.397	2253.44
435.618	2242.44
435.84	2152.44
436.062	2164.44
436.284	2243.44
436.505	2232.44
436.727	2350.44
436.949	2238.44
437.17	2187.44
437.392	2157.44
437.614	2108.44
437.835	2033.44
438.057	2160.44
438.278	2199.44
438.5	2140.44
438.721	2136.44
438.943	2196.44
439.165	2162.44
439.386	2153.44
439.608	2180.44
439.829	2195.44
440.05	2222.44
440.272	2175.44
440.493	2189.44
440.715	2233.44
440.936	2389.44
441.158	2522.44
441.379	2446.44
441.6	2439.44
441.822	2411.44
442.043	2343.44
442.264	2349.44
442.486	2221.44
442.707	2189.44
442.928	2198.44
443.149	2284.44
443.371	2388.44
443.592	2421.44
443.813	2405.44
444.034	2403.44
444.255	2418.44
444.476	2490.44
444.698	2464.44
444.919	2484.44
445.14	2556.44
445.361	2513.44
445.582	2595.44
445.803	2480.44
446.024	2386.44
446.245	2483.44
446.466	2426.44
446.687	2343.44
446.908	2375.44
447.129	2289.44
447.35	2254.44
447.571	2253.44
447.792	2205.44
448.013	2170.44
448.234	2201.44
448.455	2361.44
448.675	2269.44
448.896	2100.44
449.117	2094.44
449.338	2140.44
449.559	2218.44
449.779	2310.44
450	2496.44
450.221	2600.44
450.442	2533.44
450.662	2255.44
450.883	2055.44
451.104	2028.44
451.324	2085.44
451.545	2130.44
451.766	2071.44
451.986	1988.44
452.207	1993.44
452.428	1906.44
452.648	1868.44
452.869	1961.44
453.089	2017.44
453.31	2031.44
453.53	2011.44
453.751	1988.44
453.971	1869.44
454.192	1929.44
454.412	2035.44
454.633	1980.44
454.853	1987.44
455.073	1875.44
455.294	1868.44
455.514	1846.44
455.734	1874.44
455.955	1878.44
456.175	1902.44
456.395	1876.44
456.616	1953.44
456.836	1945.44
457.056	1916.44
457.276	1875.44
457.497	1887.44
457.717	1796.44
457.937	1834.44
458.157	1871.44
458.377	1866.44
458.598	1807.44
458.818	1866.44
459.038	1924.44
459.258	2025.44
459.478	2021.44
459.698	1952.44
459.918	2027.44
460.138	2154.44
460.358	2161.44
460.578	2171.44
460.798	2294.44
461.018	2389.44
461.238	2312.44
461.458	2168.44
461.678	2229.44
461.898	2164.44
462.118	2126.44
462.338	2207.44
462.558	2219.44
462.777	2210.44
462.997	2384.44
463.217	2423.44
463.437	2386.44
463.657	2293.44
463.876	2217.44
464.096	2162.44
464.316	2216.44
464.536	2282.44
464.755	2336.44
464.975	2284.44
465.195	2258.44
465.414	2318.44
465.634	2309.44
465.854	2241.44
466.073	2450.44
466.293	2386.44
466.512	2108.44
466.732	2122.44
466.951	2181.44
467.171	2182.44
467.391	2091.44
467.61	2089.44
467.829	2122.44
468.049	2314.44
468.268	2497.44
468.488	2349.44
468.707	2199.44
468.927	2154.44
469.146	2116.44
469.365	2122.44
469.585	2160.44
469.804	2134.44
470.023	2174.44
470.243	2188.44
470.462	2131.44
470.681	2132.44
470.901	2144.44
471.12	2204.44
471.339	2136.44
471.558	2072.44
471.777	2073.44
471.997	2120.44
472.216	2037.44
472.435	1972.44
472.654	1965.44
472.873	2014.44
473.092	2146.44
473.311	2100.44
473.53	1976.44
473.749	1995.44
473.968	2086.44
474.187	2121.44
474.406	2186.44
474.625	2149.44
474.844	2113.44
475.063	2151.44
475.282	2181.44
475.501	2072.44
475.72	2091.44
475.939	2266.44
476.158	2157.44
476.377	2119.44
476.596	2160.44
476.814	2116.44
477.033	2146.44
477.252	2252.44
477.471	2284.44
477.69	2260.44
477.908	2298.44
478.127	2360.44
478.346	2479.44
478.564	2522.44
478.783	2541.44
479.002	2518.44
479.22	2547.44
479.439	2597.44
479.658	2794.44
479.876	2727.44
480.095	2442.44
480.313	2340.44
480.532	2276.44
480.751	2289.44
480.969	2249.44
481.188	2250.44
481.406	2211.44
481.624	2151.44
481.843	2203.44
482.061	2236.44
482.28	2344.44
482.498	2368.44
482.717	2311.44
482.935	2289.44
483.153	2362.44
483.372	2418.44
483.59	2382.44
483.808	2400.44
484.027	2423.44
484.245	2528.44
484.463	2978.44
484.681	3274.44
484.9	2549.44
485.118	2409.44
485.336	2342.44
485.554	2414.44
485.772	2459.44
485.99	2428.44
486.209	2413.44
486.427	2430.44
486.645	2458.44
486.863	2481.44
487.081	2559.44
487.299	2572.44
487.517	2553.44
487.735	2507.44
487.953	2595.44
488.171	2589.44
488.389	2515.44
488.607	2540.44
488.825	2764.44
489.043	2679.44
489.261	2445.44
489.479	2542.44
489.696	2622.44
489.914	2601.44
490.132	2522.44
490.35	2580.44
490.568	2695.44
490.786	2638.44
491.003	2572.44
491.221	2622.44
491.439	2738.44
491.657	2769.44
491.874	2783.44
492.092	2870.44
492.31	2919.44
492.527	2848.44
492.745	2760.44
492.963	2731.44
493.18	2807.44
493.398	2939.44
493.615	2956.44
493.833	2763.44
494.05	2725.44
494.268	2719.44
494.485	2781.44
494.703	2738.44
494.92	2654.44
495.138	2726.44
495.355	2692.44
495.573	2826.44
495.79	2969.44
496.008	2944.44
496.225	2796.44
496.442	2797.44
496.66	2834.44
496.877	2772.44
497.094	2869.44
497.312	2855.44
497.529	2820.44
497.746	2851.44
497.963	3292.44
498.181	3514.44
498.398	3335.44
498.615	3259.44
498.832	3172.44
499.049	3145.44
499.267	3200.44
499.484	3358.44
499.701	3612.44
499.918	3702.44
500.135	4005.44
500.352	4244.44
500.569	4228.44
500.786	4426.44
501.003	4114.44
501.22	3792.44
501.437	3687.44
501.654	3729.44
501.871	3582.44
502.088	3152.44
502.305	3113.44
502.522	2992.44
502.739	2857.44
502.956	2780.44
503.172	2765.44
503.389	2645.44
503.606	2600.44
503.823	2628.44
504.04	2631.44
504.256	2664.44
504.473	2633.44
504.69	2692.44
504.907	2566.44
505.123	2476.44
505.34	2654.44
505.557	3457.44
505.773	2854.44
505.99	2430.44
506.207	2302.44
506.423	2306.44
506.64	2224.44
506.856	2302.44
507.073	2610.44
507.289	2767.44
507.506	2592.44
507.722	2237.44
507.939	2202.44
508.155	2199.44
508.372	2189.44
508.588	2094.44
508.805	2038.44
509.021	2053.44
509.238	2020.44
509.454	2050.44
509.67	2019.44
509.887	1945.44
510.103	1992.44
510.319	2046.44
510.536	2102.44
510.752	2169.44
510.968	2134.44
511.184	2268.44
511.401	2168.44
511.617	1994.44
511.833	1962.44
512.049	1938.44
512.265	1939.44
512.481	1940.44
512.698	1981.44
512.914	2143.44
513.13	2068.44
513.346	1992.44
513.562	1933.44
513.778	1967.44
513.994	2057.44
514.21	2082.44
514.426	2107.44
514.642	2311.44
514.858	2143.44
515.074	1990.44
515.29	1965.44
515.506	2066.44
515.721	2052.44
515.937	2055.44
516.153	2299.44
516.369	2208.44
516.585	2113.44
516.801	2074.44
517.016	2025.44
517.232	2051.44
517.448	2098.44
517.664	2163.44
517.879	2132.44
518.095	2261.44
518.311	2171.44
518.527	2082.44
518.742	2039.44
518.958	1976.44
519.173	1982.44
519.389	2049.44
519.605	2016.44
519.82	2057.44
520.036	2109.44
520.251	2048.44
520.467	2027.44
520.682	2212.44
520.898	2194.44
521.113	1944.44
521.329	1944.44
521.544	2076.44
521.76	2015.44
521.975	1909.44
522.19	1915.44
522.406	1923.44
522.621	2437.44
522.836	2272.44
523.052	1926.44
523.267	1896.44
523.482	1944.44
523.698	1882.44
523.913	1800.44
524.128	1852.44
524.343	2049.44
524.559	1999.44
524.774	1877.44
524.989	1861.44
525.204	1874.44
525.419	1835.44
525.634	1819.44
525.849	1869.44
526.064	1825.44
526.28	1813.44
526.495	1780.44
526.71	1732.44
526.925	1696.44
527.14	1720.44
527.355	1683.44
527.57	1685.44
527.785	1804.44
527.999	1722.44
528.214	1714.44
528.429	1726.44
528.644	1762.44
528.859	1835.44
529.074	1839.44
529.289	1892.44
529.503	1882.44
529.718	1870.44
529.933	1760.44
530.148	1697.44
530.363	1660.44
530.577	1710.44
530.792	1704.44
531.007	1693.44
531.221	1689.44
531.436	1753.44
531.651	1780.44
531.865	1854.44
532.08	1776.44
532.295	1690.44
532.509	1618.44
532.724	1658.44
532.938	1771.44
533.153	1836.44
533.367	1796.44
533.582	1786.44
533.796	1733.44
534.011	1765.44
534.225	1758.44
534.44	1666.44
534.654	1710.44
534.868	1678.44
535.083	1770.44
535.297	1792.44
535.511	1709.44
535.726	1722.44
535.94	1740.44
536.154	1693.44
536.369	1672.44
536.583	1614.44
536.797	1624.44
537.011	1684.44
537.225	1623.44
537.44	1601.44
537.654	1670.44
537.868	1600.44
538.082	1522.44
538.296	1579.44
538.51	1561.44
538.724	1636.44
538.938	1641.44
539.153	1721.44
539.367	1716.44
539.581	1651.44
539.795	1716.44
540.009	1676.44
540.222	1628.44
540.436	1666.44
540.65	1816.44
540.864	1850.44
541.078	1794.44
541.292	1784.44
541.506	1804.44
541.72	1891.44
541.934	1920.44
542.147	1997.44
542.361	1920.44
542.575	1853.44
542.789	1770.44
543.002	1653.44
543.216	1656.44
543.43	1724.44
543.644	1814.44
543.857	1898.44
544.071	1835.44
544.285	1877.44
544.498	1837.44
544.712	1814.44
544.925	1851.44
545.139	1918.44
545.352	1857.44
545.566	1797.44
545.779	1818.44
545.993	1827.44
546.206	1869.44
546.42	1805.44
546.633	1784.44
546.847	1766.44
547.06	1806.44
547.274	1807.44
547.487	1858.44
547.7	1857.44
547.914	1818.44
548.127	1819.44
548.34	1830.44
548.554	1809.44
548.767	1807.44
548.98	1792.44
549.193	1819.44
549.407	1862.44
549.62	1880.44
549.833	1756.44
550.046	1750.44
550.259	1761.44
550.473	1749.44
550.686	1744.44
550.899	1726.44
551.112	1664.44
551.325	1659.44
551.538	1717.44
551.751	1895.44
551.964	1592.44
552.177	1596.44
552.39	1582.44
552.603	1696.44
552.816	1694.44
553.029	1777.44
553.242	1831.44
553.455	1777.44
553.667	1768.44
553.88	1751.44
554.093	1693.44
554.306	1688.44
554.519	1606.44
554.732	1597.44
554.944	1661.44
555.157	1646.44
555.37	1621.44
555.583	1599.44
555.795	1561.44
556.008	1541.44
556.221	1465.44
556.433	1461.44
556.646	1486.44
556.859	1485.44
557.071	1524.44
557.284	1457.44
557.496	1474.44
557.709	1458.44
557.921	1423.44
558.134	1449.44
558.346	1439.44
558.559	1404.44
558.771	1432.44
558.984	1382.44
559.196	1325.44
559.409	1348.44
559.621	1314.44
559.833	1322.44
560.046	1402.44
560.258	1375.44
560.47	1376.44
560.683	1392.44
560.895	1394.44
561.107	1345.44
561.32	1406.44
561.532	1400.44
561.744	1347.44
561.956	1399.44
562.168	1339.44
562.381	1270.44
562.593	1307.44
562.805	1315.44
563.017	1327.44
563.229	1359.44
563.441	1321.44
563.653	1277.44
563.865	1290.44
564.077	1329.44
564.289	1320.44
564.501	1339.44
564.713	1351.44
564.925	1386.44
565.137	1473.44
565.349	1362.44
565.561	1353.44
565.773	1376.44
565.985	1367.44
566.197	1465.44
566.408	1541.44
566.62	1555.44
566.832	1553.44
567.044	1527.44
567.255	1520.44
567.467	1546.44
567.679	1564.44
567.891	1593.44
568.102	1505.44
568.314	1469.44
568.526	1413.44
568.737	1332.44
568.949	1248.44
569.161	1222.44
569.372	1169.44
569.584	1131.44
569.795	1172.44
570.007	1136.44
570.218	1096.44
570.43	1100.44
570.641	1119.44
570.853	1116.44
571.064	1150.44
571.276	1115.44
571.487	1104.44
571.698	1055.44
571.91	1074.44
572.121	1069.44
572.333	1029.44
572.544	1001.44
572.755	986.44
572.966	992.44
573.178	974.44
573.389	1004.44
573.6	1026.44
573.811	1056.44
574.023	941.44
574.234	926.44
574.445	949.44
574.656	906.44
574.867	939.44
575.078	927.44
575.289	929.44
575.501	960.44
575.712	944.44
575.923	928.44
576.134	976.44
576.345	896.44
576.556	922.44
576.767	890.44
576.978	890.44
577.188	871.44
577.399	896.44
577.61	871.44
577.821	863.44
578.032	854.44
578.243	845.44
578.454	842.44
578.665	843.44
578.875	818.44
579.086	819.44
579.297	804.44
579.508	856.44
579.718	843.44
579.929	830.44
580.14	801.44
580.35	800.44
580.561	832.44
580.772	899.44
580.982	833.44
581.193	823.44
581.403	803.44
581.614	794.44
581.825	792.44
582.035	787.44
582.246	771.44
582.456	803.44
582.667	813.44
582.877	790.44
583.087	798.44
583.298	773.44
583.508	774.44
583.719	783.44
583.929	776.44
584.139	784.44
584.35	736.44
584.56	767.44
584.77	772.44
584.981	771.44
585.191	781.44
585.401	814.44
585.611	796.44
585.821	769.44
586.032	733.44
586.242	725.44
586.452	737.44
586.662	774.44
586.872	731.44
587.082	725.44
587.292	762.44
587.502	780.44
587.713	756.44
587.923	769.44
588.133	736.44
588.343	759.44
588.553	735.44
588.762	713.44
588.972	713.44
589.182	754.44
589.392	737.44
589.602	762.44
589.812	735.44
590.022	714.44
590.232	737.44
590.441	740.44
590.651	768.44
590.861	726.44
591.071	704.44
591.281	710.44
591.49	704.44
591.7	714.44
591.91	701.44
592.119	706.44
592.329	734.44
592.539	726.44
592.748	743.44
592.958	761.44
593.167	752.44
593.377	786.44
593.587	750.44
593.796	741.44
594.006	765.44
594.215	771.44
594.424	763.44
594.634	755.44
594.843	741.44
595.053	754.44
595.262	763.44
595.472	715.44
595.681	721.44
595.89	713.44
596.1	712.44
596.309	709.44
596.518	689.44
596.727	704.44
596.937	701.44
597.146	678.44
597.355	650.44
597.564	653.44
597.774	653.44
597.983	643.44
598.192	641.44
598.401	644.44
598.61	651.44
598.819	641.44
599.028	662.44
599.237	639.44
599.446	616.44
599.655	611.44
599.864	629.44
600.073	622.44
600.282	620.44
600.491	613.44
600.7	633.44
600.909	613.44
601.118	636.44
601.327	638.44
601.536	652.44
601.745	645.44
601.953	670.44
602.162	648.44
602.371	678.44
602.58	637.44
602.789	668.44
602.997	658.44
603.206	675.44
603.415	642.44
603.623	647.44
603.832	644.44
604.041	633.44
604.249	635.44
604.458	617.44
604.666	620.44
604.875	600.44
605.084	618.44
605.292	652.44
605.501	634.44
605.709	648.44
605.918	643.44
606.126	651.44
606.334	662.44
606.543	648.44
606.751	642.44
606.96	636.44
607.168	653.44
607.376	616.44
607.585	633.44
607.793	617.44
608.001	640.44
608.21	648.44
608.418	629.44
608.626	648.44
608.834	608.44
609.043	638.44
609.251	636.44
609.459	628.44
609.667	636.44
609.875	642.44
610.083	637.44
610.291	641.44
610.499	622.44
610.707	624.44
610.916	647.44
611.124	624.44
611.332	617.44
611.54	619.44
611.748	621.44
611.955	609.44
612.163	624.44
612.371	606.44
612.579	609.44
612.787	617.44
612.995	613.44
613.203	626.44
613.411	617.44
613.618	606.44
613.826	626.44
614.034	594.44
614.242	603.44
614.449	592.44
614.657	627.44
614.865	590.44
615.072	617.44
615.28	613.44
615.488	610.44
615.695	641.44
615.903	600.44
616.111	619.44
616.318	601.44
616.526	605.44
616.733	589.44
616.941	601.44
617.148	575.44
617.356	569.44
617.563	594.44
617.771	577.44
617.978	580.44
618.185	577.44
618.393	555.44
618.6	613.44
618.807	586.44
619.015	598.44
619.222	566.44
619.429	564.44
619.637	569.44
619.844	536.44
620.051	521.44
620.258	559.44
620.466	555.44
620.673	535.44
620.88	523.44
621.087	556.44
621.294	505.44
621.501	524.44
621.708	520.44
621.915	552.44
622.122	558.44
622.329	545.44
622.536	530.44
622.743	537.44
622.95	543.44
623.157	520.44
623.364	553.44
623.571	541.44
623.778	520.44
623.985	534.44
624.192	535.44
624.399	517.44
624.606	515.44
624.812	522.44
625.019	517.44
625.226	508.44
625.433	515.44
625.639	484.44
625.846	492.44
626.053	480.44
626.259	435.44
626.466	457.44
626.673	455.44
626.879	454.44
627.086	435.44
627.293	461.44
627.499	489.44
627.706	500.44
627.912	481.44
628.119	508.44
628.325	502.44
628.532	498.44
628.738	486.44
628.945	480.44
629.151	477.44
629.357	463.44
629.564	476.44
629.77	470.44
629.976	455.44
630.183	437.44
630.389	458.44
630.595	469.44
630.802	466.44
631.008	446.44
631.214	465.44
631.42	442.44
631.627	448.44
631.833	439.44
632.039	438.44
632.245	454.44
632.451	447.44
632.657	441.44
632.863	416.44
633.069	433.44
633.275	443.44
633.481	408.44
633.688	434.44
633.893	425.44
634.099	428.44
634.305	415.44
634.511	410.44
634.717	408.44
634.923	405.44
635.129	395.44
635.335	407.44
635.541	430.44
635.747	408.44
635.952	413.44
636.158	416.44
636.364	419.44
636.57	421.44
636.775	454.44
636.981	419.44
637.187	436.44
637.392	431.44
637.598	446.44
637.804	415.44
638.009	432.44
638.215	418.44
638.421	418.44
638.626	397.44
638.832	397.44
639.037	394.44
639.243	395.44
639.448	395.44
639.654	399.44
639.859	396.44
640.065	404.44
640.27	379.44
640.475	407.44
640.681	403.44
640.886	384.44
641.091	380.44
641.297	409.44
641.502	409.44
641.707	378.44
641.913	394.44
642.118	386.44
642.323	398.44
642.528	388.44
642.733	378.44
642.939	379.44
643.144	405.44
643.349	403.44
643.554	403.44
643.759	406.44
643.964	375.44
644.169	376.44
644.374	373.44
644.579	392.44
644.784	405.44
644.989	386.44
645.194	384.44
645.399	378.44
645.604	373.44
645.809	392.44
646.014	380.44
646.219	360.44
646.423	366.44
646.628	373.44
646.833	374.44
647.038	362.44
647.243	389.44
647.447	381.44
647.652	388.44
647.857	396.44
648.062	389.44
648.266	387.44
648.471	389.44
648.676	386.44
648.88	391.44
649.085	379.44
649.289	374.44
649.494	364.44
649.698	387.44
649.903	374.44
650.107	362.44
650.312	376.44
650.516	352.44
650.721	374.44
650.925	359.44
651.13	368.44
651.334	352.44
651.539	350.44
651.743	347.44
651.947	337.44
652.152	344.44
652.356	337.44
652.56	332.44
652.764	320.44
652.969	331.44
653.173	322.44
653.377	314.44
653.581	325.44
653.785	330.44
653.99	323.44
654.194	324.44
654.398	315.44
654.602	297.44
654.806	301.44
655.01	314.44
655.214	314.44
655.418	314.44
655.622	304.44
655.826	320.44
656.03	343.44
656.234	346.44
656.438	353.44
656.642	352.44
656.846	333.44
657.049	314.44
657.253	309.44
657.457	295.44
657.661	284.44
657.865	261.44
658.068	236.44
658.272	217.44
658.476	212.44
658.68	195.44
658.883	196.44
659.087	189.44
659.291	202.44
659.494	190.44
659.698	169.44
659.901	170.44
660.105	157.44
660.309	166.44
660.512	154.44
660.716	140.44
660.919	140.44
661.123	140.44
661.326	129.44
661.53	130.44
661.733	132.44
661.936	119.44
662.14	125.44
662.343	117.44
662.546	106.44
662.75	119.44
662.953	106.44
663.156	105.44
663.36	105.44
663.563	85.44
663.766	84.44
663.969	88.44
664.173	95.44
664.376	77.44
664.579	94.44
664.782	90.44
664.985	93.44
665.188	84.44
665.391	90.44
665.594	90.44
665.797	82.44
666	83.44
666.203	82.44
666.406	93.44
666.609	81.44
666.812	85.44
667.015	95.44
667.218	92.44
667.421	83.44
667.624	82.44
667.827	85.44
668.03	77.44
668.232	79.44
668.435	86.44
668.638	89.44
668.841	73.44
669.043	78.44
669.246	86.44
669.449	81.44
669.651	85.44
669.854	99.44
670.057	86.44
670.259	85.44
670.462	91.44
670.665	77.44
670.867	85.44
671.07	88.44
671.272	83.44
671.475	77.44
671.677	83.44
671.88	81.44
672.082	78.44
672.284	79.44
672.487	80.44
672.689	91.44
672.892	82.44
