Data from WStandard_LampEnergy5.5LIBS07252019.E.O._I.C._HRD10591_16-08-37-921.txt Node
Date: Thu Jul 25 16:08:37 EDT 2019
User: cochatt
Spectrometer: HR+D1059
Trigger mode: 1
Integration Time (sec): 1.000000E-1
Scans to average: 1
Electric dark correction enabled: true
Nonlinearity correction enabled: false
Boxcar width: 0
XAxis mode: Wavelengths
Number of Pixels in Spectrum: 2048
>>>>>Begin Spectral Data<<<<<
223.165	-20.44
223.4	-20.44
223.635	-20.44
223.869	-33.44
224.104	-21.44
224.338	-11.44
224.573	-5.44
224.808	-8.44
225.042	-2.44
225.277	-12.44
225.511	8.56
225.746	-11.44
225.98	2.56
226.215	14.56
226.449	28.56
226.683	17.56
226.918	17.56
227.152	37.56
227.387	35.56
227.621	30.56
227.856	32.56
228.09	33.56
228.324	62.56
228.559	45.56
228.793	141.56
229.027	369.56
229.262	376.56
229.496	388.56
229.73	391.56
229.964	439.56
230.199	443.56
230.433	467.56
230.667	478.56
230.901	516.56
231.136	474.56
231.37	466.56
231.604	469.56
231.838	473.56
232.072	448.56
232.306	438.56
232.541	471.56
232.775	530.56
233.009	592.56
233.243	576.56
233.477	520.56
233.711	530.56
233.945	532.56
234.179	520.56
234.413	586.56
234.647	631.56
234.881	591.56
235.115	544.56
235.349	528.56
235.583	558.56
235.817	562.56
236.051	522.56
236.285	539.56
236.519	586.56
236.753	633.56
236.987	674.56
237.221	665.56
237.455	721.56
237.689	709.56
237.922	661.56
238.156	659.56
238.39	653.56
238.624	711.56
238.858	720.56
239.091	761.56
239.325	772.56
239.559	880.56
239.793	924.56
240.027	1011.56
240.26	1007.56
240.494	745.56
240.728	719.56
240.961	707.56
241.195	749.56
241.429	789.56
241.662	796.56
241.896	760.56
242.13	758.56
242.363	807.56
242.597	904.56
242.83	884.56
243.064	877.56
243.298	930.56
243.531	926.56
243.765	922.56
243.998	913.56
244.232	808.56
244.465	752.56
244.699	792.56
244.932	876.56
245.166	1027.56
245.399	976.56
245.633	888.56
245.866	891.56
246.099	928.56
246.333	936.56
246.566	937.56
246.8	1044.56
247.033	1134.56
247.266	1063.56
247.5	1038.56
247.733	1027.56
247.966	1116.56
248.2	1220.56
248.433	1142.56
248.666	1208.56
248.899	1285.56
249.133	1497.56
249.366	1736.56
249.599	1447.56
249.832	1178.56
250.066	1283.56
250.299	1286.56
250.532	1170.56
250.765	1072.56
250.998	1134.56
251.231	1202.56
251.465	1217.56
251.698	1158.56
251.931	1147.56
252.164	1185.56
252.397	1216.56
252.63	1243.56
252.863	1091.56
253.096	1080.56
253.329	1145.56
253.562	1198.56
253.795	1241.56
254.028	1244.56
254.261	1173.56
254.494	1132.56
254.727	1085.56
254.96	1136.56
255.193	1212.56
255.426	1396.56
255.659	1596.56
255.892	1672.56
256.124	1349.56
256.357	1300.56
256.59	1402.56
256.823	1392.56
257.056	1423.56
257.289	1672.56
257.521	1908.56
257.754	1666.56
257.987	1562.56
258.22	1746.56
258.452	1723.56
258.685	1389.56
258.918	1334.56
259.151	1372.56
259.383	1300.56
259.616	1138.56
259.849	1220.56
260.081	1378.56
260.314	1521.56
260.547	1650.56
260.779	1702.56
261.012	1589.56
261.244	1428.56
261.477	1355.56
261.71	1408.56
261.942	1379.56
262.175	1349.56
262.407	1437.56
262.64	1378.56
262.872	1267.56
263.105	1233.56
263.337	1233.56
263.57	1270.56
263.802	1280.56
264.035	1204.56
264.267	1120.56
264.499	1110.56
264.732	1218.56
264.964	1268.56
265.197	1340.56
265.429	1358.56
265.661	1539.56
265.894	1684.56
266.126	1804.56
266.358	1586.56
266.591	1626.56
266.823	1764.56
267.055	1615.56
267.287	1573.56
267.52	1528.56
267.752	1506.56
267.984	1497.56
268.216	1605.56
268.448	1655.56
268.681	1621.56
268.913	1513.56
269.145	1404.56
269.377	1362.56
269.609	1476.56
269.841	1716.56
270.073	2010.56
270.306	2201.56
270.538	2412.56
270.77	2037.56
271.002	1692.56
271.234	1640.56
271.466	1590.56
271.698	1801.56
271.93	2121.56
272.162	2154.56
272.394	1932.56
272.626	1904.56
272.858	1642.56
273.09	1429.56
273.322	1429.56
273.553	1356.56
273.785	1344.56
274.017	1436.56
274.249	1556.56
274.481	1570.56
274.713	1415.56
274.945	1392.56
275.176	1398.56
275.408	1405.56
275.64	1361.56
275.872	1349.56
276.104	1421.56
276.335	1650.56
276.567	1876.56
276.799	1885.56
277.031	1684.56
277.262	1595.56
277.494	1632.56
277.726	1796.56
277.957	1810.56
278.189	1637.56
278.421	1512.56
278.652	1468.56
278.884	1447.56
279.115	1466.56
279.347	1492.56
279.579	1464.56
279.81	1450.56
280.042	1595.56
280.273	1740.56
280.505	1747.56
280.736	1805.56
280.968	1692.56
281.199	1485.56
281.431	1441.56
281.662	1411.56
281.894	1388.56
282.125	1419.56
282.356	1504.56
282.588	1532.56
282.819	1531.56
283.051	1594.56
283.282	1767.56
283.513	1715.56
283.745	1515.56
283.976	1381.56
284.207	1389.56
284.439	1458.56
284.67	1435.56
284.901	1484.56
285.132	1531.56
285.364	1497.56
285.595	1518.56
285.826	1458.56
286.057	1481.56
286.288	1516.56
286.52	1503.56
286.751	1664.56
286.982	1731.56
287.213	1577.56
287.444	1428.56
287.675	1418.56
287.906	1539.56
288.138	1616.56
288.369	1611.56
288.6	1513.56
288.831	1413.56
289.062	1398.56
289.293	1459.56
289.524	1511.56
289.755	1518.56
289.986	1570.56
290.217	1445.56
290.448	1427.56
290.679	1524.56
290.91	1512.56
291.141	1564.56
291.371	1611.56
291.602	1577.56
291.833	1586.56
292.064	1649.56
292.295	1590.56
292.526	1639.56
292.757	1696.56
292.987	1644.56
293.218	1504.56
293.449	1632.56
293.68	1909.56
293.91	2012.56
294.141	1856.56
294.372	1781.56
294.603	1758.56
294.833	1909.56
295.064	1828.56
295.295	1659.56
295.525	1586.56
295.756	1497.56
295.987	1400.56
296.217	1422.56
296.448	1468.56
296.679	1472.56
296.909	1509.56
297.14	1448.56
297.37	1469.56
297.601	1540.56
297.831	1703.56
298.062	1693.56
298.292	1560.56
298.523	1492.56
298.753	1475.56
298.984	1512.56
299.214	1495.56
299.445	1546.56
299.675	1583.56
299.905	1600.56
300.136	1555.56
300.366	1501.56
300.597	1473.56
300.827	1484.56
301.057	1508.56
301.288	1629.56
301.518	1595.56
301.748	1606.56
301.979	1709.56
302.209	1712.56
302.439	1863.56
302.669	1972.56
302.9	1785.56
303.13	1628.56
303.36	1614.56
303.59	1642.56
303.82	1646.56
304.051	1597.56
304.281	1632.56
304.511	1637.56
304.741	1713.56
304.971	1896.56
305.201	2048.56
305.431	1894.56
305.661	1569.56
305.891	1418.56
306.121	1426.56
306.352	1491.56
306.582	1577.56
306.812	1652.56
307.042	1765.56
307.272	1782.56
307.502	1844.56
307.731	1987.56
307.961	2091.56
308.191	1932.56
308.421	1663.56
308.651	1553.56
308.881	1560.56
309.111	1565.56
309.341	1545.56
309.571	1554.56
309.8	1561.56
310.03	1563.56
310.26	1527.56
310.49	1520.56
310.72	1574.56
310.949	1629.56
311.179	1642.56
311.409	1656.56
311.639	1586.56
311.868	1528.56
312.098	1572.56
312.328	1603.56
312.557	1550.56
312.787	1609.56
313.017	1635.56
313.246	1600.56
313.476	1588.56
313.706	1707.56
313.935	1609.56
314.165	1630.56
314.394	1689.56
314.624	1795.56
314.853	1912.56
315.083	1962.56
315.312	1960.56
315.542	1892.56
315.771	1662.56
316.001	1642.56
316.23	1771.56
316.46	1793.56
316.689	1724.56
316.919	1694.56
317.148	1576.56
317.377	1613.56
317.607	1748.56
317.836	1930.56
318.065	2007.56
318.295	1962.56
318.524	1810.56
318.753	1731.56
318.983	1780.56
319.212	1738.56
319.441	1710.56
319.67	1683.56
319.9	1698.56
320.129	1789.56
320.358	1860.56
320.587	1933.56
320.816	1889.56
321.046	1861.56
321.275	1724.56
321.504	1746.56
321.733	1925.56
321.962	1892.56
322.191	1737.56
322.42	1735.56
322.649	1705.56
322.878	1683.56
323.108	1690.56
323.337	1756.56
323.566	1770.56
323.795	1760.56
324.024	1748.56
324.253	1726.56
324.482	1741.56
324.71	1704.56
324.939	1570.56
325.168	1614.56
325.397	1684.56
325.626	1767.56
325.855	1803.56
326.084	1688.56
326.313	1716.56
326.542	1722.56
326.77	1770.56
326.999	1802.56
327.228	1713.56
327.457	1628.56
327.686	1638.56
327.914	1650.56
328.143	1720.56
328.372	1726.56
328.6	1699.56
328.829	1696.56
329.058	1657.56
329.287	1689.56
329.515	1698.56
329.744	1732.56
329.972	1829.56
330.201	1902.56
330.43	1886.56
330.658	1777.56
330.887	1798.56
331.115	1805.56
331.344	1812.56
331.572	1817.56
331.801	1764.56
332.03	1804.56
332.258	1796.56
332.486	1824.56
332.715	1843.56
332.943	1817.56
333.172	1773.56
333.4	1808.56
333.629	1842.56
333.857	1970.56
334.085	2122.56
334.314	2434.56
334.542	2699.56
334.771	2441.56
334.999	2153.56
335.227	2029.56
335.455	1949.56
335.684	1933.56
335.912	1909.56
336.14	2042.56
336.369	1968.56
336.597	1868.56
336.825	1819.56
337.053	1884.56
337.281	1942.56
337.51	2040.56
337.738	2136.56
337.966	2080.56
338.194	1851.56
338.422	1767.56
338.65	1750.56
338.878	1787.56
339.106	1731.56
339.334	1703.56
339.562	1697.56
339.79	1705.56
340.018	1820.56
340.246	1907.56
340.474	1897.56
340.702	1841.56
340.93	1824.56
341.158	1828.56
341.386	1835.56
341.614	1770.56
341.842	1743.56
342.07	1796.56
342.298	1798.56
342.526	1811.56
342.754	1725.56
342.981	1732.56
343.209	1704.56
343.437	1726.56
343.665	1755.56
343.893	1805.56
344.12	1890.56
344.348	1929.56
344.576	1881.56
344.804	1784.56
345.031	1756.56
345.259	1802.56
345.487	1701.56
345.714	1661.56
345.942	1628.56
346.17	1641.56
346.397	1716.56
346.625	1712.56
346.853	1637.56
347.08	1620.56
347.308	1595.56
347.535	1656.56
347.763	1696.56
347.99	1692.56
348.218	1616.56
348.445	1628.56
348.673	1650.56
348.9	1666.56
349.128	1735.56
349.355	1818.56
349.583	1740.56
349.81	1693.56
350.037	1521.56
350.265	1528.56
350.492	1561.56
350.72	1614.56
350.947	1633.56
351.174	1714.56
351.402	1640.56
351.629	1581.56
351.856	1537.56
352.083	1554.56
352.311	1493.56
352.538	1581.56
352.765	1687.56
352.992	1674.56
353.22	1655.56
353.447	1590.56
353.674	1644.56
353.901	1678.56
354.128	1605.56
354.355	1574.56
354.583	1654.56
354.81	1705.56
355.037	1670.56
355.264	1716.56
355.491	1644.56
355.718	1680.56
355.945	1636.56
356.172	1643.56
356.399	1605.56
356.626	1603.56
356.853	1636.56
357.08	1733.56
357.307	1913.56
357.534	1963.56
357.761	1730.56
357.988	1582.56
358.215	1546.56
358.441	1588.56
358.668	1553.56
358.895	1626.56
359.122	1677.56
359.349	1850.56
359.576	1827.56
359.802	1615.56
360.029	1565.56
360.256	1599.56
360.483	1625.56
360.709	1640.56
360.936	1735.56
361.163	1737.56
361.39	1855.56
361.616	2091.56
361.843	2028.56
362.07	1907.56
362.296	1664.56
362.523	1602.56
362.749	1590.56
362.976	1686.56
363.203	1697.56
363.429	1623.56
363.656	1584.56
363.882	1635.56
364.109	1791.56
364.335	1969.56
364.562	1806.56
364.788	1741.56
365.015	1679.56
365.241	1570.56
365.468	1670.56
365.694	1698.56
365.92	1755.56
366.147	1706.56
366.373	1612.56
366.599	1569.56
366.826	1568.56
367.052	1571.56
367.278	1591.56
367.505	1634.56
367.731	1662.56
367.957	1686.56
368.184	1742.56
368.41	1814.56
368.636	1818.56
368.862	1815.56
369.089	1894.56
369.315	1794.56
369.541	1712.56
369.767	1641.56
369.993	1599.56
370.219	1637.56
370.445	1654.56
370.672	1729.56
370.898	1838.56
371.124	1801.56
371.35	1725.56
371.576	1720.56
371.802	1839.56
372.028	1776.56
372.254	1637.56
372.48	1682.56
372.706	1639.56
372.932	1640.56
373.158	1677.56
373.384	1691.56
373.61	1733.56
373.835	1842.56
374.061	1741.56
374.287	1710.56
374.513	1694.56
374.739	1759.56
374.965	1756.56
375.191	1766.56
375.416	1713.56
375.642	1782.56
375.868	1867.56
376.094	1935.56
376.319	1816.56
376.545	1696.56
376.771	1731.56
376.997	1794.56
377.222	1797.56
377.448	1781.56
377.674	1784.56
377.899	1765.56
378.125	1850.56
378.35	1908.56
378.576	1705.56
378.802	1682.56
379.027	1641.56
379.253	1703.56
379.478	1689.56
379.704	1707.56
379.929	1714.56
380.155	1685.56
380.38	1750.56
380.606	1746.56
380.831	1735.56
381.057	1814.56
381.282	1818.56
381.507	1800.56
381.733	1830.56
381.958	1941.56
382.184	1814.56
382.409	1732.56
382.634	1853.56
382.86	1757.56
383.085	1792.56
383.31	1822.56
383.535	1968.56
383.761	2084.56
383.986	2009.56
384.211	1942.56
384.436	1882.56
384.662	1961.56
384.887	2046.56
385.112	1954.56
385.337	2026.56
385.562	1952.56
385.787	2010.56
386.013	1977.56
386.238	2029.56
386.463	1990.56
386.688	2113.56
386.913	2230.56
387.138	2190.56
387.363	2027.56
387.588	2036.56
387.813	2012.56
388.038	2021.56
388.263	2091.56
388.488	2057.56
388.713	1868.56
388.938	1860.56
389.163	1871.56
389.387	1943.56
389.612	1920.56
389.837	1948.56
390.062	1971.56
390.287	1945.56
390.512	1923.56
390.736	1898.56
390.961	1910.56
391.186	1879.56
391.411	1916.56
391.636	1968.56
391.86	1946.56
392.085	1958.56
392.31	1944.56
392.534	1928.56
392.759	2019.56
392.984	1932.56
393.208	1981.56
393.433	2010.56
393.658	2107.56
393.882	2132.56
394.107	2019.56
394.331	1936.56
394.556	1979.56
394.78	1980.56
395.005	2022.56
395.229	2085.56
395.454	2245.56
395.678	2274.56
395.903	2191.56
396.127	2068.56
396.352	2078.56
396.576	2119.56
396.801	2188.56
397.025	2073.56
397.249	2165.56
397.474	2106.56
397.698	2092.56
397.922	2139.56
398.147	2249.56
398.371	2325.56
398.595	2312.56
398.82	2245.56
399.044	2281.56
399.268	2387.56
399.492	2505.56
399.717	2612.56
399.941	2626.56
400.165	2537.56
400.389	2514.56
400.613	2506.56
400.837	2694.56
401.062	3083.56
401.286	2703.56
401.51	2472.56
401.734	2568.56
401.958	2473.56
402.182	2332.56
402.406	2204.56
402.63	2189.56
402.854	2235.56
403.078	2267.56
403.302	2330.56
403.526	2328.56
403.75	2338.56
403.974	2314.56
404.198	2290.56
404.422	2394.56
404.645	2492.56
404.869	2475.56
405.093	2313.56
405.317	2242.56
405.541	2356.56
405.765	2371.56
405.988	2322.56
406.212	2377.56
406.436	2457.56
406.66	2487.56
406.883	2433.56
407.107	2793.56
407.331	3023.56
407.555	3281.56
407.778	3019.56
408.002	2563.56
408.226	2434.56
408.449	2486.56
408.673	2388.56
408.896	2393.56
409.12	2432.56
409.344	2411.56
409.567	2293.56
409.791	2370.56
410.014	2391.56
410.238	2454.56
410.461	2643.56
410.685	2416.56
410.908	2283.56
411.132	2349.56
411.355	2332.56
411.578	2235.56
411.802	2213.56
412.025	2385.56
412.249	2249.56
412.472	2216.56
412.695	2194.56
412.919	2230.56
413.142	2201.56
413.365	2272.56
413.589	2263.56
413.812	2361.56
414.035	2459.56
414.258	2251.56
414.482	2191.56
414.705	2241.56
414.928	2226.56
415.151	2199.56
415.374	2202.56
415.597	2222.56
415.821	2236.56
416.044	2364.56
416.267	2305.56
416.49	2152.56
416.713	2144.56
416.936	2176.56
417.159	2306.56
417.382	2276.56
417.605	2167.56
417.828	2232.56
418.051	2289.56
418.274	2196.56
418.497	2143.56
418.72	2151.56
418.943	2133.56
419.166	2286.56
419.389	2396.56
419.611	2269.56
419.834	2204.56
420.057	2237.56
420.28	2150.56
420.503	2161.56
420.726	2173.56
420.948	2190.56
421.171	2142.56
421.394	2172.56
421.617	2171.56
421.839	2197.56
422.062	2165.56
422.285	2094.56
422.507	2123.56
422.73	2067.56
422.953	2055.56
423.175	2061.56
423.398	2139.56
423.621	2087.56
423.843	2180.56
424.066	2203.56
424.288	2258.56
424.511	2263.56
424.733	2242.56
424.956	2037.56
425.178	2011.56
425.401	2076.56
425.623	2102.56
425.846	2057.56
426.068	2200.56
426.291	2215.56
426.513	2151.56
426.735	2172.56
426.958	2305.56
427.18	2460.56
427.402	2257.56
427.625	2252.56
427.847	2333.56
428.069	2154.56
428.292	2157.56
428.514	2040.56
428.736	2040.56
428.958	2062.56
429.181	2122.56
429.403	2322.56
429.625	2925.56
429.847	2549.56
430.069	2138.56
430.292	2332.56
430.514	2437.56
430.736	2226.56
430.958	2352.56
431.18	2289.56
431.402	2107.56
431.624	2048.56
431.846	2041.56
432.068	2025.56
432.29	2063.56
432.512	2108.56
432.734	2134.56
432.956	2136.56
433.178	2213.56
433.4	2191.56
433.622	2183.56
433.844	2107.56
434.066	2068.56
434.287	2054.56
434.509	2131.56
434.731	2228.56
434.953	2377.56
435.175	2344.56
435.397	2184.56
435.618	2189.56
435.84	2190.56
436.062	2173.56
436.284	2171.56
436.505	2183.56
436.727	2206.56
436.949	2131.56
437.17	2101.56
437.392	2099.56
437.614	2089.56
437.835	2051.56
438.057	2153.56
438.278	2239.56
438.5	2075.56
438.721	2077.56
438.943	2102.56
439.165	2081.56
439.386	2004.56
439.608	2030.56
439.829	2089.56
440.05	2096.56
440.272	2051.56
440.493	2009.56
440.715	2040.56
440.936	2196.56
441.158	2422.56
441.379	2374.56
441.6	2251.56
441.822	2233.56
442.043	2238.56
442.264	2177.56
442.486	2052.56
442.707	2067.56
442.928	2028.56
443.149	2120.56
443.371	2233.56
443.592	2352.56
443.813	2241.56
444.034	2242.56
444.255	2227.56
444.476	2325.56
444.698	2353.56
444.919	2318.56
445.14	2413.56
445.361	2421.56
445.582	2466.56
445.803	2365.56
446.024	2280.56
446.245	2336.56
446.466	2286.56
446.687	2166.56
446.908	2157.56
447.129	2089.56
447.35	2125.56
447.571	2126.56
447.792	2038.56
448.013	1978.56
448.234	2050.56
448.455	2167.56
448.675	2135.56
448.896	1964.56
449.117	1942.56
449.338	2031.56
449.559	2093.56
449.779	2242.56
450	2446.56
450.221	2636.56
450.442	2497.56
450.662	2258.56
450.883	1945.56
451.104	1930.56
451.324	1943.56
451.545	2042.56
451.766	2008.56
451.986	1937.56
452.207	1923.56
452.428	1836.56
452.648	1800.56
452.869	1909.56
453.089	2036.56
453.31	2092.56
453.53	2099.56
453.751	2025.56
453.971	1873.56
454.192	1936.56
454.412	2063.56
454.633	1978.56
454.853	1915.56
455.073	1795.56
455.294	1768.56
455.514	1835.56
455.734	1802.56
455.955	1872.56
456.175	1844.56
456.395	1839.56
456.616	1908.56
456.836	1941.56
457.056	1915.56
457.276	1863.56
457.497	1836.56
457.717	1777.56
457.937	1794.56
458.157	1842.56
458.377	1843.56
458.598	1820.56
458.818	1851.56
459.038	2022.56
459.258	2116.56
459.478	2101.56
459.698	2020.56
459.918	2098.56
460.138	2178.56
460.358	2230.56
460.578	2207.56
460.798	2265.56
461.018	2427.56
461.238	2314.56
461.458	2207.56
461.678	2205.56
461.898	2154.56
462.118	2052.56
462.338	2220.56
462.558	2248.56
462.777	2204.56
462.997	2313.56
463.217	2500.56
463.437	2429.56
463.657	2265.56
463.876	2185.56
464.096	2204.56
464.316	2215.56
464.536	2296.56
464.755	2298.56
464.975	2333.56
465.195	2270.56
465.414	2324.56
465.634	2378.56
465.854	2208.56
466.073	2339.56
466.293	2264.56
466.512	2036.56
466.732	1984.56
466.951	2130.56
467.171	2134.56
467.391	1982.56
467.61	1969.56
467.829	1972.56
468.049	2154.56
468.268	2404.56
468.488	2297.56
468.707	2119.56
468.927	2052.56
469.146	1973.56
469.365	1974.56
469.585	2050.56
469.804	1991.56
470.023	2013.56
470.243	2078.56
470.462	1997.56
470.681	1930.56
470.901	2068.56
471.12	2028.56
471.339	1988.56
471.558	1952.56
471.777	1913.56
471.997	1971.56
472.216	1984.56
472.435	1914.56
472.654	1921.56
472.873	2010.56
473.092	2170.56
473.311	2063.56
473.53	1909.56
473.749	1918.56
473.968	1976.56
474.187	2079.56
474.406	2196.56
474.625	2081.56
474.844	2071.56
475.063	2021.56
475.282	2105.56
475.501	2060.56
475.72	2065.56
475.939	2186.56
476.158	2093.56
476.377	2027.56
476.596	2078.56
476.814	2133.56
477.033	2149.56
477.252	2219.56
477.471	2246.56
477.69	2125.56
477.908	2145.56
478.127	2210.56
478.346	2430.56
478.564	2440.56
478.783	2396.56
479.002	2488.56
479.22	2405.56
479.439	2507.56
479.658	2791.56
479.876	2846.56
480.095	2422.56
480.313	2357.56
480.532	2228.56
480.751	2312.56
480.969	2338.56
481.188	2305.56
481.406	2269.56
481.624	2256.56
481.843	2244.56
482.061	2284.56
482.28	2311.56
482.498	2404.56
482.717	2349.56
482.935	2260.56
483.153	2238.56
483.372	2292.56
483.59	2240.56
483.808	2275.56
484.027	2302.56
484.245	2492.56
484.463	2786.56
484.681	3222.56
484.9	2478.56
485.118	2317.56
485.336	2292.56
485.554	2367.56
485.772	2490.56
485.99	2433.56
486.209	2442.56
486.427	2467.56
486.645	2466.56
486.863	2422.56
487.081	2456.56
487.299	2477.56
487.517	2456.56
487.735	2354.56
487.953	2363.56
488.171	2351.56
488.389	2342.56
488.607	2350.56
488.825	2595.56
489.043	2645.56
489.261	2392.56
489.479	2502.56
489.696	2525.56
489.914	2491.56
490.132	2453.56
490.35	2402.56
490.568	2508.56
490.786	2411.56
491.003	2338.56
491.221	2343.56
491.439	2438.56
491.657	2468.56
491.874	2424.56
492.092	2450.56
492.31	2471.56
492.527	2441.56
492.745	2401.56
492.963	2408.56
493.18	2509.56
493.398	2661.56
493.615	2741.56
493.833	2507.56
494.05	2452.56
494.268	2456.56
494.485	2541.56
494.703	2488.56
494.92	2493.56
495.138	2422.56
495.355	2513.56
495.573	2570.56
495.79	2730.56
496.008	2688.56
496.225	2563.56
496.442	2570.56
496.66	2588.56
496.877	2566.56
497.094	2749.56
497.312	2731.56
497.529	2686.56
497.746	2737.56
497.963	3200.56
498.181	3572.56
498.398	3329.56
498.615	3222.56
498.832	3155.56
499.049	3116.56
499.267	3158.56
499.484	3334.56
499.701	3632.56
499.918	3642.56
500.135	3965.56
500.352	4216.56
500.569	4163.56
500.786	4340.56
501.003	4092.56
501.22	3747.56
501.437	3687.56
501.654	3617.56
501.871	3541.56
502.088	3135.56
502.305	3158.56
502.522	3018.56
502.739	2785.56
502.956	2744.56
503.172	2715.56
503.389	2663.56
503.606	2649.56
503.823	2605.56
504.04	2637.56
504.256	2622.56
504.473	2648.56
504.69	2739.56
504.907	2568.56
505.123	2437.56
505.34	2551.56
505.557	3252.56
505.773	2764.56
505.99	2388.56
506.207	2214.56
506.423	2234.56
506.64	2203.56
506.856	2216.56
507.073	2484.56
507.289	2710.56
507.506	2590.56
507.722	2260.56
507.939	2137.56
508.155	2164.56
508.372	2149.56
508.588	2087.56
508.805	2014.56
509.021	2054.56
509.238	2022.56
509.454	2040.56
509.67	2043.56
509.887	1998.56
510.103	1983.56
510.319	2050.56
510.536	2116.56
510.752	2216.56
510.968	2184.56
511.184	2286.56
511.401	2319.56
511.617	1998.56
511.833	1982.56
512.049	1915.56
512.265	1994.56
512.481	1955.56
512.698	2041.56
512.914	2166.56
513.13	2068.56
513.346	2030.56
513.562	1934.56
513.778	1958.56
513.994	2048.56
514.21	2183.56
514.426	2156.56
514.642	2399.56
514.858	2233.56
515.074	2074.56
515.29	2005.56
515.506	2079.56
515.721	2085.56
515.937	2117.56
516.153	2375.56
516.369	2326.56
516.585	2132.56
516.801	2038.56
517.016	2062.56
517.232	2111.56
517.448	2203.56
517.664	2174.56
517.879	2197.56
518.095	2279.56
518.311	2202.56
518.527	2079.56
518.742	2072.56
518.958	1986.56
519.173	2006.56
519.389	1994.56
519.605	2046.56
519.82	2045.56
520.036	2068.56
520.251	1995.56
520.467	1978.56
520.682	2171.56
520.898	2243.56
521.113	1989.56
521.329	1949.56
521.544	2160.56
521.76	2019.56
521.975	1924.56
522.19	1881.56
522.406	1850.56
522.621	2278.56
522.836	2301.56
523.052	1898.56
523.267	1881.56
523.482	1880.56
523.698	1835.56
523.913	1771.56
524.128	1833.56
524.343	1921.56
524.559	1952.56
524.774	1809.56
524.989	1860.56
525.204	1799.56
525.419	1792.56
525.634	1761.56
525.849	1808.56
526.064	1772.56
526.28	1846.56
526.495	1770.56
526.71	1762.56
526.925	1746.56
527.14	1767.56
527.355	1720.56
527.57	1660.56
527.785	1785.56
527.999	1731.56
528.214	1688.56
528.429	1662.56
528.644	1698.56
528.859	1739.56
529.074	1718.56
529.289	1718.56
529.503	1721.56
529.718	1761.56
529.933	1750.56
530.148	1650.56
530.363	1670.56
530.577	1684.56
530.792	1713.56
531.007	1743.56
531.221	1738.56
531.436	1719.56
531.651	1787.56
531.865	1854.56
532.08	1793.56
532.295	1642.56
532.509	1577.56
532.724	1673.56
532.938	1694.56
533.153	1873.56
533.367	1766.56
533.582	1678.56
533.796	1639.56
534.011	1714.56
534.225	1744.56
534.44	1676.56
534.654	1686.56
534.868	1658.56
535.083	1729.56
535.297	1745.56
535.511	1679.56
535.726	1675.56
535.94	1681.56
536.154	1620.56
536.369	1649.56
536.583	1661.56
536.797	1635.56
537.011	1682.56
537.225	1586.56
537.44	1584.56
537.654	1663.56
537.868	1591.56
538.082	1526.56
538.296	1554.56
538.51	1553.56
538.724	1553.56
538.938	1533.56
539.153	1549.56
539.367	1607.56
539.581	1603.56
539.795	1686.56
540.009	1658.56
540.222	1613.56
540.436	1640.56
540.65	1766.56
540.864	1799.56
541.078	1672.56
541.292	1569.56
541.506	1600.56
541.72	1585.56
541.934	1635.56
542.147	1651.56
542.361	1604.56
542.575	1549.56
542.789	1497.56
543.002	1463.56
543.216	1525.56
543.43	1644.56
543.644	1709.56
543.857	1689.56
544.071	1680.56
544.285	1589.56
544.498	1575.56
544.712	1605.56
544.925	1650.56
545.139	1656.56
545.352	1566.56
545.566	1544.56
545.779	1523.56
545.993	1535.56
546.206	1548.56
546.42	1537.56
546.633	1492.56
546.847	1502.56
547.06	1494.56
547.274	1508.56
547.487	1495.56
547.7	1489.56
547.914	1529.56
548.127	1537.56
548.34	1553.56
548.554	1519.56
548.767	1526.56
548.98	1522.56
549.193	1494.56
549.407	1564.56
549.62	1586.56
549.833	1517.56
550.046	1493.56
550.259	1510.56
550.473	1504.56
550.686	1475.56
550.899	1442.56
551.112	1432.56
551.325	1432.56
551.538	1548.56
551.751	1769.56
551.964	1462.56
552.177	1419.56
552.39	1431.56
552.603	1510.56
552.816	1510.56
553.029	1557.56
553.242	1559.56
553.455	1513.56
553.667	1511.56
553.88	1512.56
554.093	1487.56
554.306	1417.56
554.519	1410.56
554.732	1390.56
554.944	1396.56
555.157	1468.56
555.37	1380.56
555.583	1373.56
555.795	1379.56
556.008	1340.56
556.221	1312.56
556.433	1282.56
556.646	1297.56
556.859	1270.56
557.071	1283.56
557.284	1310.56
557.496	1269.56
557.709	1272.56
557.921	1273.56
558.134	1225.56
558.346	1242.56
558.559	1220.56
558.771	1234.56
558.984	1230.56
559.196	1202.56
559.409	1189.56
559.621	1225.56
559.833	1213.56
560.046	1281.56
560.258	1230.56
560.47	1219.56
560.683	1221.56
560.895	1209.56
561.107	1242.56
561.32	1241.56
561.532	1269.56
561.744	1194.56
561.956	1285.56
562.168	1204.56
562.381	1180.56
562.593	1178.56
562.805	1204.56
563.017	1160.56
563.229	1209.56
563.441	1233.56
563.653	1223.56
563.865	1211.56
564.077	1183.56
564.289	1206.56
564.501	1215.56
564.713	1226.56
564.925	1292.56
565.137	1369.56
565.349	1278.56
565.561	1262.56
565.773	1251.56
565.985	1291.56
566.197	1390.56
566.408	1477.56
566.62	1482.56
566.832	1470.56
567.044	1506.56
567.255	1446.56
567.467	1470.56
567.679	1562.56
567.891	1542.56
568.102	1549.56
568.314	1472.56
568.526	1409.56
568.737	1374.56
568.949	1289.56
569.161	1218.56
569.372	1200.56
569.584	1182.56
569.795	1167.56
570.007	1151.56
570.218	1099.56
570.43	1095.56
570.641	1089.56
570.853	1114.56
571.064	1110.56
571.276	1085.56
571.487	1056.56
571.698	1041.56
571.91	1032.56
572.121	1028.56
572.333	974.56
572.544	1008.56
572.755	1009.56
572.966	960.56
573.178	982.56
573.389	983.56
573.6	1012.56
573.811	1046.56
574.023	990.56
574.234	973.56
574.445	936.56
574.656	892.56
574.867	908.56
575.078	929.56
575.289	941.56
575.501	898.56
575.712	893.56
575.923	931.56
576.134	930.56
576.345	897.56
576.556	897.56
576.767	869.56
576.978	852.56
577.188	877.56
577.399	857.56
577.61	857.56
577.821	826.56
578.032	852.56
578.243	859.56
578.454	838.56
578.665	858.56
578.875	837.56
579.086	818.56
579.297	827.56
579.508	881.56
579.718	840.56
579.929	832.56
580.14	802.56
580.35	833.56
580.561	838.56
580.772	908.56
580.982	842.56
581.193	791.56
581.403	782.56
581.614	792.56
581.825	781.56
582.035	797.56
582.246	793.56
582.456	803.56
582.667	821.56
582.877	773.56
583.087	779.56
583.298	764.56
583.508	781.56
583.719	793.56
583.929	774.56
584.139	775.56
584.35	746.56
584.56	762.56
584.77	795.56
584.981	765.56
585.191	747.56
585.401	782.56
585.611	761.56
585.821	765.56
586.032	742.56
586.242	723.56
586.452	726.56
586.662	731.56
586.872	745.56
587.082	742.56
587.292	779.56
587.502	756.56
587.713	744.56
587.923	753.56
588.133	757.56
588.343	756.56
588.553	719.56
588.762	718.56
588.972	720.56
589.182	724.56
589.392	748.56
589.602	730.56
589.812	746.56
590.022	712.56
590.232	696.56
590.441	749.56
590.651	736.56
590.861	736.56
591.071	707.56
591.281	728.56
591.49	716.56
591.7	715.56
591.91	726.56
592.119	730.56
592.329	724.56
592.539	767.56
592.748	761.56
592.958	742.56
593.167	778.56
593.377	752.56
593.587	792.56
593.796	786.56
594.006	746.56
594.215	787.56
594.424	776.56
594.634	743.56
594.843	740.56
595.053	775.56
595.262	760.56
595.472	720.56
595.681	714.56
595.89	728.56
596.1	696.56
596.309	715.56
596.518	669.56
596.727	691.56
596.937	681.56
597.146	660.56
597.355	660.56
597.564	667.56
597.774	651.56
597.983	641.56
598.192	618.56
598.401	640.56
598.61	633.56
598.819	615.56
599.028	635.56
599.237	630.56
599.446	631.56
599.655	609.56
599.864	619.56
600.073	605.56
600.282	603.56
600.491	600.56
600.7	579.56
600.909	584.56
601.118	589.56
601.327	589.56
601.536	607.56
601.745	586.56
601.953	608.56
602.162	609.56
602.371	624.56
602.58	588.56
602.789	577.56
602.997	566.56
603.206	572.56
603.415	598.56
603.623	577.56
603.832	582.56
604.041	578.56
604.249	578.56
604.458	565.56
604.666	565.56
604.875	564.56
605.084	579.56
605.292	588.56
605.501	556.56
605.709	574.56
605.918	567.56
606.126	569.56
606.334	544.56
606.543	572.56
606.751	563.56
606.96	575.56
607.168	543.56
607.376	532.56
607.585	547.56
607.793	537.56
608.001	553.56
608.21	556.56
608.418	545.56
608.626	529.56
608.834	537.56
609.043	529.56
609.251	563.56
609.459	540.56
609.667	549.56
609.875	553.56
610.083	569.56
610.291	572.56
610.499	577.56
610.707	559.56
610.916	547.56
611.124	533.56
611.332	520.56
611.54	534.56
611.748	546.56
611.955	506.56
612.163	517.56
612.371	516.56
612.579	503.56
612.787	524.56
612.995	526.56
613.203	521.56
613.411	516.56
613.618	500.56
613.826	512.56
614.034	514.56
614.242	515.56
614.449	487.56
614.657	522.56
614.865	514.56
615.072	532.56
615.28	502.56
615.488	504.56
615.695	531.56
615.903	526.56
616.111	503.56
616.318	500.56
616.526	496.56
616.733	498.56
616.941	490.56
617.148	518.56
617.356	497.56
617.563	509.56
617.771	505.56
617.978	480.56
618.185	495.56
618.393	472.56
618.6	501.56
618.807	493.56
619.015	510.56
619.222	483.56
619.429	489.56
619.637	470.56
619.844	468.56
620.051	489.56
620.258	476.56
620.466	483.56
620.673	448.56
620.88	444.56
621.087	453.56
621.294	458.56
621.501	453.56
621.708	449.56
621.915	478.56
622.122	452.56
622.329	457.56
622.536	451.56
622.743	446.56
622.95	459.56
623.157	461.56
623.364	462.56
623.571	441.56
623.778	435.56
623.985	448.56
624.192	452.56
624.399	433.56
624.606	441.56
624.812	459.56
625.019	426.56
625.226	439.56
625.433	430.56
625.639	423.56
625.846	427.56
626.053	403.56
626.259	406.56
626.466	389.56
626.673	411.56
626.879	422.56
627.086	404.56
627.293	408.56
627.499	428.56
627.706	428.56
627.912	402.56
628.119	401.56
628.325	393.56
628.532	417.56
628.738	418.56
628.945	406.56
629.151	385.56
629.357	416.56
629.564	409.56
629.77	390.56
629.976	386.56
630.183	402.56
630.389	410.56
630.595	399.56
630.802	378.56
631.008	380.56
631.214	392.56
631.42	384.56
631.627	380.56
631.833	361.56
632.039	363.56
632.245	397.56
632.451	362.56
632.657	382.56
632.863	378.56
633.069	379.56
633.275	368.56
633.481	354.56
633.688	376.56
633.893	356.56
634.099	374.56
634.305	377.56
634.511	350.56
634.717	334.56
634.923	337.56
635.129	356.56
635.335	360.56
635.541	348.56
635.747	355.56
635.952	355.56
636.158	344.56
636.364	348.56
636.57	347.56
636.775	331.56
636.981	353.56
637.187	353.56
637.392	336.56
637.598	358.56
637.804	362.56
638.009	344.56
638.215	337.56
638.421	330.56
638.626	321.56
638.832	334.56
639.037	338.56
639.243	343.56
639.448	326.56
639.654	327.56
639.859	327.56
640.065	326.56
640.27	334.56
640.475	347.56
640.681	312.56
640.886	342.56
641.091	324.56
641.297	325.56
641.502	325.56
641.707	319.56
641.913	334.56
642.118	325.56
642.323	338.56
642.528	322.56
642.733	317.56
642.939	328.56
643.144	334.56
643.349	335.56
643.554	326.56
643.759	327.56
643.964	301.56
644.169	310.56
644.374	306.56
644.579	316.56
644.784	321.56
644.989	331.56
645.194	325.56
645.399	320.56
645.604	299.56
645.809	318.56
646.014	304.56
646.219	307.56
646.423	318.56
646.628	333.56
646.833	317.56
647.038	319.56
647.243	293.56
647.447	288.56
647.652	327.56
647.857	318.56
648.062	312.56
648.266	317.56
648.471	322.56
648.676	323.56
648.88	305.56
649.085	297.56
649.289	331.56
649.494	298.56
649.698	312.56
649.903	304.56
650.107	290.56
650.312	307.56
650.516	288.56
650.721	276.56
650.925	278.56
651.13	283.56
651.334	293.56
651.539	275.56
651.743	271.56
651.947	266.56
652.152	265.56
652.356	264.56
652.56	264.56
652.764	274.56
652.969	256.56
653.173	272.56
653.377	231.56
653.581	260.56
653.785	250.56
653.99	246.56
654.194	240.56
654.398	224.56
654.602	236.56
654.806	263.56
655.01	220.56
655.214	235.56
655.418	243.56
655.622	260.56
655.826	262.56
656.03	259.56
656.234	243.56
656.438	280.56
656.642	278.56
656.846	252.56
657.049	229.56
657.253	227.56
657.457	212.56
657.661	201.56
657.865	192.56
658.068	168.56
658.272	170.56
658.476	174.56
658.68	150.56
658.883	145.56
659.087	136.56
659.291	139.56
659.494	126.56
659.698	143.56
659.901	122.56
660.105	105.56
660.309	132.56
660.512	115.56
660.716	114.56
660.919	105.56
661.123	98.56
661.326	105.56
661.53	103.56
661.733	104.56
661.936	97.56
662.14	99.56
662.343	104.56
662.546	91.56
662.75	81.56
662.953	83.56
663.156	67.56
663.36	87.56
663.563	97.56
663.766	89.56
663.969	78.56
664.173	90.56
664.376	86.56
664.579	95.56
664.782	85.56
664.985	73.56
665.188	70.56
665.391	79.56
665.594	89.56
665.797	88.56
666	97.56
666.203	69.56
666.406	76.56
666.609	67.56
666.812	81.56
667.015	77.56
667.218	87.56
667.421	74.56
667.624	95.56
667.827	78.56
668.03	81.56
668.232	75.56
668.435	89.56
668.638	77.56
668.841	88.56
669.043	81.56
669.246	90.56
669.449	83.56
669.651	79.56
669.854	73.56
670.057	92.56
670.259	82.56
670.462	73.56
670.665	85.56
670.867	84.56
671.07	93.56
671.272	84.56
671.475	81.56
671.677	84.56
671.88	89.56
672.082	94.56
672.284	97.56
672.487	85.56
672.689	89.56
672.892	85.56
