Data from WStandard_LampEnergy8_LIBS07252019.E.O._I.C._HRD10591_15-59-18-929.txt Node
Date: Thu Jul 25 15:59:18 EDT 2019
User: cochatt
Spectrometer: HR+D1059
Trigger mode: 1
Integration Time (sec): 1.000000E-1
Scans to average: 1
Electric dark correction enabled: true
Nonlinearity correction enabled: false
Boxcar width: 0
XAxis mode: Wavelengths
Number of Pixels in Spectrum: 2048
>>>>>Begin Spectral Data<<<<<
223.165	-5.94
223.4	-5.94
223.635	-5.94
223.869	0.06
224.104	-21.94
224.338	-17.94
224.573	-19.94
224.808	-15.94
225.042	-2.94
225.277	-3.94
225.511	-6.94
225.746	-2.94
225.98	-0.94
226.215	-0.94
226.449	19.06
226.683	25.06
226.918	29.06
227.152	27.06
227.387	50.06
227.621	40.06
227.856	41.06
228.09	57.06
228.324	45.06
228.559	59.06
228.793	106.06
229.027	193.06
229.262	209.06
229.496	203.06
229.73	217.06
229.964	240.06
230.199	252.06
230.433	268.06
230.667	282.06
230.901	294.06
231.136	269.06
231.37	243.06
231.604	259.06
231.838	263.06
232.072	265.06
232.306	260.06
232.541	282.06
232.775	308.06
233.009	322.06
233.243	308.06
233.477	298.06
233.711	307.06
233.945	287.06
234.179	286.06
234.413	306.06
234.647	325.06
234.881	329.06
235.115	303.06
235.349	295.06
235.583	325.06
235.817	320.06
236.051	293.06
236.285	296.06
236.519	327.06
236.753	356.06
236.987	351.06
237.221	349.06
237.455	382.06
237.689	383.06
237.922	345.06
238.156	365.06
238.39	356.06
238.624	359.06
238.858	386.06
239.091	421.06
239.325	429.06
239.559	485.06
239.793	493.06
240.027	530.06
240.26	517.06
240.494	393.06
240.728	380.06
240.961	403.06
241.195	388.06
241.429	430.06
241.662	417.06
241.896	393.06
242.13	408.06
242.363	434.06
242.597	482.06
242.83	465.06
243.064	451.06
243.298	469.06
243.531	469.06
243.765	478.06
243.998	488.06
244.232	425.06
244.465	412.06
244.699	426.06
244.932	475.06
245.166	517.06
245.399	475.06
245.633	469.06
245.866	453.06
246.099	480.06
246.333	485.06
246.566	491.06
246.8	542.06
247.033	609.06
247.266	554.06
247.5	549.06
247.733	519.06
247.966	562.06
248.2	606.06
248.433	611.06
248.666	618.06
248.899	682.06
249.133	773.06
249.366	842.06
249.599	712.06
249.832	627.06
250.066	648.06
250.299	619.06
250.532	591.06
250.765	557.06
250.998	564.06
251.231	578.06
251.465	605.06
251.698	593.06
251.931	587.06
252.164	612.06
252.397	599.06
252.63	619.06
252.863	565.06
253.096	585.06
253.329	570.06
253.562	596.06
253.795	635.06
254.028	617.06
254.261	594.06
254.494	572.06
254.727	549.06
254.96	594.06
255.193	616.06
255.426	730.06
255.659	781.06
255.892	815.06
256.124	686.06
256.357	681.06
256.59	699.06
256.823	706.06
257.056	737.06
257.289	854.06
257.521	924.06
257.754	839.06
257.987	781.06
258.22	835.06
258.452	804.06
258.685	676.06
258.918	664.06
259.151	678.06
259.383	634.06
259.616	594.06
259.849	626.06
260.081	703.06
260.314	789.06
260.547	841.06
260.779	835.06
261.012	776.06
261.244	720.06
261.477	665.06
261.71	688.06
261.942	683.06
262.175	696.06
262.407	706.06
262.64	666.06
262.872	628.06
263.105	615.06
263.337	633.06
263.57	635.06
263.802	609.06
264.035	617.06
264.267	569.06
264.499	610.06
264.732	623.06
264.964	679.06
265.197	724.06
265.429	713.06
265.661	807.06
265.894	856.06
266.126	897.06
266.358	825.06
266.591	850.06
266.823	909.06
267.055	800.06
267.287	787.06
267.52	794.06
267.752	770.06
267.984	792.06
268.216	810.06
268.448	808.06
268.681	817.06
268.913	753.06
269.145	737.06
269.377	703.06
269.609	771.06
269.841	897.06
270.073	1006.06
270.306	1116.06
270.538	1120.06
270.77	975.06
271.002	839.06
271.234	822.06
271.466	859.06
271.698	926.06
271.93	1090.06
272.162	1079.06
272.394	942.06
272.626	912.06
272.858	824.06
273.09	734.06
273.322	704.06
273.553	704.06
273.785	681.06
274.017	718.06
274.249	780.06
274.481	800.06
274.713	709.06
274.945	699.06
275.176	708.06
275.408	725.06
275.64	708.06
275.872	687.06
276.104	718.06
276.335	864.06
276.567	938.06
276.799	934.06
277.031	841.06
277.262	823.06
277.494	845.06
277.726	921.06
277.957	891.06
278.189	843.06
278.421	778.06
278.652	742.06
278.884	738.06
279.115	747.06
279.347	776.06
279.579	727.06
279.81	754.06
280.042	849.06
280.273	867.06
280.505	899.06
280.736	888.06
280.968	813.06
281.199	738.06
281.431	719.06
281.662	717.06
281.894	725.06
282.125	742.06
282.356	775.06
282.588	774.06
282.819	773.06
283.051	819.06
283.282	878.06
283.513	840.06
283.745	758.06
283.976	764.06
284.207	757.06
284.439	737.06
284.67	745.06
284.901	773.06
285.132	794.06
285.364	773.06
285.595	799.06
285.826	789.06
286.057	751.06
286.288	760.06
286.52	785.06
286.751	852.06
286.982	870.06
287.213	797.06
287.444	753.06
287.675	726.06
287.906	796.06
288.138	823.06
288.369	787.06
288.6	765.06
288.831	714.06
289.062	750.06
289.293	751.06
289.524	770.06
289.755	790.06
289.986	796.06
290.217	737.06
290.448	772.06
290.679	802.06
290.91	790.06
291.141	800.06
291.371	835.06
291.602	830.06
291.833	825.06
292.064	839.06
292.295	837.06
292.526	848.06
292.757	879.06
292.987	872.06
293.218	797.06
293.449	890.06
293.68	1021.06
293.91	1012.06
294.141	952.06
294.372	917.06
294.603	952.06
294.833	1002.06
295.064	918.06
295.295	863.06
295.525	817.06
295.756	789.06
295.987	763.06
296.217	756.06
296.448	824.06
296.679	778.06
296.909	778.06
297.14	769.06
297.37	797.06
297.601	855.06
297.831	912.06
298.062	886.06
298.292	821.06
298.523	817.06
298.753	807.06
298.984	808.06
299.214	827.06
299.445	849.06
299.675	843.06
299.905	822.06
300.136	837.06
300.366	810.06
300.597	768.06
300.827	771.06
301.057	826.06
301.288	865.06
301.518	853.06
301.748	900.06
301.979	907.06
302.209	943.06
302.439	978.06
302.669	1014.06
302.9	923.06
303.13	850.06
303.36	842.06
303.59	894.06
303.82	843.06
304.051	873.06
304.281	857.06
304.511	900.06
304.741	941.06
304.971	1020.06
305.201	1087.06
305.431	968.06
305.661	822.06
305.891	779.06
306.121	773.06
306.352	816.06
306.582	855.06
306.812	913.06
307.042	984.06
307.272	979.06
307.502	1002.06
307.731	1059.06
307.961	1102.06
308.191	1028.06
308.421	898.06
308.651	842.06
308.881	837.06
309.111	854.06
309.341	837.06
309.571	849.06
309.8	817.06
310.03	838.06
310.26	823.06
310.49	815.06
310.72	857.06
310.949	855.06
311.179	892.06
311.409	895.06
311.639	860.06
311.868	860.06
312.098	839.06
312.328	872.06
312.557	829.06
312.787	866.06
313.017	858.06
313.246	871.06
313.476	868.06
313.706	892.06
313.935	895.06
314.165	917.06
314.394	938.06
314.624	993.06
314.853	1056.06
315.083	1081.06
315.312	1079.06
315.542	1006.06
315.771	931.06
316.001	927.06
316.23	1007.06
316.46	981.06
316.689	951.06
316.919	882.06
317.148	870.06
317.377	899.06
317.607	980.06
317.836	1079.06
318.065	1085.06
318.295	1016.06
318.524	985.06
318.753	988.06
318.983	975.06
319.212	938.06
319.441	918.06
319.67	927.06
319.9	960.06
320.129	1002.06
320.358	1021.06
320.587	1087.06
320.816	1041.06
321.046	1017.06
321.275	963.06
321.504	1007.06
321.733	1057.06
321.962	1013.06
322.191	962.06
322.42	939.06
322.649	918.06
322.878	926.06
323.108	948.06
323.337	964.06
323.566	987.06
323.795	977.06
324.024	971.06
324.253	937.06
324.482	951.06
324.71	927.06
324.939	874.06
325.168	905.06
325.397	937.06
325.626	1006.06
325.855	1002.06
326.084	943.06
326.313	981.06
326.542	969.06
326.77	964.06
326.999	953.06
327.228	923.06
327.457	868.06
327.686	881.06
327.914	887.06
328.143	949.06
328.372	933.06
328.6	955.06
328.829	925.06
329.058	916.06
329.287	888.06
329.515	929.06
329.744	966.06
329.972	1021.06
330.201	1058.06
330.43	1031.06
330.658	1009.06
330.887	978.06
331.115	993.06
331.344	1013.06
331.572	991.06
331.801	987.06
332.03	984.06
332.258	989.06
332.486	1001.06
332.715	1028.06
332.943	1021.06
333.172	1013.06
333.4	1009.06
333.629	1011.06
333.857	1137.06
334.085	1282.06
334.314	1403.06
334.542	1417.06
334.771	1290.06
334.999	1157.06
335.227	1105.06
335.455	1053.06
335.684	1070.06
335.912	1088.06
336.14	1133.06
336.369	1028.06
336.597	980.06
336.825	1018.06
337.053	1055.06
337.281	1125.06
337.51	1173.06
337.738	1186.06
337.966	1106.06
338.194	1023.06
338.422	1021.06
338.65	998.06
338.878	970.06
339.106	970.06
339.334	938.06
339.562	952.06
339.79	979.06
340.018	1043.06
340.246	1064.06
340.474	1061.06
340.702	1034.06
340.93	1053.06
341.158	1050.06
341.386	1011.06
341.614	994.06
341.842	1009.06
342.07	994.06
342.298	1039.06
342.526	989.06
342.754	987.06
342.981	991.06
343.209	981.06
343.437	973.06
343.665	1026.06
343.893	1016.06
344.12	1050.06
344.348	1081.06
344.576	1013.06
344.804	992.06
345.031	1005.06
345.259	978.06
345.487	960.06
345.714	911.06
345.942	915.06
346.17	930.06
346.397	906.06
346.625	944.06
346.853	873.06
347.08	893.06
347.308	895.06
347.535	939.06
347.763	975.06
347.99	946.06
348.218	902.06
348.445	916.06
348.673	933.06
348.9	977.06
349.128	1021.06
349.355	1043.06
349.583	995.06
349.81	940.06
350.037	873.06
350.265	881.06
350.492	927.06
350.72	930.06
350.947	965.06
351.174	960.06
351.402	905.06
351.629	886.06
351.856	865.06
352.083	874.06
352.311	868.06
352.538	930.06
352.765	934.06
352.992	966.06
353.22	926.06
353.447	895.06
353.674	938.06
353.901	938.06
354.128	925.06
354.355	891.06
354.583	928.06
354.81	977.06
355.037	968.06
355.264	966.06
355.491	937.06
355.718	933.06
355.945	911.06
356.172	930.06
356.399	919.06
356.626	921.06
356.853	970.06
357.08	1049.06
357.307	1121.06
357.534	1070.06
357.761	950.06
357.988	905.06
358.215	889.06
358.441	880.06
358.668	885.06
358.895	917.06
359.122	979.06
359.349	1086.06
359.576	995.06
359.802	943.06
360.029	895.06
360.256	892.06
360.483	885.06
360.709	947.06
360.936	979.06
361.163	1020.06
361.39	1125.06
361.616	1205.06
361.843	1155.06
362.07	1061.06
362.296	952.06
362.523	919.06
362.749	941.06
362.976	950.06
363.203	947.06
363.429	946.06
363.656	907.06
363.882	947.06
364.109	1089.06
364.335	1104.06
364.562	1065.06
364.788	975.06
365.015	926.06
365.241	943.06
365.468	961.06
365.694	981.06
365.92	1005.06
366.147	978.06
366.373	906.06
366.599	914.06
366.826	922.06
367.052	924.06
367.278	936.06
367.505	947.06
367.731	960.06
367.957	980.06
368.184	1022.06
368.41	1086.06
368.636	1091.06
368.862	1090.06
369.089	1070.06
369.315	1023.06
369.541	1016.06
369.767	934.06
369.993	919.06
370.219	958.06
370.445	991.06
370.672	1023.06
370.898	1106.06
371.124	1040.06
371.35	994.06
371.576	1054.06
371.802	1057.06
372.028	1008.06
372.254	979.06
372.48	949.06
372.706	941.06
372.932	961.06
373.158	944.06
373.384	985.06
373.61	1041.06
373.835	1033.06
374.061	995.06
374.287	985.06
374.513	997.06
374.739	979.06
374.965	968.06
375.191	1025.06
375.416	1029.06
375.642	1050.06
375.868	1109.06
376.094	1121.06
376.319	1045.06
376.545	998.06
376.771	1047.06
376.997	1073.06
377.222	1071.06
377.448	1022.06
377.674	1019.06
377.899	1029.06
378.125	1112.06
378.35	1069.06
378.576	1006.06
378.802	971.06
379.027	979.06
379.253	995.06
379.478	959.06
379.704	967.06
379.929	1002.06
380.155	985.06
380.38	1009.06
380.606	1033.06
380.831	1027.06
381.057	1071.06
381.282	1101.06
381.507	1043.06
381.733	1162.06
381.958	1175.06
382.184	1058.06
382.409	1027.06
382.634	1064.06
382.86	1039.06
383.085	1039.06
383.31	1089.06
383.535	1181.06
383.761	1237.06
383.986	1154.06
384.211	1161.06
384.436	1117.06
384.662	1211.06
384.887	1183.06
385.112	1136.06
385.337	1169.06
385.562	1160.06
385.787	1117.06
386.013	1163.06
386.238	1173.06
386.463	1194.06
386.688	1294.06
386.913	1297.06
387.138	1283.06
387.363	1182.06
387.588	1193.06
387.813	1166.06
388.038	1190.06
388.263	1245.06
388.488	1145.06
388.713	1095.06
388.938	1064.06
389.163	1105.06
389.387	1128.06
389.612	1149.06
389.837	1161.06
390.062	1147.06
390.287	1149.06
390.512	1133.06
390.736	1139.06
390.961	1089.06
391.186	1077.06
391.411	1112.06
391.636	1119.06
391.86	1127.06
392.085	1158.06
392.31	1103.06
392.534	1150.06
392.759	1176.06
392.984	1136.06
393.208	1157.06
393.433	1199.06
393.658	1224.06
393.882	1253.06
394.107	1156.06
394.331	1163.06
394.556	1131.06
394.78	1177.06
395.005	1185.06
395.229	1225.06
395.454	1330.06
395.678	1311.06
395.903	1210.06
396.127	1203.06
396.352	1232.06
396.576	1243.06
396.801	1266.06
397.025	1268.06
397.249	1245.06
397.474	1203.06
397.698	1230.06
397.922	1280.06
398.147	1336.06
398.371	1375.06
398.595	1341.06
398.82	1288.06
399.044	1311.06
399.268	1380.06
399.492	1479.06
399.717	1521.06
399.941	1490.06
400.165	1455.06
400.389	1426.06
400.613	1450.06
400.837	1681.06
401.062	1794.06
401.286	1546.06
401.51	1463.06
401.734	1485.06
401.958	1410.06
402.182	1359.06
402.406	1316.06
402.63	1301.06
402.854	1335.06
403.078	1320.06
403.302	1327.06
403.526	1367.06
403.75	1341.06
403.974	1351.06
404.198	1370.06
404.422	1435.06
404.645	1508.06
404.869	1421.06
405.093	1354.06
405.317	1329.06
405.541	1365.06
405.765	1394.06
405.988	1367.06
406.212	1383.06
406.436	1415.06
406.66	1449.06
406.883	1499.06
407.107	1720.06
407.331	1849.06
407.555	1931.06
407.778	1719.06
408.002	1427.06
408.226	1442.06
408.449	1417.06
408.673	1393.06
408.896	1360.06
409.12	1414.06
409.344	1400.06
409.567	1341.06
409.791	1383.06
410.014	1419.06
410.238	1457.06
410.461	1526.06
410.685	1396.06
410.908	1361.06
411.132	1412.06
411.355	1339.06
411.578	1350.06
411.802	1351.06
412.025	1379.06
412.249	1354.06
412.472	1319.06
412.695	1296.06
412.919	1318.06
413.142	1275.06
413.365	1342.06
413.589	1349.06
413.812	1415.06
414.035	1469.06
414.258	1331.06
414.482	1327.06
414.705	1319.06
414.928	1295.06
415.151	1300.06
415.374	1314.06
415.597	1359.06
415.821	1352.06
416.044	1378.06
416.267	1370.06
416.49	1268.06
416.713	1268.06
416.936	1329.06
417.159	1424.06
417.382	1347.06
417.605	1309.06
417.828	1320.06
418.051	1348.06
418.274	1328.06
418.497	1297.06
418.72	1329.06
418.943	1299.06
419.166	1332.06
419.389	1384.06
419.611	1327.06
419.834	1325.06
420.057	1360.06
420.28	1312.06
420.503	1301.06
420.726	1328.06
420.948	1337.06
421.171	1315.06
421.394	1291.06
421.617	1361.06
421.839	1360.06
422.062	1359.06
422.285	1297.06
422.507	1275.06
422.73	1263.06
422.953	1217.06
423.175	1220.06
423.398	1283.06
423.621	1266.06
423.843	1301.06
424.066	1356.06
424.288	1411.06
424.511	1405.06
424.733	1348.06
424.956	1226.06
425.178	1250.06
425.401	1262.06
425.623	1261.06
425.846	1281.06
426.068	1344.06
426.291	1367.06
426.513	1288.06
426.735	1346.06
426.958	1434.06
427.18	1496.06
427.402	1359.06
427.625	1415.06
427.847	1405.06
428.069	1309.06
428.292	1281.06
428.514	1261.06
428.736	1230.06
428.958	1254.06
429.181	1283.06
429.403	1497.06
429.625	1761.06
429.847	1471.06
430.069	1295.06
430.292	1467.06
430.514	1464.06
430.736	1375.06
430.958	1378.06
431.18	1294.06
431.402	1219.06
431.624	1195.06
431.846	1189.06
432.068	1139.06
432.29	1171.06
432.512	1178.06
432.734	1252.06
432.956	1309.06
433.178	1371.06
433.4	1345.06
433.622	1295.06
433.844	1297.06
434.066	1219.06
434.287	1183.06
434.509	1213.06
434.731	1302.06
434.953	1369.06
435.175	1328.06
435.397	1306.06
435.618	1266.06
435.84	1269.06
436.062	1228.06
436.284	1254.06
436.505	1305.06
436.727	1358.06
436.949	1268.06
437.17	1278.06
437.392	1286.06
437.614	1235.06
437.835	1193.06
438.057	1248.06
438.278	1279.06
438.5	1231.06
438.721	1252.06
438.943	1257.06
439.165	1253.06
439.386	1257.06
439.608	1241.06
439.829	1239.06
440.05	1270.06
440.272	1256.06
440.493	1247.06
440.715	1278.06
440.936	1380.06
441.158	1435.06
441.379	1397.06
441.6	1395.06
441.822	1372.06
442.043	1377.06
442.264	1301.06
442.486	1263.06
442.707	1242.06
442.928	1235.06
443.149	1307.06
443.371	1371.06
443.592	1411.06
443.813	1401.06
444.034	1390.06
444.255	1378.06
444.476	1370.06
444.698	1386.06
444.919	1389.06
445.14	1487.06
445.361	1456.06
445.582	1457.06
445.803	1415.06
446.024	1402.06
446.245	1455.06
446.466	1402.06
446.687	1342.06
446.908	1367.06
447.129	1309.06
447.35	1345.06
447.571	1286.06
447.792	1247.06
448.013	1244.06
448.234	1262.06
448.455	1317.06
448.675	1340.06
448.896	1235.06
449.117	1197.06
449.338	1225.06
449.559	1283.06
449.779	1359.06
450	1459.06
450.221	1526.06
450.442	1419.06
450.662	1301.06
450.883	1203.06
451.104	1197.06
451.324	1186.06
451.545	1192.06
451.766	1215.06
451.986	1175.06
452.207	1143.06
452.428	1123.06
452.648	1092.06
452.869	1102.06
453.089	1159.06
453.31	1186.06
453.53	1167.06
453.751	1124.06
453.971	1064.06
454.192	1100.06
454.412	1169.06
454.633	1151.06
454.853	1116.06
455.073	1080.06
455.294	1073.06
455.514	1064.06
455.734	1107.06
455.955	1083.06
456.175	1055.06
456.395	1073.06
456.616	1107.06
456.836	1082.06
457.056	1071.06
457.276	1080.06
457.497	1041.06
457.717	1023.06
457.937	1060.06
458.157	1078.06
458.377	1058.06
458.598	1039.06
458.818	1054.06
459.038	1115.06
459.258	1170.06
459.478	1162.06
459.698	1146.06
459.918	1140.06
460.138	1230.06
460.358	1225.06
460.578	1249.06
460.798	1293.06
461.018	1349.06
461.238	1304.06
461.458	1265.06
461.678	1280.06
461.898	1247.06
462.118	1223.06
462.338	1241.06
462.558	1261.06
462.777	1272.06
462.997	1349.06
463.217	1375.06
463.437	1325.06
463.657	1284.06
463.876	1301.06
464.096	1260.06
464.316	1277.06
464.536	1297.06
464.755	1315.06
464.975	1311.06
465.195	1308.06
465.414	1321.06
465.634	1329.06
465.854	1281.06
466.073	1420.06
466.293	1336.06
466.512	1222.06
466.732	1238.06
466.951	1274.06
467.171	1253.06
467.391	1184.06
467.61	1184.06
467.829	1249.06
468.049	1329.06
468.268	1472.06
468.488	1347.06
468.707	1302.06
468.927	1245.06
469.146	1233.06
469.365	1234.06
469.585	1229.06
469.804	1224.06
470.023	1253.06
470.243	1279.06
470.462	1215.06
470.681	1222.06
470.901	1234.06
471.12	1222.06
471.339	1244.06
471.558	1231.06
471.777	1209.06
471.997	1254.06
472.216	1201.06
472.435	1098.06
472.654	1109.06
472.873	1185.06
473.092	1239.06
473.311	1194.06
473.53	1159.06
473.749	1144.06
473.968	1173.06
474.187	1237.06
474.406	1223.06
474.625	1205.06
474.844	1211.06
475.063	1228.06
475.282	1229.06
475.501	1183.06
475.72	1244.06
475.939	1290.06
476.158	1293.06
476.377	1233.06
476.596	1199.06
476.814	1209.06
477.033	1247.06
477.252	1284.06
477.471	1340.06
477.69	1288.06
477.908	1270.06
478.127	1370.06
478.346	1418.06
478.564	1418.06
478.783	1446.06
479.002	1454.06
479.22	1429.06
479.439	1503.06
479.658	1557.06
479.876	1524.06
480.095	1434.06
480.313	1379.06
480.532	1343.06
480.751	1284.06
480.969	1318.06
481.188	1282.06
481.406	1291.06
481.624	1228.06
481.843	1262.06
482.061	1309.06
482.28	1335.06
482.498	1361.06
482.717	1341.06
482.935	1297.06
483.153	1400.06
483.372	1409.06
483.59	1378.06
483.808	1351.06
484.027	1389.06
484.245	1439.06
484.463	1744.06
484.681	1898.06
484.9	1499.06
485.118	1399.06
485.336	1358.06
485.554	1363.06
485.772	1390.06
485.99	1398.06
486.209	1406.06
486.427	1418.06
486.645	1416.06
486.863	1397.06
487.081	1442.06
487.299	1474.06
487.517	1461.06
487.735	1482.06
487.953	1506.06
488.171	1511.06
488.389	1476.06
488.607	1465.06
488.825	1611.06
489.043	1567.06
489.261	1449.06
489.479	1526.06
489.696	1503.06
489.914	1490.06
490.132	1437.06
490.35	1461.06
490.568	1529.06
490.786	1539.06
491.003	1486.06
491.221	1559.06
491.439	1639.06
491.657	1607.06
491.874	1625.06
492.092	1678.06
492.31	1720.06
492.527	1695.06
492.745	1635.06
492.963	1645.06
493.18	1616.06
493.398	1725.06
493.615	1681.06
493.833	1600.06
494.05	1573.06
494.268	1575.06
494.485	1614.06
494.703	1551.06
494.92	1565.06
495.138	1548.06
495.355	1595.06
495.573	1630.06
495.79	1673.06
496.008	1688.06
496.225	1638.06
496.442	1621.06
496.66	1656.06
496.877	1594.06
497.094	1673.06
497.312	1656.06
497.529	1633.06
497.746	1640.06
497.963	1862.06
498.181	1982.06
498.398	1926.06
498.615	1841.06
498.832	1753.06
499.049	1727.06
499.267	1803.06
499.484	1911.06
499.701	2043.06
499.918	2070.06
500.135	2267.06
500.352	2368.06
500.569	2357.06
500.786	2538.06
501.003	2328.06
501.22	2102.06
501.437	2091.06
501.654	2090.06
501.871	1990.06
502.088	1825.06
502.305	1803.06
502.522	1695.06
502.739	1570.06
502.956	1599.06
503.172	1579.06
503.389	1517.06
503.606	1470.06
503.823	1508.06
504.04	1481.06
504.256	1491.06
504.473	1510.06
504.69	1526.06
504.907	1465.06
505.123	1423.06
505.34	1595.06
505.557	1992.06
505.773	1702.06
505.99	1413.06
506.207	1313.06
506.423	1265.06
506.64	1302.06
506.856	1335.06
507.073	1537.06
507.289	1602.06
507.506	1501.06
507.722	1327.06
507.939	1258.06
508.155	1257.06
508.372	1256.06
508.588	1213.06
508.805	1213.06
509.021	1166.06
509.238	1155.06
509.454	1166.06
509.67	1166.06
509.887	1143.06
510.103	1158.06
510.319	1182.06
510.536	1220.06
510.752	1237.06
510.968	1218.06
511.184	1296.06
511.401	1266.06
511.617	1109.06
511.833	1102.06
512.049	1118.06
512.265	1109.06
512.481	1123.06
512.698	1165.06
512.914	1222.06
513.13	1213.06
513.346	1136.06
513.562	1099.06
513.778	1133.06
513.994	1178.06
514.21	1197.06
514.426	1223.06
514.642	1299.06
514.858	1239.06
515.074	1133.06
515.29	1114.06
515.506	1163.06
515.721	1173.06
515.937	1209.06
516.153	1320.06
516.369	1249.06
516.585	1224.06
516.801	1140.06
517.016	1175.06
517.232	1204.06
517.448	1201.06
517.664	1232.06
517.879	1241.06
518.095	1260.06
518.311	1224.06
518.527	1198.06
518.742	1160.06
518.958	1160.06
519.173	1149.06
519.389	1177.06
519.605	1167.06
519.82	1150.06
520.036	1210.06
520.251	1146.06
520.467	1198.06
520.682	1267.06
520.898	1220.06
521.113	1144.06
521.329	1138.06
521.544	1202.06
521.76	1180.06
521.975	1126.06
522.19	1084.06
522.406	1121.06
522.621	1407.06
522.836	1321.06
523.052	1082.06
523.267	1107.06
523.482	1120.06
523.698	1089.06
523.913	1071.06
524.128	1087.06
524.343	1174.06
524.559	1190.06
524.774	1109.06
524.989	1096.06
525.204	1065.06
525.419	1058.06
525.634	1041.06
525.849	1059.06
526.064	1062.06
526.28	1082.06
526.495	1026.06
526.71	990.06
526.925	983.06
527.14	1009.06
527.355	989.06
527.57	984.06
527.785	1024.06
527.999	1009.06
528.214	1000.06
528.429	995.06
528.644	1032.06
528.859	1053.06
529.074	1092.06
529.289	1119.06
529.503	1126.06
529.718	1064.06
529.933	1009.06
530.148	971.06
530.363	1010.06
530.577	977.06
530.792	977.06
531.007	1014.06
531.221	987.06
531.436	1009.06
531.651	993.06
531.865	1054.06
532.08	1031.06
532.295	968.06
532.509	954.06
532.724	963.06
532.938	1001.06
533.153	1066.06
533.367	1049.06
533.582	1031.06
533.796	1037.06
534.011	1053.06
534.225	1022.06
534.44	971.06
534.654	978.06
534.868	980.06
535.083	1042.06
535.297	1053.06
535.511	1012.06
535.726	1010.06
535.94	975.06
536.154	964.06
536.369	964.06
536.583	949.06
536.797	942.06
537.011	967.06
537.225	935.06
537.44	960.06
537.654	983.06
537.868	943.06
538.082	896.06
538.296	896.06
538.51	903.06
538.724	937.06
538.938	970.06
539.153	1031.06
539.367	995.06
539.581	978.06
539.795	1014.06
540.009	960.06
540.222	951.06
540.436	984.06
540.65	1079.06
540.864	1075.06
541.078	1104.06
541.292	1025.06
541.506	1081.06
541.72	1085.06
541.934	1149.06
542.147	1179.06
542.361	1156.06
542.575	1085.06
542.789	1016.06
543.002	983.06
543.216	951.06
543.43	1031.06
543.644	1075.06
543.857	1119.06
544.071	1125.06
544.285	1136.06
544.498	1111.06
544.712	1107.06
544.925	1121.06
545.139	1133.06
545.352	1089.06
545.566	1062.06
545.779	1048.06
545.993	1083.06
546.206	1111.06
546.42	1075.06
546.633	1058.06
546.847	1073.06
547.06	1081.06
547.274	1065.06
547.487	1067.06
547.7	1068.06
547.914	1098.06
548.127	1099.06
548.34	1101.06
548.554	1077.06
548.767	1075.06
548.98	1083.06
549.193	1082.06
549.407	1129.06
549.62	1114.06
549.833	1043.06
550.046	1064.06
550.259	1042.06
550.473	1045.06
550.686	1044.06
550.899	1009.06
551.112	992.06
551.325	971.06
551.538	1024.06
551.751	1169.06
551.964	943.06
552.177	928.06
552.39	990.06
552.603	1032.06
552.816	1025.06
553.029	1066.06
553.242	1055.06
553.455	1049.06
553.667	1056.06
553.88	1025.06
554.093	1042.06
554.306	1008.06
554.519	961.06
554.732	970.06
554.944	948.06
555.157	983.06
555.37	966.06
555.583	947.06
555.795	933.06
556.008	905.06
556.221	889.06
556.433	882.06
556.646	864.06
556.859	886.06
557.071	895.06
557.284	887.06
557.496	885.06
557.709	887.06
557.921	852.06
558.134	867.06
558.346	877.06
558.559	867.06
558.771	826.06
558.984	839.06
559.196	792.06
559.409	823.06
559.621	825.06
559.833	803.06
560.046	838.06
560.258	831.06
560.47	818.06
560.683	822.06
560.895	824.06
561.107	819.06
561.32	829.06
561.532	823.06
561.744	803.06
561.956	827.06
562.168	790.06
562.381	753.06
562.593	786.06
562.805	813.06
563.017	781.06
563.229	806.06
563.441	822.06
563.653	789.06
563.865	778.06
564.077	770.06
564.289	786.06
564.501	779.06
564.713	819.06
564.925	825.06
565.137	889.06
565.349	844.06
565.561	800.06
565.773	824.06
565.985	833.06
566.197	867.06
566.408	903.06
566.62	929.06
566.832	911.06
567.044	909.06
567.255	871.06
567.467	891.06
567.679	922.06
567.891	949.06
568.102	901.06
568.314	836.06
568.526	790.06
568.737	783.06
568.949	727.06
569.161	699.06
569.372	688.06
569.584	676.06
569.795	659.06
570.007	689.06
570.218	659.06
570.43	633.06
570.641	661.06
570.853	665.06
571.064	650.06
571.276	656.06
571.487	671.06
571.698	643.06
571.91	623.06
572.121	629.06
572.333	620.06
572.544	596.06
572.755	579.06
572.966	571.06
573.178	582.06
573.389	594.06
573.6	609.06
573.811	648.06
574.023	595.06
574.234	568.06
574.445	549.06
574.656	548.06
574.867	561.06
575.078	558.06
575.289	574.06
575.501	572.06
575.712	542.06
575.923	546.06
576.134	570.06
576.345	558.06
576.556	545.06
576.767	547.06
576.978	547.06
577.188	521.06
577.399	523.06
577.61	538.06
577.821	519.06
578.032	506.06
578.243	532.06
578.454	502.06
578.665	530.06
578.875	499.06
579.086	495.06
579.297	493.06
579.508	523.06
579.718	540.06
579.929	508.06
580.14	490.06
580.35	480.06
580.561	507.06
580.772	549.06
580.982	510.06
581.193	506.06
581.403	487.06
581.614	493.06
581.825	486.06
582.035	490.06
582.246	487.06
582.456	497.06
582.667	497.06
582.877	461.06
583.087	466.06
583.298	454.06
583.508	445.06
583.719	473.06
583.929	490.06
584.139	486.06
584.35	445.06
584.56	455.06
584.77	493.06
584.981	472.06
585.191	470.06
585.401	474.06
585.611	476.06
585.821	454.06
586.032	447.06
586.242	445.06
586.452	462.06
586.662	462.06
586.872	459.06
587.082	455.06
587.292	458.06
587.502	474.06
587.713	448.06
587.923	458.06
588.133	443.06
588.343	470.06
588.553	466.06
588.762	463.06
588.972	451.06
589.182	460.06
589.392	449.06
589.602	447.06
589.812	437.06
590.022	433.06
590.232	441.06
590.441	448.06
590.651	436.06
590.861	432.06
591.071	425.06
591.281	423.06
591.49	435.06
591.7	436.06
591.91	449.06
592.119	458.06
592.329	432.06
592.539	475.06
592.748	479.06
592.958	473.06
593.167	459.06
593.377	489.06
593.587	455.06
593.796	477.06
594.006	469.06
594.215	458.06
594.424	474.06
594.634	446.06
594.843	479.06
595.053	479.06
595.262	455.06
595.472	446.06
595.681	439.06
595.89	439.06
596.1	414.06
596.309	430.06
596.518	419.06
596.727	433.06
596.937	435.06
597.146	407.06
597.355	425.06
597.564	421.06
597.774	401.06
597.983	401.06
598.192	400.06
598.401	398.06
598.61	396.06
598.819	407.06
599.028	395.06
599.237	383.06
599.446	384.06
599.655	399.06
599.864	385.06
600.073	390.06
600.282	403.06
600.491	388.06
600.7	399.06
600.909	406.06
601.118	415.06
601.327	402.06
601.536	411.06
601.745	406.06
601.953	415.06
602.162	425.06
602.371	429.06
602.58	396.06
602.789	416.06
602.997	423.06
603.206	391.06
603.415	389.06
603.623	404.06
603.832	425.06
604.041	395.06
604.249	402.06
604.458	377.06
604.666	383.06
604.875	382.06
605.084	393.06
605.292	411.06
605.501	408.06
605.709	400.06
605.918	410.06
606.126	396.06
606.334	397.06
606.543	398.06
606.751	409.06
606.96	398.06
607.168	415.06
607.376	410.06
607.585	390.06
607.793	383.06
608.001	403.06
608.21	406.06
608.418	393.06
608.626	399.06
608.834	380.06
609.043	388.06
609.251	400.06
609.459	381.06
609.667	393.06
609.875	394.06
610.083	409.06
610.291	405.06
610.499	412.06
610.707	403.06
610.916	392.06
611.124	397.06
611.332	405.06
611.54	410.06
611.748	395.06
611.955	381.06
612.163	384.06
612.371	386.06
612.579	391.06
612.787	390.06
612.995	389.06
613.203	422.06
613.411	397.06
613.618	395.06
613.826	371.06
614.034	355.06
614.242	397.06
614.449	392.06
614.657	400.06
614.865	378.06
615.072	387.06
615.28	385.06
615.488	385.06
615.695	416.06
615.903	391.06
616.111	406.06
616.318	391.06
616.526	383.06
616.733	378.06
616.941	373.06
617.148	375.06
617.356	384.06
617.563	402.06
617.771	372.06
617.978	362.06
618.185	377.06
618.393	377.06
618.6	362.06
618.807	392.06
619.015	367.06
619.222	365.06
619.429	360.06
619.637	343.06
619.844	349.06
620.051	357.06
620.258	352.06
620.466	337.06
620.673	349.06
620.88	355.06
621.087	345.06
621.294	332.06
621.501	324.06
621.708	351.06
621.915	359.06
622.122	342.06
622.329	346.06
622.536	370.06
622.743	357.06
622.95	333.06
623.157	360.06
623.364	359.06
623.571	352.06
623.778	328.06
623.985	349.06
624.192	334.06
624.399	352.06
624.606	339.06
624.812	328.06
625.019	331.06
625.226	316.06
625.433	324.06
625.639	315.06
625.846	305.06
626.053	275.06
626.259	288.06
626.466	297.06
626.673	293.06
626.879	288.06
627.086	309.06
627.293	315.06
627.499	315.06
627.706	323.06
627.912	326.06
628.119	320.06
628.325	324.06
628.532	324.06
628.738	330.06
628.945	325.06
629.151	315.06
629.357	325.06
629.564	322.06
629.77	306.06
629.976	313.06
630.183	291.06
630.389	301.06
630.595	302.06
630.802	320.06
631.008	302.06
631.214	303.06
631.42	274.06
631.627	285.06
631.833	271.06
632.039	276.06
632.245	282.06
632.451	291.06
632.657	310.06
632.863	281.06
633.069	296.06
633.275	291.06
633.481	281.06
633.688	291.06
633.893	265.06
634.099	279.06
634.305	260.06
634.511	289.06
634.717	267.06
634.923	242.06
635.129	262.06
635.335	276.06
635.541	270.06
635.747	291.06
635.952	278.06
636.158	281.06
636.364	282.06
636.57	257.06
636.775	275.06
636.981	293.06
637.187	278.06
637.392	277.06
637.598	281.06
637.804	291.06
638.009	269.06
638.215	272.06
638.421	259.06
638.626	259.06
638.832	266.06
639.037	280.06
639.243	256.06
639.448	265.06
639.654	242.06
639.859	265.06
640.065	245.06
640.27	264.06
640.475	256.06
640.681	266.06
640.886	278.06
641.091	282.06
641.297	271.06
641.502	283.06
641.707	272.06
641.913	278.06
642.118	254.06
642.323	244.06
642.528	269.06
642.733	238.06
642.939	250.06
643.144	255.06
643.349	277.06
643.554	267.06
643.759	238.06
643.964	261.06
644.169	256.06
644.374	253.06
644.579	261.06
644.784	284.06
644.989	292.06
645.194	265.06
645.399	262.06
645.604	249.06
645.809	262.06
646.014	273.06
646.219	274.06
646.423	247.06
646.628	243.06
646.833	256.06
647.038	265.06
647.243	258.06
647.447	262.06
647.652	249.06
647.857	258.06
648.062	251.06
648.266	247.06
648.471	270.06
648.676	258.06
648.88	254.06
649.085	256.06
649.289	239.06
649.494	255.06
649.698	234.06
649.903	274.06
650.107	247.06
650.312	231.06
650.516	257.06
650.721	255.06
650.925	246.06
651.13	245.06
651.334	237.06
651.539	230.06
651.743	227.06
651.947	242.06
652.152	230.06
652.356	222.06
652.56	221.06
652.764	234.06
652.969	216.06
653.173	229.06
653.377	229.06
653.581	240.06
653.785	225.06
653.99	213.06
654.194	219.06
654.398	223.06
654.602	214.06
654.806	225.06
655.01	229.06
655.214	210.06
655.418	228.06
655.622	214.06
655.826	226.06
656.03	229.06
656.234	227.06
656.438	240.06
656.642	261.06
656.846	253.06
657.049	239.06
657.253	205.06
657.457	205.06
657.661	189.06
657.865	170.06
658.068	166.06
658.272	158.06
658.476	166.06
658.68	162.06
658.883	153.06
659.087	130.06
659.291	138.06
659.494	136.06
659.698	144.06
659.901	133.06
660.105	148.06
660.309	122.06
660.512	122.06
660.716	119.06
660.919	121.06
661.123	107.06
661.326	101.06
661.53	95.06
661.733	99.06
661.936	100.06
662.14	101.06
662.343	106.06
662.546	101.06
662.75	97.06
662.953	103.06
663.156	85.06
663.36	106.06
663.563	86.06
663.766	94.06
663.969	83.06
664.173	81.06
664.376	70.06
664.579	91.06
664.782	83.06
664.985	83.06
665.188	89.06
665.391	90.06
665.594	79.06
665.797	87.06
666	82.06
666.203	97.06
666.406	75.06
666.609	94.06
666.812	81.06
667.015	83.06
667.218	80.06
667.421	82.06
667.624	91.06
667.827	79.06
668.03	77.06
668.232	78.06
668.435	76.06
668.638	74.06
668.841	93.06
669.043	78.06
669.246	74.06
669.449	84.06
669.651	77.06
669.854	93.06
670.057	83.06
670.259	86.06
670.462	68.06
670.665	82.06
670.867	89.06
671.07	83.06
671.272	90.06
671.475	85.06
671.677	67.06
671.88	71.06
672.082	78.06
672.284	71.06
672.487	74.06
672.689	79.06
672.892	86.06
