Data from WStandard_LampEnergy10_LIBS07252019.E.O._I.C._HRD10591_15-55-46-928.txt Node
Date: Thu Jul 25 15:55:46 EDT 2019
User: cochatt
Spectrometer: HR+D1059
Trigger mode: 1
Integration Time (sec): 1.000000E-1
Scans to average: 1
Electric dark correction enabled: true
Nonlinearity correction enabled: false
Boxcar width: 0
XAxis mode: Wavelengths
Number of Pixels in Spectrum: 2048
>>>>>Begin Spectral Data<<<<<
223.165	-15.88
223.4	-15.88
223.635	-15.88
223.869	-26.88
224.104	-24.88
224.338	-18.88
224.573	-20.88
224.808	-9.88
225.042	0.12
225.277	-2.88
225.511	0.12
225.746	3.12
225.98	13.12
226.215	19.12
226.449	16.12
226.683	18.12
226.918	22.12
227.152	28.12
227.387	25.12
227.621	40.12
227.856	41.12
228.09	57.12
228.324	54.12
228.559	56.12
228.793	91.12
229.027	122.12
229.262	133.12
229.496	161.12
229.73	140.12
229.964	157.12
230.199	176.12
230.433	165.12
230.667	184.12
230.901	201.12
231.136	178.12
231.37	186.12
231.604	182.12
231.838	171.12
232.072	182.12
232.306	178.12
232.541	182.12
232.775	202.12
233.009	201.12
233.243	184.12
233.477	175.12
233.711	183.12
233.945	216.12
234.179	201.12
234.413	208.12
234.647	232.12
234.881	208.12
235.115	187.12
235.349	200.12
235.583	201.12
235.817	210.12
236.051	185.12
236.285	183.12
236.519	204.12
236.753	213.12
236.987	210.12
237.221	213.12
237.455	231.12
237.689	237.12
237.922	230.12
238.156	243.12
238.39	225.12
238.624	231.12
238.858	246.12
239.091	254.12
239.325	265.12
239.559	289.12
239.793	288.12
240.027	289.12
240.26	280.12
240.494	249.12
240.728	216.12
240.961	228.12
241.195	220.12
241.429	261.12
241.662	264.12
241.896	249.12
242.13	254.12
242.363	273.12
242.597	287.12
242.83	275.12
243.064	266.12
243.298	291.12
243.531	276.12
243.765	278.12
243.998	267.12
244.232	252.12
244.465	251.12
244.699	256.12
244.932	282.12
245.166	316.12
245.399	311.12
245.633	289.12
245.866	276.12
246.099	278.12
246.333	291.12
246.566	289.12
246.8	337.12
247.033	348.12
247.266	318.12
247.5	313.12
247.733	317.12
247.966	325.12
248.2	342.12
248.433	343.12
248.666	391.12
248.899	384.12
249.133	441.12
249.366	472.12
249.599	408.12
249.832	346.12
250.066	346.12
250.299	367.12
250.532	356.12
250.765	322.12
250.998	346.12
251.231	334.12
251.465	357.12
251.698	348.12
251.931	349.12
252.164	353.12
252.397	362.12
252.63	358.12
252.863	312.12
253.096	343.12
253.329	342.12
253.562	349.12
253.795	362.12
254.028	359.12
254.261	355.12
254.494	344.12
254.727	340.12
254.96	321.12
255.193	376.12
255.426	423.12
255.659	466.12
255.892	450.12
256.124	378.12
256.357	370.12
256.59	385.12
256.823	412.12
257.056	407.12
257.289	477.12
257.521	507.12
257.754	463.12
257.987	454.12
258.22	454.12
258.452	447.12
258.685	409.12
258.918	392.12
259.151	378.12
259.383	383.12
259.616	328.12
259.849	356.12
260.081	423.12
260.314	433.12
260.547	465.12
260.779	464.12
261.012	449.12
261.244	401.12
261.477	371.12
261.71	399.12
261.942	384.12
262.175	384.12
262.407	417.12
262.64	380.12
262.872	358.12
263.105	376.12
263.337	356.12
263.57	375.12
263.802	379.12
264.035	349.12
264.267	328.12
264.499	334.12
264.732	360.12
264.964	366.12
265.197	406.12
265.429	421.12
265.661	453.12
265.894	481.12
266.126	510.12
266.358	462.12
266.591	462.12
266.823	476.12
267.055	424.12
267.287	459.12
267.52	445.12
267.752	438.12
267.984	457.12
268.216	452.12
268.448	463.12
268.681	447.12
268.913	422.12
269.145	410.12
269.377	420.12
269.609	441.12
269.841	505.12
270.073	570.12
270.306	598.12
270.538	605.12
270.77	519.12
271.002	478.12
271.234	471.12
271.466	470.12
271.698	534.12
271.93	590.12
272.162	595.12
272.394	541.12
272.626	501.12
272.858	444.12
273.09	425.12
273.322	412.12
273.553	393.12
273.785	402.12
274.017	406.12
274.249	451.12
274.481	431.12
274.713	410.12
274.945	408.12
275.176	416.12
275.408	402.12
275.64	366.12
275.872	399.12
276.104	446.12
276.335	499.12
276.567	530.12
276.799	507.12
277.031	462.12
277.262	478.12
277.494	472.12
277.726	540.12
277.957	496.12
278.189	472.12
278.421	441.12
278.652	418.12
278.884	428.12
279.115	426.12
279.347	460.12
279.579	440.12
279.81	441.12
280.042	468.12
280.273	505.12
280.505	481.12
280.736	494.12
280.968	469.12
281.199	432.12
281.431	420.12
281.662	400.12
281.894	410.12
282.125	421.12
282.356	452.12
282.588	466.12
282.819	463.12
283.051	473.12
283.282	514.12
283.513	490.12
283.745	429.12
283.976	438.12
284.207	418.12
284.439	427.12
284.67	444.12
284.901	455.12
285.132	462.12
285.364	454.12
285.595	449.12
285.826	450.12
286.057	457.12
286.288	445.12
286.52	472.12
286.751	499.12
286.982	488.12
287.213	449.12
287.444	424.12
287.675	449.12
287.906	504.12
288.138	477.12
288.369	473.12
288.6	444.12
288.831	438.12
289.062	451.12
289.293	447.12
289.524	467.12
289.755	484.12
289.986	450.12
290.217	459.12
290.448	449.12
290.679	451.12
290.91	476.12
291.141	491.12
291.371	475.12
291.602	487.12
291.833	462.12
292.064	471.12
292.295	488.12
292.526	489.12
292.757	494.12
292.987	469.12
293.218	491.12
293.449	527.12
293.68	586.12
293.91	595.12
294.141	580.12
294.372	538.12
294.603	553.12
294.833	565.12
295.064	537.12
295.295	486.12
295.525	456.12
295.756	430.12
295.987	418.12
296.217	452.12
296.448	446.12
296.679	478.12
296.909	483.12
297.14	453.12
297.37	477.12
297.601	516.12
297.831	511.12
298.062	521.12
298.292	449.12
298.523	452.12
298.753	472.12
298.984	461.12
299.214	481.12
299.445	497.12
299.675	501.12
299.905	518.12
300.136	463.12
300.366	461.12
300.597	448.12
300.827	471.12
301.057	501.12
301.288	506.12
301.518	511.12
301.748	523.12
301.979	558.12
302.209	570.12
302.439	567.12
302.669	580.12
302.9	554.12
303.13	480.12
303.36	504.12
303.59	501.12
303.82	499.12
304.051	510.12
304.281	498.12
304.511	542.12
304.741	568.12
304.971	621.12
305.201	633.12
305.431	565.12
305.661	485.12
305.891	458.12
306.121	466.12
306.352	490.12
306.582	510.12
306.812	532.12
307.042	551.12
307.272	573.12
307.502	595.12
307.731	619.12
307.961	636.12
308.191	596.12
308.421	512.12
308.651	496.12
308.881	513.12
309.111	489.12
309.341	484.12
309.571	496.12
309.8	484.12
310.03	505.12
310.26	490.12
310.49	516.12
310.72	505.12
310.949	521.12
311.179	520.12
311.409	499.12
311.639	498.12
311.868	498.12
312.098	507.12
312.328	503.12
312.557	483.12
312.787	502.12
313.017	517.12
313.246	513.12
313.476	496.12
313.706	532.12
313.935	523.12
314.165	527.12
314.394	564.12
314.624	609.12
314.853	613.12
315.083	629.12
315.312	624.12
315.542	597.12
315.771	541.12
316.001	564.12
316.23	560.12
316.46	565.12
316.689	559.12
316.919	530.12
317.148	531.12
317.377	541.12
317.607	579.12
317.836	623.12
318.065	614.12
318.295	605.12
318.524	570.12
318.753	549.12
318.983	574.12
319.212	568.12
319.441	526.12
319.67	557.12
319.9	573.12
320.129	598.12
320.358	590.12
320.587	623.12
320.816	596.12
321.046	582.12
321.275	598.12
321.504	589.12
321.733	620.12
321.962	621.12
322.191	569.12
322.42	535.12
322.649	546.12
322.878	560.12
323.108	562.12
323.337	594.12
323.566	581.12
323.795	578.12
324.024	586.12
324.253	546.12
324.482	553.12
324.71	547.12
324.939	513.12
325.168	556.12
325.397	560.12
325.626	568.12
325.855	576.12
326.084	564.12
326.313	549.12
326.542	567.12
326.77	575.12
326.999	584.12
327.228	541.12
327.457	512.12
327.686	526.12
327.914	550.12
328.143	562.12
328.372	555.12
328.6	551.12
328.829	567.12
329.058	545.12
329.287	557.12
329.515	581.12
329.744	586.12
329.972	608.12
330.201	617.12
330.43	620.12
330.658	596.12
330.887	604.12
331.115	581.12
331.344	582.12
331.572	593.12
331.801	591.12
332.03	602.12
332.258	598.12
332.486	593.12
332.715	597.12
332.943	607.12
333.172	604.12
333.4	611.12
333.629	608.12
333.857	680.12
334.085	728.12
334.314	827.12
334.542	834.12
334.771	761.12
334.999	694.12
335.227	648.12
335.455	630.12
335.684	622.12
335.912	656.12
336.14	664.12
336.369	620.12
336.597	607.12
336.825	605.12
337.053	655.12
337.281	678.12
337.51	676.12
337.738	689.12
337.966	652.12
338.194	610.12
338.422	604.12
338.65	591.12
338.878	576.12
339.106	570.12
339.334	559.12
339.562	586.12
339.79	585.12
340.018	609.12
340.246	624.12
340.474	608.12
340.702	629.12
340.93	624.12
341.158	611.12
341.386	598.12
341.614	599.12
341.842	571.12
342.07	596.12
342.298	624.12
342.526	589.12
342.754	579.12
342.981	613.12
343.209	602.12
343.437	604.12
343.665	587.12
343.893	608.12
344.12	641.12
344.348	637.12
344.576	624.12
344.804	587.12
345.031	610.12
345.259	598.12
345.487	584.12
345.714	558.12
345.942	579.12
346.17	555.12
346.397	561.12
346.625	576.12
346.853	532.12
347.08	545.12
347.308	543.12
347.535	546.12
347.763	570.12
347.99	563.12
348.218	548.12
348.445	544.12
348.673	558.12
348.9	579.12
349.128	599.12
349.355	615.12
349.583	606.12
349.81	574.12
350.037	525.12
350.265	530.12
350.492	556.12
350.72	553.12
350.947	569.12
351.174	574.12
351.402	544.12
351.629	514.12
351.856	526.12
352.083	525.12
352.311	523.12
352.538	551.12
352.765	566.12
352.992	572.12
353.22	546.12
353.447	563.12
353.674	562.12
353.901	574.12
354.128	549.12
354.355	570.12
354.583	580.12
354.81	594.12
355.037	589.12
355.264	563.12
355.491	559.12
355.718	552.12
355.945	541.12
356.172	532.12
356.399	553.12
356.626	532.12
356.853	574.12
357.08	638.12
357.307	686.12
357.534	637.12
357.761	582.12
357.988	549.12
358.215	536.12
358.441	561.12
358.668	536.12
358.895	572.12
359.122	573.12
359.349	633.12
359.576	589.12
359.802	567.12
360.029	530.12
360.256	562.12
360.483	554.12
360.709	584.12
360.936	599.12
361.163	633.12
361.39	672.12
361.616	698.12
361.843	690.12
362.07	657.12
362.296	546.12
362.523	574.12
362.749	564.12
362.976	571.12
363.203	571.12
363.429	572.12
363.656	578.12
363.882	615.12
364.109	645.12
364.335	662.12
364.562	628.12
364.788	600.12
365.015	578.12
365.241	569.12
365.468	591.12
365.694	619.12
365.92	596.12
366.147	585.12
366.373	551.12
366.599	561.12
366.826	570.12
367.052	574.12
367.278	588.12
367.505	590.12
367.731	628.12
367.957	608.12
368.184	640.12
368.41	675.12
368.636	680.12
368.862	682.12
369.089	682.12
369.315	650.12
369.541	601.12
369.767	578.12
369.993	607.12
370.219	597.12
370.445	602.12
370.672	663.12
370.898	701.12
371.124	658.12
371.35	616.12
371.576	650.12
371.802	668.12
372.028	637.12
372.254	621.12
372.48	594.12
372.706	633.12
372.932	582.12
373.158	620.12
373.384	626.12
373.61	630.12
373.835	650.12
374.061	638.12
374.287	623.12
374.513	612.12
374.739	620.12
374.965	640.12
375.191	652.12
375.416	627.12
375.642	662.12
375.868	697.12
376.094	703.12
376.319	664.12
376.545	653.12
376.771	650.12
376.997	679.12
377.222	700.12
377.448	663.12
377.674	661.12
377.899	676.12
378.125	704.12
378.35	697.12
378.576	667.12
378.802	635.12
379.027	607.12
379.253	616.12
379.478	622.12
379.704	634.12
379.929	640.12
380.155	648.12
380.38	676.12
380.606	645.12
380.831	653.12
381.057	705.12
381.282	668.12
381.507	683.12
381.733	725.12
381.958	744.12
382.184	687.12
382.409	669.12
382.634	684.12
382.86	681.12
383.085	675.12
383.31	712.12
383.535	776.12
383.761	779.12
383.986	742.12
384.211	723.12
384.436	746.12
384.662	732.12
384.887	766.12
385.112	749.12
385.337	739.12
385.562	712.12
385.787	734.12
386.013	770.12
386.238	756.12
386.463	780.12
386.688	812.12
386.913	841.12
387.138	829.12
387.363	764.12
387.588	747.12
387.813	777.12
388.038	774.12
388.263	788.12
388.488	771.12
388.713	730.12
388.938	714.12
389.163	729.12
389.387	758.12
389.612	731.12
389.837	740.12
390.062	745.12
390.287	752.12
390.512	737.12
390.736	717.12
390.961	723.12
391.186	704.12
391.411	736.12
391.636	749.12
391.86	736.12
392.085	741.12
392.31	756.12
392.534	742.12
392.759	780.12
392.984	736.12
393.208	780.12
393.433	800.12
393.658	825.12
393.882	800.12
394.107	790.12
394.331	746.12
394.556	734.12
394.78	755.12
395.005	808.12
395.229	796.12
395.454	867.12
395.678	849.12
395.903	804.12
396.127	825.12
396.352	826.12
396.576	846.12
396.801	861.12
397.025	847.12
397.249	836.12
397.474	824.12
397.698	809.12
397.922	836.12
398.147	900.12
398.371	925.12
398.595	881.12
398.82	859.12
399.044	887.12
399.268	934.12
399.492	953.12
399.717	964.12
399.941	990.12
400.165	984.12
400.389	992.12
400.613	978.12
400.837	1121.12
401.062	1180.12
401.286	994.12
401.51	942.12
401.734	986.12
401.958	923.12
402.182	897.12
402.406	884.12
402.63	871.12
402.854	877.12
403.078	898.12
403.302	863.12
403.526	908.12
403.75	921.12
403.974	958.12
404.198	915.12
404.422	989.12
404.645	1028.12
404.869	974.12
405.093	899.12
405.317	863.12
405.541	937.12
405.765	941.12
405.988	918.12
406.212	939.12
406.436	971.12
406.66	978.12
406.883	1026.12
407.107	1122.12
407.331	1219.12
407.555	1280.12
407.778	1108.12
408.002	958.12
408.226	973.12
408.449	942.12
408.673	937.12
408.896	944.12
409.12	968.12
409.344	947.12
409.567	919.12
409.791	930.12
410.014	971.12
410.238	1022.12
410.461	1081.12
410.685	952.12
410.908	930.12
411.132	937.12
411.355	905.12
411.578	924.12
411.802	946.12
412.025	933.12
412.249	938.12
412.472	922.12
412.695	939.12
412.919	901.12
413.142	908.12
413.365	927.12
413.589	910.12
413.812	996.12
414.035	1022.12
414.258	932.12
414.482	894.12
414.705	929.12
414.928	929.12
415.151	929.12
415.374	916.12
415.597	956.12
415.821	931.12
416.044	945.12
416.267	926.12
416.49	884.12
416.713	869.12
416.936	927.12
417.159	953.12
417.382	974.12
417.605	908.12
417.828	910.12
418.051	942.12
418.274	933.12
418.497	894.12
418.72	922.12
418.943	899.12
419.166	969.12
419.389	1031.12
419.611	957.12
419.834	904.12
420.057	953.12
420.28	933.12
420.503	902.12
420.726	987.12
420.948	918.12
421.171	914.12
421.394	930.12
421.617	998.12
421.839	970.12
422.062	957.12
422.285	928.12
422.507	924.12
422.73	904.12
422.953	882.12
423.175	870.12
423.398	909.12
423.621	923.12
423.843	912.12
424.066	969.12
424.288	991.12
424.511	1026.12
424.733	986.12
424.956	930.12
425.178	915.12
425.401	927.12
425.623	935.12
425.846	927.12
426.068	982.12
426.291	933.12
426.513	958.12
426.735	946.12
426.958	1021.12
427.18	1073.12
427.402	957.12
427.625	1009.12
427.847	1011.12
428.069	891.12
428.292	903.12
428.514	905.12
428.736	901.12
428.958	911.12
429.181	917.12
429.403	1064.12
429.625	1206.12
429.847	1044.12
430.069	934.12
430.292	1021.12
430.514	1040.12
430.736	946.12
430.958	965.12
431.18	917.12
431.402	908.12
431.624	848.12
431.846	792.12
432.068	716.12
432.29	741.12
432.512	799.12
432.734	847.12
432.956	922.12
433.178	949.12
433.4	910.12
433.622	964.12
433.844	911.12
434.066	870.12
434.287	782.12
434.509	802.12
434.731	839.12
434.953	873.12
435.175	921.12
435.397	904.12
435.618	888.12
435.84	828.12
436.062	867.12
436.284	903.12
436.505	918.12
436.727	931.12
436.949	917.12
437.17	893.12
437.392	863.12
437.614	826.12
437.835	790.12
438.057	827.12
438.278	822.12
438.5	852.12
438.721	883.12
438.943	915.12
439.165	917.12
439.386	900.12
439.608	939.12
439.829	930.12
440.05	934.12
440.272	916.12
440.493	940.12
440.715	979.12
440.936	1027.12
441.158	1054.12
441.379	1020.12
441.6	1052.12
441.822	1022.12
442.043	1005.12
442.264	993.12
442.486	955.12
442.707	949.12
442.928	981.12
443.149	953.12
443.371	1001.12
443.592	1028.12
443.813	1018.12
444.034	1009.12
444.255	998.12
444.476	1004.12
444.698	1025.12
444.919	1034.12
445.14	1138.12
445.361	1092.12
445.582	1036.12
445.803	1057.12
446.024	1047.12
446.245	1066.12
446.466	1078.12
446.687	1014.12
446.908	1028.12
447.129	1005.12
447.35	1016.12
447.571	952.12
447.792	979.12
448.013	952.12
448.234	995.12
448.455	980.12
448.675	989.12
448.896	902.12
449.117	878.12
449.338	922.12
449.559	955.12
449.779	960.12
450	1019.12
450.221	1064.12
450.442	1031.12
450.662	929.12
450.883	896.12
451.104	889.12
451.324	897.12
451.545	895.12
451.766	862.12
451.986	846.12
452.207	838.12
452.428	821.12
452.648	803.12
452.869	760.12
453.089	788.12
453.31	785.12
453.53	752.12
453.751	739.12
453.971	695.12
454.192	736.12
454.412	770.12
454.633	790.12
454.853	769.12
455.073	728.12
455.294	778.12
455.514	744.12
455.734	749.12
455.955	748.12
456.175	744.12
456.395	736.12
456.616	747.12
456.836	748.12
457.056	742.12
457.276	709.12
457.497	699.12
457.717	685.12
457.937	716.12
458.157	705.12
458.377	696.12
458.598	672.12
458.818	682.12
459.038	718.12
459.258	718.12
459.478	726.12
459.698	700.12
459.918	739.12
460.138	814.12
460.358	822.12
460.578	833.12
460.798	879.12
461.018	888.12
461.238	883.12
461.458	833.12
461.678	811.12
461.898	827.12
462.118	801.12
462.338	853.12
462.558	857.12
462.777	859.12
462.997	861.12
463.217	905.12
463.437	854.12
463.657	864.12
463.876	822.12
464.096	844.12
464.316	818.12
464.536	895.12
464.755	888.12
464.975	872.12
465.195	845.12
465.414	871.12
465.634	866.12
465.854	891.12
466.073	936.12
466.293	938.12
466.512	846.12
466.732	888.12
466.951	896.12
467.171	895.12
467.391	896.12
467.61	892.12
467.829	882.12
468.049	989.12
468.268	1067.12
468.488	916.12
468.707	912.12
468.927	906.12
469.146	897.12
469.365	906.12
469.585	915.12
469.804	916.12
470.023	914.12
470.243	954.12
470.462	964.12
470.681	920.12
470.901	898.12
471.12	926.12
471.339	919.12
471.558	915.12
471.777	899.12
471.997	888.12
472.216	845.12
472.435	795.12
472.654	740.12
472.873	778.12
473.092	833.12
473.311	834.12
473.53	818.12
473.749	785.12
473.968	837.12
474.187	854.12
474.406	865.12
474.625	850.12
474.844	885.12
475.063	882.12
475.282	880.12
475.501	816.12
475.72	831.12
475.939	885.12
476.158	908.12
476.377	860.12
476.596	850.12
476.814	840.12
477.033	801.12
477.252	841.12
477.471	897.12
477.69	910.12
477.908	914.12
478.127	967.12
478.346	1024.12
478.564	998.12
478.783	972.12
479.002	1026.12
479.22	1002.12
479.439	1022.12
479.658	1031.12
479.876	991.12
480.095	923.12
480.313	902.12
480.532	866.12
480.751	860.12
480.969	846.12
481.188	778.12
481.406	777.12
481.624	790.12
481.843	807.12
482.061	832.12
482.28	869.12
482.498	877.12
482.717	837.12
482.935	880.12
483.153	976.12
483.372	1008.12
483.59	1057.12
483.808	977.12
484.027	928.12
484.245	1017.12
484.463	1227.12
484.681	1261.12
484.9	1017.12
485.118	958.12
485.336	926.12
485.554	908.12
485.772	890.12
485.99	890.12
486.209	908.12
486.427	896.12
486.645	931.12
486.863	1003.12
487.081	1031.12
487.299	1024.12
487.517	1032.12
487.735	1092.12
487.953	1187.12
488.171	1176.12
488.389	1113.12
488.607	1088.12
488.825	1132.12
489.043	1064.12
489.261	991.12
489.479	1056.12
489.696	1042.12
489.914	1034.12
490.132	1014.12
490.35	1063.12
490.568	1164.12
490.786	1184.12
491.003	1203.12
491.221	1236.12
491.439	1285.12
491.657	1316.12
491.874	1330.12
492.092	1421.12
492.31	1435.12
492.527	1437.12
492.745	1376.12
492.963	1313.12
493.18	1294.12
493.398	1330.12
493.615	1292.12
493.833	1263.12
494.05	1217.12
494.268	1228.12
494.485	1217.12
494.703	1216.12
494.92	1211.12
495.138	1234.12
495.355	1241.12
495.573	1266.12
495.79	1276.12
496.008	1260.12
496.225	1205.12
496.442	1226.12
496.66	1236.12
496.877	1197.12
497.094	1236.12
497.312	1235.12
497.529	1194.12
497.746	1221.12
497.963	1256.12
498.181	1303.12
498.398	1251.12
498.615	1184.12
498.832	1157.12
499.049	1150.12
499.267	1174.12
499.484	1251.12
499.701	1324.12
499.918	1376.12
500.135	1452.12
500.352	1551.12
500.569	1536.12
500.786	1666.12
501.003	1513.12
501.22	1422.12
501.437	1385.12
501.654	1372.12
501.871	1351.12
502.088	1226.12
502.305	1181.12
502.522	1117.12
502.739	1123.12
502.956	1067.12
503.172	1054.12
503.389	1033.12
503.606	997.12
503.823	997.12
504.04	989.12
504.256	1012.12
504.473	1010.12
504.69	1003.12
504.907	976.12
505.123	966.12
505.34	1064.12
505.557	1340.12
505.773	1083.12
505.99	962.12
506.207	904.12
506.423	866.12
506.64	888.12
506.856	916.12
507.073	1037.12
507.289	1063.12
507.506	988.12
507.722	857.12
507.939	861.12
508.155	856.12
508.372	847.12
508.588	840.12
508.805	800.12
509.021	802.12
509.238	779.12
509.454	745.12
509.67	750.12
509.887	762.12
510.103	744.12
510.319	712.12
510.536	762.12
510.752	770.12
510.968	781.12
511.184	817.12
511.401	782.12
511.617	726.12
511.833	717.12
512.049	711.12
512.265	694.12
512.481	701.12
512.698	760.12
512.914	792.12
513.13	754.12
513.346	715.12
513.562	700.12
513.778	712.12
513.994	747.12
514.21	728.12
514.426	769.12
514.642	813.12
514.858	781.12
515.074	737.12
515.29	724.12
515.506	744.12
515.721	747.12
515.937	773.12
516.153	809.12
516.369	761.12
516.585	768.12
516.801	726.12
517.016	736.12
517.232	758.12
517.448	794.12
517.664	788.12
517.879	796.12
518.095	797.12
518.311	779.12
518.527	736.12
518.742	748.12
518.958	752.12
519.173	744.12
519.389	779.12
519.605	766.12
519.82	823.12
520.036	778.12
520.251	776.12
520.467	778.12
520.682	821.12
520.898	768.12
521.113	717.12
521.329	729.12
521.544	763.12
521.76	719.12
521.975	737.12
522.19	714.12
522.406	737.12
522.621	941.12
522.836	874.12
523.052	740.12
523.267	760.12
523.482	751.12
523.698	732.12
523.913	737.12
524.128	765.12
524.343	810.12
524.559	817.12
524.774	767.12
524.989	753.12
525.204	758.12
525.419	714.12
525.634	742.12
525.849	727.12
526.064	730.12
526.28	678.12
526.495	688.12
526.71	644.12
526.925	602.12
527.14	611.12
527.355	624.12
527.57	628.12
527.785	653.12
527.999	688.12
528.214	664.12
528.429	711.12
528.644	763.12
528.859	793.12
529.074	800.12
529.289	869.12
529.503	865.12
529.718	803.12
529.933	731.12
530.148	629.12
530.363	632.12
530.577	615.12
530.792	640.12
531.007	624.12
531.221	622.12
531.436	648.12
531.651	663.12
531.865	680.12
532.08	637.12
532.295	604.12
532.509	615.12
532.724	601.12
532.938	662.12
533.153	709.12
533.367	708.12
533.582	737.12
533.796	730.12
534.011	712.12
534.225	646.12
534.44	630.12
534.654	643.12
534.868	615.12
535.083	670.12
535.297	684.12
535.511	660.12
535.726	677.12
535.94	668.12
536.154	674.12
536.369	619.12
536.583	583.12
536.797	621.12
537.011	601.12
537.225	583.12
537.44	606.12
537.654	669.12
537.868	634.12
538.082	608.12
538.296	634.12
538.51	644.12
538.724	656.12
538.938	725.12
539.153	749.12
539.367	734.12
539.581	722.12
539.795	688.12
540.009	665.12
540.222	650.12
540.436	686.12
540.65	741.12
540.864	794.12
541.078	818.12
541.292	820.12
541.506	900.12
541.72	948.12
541.934	1022.12
542.147	1046.12
542.361	992.12
542.575	894.12
542.789	856.12
543.002	752.12
543.216	751.12
543.43	758.12
543.644	812.12
543.857	879.12
544.071	922.12
544.285	920.12
544.498	939.12
544.712	936.12
544.925	931.12
545.139	962.12
545.352	933.12
545.566	931.12
545.779	938.12
545.993	929.12
546.206	971.12
546.42	972.12
546.633	980.12
546.847	928.12
547.06	929.12
547.274	936.12
547.487	990.12
547.7	998.12
547.914	933.12
548.127	957.12
548.34	989.12
548.554	933.12
548.767	956.12
548.98	940.12
549.193	926.12
549.407	966.12
549.62	971.12
549.833	926.12
550.046	894.12
550.259	903.12
550.473	891.12
550.686	899.12
550.899	888.12
551.112	837.12
551.325	815.12
551.538	827.12
551.751	880.12
551.964	704.12
552.177	729.12
552.39	777.12
552.603	834.12
552.816	839.12
553.029	890.12
553.242	918.12
553.455	900.12
553.667	897.12
553.88	899.12
554.093	865.12
554.306	868.12
554.519	851.12
554.732	806.12
554.944	794.12
555.157	829.12
555.37	816.12
555.583	805.12
555.795	772.12
556.008	742.12
556.221	704.12
556.433	724.12
556.646	728.12
556.859	724.12
557.071	750.12
557.284	753.12
557.496	728.12
557.709	735.12
557.921	754.12
558.134	728.12
558.346	745.12
558.559	742.12
558.771	701.12
558.984	710.12
559.196	659.12
559.409	683.12
559.621	662.12
559.833	676.12
560.046	664.12
560.258	680.12
560.47	697.12
560.683	687.12
560.895	695.12
561.107	666.12
561.32	670.12
561.532	685.12
561.744	673.12
561.956	690.12
562.168	635.12
562.381	636.12
562.593	629.12
562.805	653.12
563.017	612.12
563.229	662.12
563.441	659.12
563.653	613.12
563.865	636.12
564.077	613.12
564.289	596.12
564.501	602.12
564.713	609.12
564.925	653.12
565.137	656.12
565.349	617.12
565.561	599.12
565.773	582.12
565.985	620.12
566.197	663.12
566.408	673.12
566.62	662.12
566.832	687.12
567.044	680.12
567.255	670.12
567.467	665.12
567.679	653.12
567.891	645.12
568.102	613.12
568.314	569.12
568.526	535.12
568.737	538.12
568.949	496.12
569.161	485.12
569.372	451.12
569.584	459.12
569.795	440.12
570.007	468.12
570.218	437.12
570.43	445.12
570.641	461.12
570.853	468.12
571.064	475.12
571.276	493.12
571.487	480.12
571.698	455.12
571.91	457.12
572.121	457.12
572.333	454.12
572.544	433.12
572.755	418.12
572.966	403.12
573.178	363.12
573.389	412.12
573.6	395.12
573.811	438.12
574.023	412.12
574.234	382.12
574.445	383.12
574.656	380.12
574.867	384.12
575.078	401.12
575.289	422.12
575.501	390.12
575.712	393.12
575.923	393.12
576.134	398.12
576.345	389.12
576.556	422.12
576.767	386.12
576.978	405.12
577.188	386.12
577.399	358.12
577.61	373.12
577.821	369.12
578.032	384.12
578.243	362.12
578.454	358.12
578.665	361.12
578.875	344.12
579.086	345.12
579.297	333.12
579.508	351.12
579.718	352.12
579.929	343.12
580.14	330.12
580.35	325.12
580.561	344.12
580.772	389.12
580.982	376.12
581.193	341.12
581.403	348.12
581.614	362.12
581.825	342.12
582.035	342.12
582.246	312.12
582.456	357.12
582.667	341.12
582.877	346.12
583.087	343.12
583.298	352.12
583.508	330.12
583.719	325.12
583.929	328.12
584.139	318.12
584.35	318.12
584.56	308.12
584.77	338.12
584.981	332.12
585.191	324.12
585.401	344.12
585.611	342.12
585.821	320.12
586.032	311.12
586.242	307.12
586.452	300.12
586.662	330.12
586.872	320.12
587.082	320.12
587.292	300.12
587.502	314.12
587.713	316.12
587.923	317.12
588.133	314.12
588.343	330.12
588.553	316.12
588.762	318.12
588.972	302.12
589.182	307.12
589.392	316.12
589.602	330.12
589.812	308.12
590.022	317.12
590.232	314.12
590.441	317.12
590.651	313.12
590.861	310.12
591.071	295.12
591.281	302.12
591.49	307.12
591.7	304.12
591.91	312.12
592.119	330.12
592.329	316.12
592.539	329.12
592.748	332.12
592.958	327.12
593.167	322.12
593.377	333.12
593.587	322.12
593.796	325.12
594.006	323.12
594.215	332.12
594.424	336.12
594.634	344.12
594.843	338.12
595.053	346.12
595.262	316.12
595.472	334.12
595.681	328.12
595.89	321.12
596.1	322.12
596.309	301.12
596.518	299.12
596.727	341.12
596.937	340.12
597.146	313.12
597.355	299.12
597.564	290.12
597.774	304.12
597.983	296.12
598.192	295.12
598.401	271.12
598.61	277.12
598.819	284.12
599.028	291.12
599.237	316.12
599.446	290.12
599.655	284.12
599.864	280.12
600.073	299.12
600.282	292.12
600.491	278.12
600.7	313.12
600.909	294.12
601.118	310.12
601.327	332.12
601.536	344.12
601.745	332.12
601.953	340.12
602.162	364.12
602.371	375.12
602.58	344.12
602.789	353.12
602.997	350.12
603.206	337.12
603.415	338.12
603.623	348.12
603.832	354.12
604.041	332.12
604.249	314.12
604.458	289.12
604.666	297.12
604.875	318.12
605.084	300.12
605.292	340.12
605.501	362.12
605.709	362.12
605.918	344.12
606.126	355.12
606.334	345.12
606.543	352.12
606.751	369.12
606.96	376.12
607.168	359.12
607.376	351.12
607.585	355.12
607.793	348.12
608.001	369.12
608.21	364.12
608.418	350.12
608.626	373.12
608.834	352.12
609.043	356.12
609.251	358.12
609.459	353.12
609.667	354.12
609.875	371.12
610.083	356.12
610.291	380.12
610.499	385.12
610.707	369.12
610.916	363.12
611.124	338.12
611.332	371.12
611.54	365.12
611.748	372.12
611.955	346.12
612.163	347.12
612.371	352.12
612.579	360.12
612.787	349.12
612.995	360.12
613.203	372.12
613.411	356.12
613.618	356.12
613.826	361.12
614.034	365.12
614.242	363.12
614.449	357.12
614.657	381.12
614.865	350.12
615.072	365.12
615.28	355.12
615.488	353.12
615.695	369.12
615.903	362.12
616.111	356.12
616.318	360.12
616.526	337.12
616.733	341.12
616.941	357.12
617.148	366.12
617.356	343.12
617.563	348.12
617.771	321.12
617.978	304.12
618.185	334.12
618.393	353.12
618.6	327.12
618.807	348.12
619.015	354.12
619.222	340.12
619.429	316.12
619.637	309.12
619.844	287.12
620.051	304.12
620.258	313.12
620.466	326.12
620.673	300.12
620.88	323.12
621.087	321.12
621.294	321.12
621.501	311.12
621.708	294.12
621.915	308.12
622.122	310.12
622.329	331.12
622.536	335.12
622.743	320.12
622.95	328.12
623.157	317.12
623.364	331.12
623.571	332.12
623.778	330.12
623.985	326.12
624.192	326.12
624.399	321.12
624.606	307.12
624.812	306.12
625.019	300.12
625.226	276.12
625.433	299.12
625.639	275.12
625.846	264.12
626.053	258.12
626.259	249.12
626.466	249.12
626.673	226.12
626.879	242.12
627.086	251.12
627.293	280.12
627.499	289.12
627.706	300.12
627.912	300.12
628.119	292.12
628.325	304.12
628.532	281.12
628.738	277.12
628.945	304.12
629.151	280.12
629.357	284.12
629.564	282.12
629.77	293.12
629.976	278.12
630.183	282.12
630.389	280.12
630.595	271.12
630.802	278.12
631.008	289.12
631.214	279.12
631.42	283.12
631.627	272.12
631.833	243.12
632.039	264.12
632.245	250.12
632.451	275.12
632.657	274.12
632.863	280.12
633.069	237.12
633.275	267.12
633.481	250.12
633.688	261.12
633.893	272.12
634.099	256.12
634.305	275.12
634.511	258.12
634.717	249.12
634.923	226.12
635.129	237.12
635.335	219.12
635.541	242.12
635.747	248.12
635.952	244.12
636.158	263.12
636.364	262.12
636.57	258.12
636.775	257.12
636.981	256.12
637.187	266.12
637.392	261.12
637.598	248.12
637.804	258.12
638.009	257.12
638.215	263.12
638.421	260.12
638.626	254.12
638.832	269.12
639.037	229.12
639.243	233.12
639.448	245.12
639.654	261.12
639.859	254.12
640.065	234.12
640.27	253.12
640.475	248.12
640.681	249.12
640.886	251.12
641.091	245.12
641.297	254.12
641.502	246.12
641.707	250.12
641.913	262.12
642.118	250.12
642.323	257.12
642.528	250.12
642.733	243.12
642.939	248.12
643.144	245.12
643.349	229.12
643.554	240.12
643.759	224.12
643.964	248.12
644.169	237.12
644.374	237.12
644.579	251.12
644.784	258.12
644.989	236.12
645.194	237.12
645.399	237.12
645.604	228.12
645.809	261.12
646.014	235.12
646.219	251.12
646.423	240.12
646.628	242.12
646.833	233.12
647.038	257.12
647.243	220.12
647.447	217.12
647.652	256.12
647.857	224.12
648.062	234.12
648.266	234.12
648.471	236.12
648.676	236.12
648.88	228.12
649.085	224.12
649.289	249.12
649.494	249.12
649.698	231.12
649.903	235.12
650.107	232.12
650.312	237.12
650.516	246.12
650.721	234.12
650.925	228.12
651.13	220.12
651.334	214.12
651.539	227.12
651.743	231.12
651.947	218.12
652.152	208.12
652.356	231.12
652.56	217.12
652.764	205.12
652.969	204.12
653.173	199.12
653.377	198.12
653.581	207.12
653.785	208.12
653.99	205.12
654.194	205.12
654.398	203.12
654.602	194.12
654.806	194.12
655.01	211.12
655.214	192.12
655.418	199.12
655.622	213.12
655.826	211.12
656.03	205.12
656.234	223.12
656.438	222.12
656.642	230.12
656.846	226.12
657.049	216.12
657.253	210.12
657.457	188.12
657.661	193.12
657.865	176.12
658.068	170.12
658.272	162.12
658.476	152.12
658.68	152.12
658.883	140.12
659.087	160.12
659.291	140.12
659.494	131.12
659.698	135.12
659.901	130.12
660.105	142.12
660.309	135.12
660.512	110.12
660.716	116.12
660.919	124.12
661.123	105.12
661.326	113.12
661.53	118.12
661.733	105.12
661.936	98.12
662.14	97.12
662.343	112.12
662.546	109.12
662.75	104.12
662.953	98.12
663.156	97.12
663.36	88.12
663.563	91.12
663.766	91.12
663.969	96.12
664.173	80.12
664.376	105.12
664.579	100.12
664.782	96.12
664.985	88.12
665.188	90.12
665.391	84.12
665.594	89.12
665.797	83.12
666	85.12
666.203	84.12
666.406	79.12
666.609	79.12
666.812	76.12
667.015	80.12
667.218	88.12
667.421	71.12
667.624	85.12
667.827	90.12
668.03	91.12
668.232	81.12
668.435	80.12
668.638	68.12
668.841	75.12
669.043	73.12
669.246	83.12
669.449	96.12
669.651	95.12
669.854	88.12
670.057	101.12
670.259	68.12
670.462	85.12
670.665	72.12
670.867	79.12
671.07	98.12
671.272	76.12
671.475	80.12
671.677	83.12
671.88	76.12
672.082	71.12
672.284	90.12
672.487	87.12
672.689	73.12
672.892	88.12
