Data from WStandard_LampEnergy8_LIBS07252019.E.O._I.C._HRD10591_15-58-17-929.txt Node
Date: Thu Jul 25 15:58:17 EDT 2019
User: cochatt
Spectrometer: HR+D1059
Trigger mode: 1
Integration Time (sec): 1.000000E-1
Scans to average: 1
Electric dark correction enabled: true
Nonlinearity correction enabled: false
Boxcar width: 0
XAxis mode: Wavelengths
Number of Pixels in Spectrum: 2048
>>>>>Begin Spectral Data<<<<<
223.165	-24.75
223.4	-24.75
223.635	-24.75
223.869	-1.75
224.104	-31.75
224.338	-10.75
224.573	-20.75
224.808	-20.75
225.042	3.25
225.277	6.25
225.511	3.25
225.746	2.25
225.98	2.25
226.215	1.25
226.449	14.25
226.683	22.25
226.918	25.25
227.152	30.25
227.387	25.25
227.621	34.25
227.856	32.25
228.09	34.25
228.324	37.25
228.559	50.25
228.793	87.25
229.027	221.25
229.262	210.25
229.496	222.25
229.73	236.25
229.964	224.25
230.199	252.25
230.433	276.25
230.667	284.25
230.901	275.25
231.136	277.25
231.37	262.25
231.604	267.25
231.838	273.25
232.072	280.25
232.306	235.25
232.541	264.25
232.775	299.25
233.009	333.25
233.243	332.25
233.477	311.25
233.711	274.25
233.945	297.25
234.179	307.25
234.413	316.25
234.647	333.25
234.881	314.25
235.115	302.25
235.349	313.25
235.583	306.25
235.817	307.25
236.051	298.25
236.285	320.25
236.519	334.25
236.753	348.25
236.987	379.25
237.221	346.25
237.455	389.25
237.689	390.25
237.922	353.25
238.156	361.25
238.39	358.25
238.624	379.25
238.858	382.25
239.091	406.25
239.325	422.25
239.559	475.25
239.793	489.25
240.027	508.25
240.26	493.25
240.494	384.25
240.728	379.25
240.961	398.25
241.195	381.25
241.429	426.25
241.662	414.25
241.896	405.25
242.13	415.25
242.363	450.25
242.597	452.25
242.83	453.25
243.064	470.25
243.298	490.25
243.531	469.25
243.765	473.25
243.998	469.25
244.232	410.25
244.465	420.25
244.699	404.25
244.932	471.25
245.166	525.25
245.399	495.25
245.633	471.25
245.866	455.25
246.099	472.25
246.333	498.25
246.566	480.25
246.8	532.25
247.033	564.25
247.266	538.25
247.5	514.25
247.733	559.25
247.966	559.25
248.2	604.25
248.433	600.25
248.666	634.25
248.899	684.25
249.133	768.25
249.366	830.25
249.599	697.25
249.832	608.25
250.066	631.25
250.299	628.25
250.532	617.25
250.765	553.25
250.998	581.25
251.231	608.25
251.465	603.25
251.698	603.25
251.931	598.25
252.164	622.25
252.397	606.25
252.63	634.25
252.863	548.25
253.096	594.25
253.329	586.25
253.562	604.25
253.795	653.25
254.028	644.25
254.261	592.25
254.494	576.25
254.727	550.25
254.96	588.25
255.193	650.25
255.426	710.25
255.659	780.25
255.892	791.25
256.124	686.25
256.357	678.25
256.59	714.25
256.823	711.25
257.056	741.25
257.289	850.25
257.521	928.25
257.754	834.25
257.987	812.25
258.22	839.25
258.452	843.25
258.685	705.25
258.918	678.25
259.151	677.25
259.383	645.25
259.616	584.25
259.849	644.25
260.081	705.25
260.314	779.25
260.547	837.25
260.779	849.25
261.012	798.25
261.244	696.25
261.477	700.25
261.71	695.25
261.942	694.25
262.175	671.25
262.407	721.25
262.64	691.25
262.872	644.25
263.105	641.25
263.337	633.25
263.57	634.25
263.802	657.25
264.035	604.25
264.267	603.25
264.499	576.25
264.732	617.25
264.964	657.25
265.197	681.25
265.429	734.25
265.661	775.25
265.894	850.25
266.126	862.25
266.358	789.25
266.591	811.25
266.823	849.25
267.055	804.25
267.287	800.25
267.52	763.25
267.752	767.25
267.984	789.25
268.216	799.25
268.448	809.25
268.681	796.25
268.913	743.25
269.145	712.25
269.377	706.25
269.609	795.25
269.841	891.25
270.073	1003.25
270.306	1091.25
270.538	1134.25
270.77	994.25
271.002	842.25
271.234	819.25
271.466	862.25
271.698	904.25
271.93	1058.25
272.162	1056.25
272.394	951.25
272.626	907.25
272.858	827.25
273.09	732.25
273.322	724.25
273.553	689.25
273.785	707.25
274.017	736.25
274.249	800.25
274.481	779.25
274.713	732.25
274.945	695.25
275.176	708.25
275.408	716.25
275.64	678.25
275.872	713.25
276.104	763.25
276.335	837.25
276.567	922.25
276.799	914.25
277.031	871.25
277.262	802.25
277.494	846.25
277.726	892.25
277.957	882.25
278.189	805.25
278.421	760.25
278.652	745.25
278.884	745.25
279.115	768.25
279.347	754.25
279.579	732.25
279.81	762.25
280.042	833.25
280.273	895.25
280.505	907.25
280.736	895.25
280.968	846.25
281.199	746.25
281.431	716.25
281.662	727.25
281.894	729.25
282.125	751.25
282.356	771.25
282.588	778.25
282.819	804.25
283.051	857.25
283.282	882.25
283.513	852.25
283.745	759.25
283.976	725.25
284.207	727.25
284.439	736.25
284.67	770.25
284.901	787.25
285.132	790.25
285.364	781.25
285.595	774.25
285.826	777.25
286.057	792.25
286.288	755.25
286.52	830.25
286.751	854.25
286.982	876.25
287.213	800.25
287.444	755.25
287.675	765.25
287.906	802.25
288.138	823.25
288.369	794.25
288.6	771.25
288.831	736.25
289.062	753.25
289.293	771.25
289.524	772.25
289.755	802.25
289.986	804.25
290.217	763.25
290.448	773.25
290.679	778.25
290.91	801.25
291.141	800.25
291.371	848.25
291.602	840.25
291.833	853.25
292.064	865.25
292.295	842.25
292.526	856.25
292.757	859.25
292.987	848.25
293.218	818.25
293.449	880.25
293.68	968.25
293.91	1019.25
294.141	975.25
294.372	933.25
294.603	963.25
294.833	982.25
295.064	907.25
295.295	833.25
295.525	814.25
295.756	768.25
295.987	718.25
296.217	770.25
296.448	785.25
296.679	782.25
296.909	794.25
297.14	792.25
297.37	806.25
297.601	851.25
297.831	887.25
298.062	891.25
298.292	826.25
298.523	798.25
298.753	805.25
298.984	808.25
299.214	855.25
299.445	852.25
299.675	839.25
299.905	845.25
300.136	841.25
300.366	808.25
300.597	806.25
300.827	792.25
301.057	816.25
301.288	880.25
301.518	863.25
301.748	904.25
301.979	944.25
302.209	934.25
302.439	993.25
302.669	1020.25
302.9	942.25
303.13	872.25
303.36	865.25
303.59	880.25
303.82	873.25
304.051	857.25
304.281	871.25
304.511	876.25
304.741	970.25
304.971	1079.25
305.201	1060.25
305.431	964.25
305.661	842.25
305.891	754.25
306.121	759.25
306.352	825.25
306.582	863.25
306.812	905.25
307.042	923.25
307.272	970.25
307.502	1002.25
307.731	1073.25
307.961	1091.25
308.191	1008.25
308.421	900.25
308.651	864.25
308.881	843.25
309.111	857.25
309.341	826.25
309.571	847.25
309.8	834.25
310.03	834.25
310.26	817.25
310.49	833.25
310.72	850.25
310.949	900.25
311.179	898.25
311.409	839.25
311.639	862.25
311.868	835.25
312.098	863.25
312.328	833.25
312.557	848.25
312.787	863.25
313.017	878.25
313.246	892.25
313.476	890.25
313.706	898.25
313.935	904.25
314.165	884.25
314.394	964.25
314.624	996.25
314.853	1039.25
315.083	1058.25
315.312	1060.25
315.542	971.25
315.771	898.25
316.001	921.25
316.23	950.25
316.46	973.25
316.689	935.25
316.919	898.25
317.148	882.25
317.377	914.25
317.607	983.25
317.836	1030.25
318.065	1096.25
318.295	1018.25
318.524	1023.25
318.753	985.25
318.983	956.25
319.212	955.25
319.441	924.25
319.67	911.25
319.9	950.25
320.129	1007.25
320.358	1036.25
320.587	1055.25
320.816	1080.25
321.046	1000.25
321.275	992.25
321.504	993.25
321.733	1037.25
321.962	1019.25
322.191	946.25
322.42	953.25
322.649	916.25
322.878	946.25
323.108	935.25
323.337	990.25
323.566	970.25
323.795	948.25
324.024	973.25
324.253	975.25
324.482	951.25
324.71	900.25
324.939	874.25
325.168	892.25
325.397	923.25
325.626	977.25
325.855	955.25
326.084	942.25
326.313	944.25
326.542	988.25
326.77	972.25
326.999	991.25
327.228	947.25
327.457	870.25
327.686	916.25
327.914	920.25
328.143	935.25
328.372	947.25
328.6	939.25
328.829	944.25
329.058	914.25
329.287	922.25
329.515	960.25
329.744	975.25
329.972	1054.25
330.201	1068.25
330.43	1014.25
330.658	987.25
330.887	999.25
331.115	1024.25
331.344	1014.25
331.572	994.25
331.801	974.25
332.03	1032.25
332.258	984.25
332.486	1021.25
332.715	1008.25
332.943	1034.25
333.172	1015.25
333.4	990.25
333.629	1033.25
333.857	1110.25
334.085	1269.25
334.314	1374.25
334.542	1441.25
334.771	1332.25
334.999	1191.25
335.227	1122.25
335.455	1062.25
335.684	1086.25
335.912	1068.25
336.14	1109.25
336.369	1078.25
336.597	1041.25
336.825	1033.25
337.053	1087.25
337.281	1129.25
337.51	1146.25
337.738	1173.25
337.966	1132.25
338.194	1030.25
338.422	1003.25
338.65	982.25
338.878	983.25
339.106	945.25
339.334	958.25
339.562	978.25
339.79	996.25
340.018	1035.25
340.246	1072.25
340.474	1070.25
340.702	1030.25
340.93	1032.25
341.158	999.25
341.386	1008.25
341.614	1016.25
341.842	1009.25
342.07	1003.25
342.298	1002.25
342.526	979.25
342.754	998.25
342.981	985.25
343.209	994.25
343.437	963.25
343.665	1019.25
343.893	1049.25
344.12	1064.25
344.348	1094.25
344.576	1022.25
344.804	963.25
345.031	994.25
345.259	991.25
345.487	965.25
345.714	921.25
345.942	922.25
346.17	954.25
346.397	926.25
346.625	944.25
346.853	889.25
347.08	907.25
347.308	922.25
347.535	938.25
347.763	949.25
347.99	954.25
348.218	906.25
348.445	929.25
348.673	944.25
348.9	967.25
349.128	989.25
349.355	1034.25
349.583	972.25
349.81	952.25
350.037	871.25
350.265	868.25
350.492	899.25
350.72	915.25
350.947	968.25
351.174	956.25
351.402	909.25
351.629	863.25
351.856	848.25
352.083	855.25
352.311	920.25
352.538	918.25
352.765	976.25
352.992	953.25
353.22	928.25
353.447	916.25
353.674	947.25
353.901	946.25
354.128	931.25
354.355	894.25
354.583	960.25
354.81	966.25
355.037	961.25
355.264	931.25
355.491	938.25
355.718	945.25
355.945	922.25
356.172	904.25
356.399	910.25
356.626	923.25
356.853	955.25
357.08	1070.25
357.307	1116.25
357.534	1059.25
357.761	961.25
357.988	904.25
358.215	911.25
358.441	887.25
358.668	905.25
358.895	944.25
359.122	966.25
359.349	1054.25
359.576	1032.25
359.802	932.25
360.029	898.25
360.256	908.25
360.483	926.25
360.709	945.25
360.936	1007.25
361.163	1031.25
361.39	1100.25
361.616	1162.25
361.843	1172.25
362.07	1047.25
362.296	946.25
362.523	930.25
362.749	939.25
362.976	936.25
363.203	961.25
363.429	913.25
363.656	917.25
363.882	973.25
364.109	1102.25
364.335	1121.25
364.562	1060.25
364.788	998.25
365.015	931.25
365.241	925.25
365.468	943.25
365.694	973.25
365.92	1018.25
366.147	965.25
366.373	916.25
366.599	902.25
366.826	908.25
367.052	921.25
367.278	921.25
367.505	970.25
367.731	939.25
367.957	958.25
368.184	1019.25
368.41	1094.25
368.636	1077.25
368.862	1072.25
369.089	1074.25
369.315	1036.25
369.541	994.25
369.767	975.25
369.993	927.25
370.219	954.25
370.445	982.25
370.672	1021.25
370.898	1102.25
371.124	1040.25
371.35	1026.25
371.576	1059.25
371.802	1030.25
372.028	995.25
372.254	990.25
372.48	945.25
372.706	954.25
372.932	961.25
373.158	978.25
373.384	973.25
373.61	1049.25
373.835	1034.25
374.061	1001.25
374.287	1008.25
374.513	992.25
374.739	1022.25
374.965	1045.25
375.191	1025.25
375.416	1011.25
375.642	1033.25
375.868	1112.25
376.094	1136.25
376.319	1060.25
376.545	1003.25
376.771	1054.25
376.997	1113.25
377.222	1076.25
377.448	1048.25
377.674	1053.25
377.899	1093.25
378.125	1128.25
378.35	1116.25
378.576	984.25
378.802	983.25
379.027	968.25
379.253	971.25
379.478	1001.25
379.704	1021.25
379.929	988.25
380.155	1044.25
380.38	1040.25
380.606	992.25
380.831	1037.25
381.057	1106.25
381.282	1092.25
381.507	1078.25
381.733	1148.25
381.958	1174.25
382.184	1066.25
382.409	1042.25
382.634	1057.25
382.86	1067.25
383.085	1089.25
383.31	1098.25
383.535	1226.25
383.761	1227.25
383.986	1163.25
384.211	1139.25
384.436	1168.25
384.662	1203.25
384.887	1224.25
385.112	1170.25
385.337	1146.25
385.562	1130.25
385.787	1147.25
386.013	1188.25
386.238	1163.25
386.463	1192.25
386.688	1284.25
386.913	1342.25
387.138	1315.25
387.363	1181.25
387.588	1163.25
387.813	1159.25
388.038	1237.25
388.263	1234.25
388.488	1157.25
388.713	1098.25
388.938	1080.25
389.163	1075.25
389.387	1135.25
389.612	1142.25
389.837	1187.25
390.062	1171.25
390.287	1149.25
390.512	1138.25
390.736	1118.25
390.961	1097.25
391.186	1113.25
391.411	1104.25
391.636	1154.25
391.86	1157.25
392.085	1139.25
392.31	1134.25
392.534	1151.25
392.759	1134.25
392.984	1145.25
393.208	1193.25
393.433	1200.25
393.658	1260.25
393.882	1226.25
394.107	1155.25
394.331	1119.25
394.556	1182.25
394.78	1183.25
395.005	1225.25
395.229	1255.25
395.454	1313.25
395.678	1330.25
395.903	1266.25
396.127	1198.25
396.352	1234.25
396.576	1258.25
396.801	1302.25
397.025	1251.25
397.249	1242.25
397.474	1258.25
397.698	1241.25
397.922	1274.25
398.147	1340.25
398.371	1415.25
398.595	1387.25
398.82	1344.25
399.044	1360.25
399.268	1381.25
399.492	1463.25
399.717	1520.25
399.941	1544.25
400.165	1479.25
400.389	1428.25
400.613	1477.25
400.837	1690.25
401.062	1839.25
401.286	1524.25
401.51	1467.25
401.734	1491.25
401.958	1463.25
402.182	1326.25
402.406	1346.25
402.63	1303.25
402.854	1299.25
403.078	1319.25
403.302	1368.25
403.526	1356.25
403.75	1342.25
403.974	1396.25
404.198	1384.25
404.422	1458.25
404.645	1511.25
404.869	1438.25
405.093	1362.25
405.317	1319.25
405.541	1342.25
405.765	1340.25
405.988	1374.25
406.212	1387.25
406.436	1422.25
406.66	1458.25
406.883	1522.25
407.107	1685.25
407.331	1844.25
407.555	1972.25
407.778	1722.25
408.002	1453.25
408.226	1415.25
408.449	1415.25
408.673	1391.25
408.896	1402.25
409.12	1438.25
409.344	1376.25
409.567	1355.25
409.791	1386.25
410.014	1422.25
410.238	1472.25
410.461	1562.25
410.685	1373.25
410.908	1330.25
411.132	1381.25
411.355	1360.25
411.578	1330.25
411.802	1360.25
412.025	1376.25
412.249	1380.25
412.472	1352.25
412.695	1338.25
412.919	1296.25
413.142	1321.25
413.365	1326.25
413.589	1391.25
413.812	1446.25
414.035	1474.25
414.258	1351.25
414.482	1323.25
414.705	1330.25
414.928	1300.25
415.151	1291.25
415.374	1338.25
415.597	1384.25
415.821	1362.25
416.044	1342.25
416.267	1375.25
416.49	1321.25
416.713	1296.25
416.936	1306.25
417.159	1383.25
417.382	1380.25
417.605	1266.25
417.828	1347.25
418.051	1364.25
418.274	1352.25
418.497	1276.25
418.72	1263.25
418.943	1311.25
419.166	1333.25
419.389	1376.25
419.611	1308.25
419.834	1324.25
420.057	1341.25
420.28	1291.25
420.503	1311.25
420.726	1341.25
420.948	1308.25
421.171	1300.25
421.394	1308.25
421.617	1323.25
421.839	1345.25
422.062	1328.25
422.285	1314.25
422.507	1266.25
422.73	1260.25
422.953	1248.25
423.175	1216.25
423.398	1281.25
423.621	1287.25
423.843	1326.25
424.066	1339.25
424.288	1396.25
424.511	1448.25
424.733	1365.25
424.956	1243.25
425.178	1227.25
425.401	1244.25
425.623	1310.25
425.846	1280.25
426.068	1342.25
426.291	1359.25
426.513	1320.25
426.735	1328.25
426.958	1479.25
427.18	1517.25
427.402	1382.25
427.625	1468.25
427.847	1363.25
428.069	1314.25
428.292	1302.25
428.514	1278.25
428.736	1256.25
428.958	1270.25
429.181	1288.25
429.403	1524.25
429.625	1750.25
429.847	1475.25
430.069	1338.25
430.292	1502.25
430.514	1487.25
430.736	1375.25
430.958	1420.25
431.18	1324.25
431.402	1253.25
431.624	1216.25
431.846	1170.25
432.068	1137.25
432.29	1163.25
432.512	1190.25
432.734	1246.25
432.956	1277.25
433.178	1323.25
433.4	1338.25
433.622	1319.25
433.844	1269.25
434.066	1214.25
434.287	1230.25
434.509	1217.25
434.731	1285.25
434.953	1374.25
435.175	1351.25
435.397	1281.25
435.618	1270.25
435.84	1267.25
436.062	1225.25
436.284	1288.25
436.505	1279.25
436.727	1337.25
436.949	1292.25
437.17	1272.25
437.392	1237.25
437.614	1222.25
437.835	1169.25
438.057	1255.25
438.278	1249.25
438.5	1252.25
438.721	1244.25
438.943	1250.25
439.165	1254.25
439.386	1264.25
439.608	1290.25
439.829	1246.25
440.05	1278.25
440.272	1291.25
440.493	1266.25
440.715	1292.25
440.936	1347.25
441.158	1444.25
441.379	1420.25
441.6	1384.25
441.822	1352.25
442.043	1371.25
442.264	1345.25
442.486	1298.25
442.707	1249.25
442.928	1259.25
443.149	1304.25
443.371	1380.25
443.592	1430.25
443.813	1385.25
444.034	1385.25
444.255	1374.25
444.476	1413.25
444.698	1426.25
444.919	1387.25
445.14	1514.25
445.361	1479.25
445.582	1475.25
445.803	1429.25
446.024	1432.25
446.245	1479.25
446.466	1363.25
446.687	1357.25
446.908	1366.25
447.129	1319.25
447.35	1310.25
447.571	1330.25
447.792	1280.25
448.013	1248.25
448.234	1287.25
448.455	1322.25
448.675	1316.25
448.896	1212.25
449.117	1211.25
449.338	1193.25
449.559	1294.25
449.779	1366.25
450	1415.25
450.221	1474.25
450.442	1438.25
450.662	1313.25
450.883	1198.25
451.104	1168.25
451.324	1194.25
451.545	1250.25
451.766	1202.25
451.986	1167.25
452.207	1123.25
452.428	1080.25
452.648	1115.25
452.869	1135.25
453.089	1138.25
453.31	1170.25
453.53	1153.25
453.751	1103.25
453.971	1060.25
454.192	1094.25
454.412	1143.25
454.633	1136.25
454.853	1149.25
455.073	1064.25
455.294	1090.25
455.514	1092.25
455.734	1079.25
455.955	1088.25
456.175	1119.25
456.395	1071.25
456.616	1083.25
456.836	1124.25
457.056	1084.25
457.276	1128.25
457.497	1098.25
457.717	1026.25
457.937	1064.25
458.157	1066.25
458.377	1066.25
458.598	1037.25
458.818	1079.25
459.038	1098.25
459.258	1129.25
459.478	1161.25
459.698	1151.25
459.918	1184.25
460.138	1232.25
460.358	1248.25
460.578	1278.25
460.798	1327.25
461.018	1358.25
461.238	1292.25
461.458	1292.25
461.678	1287.25
461.898	1247.25
462.118	1239.25
462.338	1284.25
462.558	1285.25
462.777	1324.25
462.997	1320.25
463.217	1416.25
463.437	1365.25
463.657	1273.25
463.876	1268.25
464.096	1280.25
464.316	1294.25
464.536	1300.25
464.755	1319.25
464.975	1358.25
465.195	1306.25
465.414	1349.25
465.634	1300.25
465.854	1280.25
466.073	1408.25
466.293	1340.25
466.512	1226.25
466.732	1186.25
466.951	1252.25
467.171	1265.25
467.391	1195.25
467.61	1193.25
467.829	1207.25
468.049	1323.25
468.268	1468.25
468.488	1350.25
468.707	1292.25
468.927	1258.25
469.146	1193.25
469.365	1243.25
469.585	1246.25
469.804	1246.25
470.023	1244.25
470.243	1239.25
470.462	1239.25
470.681	1240.25
470.901	1251.25
471.12	1232.25
471.339	1258.25
471.558	1233.25
471.777	1206.25
471.997	1214.25
472.216	1184.25
472.435	1132.25
472.654	1175.25
472.873	1188.25
473.092	1248.25
473.311	1204.25
473.53	1147.25
473.749	1123.25
473.968	1201.25
474.187	1245.25
474.406	1212.25
474.625	1262.25
474.844	1245.25
475.063	1233.25
475.282	1226.25
475.501	1196.25
475.72	1186.25
475.939	1321.25
476.158	1268.25
476.377	1227.25
476.596	1228.25
476.814	1227.25
477.033	1208.25
477.252	1291.25
477.471	1321.25
477.69	1292.25
477.908	1290.25
478.127	1361.25
478.346	1441.25
478.564	1444.25
478.783	1433.25
479.002	1448.25
479.22	1397.25
479.439	1467.25
479.658	1582.25
479.876	1542.25
480.095	1392.25
480.313	1371.25
480.532	1339.25
480.751	1327.25
480.969	1305.25
481.188	1292.25
481.406	1290.25
481.624	1275.25
481.843	1279.25
482.061	1294.25
482.28	1357.25
482.498	1391.25
482.717	1331.25
482.935	1321.25
483.153	1353.25
483.372	1392.25
483.59	1356.25
483.808	1369.25
484.027	1380.25
484.245	1450.25
484.463	1776.25
484.681	1938.25
484.9	1497.25
485.118	1402.25
485.336	1346.25
485.554	1360.25
485.772	1431.25
485.99	1390.25
486.209	1379.25
486.427	1392.25
486.645	1444.25
486.863	1411.25
487.081	1472.25
487.299	1455.25
487.517	1459.25
487.735	1483.25
487.953	1525.25
488.171	1528.25
488.389	1513.25
488.607	1497.25
488.825	1632.25
489.043	1574.25
489.261	1414.25
489.479	1470.25
489.696	1504.25
489.914	1477.25
490.132	1451.25
490.35	1474.25
490.568	1572.25
490.786	1479.25
491.003	1465.25
491.221	1595.25
491.439	1575.25
491.657	1615.25
491.874	1621.25
492.092	1653.25
492.31	1740.25
492.527	1673.25
492.745	1650.25
492.963	1603.25
493.18	1619.25
493.398	1689.25
493.615	1718.25
493.833	1604.25
494.05	1583.25
494.268	1594.25
494.485	1606.25
494.703	1586.25
494.92	1544.25
495.138	1552.25
495.355	1620.25
495.573	1644.25
495.79	1715.25
496.008	1707.25
496.225	1648.25
496.442	1615.25
496.66	1619.25
496.877	1603.25
497.094	1671.25
497.312	1666.25
497.529	1648.25
497.746	1673.25
497.963	1867.25
498.181	1991.25
498.398	1924.25
498.615	1876.25
498.832	1796.25
499.049	1746.25
499.267	1807.25
499.484	1931.25
499.701	2061.25
499.918	2134.25
500.135	2237.25
500.352	2347.25
500.569	2369.25
500.786	2598.25
501.003	2331.25
501.22	2119.25
501.437	2093.25
501.654	2117.25
501.871	2022.25
502.088	1816.25
502.305	1797.25
502.522	1729.25
502.739	1602.25
502.956	1559.25
503.172	1564.25
503.389	1561.25
503.606	1470.25
503.823	1443.25
504.04	1463.25
504.256	1532.25
504.473	1496.25
504.69	1549.25
504.907	1478.25
505.123	1454.25
505.34	1545.25
505.557	2027.25
505.773	1644.25
505.99	1400.25
506.207	1350.25
506.423	1323.25
506.64	1306.25
506.856	1313.25
507.073	1518.25
507.289	1630.25
507.506	1518.25
507.722	1312.25
507.939	1240.25
508.155	1268.25
508.372	1267.25
508.588	1225.25
508.805	1190.25
509.021	1163.25
509.238	1175.25
509.454	1154.25
509.67	1158.25
509.887	1171.25
510.103	1129.25
510.319	1168.25
510.536	1220.25
510.752	1232.25
510.968	1249.25
511.184	1282.25
511.401	1249.25
511.617	1181.25
511.833	1132.25
512.049	1129.25
512.265	1118.25
512.481	1121.25
512.698	1163.25
512.914	1220.25
513.13	1169.25
513.346	1146.25
513.562	1114.25
513.778	1170.25
513.994	1188.25
514.21	1222.25
514.426	1238.25
514.642	1329.25
514.858	1263.25
515.074	1138.25
515.29	1139.25
515.506	1191.25
515.721	1188.25
515.937	1194.25
516.153	1322.25
516.369	1255.25
516.585	1205.25
516.801	1168.25
517.016	1164.25
517.232	1215.25
517.448	1234.25
517.664	1238.25
517.879	1216.25
518.095	1278.25
518.311	1202.25
518.527	1192.25
518.742	1170.25
518.958	1157.25
519.173	1146.25
519.389	1157.25
519.605	1195.25
519.82	1195.25
520.036	1185.25
520.251	1139.25
520.467	1179.25
520.682	1269.25
520.898	1302.25
521.113	1158.25
521.329	1105.25
521.544	1202.25
521.76	1142.25
521.975	1106.25
522.19	1123.25
522.406	1156.25
522.621	1408.25
522.836	1342.25
523.052	1102.25
523.267	1107.25
523.482	1120.25
523.698	1107.25
523.913	1073.25
524.128	1093.25
524.343	1165.25
524.559	1172.25
524.774	1147.25
524.989	1081.25
525.204	1067.25
525.419	1044.25
525.634	1068.25
525.849	1094.25
526.064	1112.25
526.28	1092.25
526.495	1010.25
526.71	1018.25
526.925	1019.25
527.14	1032.25
527.355	979.25
527.57	966.25
527.785	1033.25
527.999	1018.25
528.214	986.25
528.429	1010.25
528.644	1030.25
528.859	1067.25
529.074	1095.25
529.289	1135.25
529.503	1121.25
529.718	1100.25
529.933	1060.25
530.148	965.25
530.363	970.25
530.577	1014.25
530.792	1003.25
531.007	1020.25
531.221	981.25
531.436	987.25
531.651	1047.25
531.865	1077.25
532.08	1039.25
532.295	977.25
532.509	949.25
532.724	987.25
532.938	1012.25
533.153	1074.25
533.367	1039.25
533.582	1027.25
533.796	1026.25
534.011	1024.25
534.225	1001.25
534.44	988.25
534.654	961.25
534.868	993.25
535.083	1034.25
535.297	1038.25
535.511	1035.25
535.726	987.25
535.94	978.25
536.154	1020.25
536.369	949.25
536.583	944.25
536.797	950.25
537.011	961.25
537.225	930.25
537.44	959.25
537.654	1013.25
537.868	954.25
538.082	891.25
538.296	919.25
538.51	923.25
538.724	912.25
538.938	992.25
539.153	975.25
539.367	997.25
539.581	986.25
539.795	1045.25
540.009	977.25
540.222	955.25
540.436	968.25
540.65	1067.25
540.864	1090.25
541.078	1060.25
541.292	1064.25
541.506	1074.25
541.72	1123.25
541.934	1158.25
542.147	1221.25
542.361	1139.25
542.575	1056.25
542.789	1023.25
543.002	973.25
543.216	1012.25
543.43	1044.25
543.644	1063.25
543.857	1151.25
544.071	1081.25
544.285	1130.25
544.498	1112.25
544.712	1089.25
544.925	1098.25
545.139	1097.25
545.352	1109.25
545.566	1056.25
545.779	1072.25
545.993	1117.25
546.206	1131.25
546.42	1063.25
546.633	1047.25
546.847	1086.25
547.06	1075.25
547.274	1019.25
547.487	1089.25
547.7	1110.25
547.914	1082.25
548.127	1107.25
548.34	1114.25
548.554	1071.25
548.767	1080.25
548.98	1047.25
549.193	1072.25
549.407	1129.25
549.62	1119.25
549.833	1082.25
550.046	1078.25
550.259	1056.25
550.473	1057.25
550.686	1057.25
550.899	1017.25
551.112	1001.25
551.325	991.25
551.538	1081.25
551.751	1168.25
551.964	944.25
552.177	950.25
552.39	969.25
552.603	1007.25
552.816	1001.25
553.029	1080.25
553.242	1082.25
553.455	1073.25
553.667	1046.25
553.88	1051.25
554.093	1000.25
554.306	1005.25
554.519	959.25
554.732	953.25
554.944	977.25
555.157	999.25
555.37	953.25
555.583	944.25
555.795	934.25
556.008	913.25
556.221	894.25
556.433	888.25
556.646	915.25
556.859	892.25
557.071	887.25
557.284	866.25
557.496	866.25
557.709	906.25
557.921	865.25
558.134	882.25
558.346	884.25
558.559	861.25
558.771	849.25
558.984	830.25
559.196	832.25
559.409	844.25
559.621	817.25
559.833	826.25
560.046	825.25
560.258	832.25
560.47	832.25
560.683	828.25
560.895	842.25
561.107	824.25
561.32	837.25
561.532	834.25
561.744	823.25
561.956	826.25
562.168	833.25
562.381	811.25
562.593	782.25
562.805	776.25
563.017	758.25
563.229	798.25
563.441	831.25
563.653	792.25
563.865	805.25
564.077	786.25
564.289	762.25
564.501	787.25
564.713	820.25
564.925	850.25
565.137	914.25
565.349	816.25
565.561	808.25
565.773	842.25
565.985	831.25
566.197	866.25
566.408	918.25
566.62	912.25
566.832	908.25
567.044	900.25
567.255	883.25
567.467	883.25
567.679	939.25
567.891	944.25
568.102	914.25
568.314	834.25
568.526	815.25
568.737	775.25
568.949	724.25
569.161	720.25
569.372	681.25
569.584	699.25
569.795	690.25
570.007	673.25
570.218	648.25
570.43	667.25
570.641	653.25
570.853	687.25
571.064	689.25
571.276	664.25
571.487	680.25
571.698	663.25
571.91	630.25
572.121	630.25
572.333	625.25
572.544	633.25
572.755	582.25
572.966	582.25
573.178	602.25
573.389	574.25
573.6	622.25
573.811	661.25
574.023	612.25
574.234	588.25
574.445	552.25
574.656	558.25
574.867	578.25
575.078	576.25
575.289	595.25
575.501	554.25
575.712	566.25
575.923	575.25
576.134	566.25
576.345	562.25
576.556	578.25
576.767	575.25
576.978	530.25
577.188	532.25
577.399	530.25
577.61	516.25
577.821	501.25
578.032	518.25
578.243	531.25
578.454	520.25
578.665	508.25
578.875	480.25
579.086	512.25
579.297	503.25
579.508	537.25
579.718	518.25
579.929	514.25
580.14	490.25
580.35	484.25
580.561	491.25
580.772	563.25
580.982	520.25
581.193	508.25
581.403	480.25
581.614	460.25
581.825	497.25
582.035	472.25
582.246	480.25
582.456	506.25
582.667	480.25
582.877	468.25
583.087	460.25
583.298	498.25
583.508	479.25
583.719	487.25
583.929	470.25
584.139	478.25
584.35	470.25
584.56	464.25
584.77	486.25
584.981	482.25
585.191	463.25
585.401	496.25
585.611	476.25
585.821	462.25
586.032	457.25
586.242	466.25
586.452	448.25
586.662	472.25
586.872	466.25
587.082	471.25
587.292	463.25
587.502	472.25
587.713	478.25
587.923	478.25
588.133	452.25
588.343	454.25
588.553	446.25
588.762	454.25
588.972	459.25
589.182	457.25
589.392	476.25
589.602	473.25
589.812	464.25
590.022	442.25
590.232	442.25
590.441	442.25
590.651	482.25
590.861	459.25
591.071	437.25
591.281	451.25
591.49	466.25
591.7	432.25
591.91	443.25
592.119	432.25
592.329	466.25
592.539	469.25
592.748	456.25
592.958	468.25
593.167	470.25
593.377	469.25
593.587	470.25
593.796	484.25
594.006	454.25
594.215	463.25
594.424	457.25
594.634	494.25
594.843	483.25
595.053	478.25
595.262	469.25
595.472	440.25
595.681	456.25
595.89	443.25
596.1	450.25
596.309	454.25
596.518	436.25
596.727	439.25
596.937	442.25
597.146	435.25
597.355	450.25
597.564	425.25
597.774	418.25
597.983	390.25
598.192	367.25
598.401	375.25
598.61	382.25
598.819	391.25
599.028	408.25
599.237	419.25
599.446	380.25
599.655	382.25
599.864	386.25
600.073	376.25
600.282	385.25
600.491	393.25
600.7	377.25
600.909	385.25
601.118	404.25
601.327	431.25
601.536	410.25
601.745	422.25
601.953	430.25
602.162	409.25
602.371	425.25
602.58	409.25
602.789	420.25
602.997	392.25
603.206	438.25
603.415	417.25
603.623	398.25
603.832	400.25
604.041	392.25
604.249	375.25
604.458	376.25
604.666	404.25
604.875	369.25
605.084	400.25
605.292	405.25
605.501	409.25
605.709	400.25
605.918	392.25
606.126	395.25
606.334	396.25
606.543	405.25
606.751	412.25
606.96	417.25
607.168	400.25
607.376	380.25
607.585	384.25
607.793	400.25
608.001	413.25
608.21	385.25
608.418	419.25
608.626	431.25
608.834	406.25
609.043	409.25
609.251	409.25
609.459	416.25
609.667	378.25
609.875	411.25
610.083	414.25
610.291	424.25
610.499	403.25
610.707	425.25
610.916	402.25
611.124	379.25
611.332	403.25
611.54	406.25
611.748	411.25
611.955	387.25
612.163	376.25
612.371	384.25
612.579	405.25
612.787	402.25
612.995	408.25
613.203	414.25
613.411	415.25
613.618	376.25
613.826	407.25
614.034	389.25
614.242	395.25
614.449	399.25
614.657	400.25
614.865	411.25
615.072	400.25
615.28	404.25
615.488	399.25
615.695	419.25
615.903	414.25
616.111	401.25
616.318	368.25
616.526	398.25
616.733	406.25
616.941	392.25
617.148	385.25
617.356	388.25
617.563	364.25
617.771	377.25
617.978	374.25
618.185	374.25
618.393	380.25
618.6	379.25
618.807	397.25
619.015	388.25
619.222	376.25
619.429	382.25
619.637	368.25
619.844	352.25
620.051	360.25
620.258	347.25
620.466	357.25
620.673	366.25
620.88	331.25
621.087	354.25
621.294	357.25
621.501	344.25
621.708	355.25
621.915	367.25
622.122	336.25
622.329	378.25
622.536	376.25
622.743	352.25
622.95	344.25
623.157	338.25
623.364	359.25
623.571	342.25
623.778	385.25
623.985	348.25
624.192	339.25
624.399	336.25
624.606	352.25
624.812	313.25
625.019	324.25
625.226	338.25
625.433	337.25
625.639	346.25
625.846	310.25
626.053	321.25
626.259	291.25
626.466	287.25
626.673	292.25
626.879	284.25
627.086	291.25
627.293	299.25
627.499	313.25
627.706	326.25
627.912	321.25
628.119	352.25
628.325	327.25
628.532	294.25
628.738	311.25
628.945	314.25
629.151	322.25
629.357	336.25
629.564	319.25
629.77	310.25
629.976	296.25
630.183	298.25
630.389	303.25
630.595	330.25
630.802	319.25
631.008	302.25
631.214	302.25
631.42	294.25
631.627	298.25
631.833	286.25
632.039	287.25
632.245	295.25
632.451	298.25
632.657	284.25
632.863	299.25
633.069	290.25
633.275	289.25
633.481	267.25
633.688	288.25
633.893	274.25
634.099	269.25
634.305	295.25
634.511	275.25
634.717	255.25
634.923	255.25
635.129	274.25
635.335	276.25
635.541	275.25
635.747	284.25
635.952	277.25
636.158	291.25
636.364	288.25
636.57	285.25
636.775	282.25
636.981	290.25
637.187	276.25
637.392	284.25
637.598	277.25
637.804	282.25
638.009	274.25
638.215	269.25
638.421	279.25
638.626	290.25
638.832	279.25
639.037	272.25
639.243	273.25
639.448	267.25
639.654	268.25
639.859	255.25
640.065	273.25
640.27	250.25
640.475	257.25
640.681	264.25
640.886	263.25
641.091	275.25
641.297	250.25
641.502	258.25
641.707	281.25
641.913	264.25
642.118	252.25
642.323	261.25
642.528	270.25
642.733	248.25
642.939	250.25
643.144	250.25
643.349	249.25
643.554	269.25
643.759	245.25
643.964	266.25
644.169	246.25
644.374	271.25
644.579	259.25
644.784	255.25
644.989	254.25
645.194	260.25
645.399	263.25
645.604	267.25
645.809	272.25
646.014	292.25
646.219	276.25
646.423	262.25
646.628	259.25
646.833	266.25
647.038	259.25
647.243	255.25
647.447	244.25
647.652	243.25
647.857	282.25
648.062	257.25
648.266	262.25
648.471	264.25
648.676	269.25
648.88	249.25
649.085	250.25
649.289	249.25
649.494	247.25
649.698	270.25
649.903	255.25
650.107	245.25
650.312	252.25
650.516	246.25
650.721	243.25
650.925	233.25
651.13	241.25
651.334	249.25
651.539	230.25
651.743	235.25
651.947	234.25
652.152	243.25
652.356	247.25
652.56	218.25
652.764	234.25
652.969	225.25
653.173	240.25
653.377	222.25
653.581	224.25
653.785	196.25
653.99	211.25
654.194	219.25
654.398	230.25
654.602	243.25
654.806	220.25
655.01	220.25
655.214	213.25
655.418	223.25
655.622	226.25
655.826	203.25
656.03	222.25
656.234	250.25
656.438	250.25
656.642	242.25
656.846	235.25
657.049	220.25
657.253	222.25
657.457	200.25
657.661	197.25
657.865	196.25
658.068	185.25
658.272	190.25
658.476	167.25
658.68	164.25
658.883	145.25
659.087	144.25
659.291	135.25
659.494	121.25
659.698	128.25
659.901	128.25
660.105	123.25
660.309	117.25
660.512	118.25
660.716	132.25
660.919	120.25
661.123	113.25
661.326	115.25
661.53	112.25
661.733	104.25
661.936	114.25
662.14	103.25
662.343	94.25
662.546	95.25
662.75	105.25
662.953	96.25
663.156	99.25
663.36	96.25
663.563	88.25
663.766	80.25
663.969	107.25
664.173	82.25
664.376	79.25
664.579	86.25
664.782	92.25
664.985	89.25
665.188	97.25
665.391	74.25
665.594	73.25
665.797	87.25
666	85.25
666.203	67.25
666.406	75.25
666.609	82.25
666.812	84.25
667.015	83.25
667.218	77.25
667.421	86.25
667.624	65.25
667.827	75.25
668.03	87.25
668.232	82.25
668.435	83.25
668.638	83.25
668.841	73.25
669.043	84.25
669.246	67.25
669.449	76.25
669.651	88.25
669.854	73.25
670.057	80.25
670.259	80.25
670.462	85.25
670.665	81.25
670.867	75.25
671.07	82.25
671.272	80.25
671.475	72.25
671.677	96.25
671.88	87.25
672.082	86.25
672.284	68.25
672.487	87.25
672.689	82.25
672.892	83.25
