Data from WStandard_LampEnergy10_LIBS07252019.E.O._I.C._HRD10591_15-55-49-928.txt Node
Date: Thu Jul 25 15:55:49 EDT 2019
User: cochatt
Spectrometer: HR+D1059
Trigger mode: 1
Integration Time (sec): 1.000000E-1
Scans to average: 1
Electric dark correction enabled: true
Nonlinearity correction enabled: false
Boxcar width: 0
XAxis mode: Wavelengths
Number of Pixels in Spectrum: 2048
>>>>>Begin Spectral Data<<<<<
223.165	-9.38
223.4	-9.38
223.635	-9.38
223.869	-14.38
224.104	-11.38
224.338	-12.38
224.573	-23.38
224.808	-28.38
225.042	-8.38
225.277	-2.38
225.511	-4.38
225.746	7.62
225.98	10.62
226.215	13.62
226.449	10.62
226.683	14.62
226.918	28.62
227.152	28.62
227.387	25.62
227.621	42.62
227.856	47.62
228.09	47.62
228.324	52.62
228.559	59.62
228.793	88.62
229.027	140.62
229.262	127.62
229.496	144.62
229.73	138.62
229.964	150.62
230.199	159.62
230.433	173.62
230.667	181.62
230.901	165.62
231.136	177.62
231.37	181.62
231.604	157.62
231.838	170.62
232.072	160.62
232.306	170.62
232.541	163.62
232.775	192.62
233.009	215.62
233.243	207.62
233.477	196.62
233.711	193.62
233.945	205.62
234.179	185.62
234.413	202.62
234.647	231.62
234.881	209.62
235.115	171.62
235.349	190.62
235.583	190.62
235.817	192.62
236.051	177.62
236.285	181.62
236.519	210.62
236.753	210.62
236.987	211.62
237.221	218.62
237.455	219.62
237.689	204.62
237.922	211.62
238.156	203.62
238.39	223.62
238.624	232.62
238.858	225.62
239.091	255.62
239.325	235.62
239.559	248.62
239.793	280.62
240.027	282.62
240.26	279.62
240.494	244.62
240.728	218.62
240.961	210.62
241.195	228.62
241.429	252.62
241.662	259.62
241.896	229.62
242.13	228.62
242.363	256.62
242.597	262.62
242.83	265.62
243.064	256.62
243.298	273.62
243.531	263.62
243.765	278.62
243.998	277.62
244.232	243.62
244.465	248.62
244.699	262.62
244.932	273.62
245.166	307.62
245.399	288.62
245.633	279.62
245.866	259.62
246.099	278.62
246.333	283.62
246.566	288.62
246.8	289.62
247.033	323.62
247.266	310.62
247.5	304.62
247.733	318.62
247.966	327.62
248.2	336.62
248.433	343.62
248.666	363.62
248.899	399.62
249.133	431.62
249.366	457.62
249.599	375.62
249.832	344.62
250.066	356.62
250.299	369.62
250.532	353.62
250.765	321.62
250.998	339.62
251.231	332.62
251.465	357.62
251.698	335.62
251.931	324.62
252.164	337.62
252.397	336.62
252.63	353.62
252.863	311.62
253.096	300.62
253.329	323.62
253.562	342.62
253.795	337.62
254.028	336.62
254.261	334.62
254.494	332.62
254.727	323.62
254.96	328.62
255.193	364.62
255.426	387.62
255.659	442.62
255.892	423.62
256.124	383.62
256.357	384.62
256.59	386.62
256.823	386.62
257.056	412.62
257.289	453.62
257.521	505.62
257.754	443.62
257.987	432.62
258.22	457.62
258.452	424.62
258.685	365.62
258.918	373.62
259.151	354.62
259.383	351.62
259.616	325.62
259.849	354.62
260.081	383.62
260.314	418.62
260.547	453.62
260.779	439.62
261.012	396.62
261.244	400.62
261.477	383.62
261.71	407.62
261.942	369.62
262.175	369.62
262.407	403.62
262.64	366.62
262.872	348.62
263.105	339.62
263.337	357.62
263.57	357.62
263.802	359.62
264.035	347.62
264.267	354.62
264.499	328.62
264.732	360.62
264.964	369.62
265.197	379.62
265.429	383.62
265.661	440.62
265.894	459.62
266.126	493.62
266.358	449.62
266.591	441.62
266.823	433.62
267.055	430.62
267.287	419.62
267.52	433.62
267.752	421.62
267.984	449.62
268.216	448.62
268.448	428.62
268.681	436.62
268.913	408.62
269.145	383.62
269.377	401.62
269.609	419.62
269.841	496.62
270.073	554.62
270.306	573.62
270.538	608.62
270.77	504.62
271.002	474.62
271.234	474.62
271.466	446.62
271.698	523.62
271.93	562.62
272.162	564.62
272.394	530.62
272.626	499.62
272.858	452.62
273.09	413.62
273.322	396.62
273.553	372.62
273.785	383.62
274.017	415.62
274.249	415.62
274.481	427.62
274.713	398.62
274.945	388.62
275.176	403.62
275.408	378.62
275.64	394.62
275.872	380.62
276.104	437.62
276.335	466.62
276.567	515.62
276.799	515.62
277.031	454.62
277.262	449.62
277.494	452.62
277.726	534.62
277.957	479.62
278.189	446.62
278.421	423.62
278.652	419.62
278.884	411.62
279.115	405.62
279.347	416.62
279.579	422.62
279.81	440.62
280.042	463.62
280.273	500.62
280.505	483.62
280.736	465.62
280.968	429.62
281.199	411.62
281.431	391.62
281.662	405.62
281.894	415.62
282.125	443.62
282.356	445.62
282.588	431.62
282.819	437.62
283.051	481.62
283.282	489.62
283.513	462.62
283.745	416.62
283.976	413.62
284.207	428.62
284.439	413.62
284.67	442.62
284.901	448.62
285.132	456.62
285.364	446.62
285.595	440.62
285.826	426.62
286.057	445.62
286.288	453.62
286.52	463.62
286.751	463.62
286.982	450.62
287.213	419.62
287.444	385.62
287.675	448.62
287.906	457.62
288.138	456.62
288.369	453.62
288.6	436.62
288.831	432.62
289.062	412.62
289.293	423.62
289.524	420.62
289.755	429.62
289.986	459.62
290.217	434.62
290.448	437.62
290.679	442.62
290.91	468.62
291.141	487.62
291.371	456.62
291.602	443.62
291.833	474.62
292.064	473.62
292.295	473.62
292.526	475.62
292.757	479.62
292.987	444.62
293.218	466.62
293.449	497.62
293.68	560.62
293.91	573.62
294.141	519.62
294.372	522.62
294.603	513.62
294.833	543.62
295.064	506.62
295.295	472.62
295.525	449.62
295.756	440.62
295.987	427.62
296.217	429.62
296.448	436.62
296.679	435.62
296.909	443.62
297.14	453.62
297.37	460.62
297.601	500.62
297.831	488.62
298.062	507.62
298.292	454.62
298.523	450.62
298.753	461.62
298.984	447.62
299.214	466.62
299.445	446.62
299.675	482.62
299.905	480.62
300.136	466.62
300.366	460.62
300.597	450.62
300.827	454.62
301.057	459.62
301.288	469.62
301.518	495.62
301.748	511.62
301.979	521.62
302.209	554.62
302.439	562.62
302.669	581.62
302.9	526.62
303.13	495.62
303.36	470.62
303.59	484.62
303.82	480.62
304.051	490.62
304.281	484.62
304.511	491.62
304.741	554.62
304.971	573.62
305.201	611.62
305.431	546.62
305.661	453.62
305.891	417.62
306.121	448.62
306.352	477.62
306.582	472.62
306.812	537.62
307.042	557.62
307.272	549.62
307.502	578.62
307.731	598.62
307.961	603.62
308.191	549.62
308.421	503.62
308.651	496.62
308.881	464.62
309.111	449.62
309.341	471.62
309.571	461.62
309.8	477.62
310.03	471.62
310.26	464.62
310.49	470.62
310.72	484.62
310.949	514.62
311.179	508.62
311.409	472.62
311.639	480.62
311.868	484.62
312.098	490.62
312.328	482.62
312.557	488.62
312.787	499.62
313.017	513.62
313.246	493.62
313.476	488.62
313.706	488.62
313.935	514.62
314.165	500.62
314.394	554.62
314.624	565.62
314.853	605.62
315.083	596.62
315.312	602.62
315.542	546.62
315.771	545.62
316.001	522.62
316.23	554.62
316.46	552.62
316.689	533.62
316.919	513.62
317.148	517.62
317.377	517.62
317.607	563.62
317.836	620.62
318.065	623.62
318.295	583.62
318.524	575.62
318.753	544.62
318.983	529.62
319.212	539.62
319.441	522.62
319.67	536.62
319.9	541.62
320.129	555.62
320.358	581.62
320.587	592.62
320.816	607.62
321.046	606.62
321.275	572.62
321.504	584.62
321.733	582.62
321.962	576.62
322.191	538.62
322.42	543.62
322.649	515.62
322.878	549.62
323.108	555.62
323.337	567.62
323.566	538.62
323.795	551.62
324.024	551.62
324.253	557.62
324.482	547.62
324.71	516.62
324.939	517.62
325.168	538.62
325.397	522.62
325.626	551.62
325.855	541.62
326.084	552.62
326.313	554.62
326.542	554.62
326.77	567.62
326.999	559.62
327.228	535.62
327.457	487.62
327.686	496.62
327.914	510.62
328.143	545.62
328.372	550.62
328.6	553.62
328.829	541.62
329.058	521.62
329.287	536.62
329.515	526.62
329.744	561.62
329.972	594.62
330.201	601.62
330.43	567.62
330.658	524.62
330.887	556.62
331.115	579.62
331.344	574.62
331.572	578.62
331.801	553.62
332.03	572.62
332.258	549.62
332.486	590.62
332.715	591.62
332.943	593.62
333.172	569.62
333.4	597.62
333.629	610.62
333.857	658.62
334.085	701.62
334.314	793.62
334.542	793.62
334.771	731.62
334.999	663.62
335.227	618.62
335.455	599.62
335.684	614.62
335.912	609.62
336.14	660.62
336.369	638.62
336.597	575.62
336.825	597.62
337.053	608.62
337.281	634.62
337.51	684.62
337.738	696.62
337.966	617.62
338.194	601.62
338.422	570.62
338.65	580.62
338.878	549.62
339.106	553.62
339.334	542.62
339.562	542.62
339.79	554.62
340.018	598.62
340.246	597.62
340.474	578.62
340.702	588.62
340.93	599.62
341.158	581.62
341.386	564.62
341.614	584.62
341.842	576.62
342.07	609.62
342.298	583.62
342.526	603.62
342.754	579.62
342.981	560.62
343.209	569.62
343.437	543.62
343.665	564.62
343.893	590.62
344.12	619.62
344.348	621.62
344.576	579.62
344.804	594.62
345.031	596.62
345.259	581.62
345.487	550.62
345.714	541.62
345.942	543.62
346.17	538.62
346.397	550.62
346.625	550.62
346.853	522.62
347.08	529.62
347.308	533.62
347.535	572.62
347.763	552.62
347.99	535.62
348.218	537.62
348.445	533.62
348.673	552.62
348.9	563.62
349.128	579.62
349.355	585.62
349.583	563.62
349.81	538.62
350.037	541.62
350.265	522.62
350.492	550.62
350.72	522.62
350.947	550.62
351.174	560.62
351.402	519.62
351.629	518.62
351.856	512.62
352.083	512.62
352.311	518.62
352.538	539.62
352.765	551.62
352.992	551.62
353.22	525.62
353.447	547.62
353.674	553.62
353.901	561.62
354.128	537.62
354.355	530.62
354.583	568.62
354.81	535.62
355.037	558.62
355.264	573.62
355.491	550.62
355.718	567.62
355.945	541.62
356.172	539.62
356.399	529.62
356.626	529.62
356.853	536.62
357.08	598.62
357.307	666.62
357.534	635.62
357.761	570.62
357.988	525.62
358.215	547.62
358.441	550.62
358.668	541.62
358.895	524.62
359.122	580.62
359.349	593.62
359.576	590.62
359.802	532.62
360.029	515.62
360.256	529.62
360.483	550.62
360.709	573.62
360.936	581.62
361.163	592.62
361.39	628.62
361.616	681.62
361.843	662.62
362.07	616.62
362.296	555.62
362.523	554.62
362.749	568.62
362.976	564.62
363.203	552.62
363.429	545.62
363.656	540.62
363.882	601.62
364.109	645.62
364.335	627.62
364.562	594.62
364.788	572.62
365.015	548.62
365.241	553.62
365.468	581.62
365.694	583.62
365.92	584.62
366.147	551.62
366.373	565.62
366.599	561.62
366.826	553.62
367.052	545.62
367.278	546.62
367.505	561.62
367.731	577.62
367.957	580.62
368.184	602.62
368.41	643.62
368.636	641.62
368.862	664.62
369.089	654.62
369.315	608.62
369.541	562.62
369.767	567.62
369.993	551.62
370.219	557.62
370.445	603.62
370.672	615.62
370.898	656.62
371.124	633.62
371.35	609.62
371.576	610.62
371.802	649.62
372.028	611.62
372.254	591.62
372.48	581.62
372.706	575.62
372.932	592.62
373.158	585.62
373.384	617.62
373.61	613.62
373.835	619.62
374.061	604.62
374.287	608.62
374.513	583.62
374.739	579.62
374.965	617.62
375.191	623.62
375.416	620.62
375.642	631.62
375.868	667.62
376.094	677.62
376.319	644.62
376.545	639.62
376.771	642.62
376.997	671.62
377.222	629.62
377.448	630.62
377.674	665.62
377.899	680.62
378.125	696.62
378.35	670.62
378.576	627.62
378.802	589.62
379.027	588.62
379.253	610.62
379.478	617.62
379.704	639.62
379.929	629.62
380.155	624.62
380.38	634.62
380.606	645.62
380.831	647.62
381.057	689.62
381.282	671.62
381.507	677.62
381.733	694.62
381.958	734.62
382.184	662.62
382.409	640.62
382.634	658.62
382.86	675.62
383.085	698.62
383.31	677.62
383.535	771.62
383.761	770.62
383.986	718.62
384.211	707.62
384.436	730.62
384.662	771.62
384.887	756.62
385.112	740.62
385.337	716.62
385.562	733.62
385.787	707.62
386.013	730.62
386.238	737.62
386.463	737.62
386.688	769.62
386.913	824.62
387.138	786.62
387.363	738.62
387.588	727.62
387.813	733.62
388.038	772.62
388.263	767.62
388.488	744.62
388.713	689.62
388.938	698.62
389.163	714.62
389.387	735.62
389.612	692.62
389.837	721.62
390.062	737.62
390.287	732.62
390.512	726.62
390.736	726.62
390.961	698.62
391.186	704.62
391.411	726.62
391.636	725.62
391.86	722.62
392.085	718.62
392.31	723.62
392.534	756.62
392.759	746.62
392.984	761.62
393.208	748.62
393.433	771.62
393.658	800.62
393.882	776.62
394.107	768.62
394.331	747.62
394.556	746.62
394.78	764.62
395.005	795.62
395.229	788.62
395.454	846.62
395.678	812.62
395.903	801.62
396.127	768.62
396.352	785.62
396.576	825.62
396.801	780.62
397.025	831.62
397.249	787.62
397.474	808.62
397.698	799.62
397.922	839.62
398.147	846.62
398.371	888.62
398.595	857.62
398.82	845.62
399.044	859.62
399.268	887.62
399.492	966.62
399.717	949.62
399.941	954.62
400.165	926.62
400.389	943.62
400.613	920.62
400.837	1108.62
401.062	1132.62
401.286	962.62
401.51	933.62
401.734	935.62
401.958	916.62
402.182	855.62
402.406	851.62
402.63	876.62
402.854	852.62
403.078	848.62
403.302	886.62
403.526	887.62
403.75	899.62
403.974	917.62
404.198	901.62
404.422	935.62
404.645	985.62
404.869	928.62
405.093	896.62
405.317	895.62
405.541	889.62
405.765	866.62
405.988	917.62
406.212	928.62
406.436	947.62
406.66	964.62
406.883	982.62
407.107	1127.62
407.331	1170.62
407.555	1267.62
407.778	1087.62
408.002	934.62
408.226	930.62
408.449	945.62
408.673	905.62
408.896	937.62
409.12	936.62
409.344	929.62
409.567	895.62
409.791	923.62
410.014	968.62
410.238	980.62
410.461	1006.62
410.685	945.62
410.908	915.62
411.132	945.62
411.355	895.62
411.578	881.62
411.802	918.62
412.025	923.62
412.249	904.62
412.472	913.62
412.695	897.62
412.919	891.62
413.142	877.62
413.365	886.62
413.589	915.62
413.812	955.62
414.035	967.62
414.258	890.62
414.482	880.62
414.705	915.62
414.928	907.62
415.151	878.62
415.374	877.62
415.597	919.62
415.821	927.62
416.044	906.62
416.267	901.62
416.49	883.62
416.713	881.62
416.936	913.62
417.159	948.62
417.382	933.62
417.605	888.62
417.828	903.62
418.051	912.62
418.274	888.62
418.497	908.62
418.72	915.62
418.943	889.62
419.166	937.62
419.389	939.62
419.611	951.62
419.834	911.62
420.057	915.62
420.28	895.62
420.503	933.62
420.726	924.62
420.948	947.62
421.171	875.62
421.394	884.62
421.617	943.62
421.839	965.62
422.062	962.62
422.285	886.62
422.507	889.62
422.73	880.62
422.953	867.62
423.175	853.62
423.398	915.62
423.621	896.62
423.843	920.62
424.066	925.62
424.288	1001.62
424.511	1014.62
424.733	964.62
424.956	890.62
425.178	869.62
425.401	893.62
425.623	915.62
425.846	894.62
426.068	932.62
426.291	945.62
426.513	947.62
426.735	938.62
426.958	998.62
427.18	1010.62
427.402	969.62
427.625	981.62
427.847	971.62
428.069	885.62
428.292	899.62
428.514	884.62
428.736	861.62
428.958	899.62
429.181	919.62
429.403	1000.62
429.625	1181.62
429.847	1013.62
430.069	921.62
430.292	994.62
430.514	1003.62
430.736	956.62
430.958	968.62
431.18	869.62
431.402	855.62
431.624	785.62
431.846	764.62
432.068	695.62
432.29	723.62
432.512	743.62
432.734	874.62
432.956	890.62
433.178	949.62
433.4	925.62
433.622	941.62
433.844	897.62
434.066	836.62
434.287	781.62
434.509	769.62
434.731	821.62
434.953	879.62
435.175	886.62
435.397	904.62
435.618	849.62
435.84	798.62
436.062	812.62
436.284	876.62
436.505	902.62
436.727	932.62
436.949	895.62
437.17	893.62
437.392	859.62
437.614	828.62
437.835	788.62
438.057	780.62
438.278	805.62
438.5	839.62
438.721	844.62
438.943	893.62
439.165	907.62
439.386	907.62
439.608	922.62
439.829	905.62
440.05	915.62
440.272	921.62
440.493	917.62
440.715	939.62
440.936	990.62
441.158	1016.62
441.379	1008.62
441.6	999.62
441.822	1009.62
442.043	983.62
442.264	959.62
442.486	916.62
442.707	916.62
442.928	943.62
443.149	923.62
443.371	956.62
443.592	988.62
443.813	984.62
444.034	970.62
444.255	1014.62
444.476	1002.62
444.698	992.62
444.919	1008.62
445.14	1077.62
445.361	1023.62
445.582	1058.62
445.803	1009.62
446.024	1027.62
446.245	1041.62
446.466	1025.62
446.687	1018.62
446.908	1009.62
447.129	971.62
447.35	949.62
447.571	979.62
447.792	927.62
448.013	922.62
448.234	931.62
448.455	945.62
448.675	943.62
448.896	888.62
449.117	885.62
449.338	895.62
449.559	917.62
449.779	991.62
450	995.62
450.221	1023.62
450.442	995.62
450.662	903.62
450.883	859.62
451.104	827.62
451.324	896.62
451.545	871.62
451.766	853.62
451.986	832.62
452.207	811.62
452.428	778.62
452.648	759.62
452.869	749.62
453.089	743.62
453.31	727.62
453.53	728.62
453.751	693.62
453.971	677.62
454.192	734.62
454.412	758.62
454.633	767.62
454.853	744.62
455.073	731.62
455.294	737.62
455.514	733.62
455.734	720.62
455.955	735.62
456.175	727.62
456.395	685.62
456.616	727.62
456.836	727.62
457.056	721.62
457.276	711.62
457.497	681.62
457.717	676.62
457.937	677.62
458.157	711.62
458.377	684.62
458.598	654.62
458.818	656.62
459.038	691.62
459.258	700.62
459.478	691.62
459.698	681.62
459.918	731.62
460.138	792.62
460.358	805.62
460.578	837.62
460.798	794.62
461.018	864.62
461.238	837.62
461.458	846.62
461.678	833.62
461.898	770.62
462.118	801.62
462.338	813.62
462.558	810.62
462.777	831.62
462.997	845.62
463.217	863.62
463.437	847.62
463.657	791.62
463.876	805.62
464.096	811.62
464.316	820.62
464.536	829.62
464.755	848.62
464.975	861.62
465.195	841.62
465.414	849.62
465.634	851.62
465.854	854.62
466.073	915.62
466.293	911.62
466.512	850.62
466.732	853.62
466.951	883.62
467.171	871.62
467.391	856.62
467.61	858.62
467.829	890.62
468.049	929.62
468.268	992.62
468.488	921.62
468.707	895.62
468.927	882.62
469.146	884.62
469.365	891.62
469.585	904.62
469.804	879.62
470.023	906.62
470.243	884.62
470.462	933.62
470.681	905.62
470.901	921.62
471.12	899.62
471.339	913.62
471.558	900.62
471.777	859.62
471.997	874.62
472.216	819.62
472.435	735.62
472.654	718.62
472.873	755.62
473.092	776.62
473.311	791.62
473.53	789.62
473.749	792.62
473.968	835.62
474.187	845.62
474.406	837.62
474.625	830.62
474.844	845.62
475.063	863.62
475.282	808.62
475.501	795.62
475.72	803.62
475.939	868.62
476.158	840.62
476.377	820.62
476.596	810.62
476.814	791.62
477.033	768.62
477.252	792.62
477.471	887.62
477.69	895.62
477.908	914.62
478.127	919.62
478.346	981.62
478.564	981.62
478.783	979.62
479.002	1007.62
479.22	1003.62
479.439	986.62
479.658	1029.62
479.876	957.62
480.095	845.62
480.313	871.62
480.532	869.62
480.751	828.62
480.969	828.62
481.188	759.62
481.406	768.62
481.624	760.62
481.843	781.62
482.061	781.62
482.28	869.62
482.498	855.62
482.717	826.62
482.935	884.62
483.153	954.62
483.372	991.62
483.59	982.62
483.808	954.62
484.027	924.62
484.245	959.62
484.463	1150.62
484.681	1263.62
484.9	971.62
485.118	919.62
485.336	895.62
485.554	875.62
485.772	880.62
485.99	857.62
486.209	864.62
486.427	907.62
486.645	940.62
486.863	985.62
487.081	1013.62
487.299	965.62
487.517	963.62
487.735	1109.62
487.953	1144.62
488.171	1140.62
488.389	1104.62
488.607	1066.62
488.825	1114.62
489.043	1003.62
489.261	924.62
489.479	1001.62
489.696	1013.62
489.914	1025.62
490.132	1004.62
490.35	1068.62
490.568	1116.62
490.786	1152.62
491.003	1152.62
491.221	1243.62
491.439	1228.62
491.657	1271.62
491.874	1315.62
492.092	1418.62
492.31	1429.62
492.527	1405.62
492.745	1345.62
492.963	1269.62
493.18	1258.62
493.398	1320.62
493.615	1283.62
493.833	1254.62
494.05	1187.62
494.268	1179.62
494.485	1198.62
494.703	1199.62
494.92	1202.62
495.138	1201.62
495.355	1215.62
495.573	1212.62
495.79	1259.62
496.008	1252.62
496.225	1207.62
496.442	1212.62
496.66	1195.62
496.877	1166.62
497.094	1210.62
497.312	1189.62
497.529	1178.62
497.746	1132.62
497.963	1239.62
498.181	1265.62
498.398	1205.62
498.615	1160.62
498.832	1135.62
499.049	1127.62
499.267	1135.62
499.484	1196.62
499.701	1301.62
499.918	1341.62
500.135	1471.62
500.352	1495.62
500.569	1510.62
500.786	1618.62
501.003	1483.62
501.22	1392.62
501.437	1359.62
501.654	1395.62
501.871	1297.62
502.088	1184.62
502.305	1169.62
502.522	1152.62
502.739	1089.62
502.956	1060.62
503.172	1016.62
503.389	963.62
503.606	963.62
503.823	964.62
504.04	967.62
504.256	982.62
504.473	967.62
504.69	984.62
504.907	941.62
505.123	933.62
505.34	1032.62
505.557	1279.62
505.773	1075.62
505.99	899.62
506.207	876.62
506.423	890.62
506.64	870.62
506.856	909.62
507.073	972.62
507.289	1024.62
507.506	989.62
507.722	863.62
507.939	828.62
508.155	821.62
508.372	824.62
508.588	776.62
508.805	769.62
509.021	735.62
509.238	759.62
509.454	775.62
509.67	741.62
509.887	713.62
510.103	711.62
510.319	722.62
510.536	713.62
510.752	745.62
510.968	716.62
511.184	748.62
511.401	755.62
511.617	691.62
511.833	703.62
512.049	671.62
512.265	688.62
512.481	689.62
512.698	725.62
512.914	752.62
513.13	725.62
513.346	690.62
513.562	662.62
513.778	675.62
513.994	733.62
514.21	729.62
514.426	759.62
514.642	792.62
514.858	773.62
515.074	694.62
515.29	687.62
515.506	727.62
515.721	705.62
515.937	717.62
516.153	798.62
516.369	748.62
516.585	712.62
516.801	667.62
517.016	713.62
517.232	717.62
517.448	742.62
517.664	767.62
517.879	757.62
518.095	789.62
518.311	763.62
518.527	720.62
518.742	708.62
518.958	702.62
519.173	718.62
519.389	747.62
519.605	748.62
519.82	773.62
520.036	760.62
520.251	743.62
520.467	717.62
520.682	751.62
520.898	755.62
521.113	694.62
521.329	674.62
521.544	749.62
521.76	707.62
521.975	693.62
522.19	676.62
522.406	693.62
522.621	880.62
522.836	799.62
523.052	701.62
523.267	747.62
523.482	725.62
523.698	715.62
523.913	713.62
524.128	736.62
524.343	782.62
524.559	796.62
524.774	744.62
524.989	742.62
525.204	754.62
525.419	727.62
525.634	718.62
525.849	704.62
526.064	725.62
526.28	699.62
526.495	631.62
526.71	614.62
526.925	613.62
527.14	625.62
527.355	611.62
527.57	623.62
527.785	607.62
527.999	638.62
528.214	633.62
528.429	657.62
528.644	710.62
528.859	757.62
529.074	797.62
529.289	841.62
529.503	821.62
529.718	769.62
529.933	727.62
530.148	643.62
530.363	625.62
530.577	624.62
530.792	615.62
531.007	603.62
531.221	595.62
531.436	630.62
531.651	635.62
531.865	663.62
532.08	662.62
532.295	598.62
532.509	585.62
532.724	610.62
532.938	633.62
533.153	669.62
533.367	707.62
533.582	704.62
533.796	695.62
534.011	700.62
534.225	638.62
534.44	616.62
534.654	633.62
534.868	615.62
535.083	663.62
535.297	676.62
535.511	647.62
535.726	659.62
535.94	673.62
536.154	623.62
536.369	610.62
536.583	589.62
536.797	587.62
537.011	603.62
537.225	567.62
537.44	595.62
537.654	635.62
537.868	620.62
538.082	570.62
538.296	601.62
538.51	624.62
538.724	653.62
538.938	697.62
539.153	731.62
539.367	701.62
539.581	679.62
539.795	675.62
540.009	588.62
540.222	627.62
540.436	641.62
540.65	729.62
540.864	762.62
541.078	783.62
541.292	828.62
541.506	883.62
541.72	921.62
541.934	1003.62
542.147	1051.62
542.361	996.62
542.575	850.62
542.789	804.62
543.002	725.62
543.216	695.62
543.43	725.62
543.644	801.62
543.857	855.62
544.071	899.62
544.285	905.62
544.498	880.62
544.712	893.62
544.925	893.62
545.139	936.62
545.352	903.62
545.566	899.62
545.779	909.62
545.993	892.62
546.206	955.62
546.42	946.62
546.633	931.62
546.847	913.62
547.06	921.62
547.274	909.62
547.487	968.62
547.7	983.62
547.914	955.62
548.127	961.62
548.34	927.62
548.554	904.62
548.767	898.62
548.98	886.62
549.193	884.62
549.407	919.62
549.62	922.62
549.833	904.62
550.046	878.62
550.259	881.62
550.473	852.62
550.686	873.62
550.899	849.62
551.112	835.62
551.325	805.62
551.538	843.62
551.751	848.62
551.964	685.62
552.177	685.62
552.39	748.62
552.603	836.62
552.816	843.62
553.029	876.62
553.242	907.62
553.455	885.62
553.667	861.62
553.88	842.62
554.093	846.62
554.306	824.62
554.519	794.62
554.732	803.62
554.944	817.62
555.157	811.62
555.37	789.62
555.583	798.62
555.795	767.62
556.008	727.62
556.221	710.62
556.433	716.62
556.646	709.62
556.859	702.62
557.071	700.62
557.284	719.62
557.496	729.62
557.709	723.62
557.921	719.62
558.134	714.62
558.346	724.62
558.559	708.62
558.771	709.62
558.984	694.62
559.196	665.62
559.409	655.62
559.621	625.62
559.833	623.62
560.046	676.62
560.258	651.62
560.47	666.62
560.683	652.62
560.895	626.62
561.107	654.62
561.32	647.62
561.532	639.62
561.744	621.62
561.956	649.62
562.168	657.62
562.381	628.62
562.593	640.62
562.805	639.62
563.017	611.62
563.229	622.62
563.441	618.62
563.653	596.62
563.865	604.62
564.077	596.62
564.289	580.62
564.501	627.62
564.713	570.62
564.925	617.62
565.137	625.62
565.349	600.62
565.561	611.62
565.773	594.62
565.985	587.62
566.197	621.62
566.408	651.62
566.62	657.62
566.832	657.62
567.044	669.62
567.255	615.62
567.467	600.62
567.679	649.62
567.891	637.62
568.102	587.62
568.314	562.62
568.526	524.62
568.737	507.62
568.949	477.62
569.161	448.62
569.372	434.62
569.584	433.62
569.795	444.62
570.007	431.62
570.218	431.62
570.43	411.62
570.641	424.62
570.853	441.62
571.064	469.62
571.276	482.62
571.487	474.62
571.698	453.62
571.91	461.62
572.121	460.62
572.333	432.62
572.544	390.62
572.755	395.62
572.966	391.62
573.178	372.62
573.389	386.62
573.6	410.62
573.811	411.62
574.023	396.62
574.234	383.62
574.445	372.62
574.656	361.62
574.867	385.62
575.078	389.62
575.289	386.62
575.501	396.62
575.712	387.62
575.923	381.62
576.134	383.62
576.345	396.62
576.556	405.62
576.767	377.62
576.978	384.62
577.188	374.62
577.399	366.62
577.61	375.62
577.821	345.62
578.032	349.62
578.243	366.62
578.454	355.62
578.665	357.62
578.875	328.62
579.086	321.62
579.297	308.62
579.508	327.62
579.718	342.62
579.929	352.62
580.14	333.62
580.35	326.62
580.561	340.62
580.772	370.62
580.982	340.62
581.193	340.62
581.403	330.62
581.614	348.62
581.825	344.62
582.035	330.62
582.246	338.62
582.456	345.62
582.667	359.62
582.877	339.62
583.087	317.62
583.298	329.62
583.508	300.62
583.719	312.62
583.929	324.62
584.139	337.62
584.35	309.62
584.56	316.62
584.77	342.62
584.981	316.62
585.191	336.62
585.401	316.62
585.611	313.62
585.821	320.62
586.032	323.62
586.242	303.62
586.452	326.62
586.662	294.62
586.872	310.62
587.082	305.62
587.292	308.62
587.502	312.62
587.713	309.62
587.923	304.62
588.133	300.62
588.343	306.62
588.553	294.62
588.762	303.62
588.972	298.62
589.182	307.62
589.392	299.62
589.602	311.62
589.812	300.62
590.022	294.62
590.232	288.62
590.441	297.62
590.651	312.62
590.861	314.62
591.071	295.62
591.281	275.62
591.49	298.62
591.7	298.62
591.91	298.62
592.119	289.62
592.329	318.62
592.539	305.62
592.748	314.62
592.958	315.62
593.167	323.62
593.377	344.62
593.587	330.62
593.796	315.62
594.006	313.62
594.215	309.62
594.424	316.62
594.634	347.62
594.843	326.62
595.053	313.62
595.262	333.62
595.472	318.62
595.681	314.62
595.89	293.62
596.1	296.62
596.309	316.62
596.518	310.62
596.727	320.62
596.937	325.62
597.146	308.62
597.355	314.62
597.564	305.62
597.774	301.62
597.983	273.62
598.192	287.62
598.401	280.62
598.61	261.62
598.819	280.62
599.028	283.62
599.237	276.62
599.446	295.62
599.655	259.62
599.864	283.62
600.073	279.62
600.282	270.62
600.491	287.62
600.7	273.62
600.909	294.62
601.118	293.62
601.327	327.62
601.536	331.62
601.745	332.62
601.953	351.62
602.162	341.62
602.371	352.62
602.58	330.62
602.789	336.62
602.997	332.62
603.206	327.62
603.415	333.62
603.623	371.62
603.832	345.62
604.041	330.62
604.249	325.62
604.458	315.62
604.666	293.62
604.875	308.62
605.084	324.62
605.292	324.62
605.501	344.62
605.709	329.62
605.918	351.62
606.126	350.62
606.334	328.62
606.543	355.62
606.751	358.62
606.96	342.62
607.168	332.62
607.376	349.62
607.585	356.62
607.793	340.62
608.001	353.62
608.21	347.62
608.418	363.62
608.626	339.62
608.834	351.62
609.043	357.62
609.251	373.62
609.459	367.62
609.667	356.62
609.875	383.62
610.083	377.62
610.291	379.62
610.499	376.62
610.707	357.62
610.916	356.62
611.124	352.62
611.332	355.62
611.54	355.62
611.748	361.62
611.955	343.62
612.163	349.62
612.371	348.62
612.579	343.62
612.787	360.62
612.995	351.62
613.203	331.62
613.411	352.62
613.618	361.62
613.826	343.62
614.034	353.62
614.242	353.62
614.449	348.62
614.657	337.62
614.865	333.62
615.072	351.62
615.28	335.62
615.488	348.62
615.695	358.62
615.903	362.62
616.111	337.62
616.318	344.62
616.526	374.62
616.733	356.62
616.941	331.62
617.148	329.62
617.356	333.62
617.563	343.62
617.771	330.62
617.978	316.62
618.185	321.62
618.393	330.62
618.6	363.62
618.807	355.62
619.015	359.62
619.222	339.62
619.429	338.62
619.637	301.62
619.844	305.62
620.051	307.62
620.258	322.62
620.466	309.62
620.673	314.62
620.88	308.62
621.087	308.62
621.294	323.62
621.501	295.62
621.708	295.62
621.915	312.62
622.122	323.62
622.329	323.62
622.536	322.62
622.743	327.62
622.95	320.62
623.157	304.62
623.364	325.62
623.571	332.62
623.778	316.62
623.985	327.62
624.192	312.62
624.399	319.62
624.606	303.62
624.812	308.62
625.019	295.62
625.226	298.62
625.433	285.62
625.639	289.62
625.846	273.62
626.053	259.62
626.259	244.62
626.466	253.62
626.673	243.62
626.879	228.62
627.086	255.62
627.293	271.62
627.499	280.62
627.706	287.62
627.912	293.62
628.119	293.62
628.325	288.62
628.532	293.62
628.738	296.62
628.945	272.62
629.151	258.62
629.357	280.62
629.564	281.62
629.77	270.62
629.976	275.62
630.183	254.62
630.389	284.62
630.595	279.62
630.802	274.62
631.008	279.62
631.214	277.62
631.42	272.62
631.627	260.62
631.833	246.62
632.039	258.62
632.245	261.62
632.451	259.62
632.657	261.62
632.863	258.62
633.069	268.62
633.275	258.62
633.481	253.62
633.688	246.62
633.893	259.62
634.099	261.62
634.305	251.62
634.511	246.62
634.717	228.62
634.923	214.62
635.129	231.62
635.335	228.62
635.541	224.62
635.747	252.62
635.952	257.62
636.158	250.62
636.364	268.62
636.57	266.62
636.775	261.62
636.981	250.62
637.187	248.62
637.392	262.62
637.598	236.62
637.804	274.62
638.009	259.62
638.215	244.62
638.421	249.62
638.626	243.62
638.832	261.62
639.037	231.62
639.243	242.62
639.448	234.62
639.654	265.62
639.859	252.62
640.065	227.62
640.27	241.62
640.475	247.62
640.681	263.62
640.886	247.62
641.091	239.62
641.297	229.62
641.502	237.62
641.707	252.62
641.913	264.62
642.118	233.62
642.323	253.62
642.528	235.62
642.733	245.62
642.939	259.62
643.144	250.62
643.349	223.62
643.554	241.62
643.759	226.62
643.964	232.62
644.169	247.62
644.374	229.62
644.579	239.62
644.784	243.62
644.989	240.62
645.194	229.62
645.399	234.62
645.604	227.62
645.809	240.62
646.014	241.62
646.219	216.62
646.423	225.62
646.628	231.62
646.833	232.62
647.038	235.62
647.243	241.62
647.447	238.62
647.652	234.62
647.857	239.62
648.062	244.62
648.266	242.62
648.471	229.62
648.676	219.62
648.88	242.62
649.085	232.62
649.289	233.62
649.494	212.62
649.698	230.62
649.903	241.62
650.107	222.62
650.312	227.62
650.516	213.62
650.721	241.62
650.925	236.62
651.13	220.62
651.334	204.62
651.539	219.62
651.743	211.62
651.947	219.62
652.152	224.62
652.356	218.62
652.56	223.62
652.764	222.62
652.969	200.62
653.173	215.62
653.377	209.62
653.581	205.62
653.785	187.62
653.99	211.62
654.194	200.62
654.398	195.62
654.602	203.62
654.806	189.62
655.01	215.62
655.214	195.62
655.418	194.62
655.622	198.62
655.826	223.62
656.03	225.62
656.234	228.62
656.438	208.62
656.642	218.62
656.846	221.62
657.049	213.62
657.253	195.62
657.457	187.62
657.661	186.62
657.865	168.62
658.068	167.62
658.272	163.62
658.476	162.62
658.68	138.62
658.883	138.62
659.087	127.62
659.291	120.62
659.494	135.62
659.698	124.62
659.901	131.62
660.105	145.62
660.309	123.62
660.512	139.62
660.716	130.62
660.919	116.62
661.123	112.62
661.326	104.62
661.53	107.62
661.733	109.62
661.936	102.62
662.14	87.62
662.343	96.62
662.546	95.62
662.75	99.62
662.953	85.62
663.156	88.62
663.36	99.62
663.563	80.62
663.766	93.62
663.969	96.62
664.173	96.62
664.376	102.62
664.579	90.62
664.782	80.62
664.985	92.62
665.188	93.62
665.391	83.62
665.594	100.62
665.797	72.62
666	91.62
666.203	71.62
666.406	85.62
666.609	88.62
666.812	93.62
667.015	85.62
667.218	80.62
667.421	85.62
667.624	75.62
667.827	100.62
668.03	83.62
668.232	84.62
668.435	94.62
668.638	91.62
668.841	87.62
669.043	87.62
669.246	64.62
669.449	85.62
669.651	80.62
669.854	102.62
670.057	83.62
670.259	71.62
670.462	73.62
670.665	83.62
670.867	79.62
671.07	59.62
671.272	83.62
671.475	86.62
671.677	88.62
671.88	84.62
672.082	84.62
672.284	69.62
672.487	72.62
672.689	84.62
672.892	77.62
