Data from WStandard_LampEnergy8_LIBS07252019.E.O._I.C._HRD10591_15-58-15-928.txt Node
Date: Thu Jul 25 15:58:15 EDT 2019
User: cochatt
Spectrometer: HR+D1059
Trigger mode: 1
Integration Time (sec): 1.000000E-1
Scans to average: 1
Electric dark correction enabled: true
Nonlinearity correction enabled: false
Boxcar width: 0
XAxis mode: Wavelengths
Number of Pixels in Spectrum: 2048
>>>>>Begin Spectral Data<<<<<
223.165	-18.62
223.4	-18.62
223.635	-18.62
223.869	-11.62
224.104	-18.62
224.338	-11.62
224.573	-1.62
224.808	-8.62
225.042	-22.62
225.277	-7.62
225.511	-5.62
225.746	0.38
225.98	18.38
226.215	6.38
226.449	13.38
226.683	4.38
226.918	25.38
227.152	38.38
227.387	33.38
227.621	38.38
227.856	34.38
228.09	46.38
228.324	39.38
228.559	60.38
228.793	109.38
229.027	197.38
229.262	214.38
229.496	220.38
229.73	230.38
229.964	250.38
230.199	258.38
230.433	273.38
230.667	298.38
230.901	307.38
231.136	249.38
231.37	273.38
231.604	260.38
231.838	276.38
232.072	280.38
232.306	255.38
232.541	278.38
232.775	315.38
233.009	340.38
233.243	329.38
233.477	304.38
233.711	314.38
233.945	311.38
234.179	318.38
234.413	333.38
234.647	333.38
234.881	308.38
235.115	301.38
235.349	314.38
235.583	299.38
235.817	324.38
236.051	322.38
236.285	319.38
236.519	323.38
236.753	362.38
236.987	374.38
237.221	375.38
237.455	400.38
237.689	379.38
237.922	356.38
238.156	355.38
238.39	354.38
238.624	360.38
238.858	393.38
239.091	396.38
239.325	435.38
239.559	485.38
239.793	473.38
240.027	536.38
240.26	496.38
240.494	403.38
240.728	375.38
240.961	370.38
241.195	387.38
241.429	413.38
241.662	443.38
241.896	395.38
242.13	416.38
242.363	461.38
242.597	456.38
242.83	455.38
243.064	466.38
243.298	483.38
243.531	468.38
243.765	468.38
243.998	466.38
244.232	420.38
244.465	419.38
244.699	426.38
244.932	472.38
245.166	526.38
245.399	481.38
245.633	491.38
245.866	465.38
246.099	488.38
246.333	482.38
246.566	513.38
246.8	542.38
247.033	610.38
247.266	544.38
247.5	544.38
247.733	548.38
247.966	588.38
248.2	628.38
248.433	592.38
248.666	621.38
248.899	662.38
249.133	772.38
249.366	808.38
249.599	699.38
249.832	604.38
250.066	620.38
250.299	648.38
250.532	601.38
250.765	568.38
250.998	607.38
251.231	627.38
251.465	595.38
251.698	581.38
251.931	571.38
252.164	604.38
252.397	635.38
252.63	641.38
252.863	574.38
253.096	562.38
253.329	584.38
253.562	600.38
253.795	629.38
254.028	638.38
254.261	602.38
254.494	581.38
254.727	570.38
254.96	574.38
255.193	658.38
255.426	699.38
255.659	784.38
255.892	816.38
256.124	684.38
256.357	675.38
256.59	711.38
256.823	698.38
257.056	745.38
257.289	860.38
257.521	902.38
257.754	830.38
257.987	782.38
258.22	825.38
258.452	829.38
258.685	696.38
258.918	678.38
259.151	706.38
259.383	640.38
259.616	612.38
259.849	645.38
260.081	725.38
260.314	763.38
260.547	831.38
260.779	846.38
261.012	774.38
261.244	722.38
261.477	688.38
261.71	680.38
261.942	727.38
262.175	674.38
262.407	726.38
262.64	681.38
262.872	666.38
263.105	635.38
263.337	634.38
263.57	658.38
263.802	641.38
264.035	593.38
264.267	585.38
264.499	572.38
264.732	634.38
264.964	671.38
265.197	708.38
265.429	733.38
265.661	800.38
265.894	867.38
266.126	885.38
266.358	814.38
266.591	826.38
266.823	893.38
267.055	828.38
267.287	774.38
267.52	770.38
267.752	768.38
267.984	780.38
268.216	812.38
268.448	838.38
268.681	819.38
268.913	732.38
269.145	710.38
269.377	717.38
269.609	777.38
269.841	900.38
270.073	1031.38
270.306	1116.38
270.538	1139.38
270.77	962.38
271.002	850.38
271.234	811.38
271.466	852.38
271.698	954.38
271.93	1080.38
272.162	1065.38
272.394	959.38
272.626	903.38
272.858	812.38
273.09	710.38
273.322	720.38
273.553	694.38
273.785	716.38
274.017	733.38
274.249	776.38
274.481	752.38
274.713	733.38
274.945	692.38
275.176	723.38
275.408	704.38
275.64	677.38
275.872	694.38
276.104	756.38
276.335	850.38
276.567	916.38
276.799	925.38
277.031	853.38
277.262	805.38
277.494	842.38
277.726	900.38
277.957	921.38
278.189	824.38
278.421	757.38
278.652	765.38
278.884	748.38
279.115	756.38
279.347	772.38
279.579	754.38
279.81	764.38
280.042	825.38
280.273	890.38
280.505	886.38
280.736	879.38
280.968	827.38
281.199	774.38
281.431	724.38
281.662	735.38
281.894	744.38
282.125	773.38
282.356	780.38
282.588	766.38
282.819	814.38
283.051	878.38
283.282	886.38
283.513	867.38
283.745	778.38
283.976	720.38
284.207	712.38
284.439	754.38
284.67	772.38
284.901	793.38
285.132	784.38
285.364	764.38
285.595	795.38
285.826	798.38
286.057	787.38
286.288	786.38
286.52	824.38
286.751	884.38
286.982	881.38
287.213	844.38
287.444	745.38
287.675	764.38
287.906	822.38
288.138	871.38
288.369	806.38
288.6	781.38
288.831	749.38
289.062	758.38
289.293	797.38
289.524	802.38
289.755	824.38
289.986	772.38
290.217	762.38
290.448	781.38
290.679	768.38
290.91	816.38
291.141	817.38
291.371	842.38
291.602	830.38
291.833	842.38
292.064	888.38
292.295	844.38
292.526	848.38
292.757	885.38
292.987	852.38
293.218	824.38
293.449	880.38
293.68	1004.38
293.91	1041.38
294.141	948.38
294.372	934.38
294.603	944.38
294.833	970.38
295.064	926.38
295.295	858.38
295.525	807.38
295.756	752.38
295.987	767.38
296.217	790.38
296.448	796.38
296.679	803.38
296.909	806.38
297.14	798.38
297.37	800.38
297.601	811.38
297.831	919.38
298.062	904.38
298.292	829.38
298.523	800.38
298.753	802.38
298.984	802.38
299.214	836.38
299.445	827.38
299.675	853.38
299.905	828.38
300.136	834.38
300.366	811.38
300.597	759.38
300.827	784.38
301.057	852.38
301.288	873.38
301.518	876.38
301.748	886.38
301.979	934.38
302.209	950.38
302.439	996.38
302.669	1039.38
302.9	978.38
303.13	862.38
303.36	867.38
303.59	903.38
303.82	856.38
304.051	850.38
304.281	888.38
304.511	880.38
304.741	970.38
304.971	1057.38
305.201	1078.38
305.431	988.38
305.661	853.38
305.891	745.38
306.121	808.38
306.352	806.38
306.582	882.38
306.812	910.38
307.042	964.38
307.272	982.38
307.502	1024.38
307.731	1062.38
307.961	1093.38
308.191	995.38
308.421	914.38
308.651	882.38
308.881	862.38
309.111	849.38
309.341	849.38
309.571	843.38
309.8	850.38
310.03	824.38
310.26	831.38
310.49	822.38
310.72	885.38
310.949	887.38
311.179	911.38
311.409	882.38
311.639	881.38
311.868	833.38
312.098	867.38
312.328	873.38
312.557	844.38
312.787	891.38
313.017	902.38
313.246	904.38
313.476	900.38
313.706	915.38
313.935	907.38
314.165	906.38
314.394	953.38
314.624	991.38
314.853	1051.38
315.083	1087.38
315.312	1097.38
315.542	1009.38
315.771	926.38
316.001	942.38
316.23	988.38
316.46	968.38
316.689	946.38
316.919	899.38
317.148	884.38
317.377	904.38
317.607	991.38
317.836	1087.38
318.065	1132.38
318.295	1035.38
318.524	1003.38
318.753	971.38
318.983	985.38
319.212	934.38
319.441	950.38
319.67	931.38
319.9	966.38
320.129	994.38
320.358	1057.38
320.587	1068.38
320.816	1055.38
321.046	1019.38
321.275	998.38
321.504	1012.38
321.733	1088.38
321.962	995.38
322.191	938.38
322.42	957.38
322.649	929.38
322.878	936.38
323.108	956.38
323.337	1011.38
323.566	977.38
323.795	981.38
324.024	993.38
324.253	966.38
324.482	971.38
324.71	925.38
324.939	899.38
325.168	921.38
325.397	946.38
325.626	964.38
325.855	993.38
326.084	950.38
326.313	951.38
326.542	971.38
326.77	1004.38
326.999	985.38
327.228	953.38
327.457	878.38
327.686	891.38
327.914	914.38
328.143	941.38
328.372	956.38
328.6	950.38
328.829	944.38
329.058	933.38
329.287	910.38
329.515	970.38
329.744	970.38
329.972	1028.38
330.201	1052.38
330.43	1028.38
330.658	1030.38
330.887	1013.38
331.115	1008.38
331.344	993.38
331.572	974.38
331.801	988.38
332.03	981.38
332.258	1004.38
332.486	1041.38
332.715	1039.38
332.943	1038.38
333.172	1017.38
333.4	988.38
333.629	1022.38
333.857	1142.38
334.085	1245.38
334.314	1376.38
334.542	1458.38
334.771	1325.38
334.999	1160.38
335.227	1096.38
335.455	1048.38
335.684	1080.38
335.912	1113.38
336.14	1125.38
336.369	1084.38
336.597	1015.38
336.825	1027.38
337.053	1070.38
337.281	1121.38
337.51	1147.38
337.738	1200.38
337.966	1140.38
338.194	994.38
338.422	1026.38
338.65	1020.38
338.878	990.38
339.106	950.38
339.334	966.38
339.562	966.38
339.79	1004.38
340.018	1035.38
340.246	1042.38
340.474	1063.38
340.702	1059.38
340.93	1046.38
341.158	1043.38
341.386	1047.38
341.614	1013.38
341.842	978.38
342.07	1008.38
342.298	1013.38
342.526	1003.38
342.754	1010.38
342.981	1015.38
343.209	1004.38
343.437	998.38
343.665	992.38
343.893	1013.38
344.12	1063.38
344.348	1068.38
344.576	1015.38
344.804	1014.38
345.031	991.38
345.259	998.38
345.487	949.38
345.714	920.38
345.942	929.38
346.17	916.38
346.397	946.38
346.625	952.38
346.853	938.38
347.08	891.38
347.308	909.38
347.535	933.38
347.763	949.38
347.99	932.38
348.218	921.38
348.445	928.38
348.673	937.38
348.9	961.38
349.128	963.38
349.355	994.38
349.583	1022.38
349.81	945.38
350.037	871.38
350.265	873.38
350.492	914.38
350.72	916.38
350.947	963.38
351.174	983.38
351.402	931.38
351.629	883.38
351.856	866.38
352.083	863.38
352.311	905.38
352.538	927.38
352.765	951.38
352.992	978.38
353.22	913.38
353.447	926.38
353.674	938.38
353.901	930.38
354.128	890.38
354.355	916.38
354.583	950.38
354.81	980.38
355.037	941.38
355.264	964.38
355.491	932.38
355.718	957.38
355.945	939.38
356.172	911.38
356.399	940.38
356.626	886.38
356.853	910.38
357.08	1021.38
357.307	1128.38
357.534	1063.38
357.761	973.38
357.988	922.38
358.215	906.38
358.441	894.38
358.668	888.38
358.895	920.38
359.122	979.38
359.349	1059.38
359.576	1040.38
359.802	920.38
360.029	902.38
360.256	908.38
360.483	923.38
360.709	947.38
360.936	989.38
361.163	1022.38
361.39	1109.38
361.616	1183.38
361.843	1182.38
362.07	1073.38
362.296	946.38
362.523	913.38
362.749	908.38
362.976	939.38
363.203	950.38
363.429	950.38
363.656	927.38
363.882	970.38
364.109	1060.38
364.335	1102.38
364.562	1042.38
364.788	997.38
365.015	956.38
365.241	905.38
365.468	934.38
365.694	994.38
365.92	1009.38
366.147	993.38
366.373	939.38
366.599	920.38
366.826	916.38
367.052	917.38
367.278	948.38
367.505	955.38
367.731	979.38
367.957	986.38
368.184	1043.38
368.41	1084.38
368.636	1082.38
368.862	1100.38
369.089	1061.38
369.315	1049.38
369.541	996.38
369.767	930.38
369.993	941.38
370.219	956.38
370.445	968.38
370.672	1048.38
370.898	1066.38
371.124	1025.38
371.35	1016.38
371.576	1061.38
371.802	1072.38
372.028	1028.38
372.254	985.38
372.48	946.38
372.706	932.38
372.932	961.38
373.158	994.38
373.384	986.38
373.61	1026.38
373.835	1038.38
374.061	1005.38
374.287	992.38
374.513	996.38
374.739	997.38
374.965	996.38
375.191	1048.38
375.416	1021.38
375.642	1021.38
375.868	1109.38
376.094	1132.38
376.319	1059.38
376.545	1022.38
376.771	1064.38
376.997	1101.38
377.222	1078.38
377.448	1036.38
377.674	1044.38
377.899	1086.38
378.125	1152.38
378.35	1111.38
378.576	1001.38
378.802	968.38
379.027	991.38
379.253	996.38
379.478	994.38
379.704	986.38
379.929	1010.38
380.155	1008.38
380.38	1006.38
380.606	1003.38
380.831	1030.38
381.057	1142.38
381.282	1082.38
381.507	1037.38
381.733	1152.38
381.958	1151.38
382.184	1095.38
382.409	1031.38
382.634	1062.38
382.86	1048.38
383.085	1046.38
383.31	1124.38
383.535	1196.38
383.761	1266.38
383.986	1175.38
384.211	1147.38
384.436	1118.38
384.662	1195.38
384.887	1232.38
385.112	1151.38
385.337	1172.38
385.562	1120.38
385.787	1143.38
386.013	1201.38
386.238	1161.38
386.463	1186.38
386.688	1295.38
386.913	1326.38
387.138	1286.38
387.363	1192.38
387.588	1178.38
387.813	1179.38
388.038	1184.38
388.263	1213.38
388.488	1177.38
388.713	1113.38
388.938	1102.38
389.163	1089.38
389.387	1126.38
389.612	1116.38
389.837	1176.38
390.062	1140.38
390.287	1157.38
390.512	1154.38
390.736	1107.38
390.961	1110.38
391.186	1077.38
391.411	1113.38
391.636	1178.38
391.86	1162.38
392.085	1141.38
392.31	1156.38
392.534	1137.38
392.759	1157.38
392.984	1151.38
393.208	1180.38
393.433	1212.38
393.658	1213.38
393.882	1252.38
394.107	1180.38
394.331	1140.38
394.556	1150.38
394.78	1166.38
395.005	1190.38
395.229	1265.38
395.454	1340.38
395.678	1346.38
395.903	1235.38
396.127	1195.38
396.352	1240.38
396.576	1266.38
396.801	1261.38
397.025	1268.38
397.249	1280.38
397.474	1247.38
397.698	1248.38
397.922	1279.38
398.147	1321.38
398.371	1358.38
398.595	1380.38
398.82	1294.38
399.044	1350.38
399.268	1415.38
399.492	1485.38
399.717	1510.38
399.941	1509.38
400.165	1494.38
400.389	1459.38
400.613	1485.38
400.837	1700.38
401.062	1803.38
401.286	1540.38
401.51	1489.38
401.734	1479.38
401.958	1426.38
402.182	1348.38
402.406	1304.38
402.63	1324.38
402.854	1315.38
403.078	1332.38
403.302	1370.38
403.526	1375.38
403.75	1372.38
403.974	1402.38
404.198	1364.38
404.422	1414.38
404.645	1523.38
404.869	1451.38
405.093	1337.38
405.317	1319.38
405.541	1388.38
405.765	1362.38
405.988	1338.38
406.212	1387.38
406.436	1408.38
406.66	1460.38
406.883	1514.38
407.107	1696.38
407.331	1796.38
407.555	1946.38
407.778	1706.38
408.002	1438.38
408.226	1436.38
408.449	1399.38
408.673	1357.38
408.896	1432.38
409.12	1396.38
409.344	1369.38
409.567	1351.38
409.791	1349.38
410.014	1392.38
410.238	1494.38
410.461	1541.38
410.685	1449.38
410.908	1389.38
411.132	1368.38
411.355	1370.38
411.578	1381.38
411.802	1374.38
412.025	1385.38
412.249	1334.38
412.472	1312.38
412.695	1326.38
412.919	1308.38
413.142	1306.38
413.365	1316.38
413.589	1382.38
413.812	1435.38
414.035	1499.38
414.258	1367.38
414.482	1300.38
414.705	1333.38
414.928	1272.38
415.151	1294.38
415.374	1309.38
415.597	1332.38
415.821	1347.38
416.044	1352.38
416.267	1378.38
416.49	1289.38
416.713	1277.38
416.936	1333.38
417.159	1401.38
417.382	1405.38
417.605	1311.38
417.828	1324.38
418.051	1333.38
418.274	1332.38
418.497	1312.38
418.72	1302.38
418.943	1292.38
419.166	1345.38
419.389	1369.38
419.611	1336.38
419.834	1288.38
420.057	1319.38
420.28	1302.38
420.503	1344.38
420.726	1341.38
420.948	1314.38
421.171	1304.38
421.394	1312.38
421.617	1353.38
421.839	1325.38
422.062	1356.38
422.285	1300.38
422.507	1298.38
422.73	1251.38
422.953	1229.38
423.175	1268.38
423.398	1292.38
423.621	1281.38
423.843	1282.38
424.066	1329.38
424.288	1435.38
424.511	1461.38
424.733	1391.38
424.956	1242.38
425.178	1264.38
425.401	1250.38
425.623	1284.38
425.846	1298.38
426.068	1370.38
426.291	1366.38
426.513	1301.38
426.735	1353.38
426.958	1468.38
427.18	1526.38
427.402	1389.38
427.625	1398.38
427.847	1389.38
428.069	1293.38
428.292	1251.38
428.514	1257.38
428.736	1242.38
428.958	1254.38
429.181	1268.38
429.403	1477.38
429.625	1792.38
429.847	1509.38
430.069	1332.38
430.292	1448.38
430.514	1472.38
430.736	1358.38
430.958	1393.38
431.18	1294.38
431.402	1213.38
431.624	1212.38
431.846	1180.38
432.068	1160.38
432.29	1181.38
432.512	1188.38
432.734	1269.38
432.956	1324.38
433.178	1330.38
433.4	1365.38
433.622	1308.38
433.844	1252.38
434.066	1242.38
434.287	1225.38
434.509	1229.38
434.731	1292.38
434.953	1390.38
435.175	1348.38
435.397	1288.38
435.618	1291.38
435.84	1261.38
436.062	1248.38
436.284	1257.38
436.505	1321.38
436.727	1361.38
436.949	1299.38
437.17	1260.38
437.392	1216.38
437.614	1211.38
437.835	1167.38
438.057	1206.38
438.278	1250.38
438.5	1191.38
438.721	1229.38
438.943	1270.38
439.165	1254.38
439.386	1249.38
439.608	1261.38
439.829	1259.38
440.05	1237.38
440.272	1268.38
440.493	1241.38
440.715	1306.38
440.936	1372.38
441.158	1485.38
441.379	1403.38
441.6	1399.38
441.822	1364.38
442.043	1369.38
442.264	1328.38
442.486	1254.38
442.707	1274.38
442.928	1253.38
443.149	1300.38
443.371	1393.38
443.592	1392.38
443.813	1379.38
444.034	1378.38
444.255	1369.38
444.476	1376.38
444.698	1420.38
444.919	1383.38
445.14	1490.38
445.361	1488.38
445.582	1528.38
445.803	1438.38
446.024	1394.38
446.245	1463.38
446.466	1382.38
446.687	1339.38
446.908	1350.38
447.129	1335.38
447.35	1346.38
447.571	1335.38
447.792	1273.38
448.013	1273.38
448.234	1286.38
448.455	1330.38
448.675	1314.38
448.896	1241.38
449.117	1216.38
449.338	1244.38
449.559	1313.38
449.779	1356.38
450	1434.38
450.221	1521.38
450.442	1456.38
450.662	1300.38
450.883	1218.38
451.104	1174.38
451.324	1213.38
451.545	1224.38
451.766	1226.38
451.986	1181.38
452.207	1147.38
452.428	1137.38
452.648	1103.38
452.869	1134.38
453.089	1154.38
453.31	1159.38
453.53	1185.38
453.751	1140.38
453.971	1101.38
454.192	1126.38
454.412	1172.38
454.633	1134.38
454.853	1099.38
455.073	1090.38
455.294	1095.38
455.514	1090.38
455.734	1083.38
455.955	1083.38
456.175	1092.38
456.395	1073.38
456.616	1095.38
456.836	1106.38
457.056	1091.38
457.276	1109.38
457.497	1058.38
457.717	1059.38
457.937	1056.38
458.157	1102.38
458.377	1055.38
458.598	1032.38
458.818	1061.38
459.038	1125.38
459.258	1173.38
459.478	1170.38
459.698	1093.38
459.918	1160.38
460.138	1246.38
460.358	1269.38
460.578	1242.38
460.798	1308.38
461.018	1354.38
461.238	1309.38
461.458	1302.38
461.678	1266.38
461.898	1254.38
462.118	1197.38
462.338	1254.38
462.558	1302.38
462.777	1304.38
462.997	1315.38
463.217	1396.38
463.437	1383.38
463.657	1288.38
463.876	1259.38
464.096	1256.38
464.316	1284.38
464.536	1304.38
464.755	1335.38
464.975	1307.38
465.195	1283.38
465.414	1308.38
465.634	1316.38
465.854	1284.38
466.073	1421.38
466.293	1406.38
466.512	1202.38
466.732	1205.38
466.951	1260.38
467.171	1260.38
467.391	1218.38
467.61	1213.38
467.829	1243.38
468.049	1358.38
468.268	1484.38
468.488	1345.38
468.707	1302.38
468.927	1272.38
469.146	1212.38
469.365	1227.38
469.585	1270.38
469.804	1230.38
470.023	1252.38
470.243	1278.38
470.462	1243.38
470.681	1196.38
470.901	1248.38
471.12	1237.38
471.339	1283.38
471.558	1213.38
471.777	1184.38
471.997	1215.38
472.216	1204.38
472.435	1155.38
472.654	1130.38
472.873	1181.38
473.092	1237.38
473.311	1212.38
473.53	1139.38
473.749	1140.38
473.968	1218.38
474.187	1202.38
474.406	1235.38
474.625	1210.38
474.844	1202.38
475.063	1237.38
475.282	1242.38
475.501	1235.38
475.72	1261.38
475.939	1332.38
476.158	1264.38
476.377	1262.38
476.596	1230.38
476.814	1225.38
477.033	1220.38
477.252	1260.38
477.471	1310.38
477.69	1297.38
477.908	1310.38
478.127	1347.38
478.346	1452.38
478.564	1428.38
478.783	1412.38
479.002	1478.38
479.22	1477.38
479.439	1495.38
479.658	1564.38
479.876	1549.38
480.095	1398.38
480.313	1350.38
480.532	1320.38
480.751	1316.38
480.969	1300.38
481.188	1297.38
481.406	1251.38
481.624	1227.38
481.843	1250.38
482.061	1316.38
482.28	1358.38
482.498	1387.38
482.717	1346.38
482.935	1310.38
483.153	1371.38
483.372	1403.38
483.59	1379.38
483.808	1400.38
484.027	1404.38
484.245	1459.38
484.463	1745.38
484.681	1930.38
484.9	1489.38
485.118	1385.38
485.336	1331.38
485.554	1404.38
485.772	1401.38
485.99	1373.38
486.209	1390.38
486.427	1396.38
486.645	1378.38
486.863	1397.38
487.081	1492.38
487.299	1496.38
487.517	1481.38
487.735	1453.38
487.953	1529.38
488.171	1516.38
488.389	1467.38
488.607	1477.38
488.825	1625.38
489.043	1584.38
489.261	1431.38
489.479	1496.38
489.696	1497.38
489.914	1457.38
490.132	1448.38
490.35	1446.38
490.568	1552.38
490.786	1526.38
491.003	1483.38
491.221	1549.38
491.439	1607.38
491.657	1608.38
491.874	1650.38
492.092	1680.38
492.31	1695.38
492.527	1657.38
492.745	1646.38
492.963	1586.38
493.18	1657.38
493.398	1722.38
493.615	1742.38
493.833	1594.38
494.05	1587.38
494.268	1580.38
494.485	1566.38
494.703	1585.38
494.92	1597.38
495.138	1586.38
495.355	1576.38
495.573	1634.38
495.79	1667.38
496.008	1722.38
496.225	1612.38
496.442	1611.38
496.66	1643.38
496.877	1633.38
497.094	1629.38
497.312	1633.38
497.529	1641.38
497.746	1666.38
497.963	1873.38
498.181	2004.38
498.398	1968.38
498.615	1873.38
498.832	1803.38
499.049	1828.38
499.267	1804.38
499.484	1907.38
499.701	2056.38
499.918	2064.38
500.135	2216.38
500.352	2346.38
500.569	2338.38
500.786	2584.38
501.003	2325.38
501.22	2098.38
501.437	2104.38
501.654	2116.38
501.871	2023.38
502.088	1790.38
502.305	1794.38
502.522	1742.38
502.739	1623.38
502.956	1588.38
503.172	1606.38
503.389	1533.38
503.606	1489.38
503.823	1492.38
504.04	1484.38
504.256	1497.38
504.473	1525.38
504.69	1523.38
504.907	1501.38
505.123	1431.38
505.34	1562.38
505.557	2045.38
505.773	1664.38
505.99	1426.38
506.207	1366.38
506.423	1280.38
506.64	1306.38
506.856	1342.38
507.073	1525.38
507.289	1646.38
507.506	1538.38
507.722	1323.38
507.939	1252.38
508.155	1283.38
508.372	1284.38
508.588	1225.38
508.805	1198.38
509.021	1179.38
509.238	1166.38
509.454	1176.38
509.67	1180.38
509.887	1142.38
510.103	1121.38
510.319	1149.38
510.536	1219.38
510.752	1257.38
510.968	1238.38
511.184	1311.38
511.401	1254.38
511.617	1138.38
511.833	1153.38
512.049	1133.38
512.265	1095.38
512.481	1143.38
512.698	1147.38
512.914	1218.38
513.13	1224.38
513.346	1138.38
513.562	1114.38
513.778	1147.38
513.994	1191.38
514.21	1205.38
514.426	1216.38
514.642	1336.38
514.858	1244.38
515.074	1131.38
515.29	1152.38
515.506	1170.38
515.721	1183.38
515.937	1196.38
516.153	1321.38
516.369	1251.38
516.585	1183.38
516.801	1176.38
517.016	1157.38
517.232	1224.38
517.448	1232.38
517.664	1272.38
517.879	1270.38
518.095	1248.38
518.311	1223.38
518.527	1188.38
518.742	1154.38
518.958	1134.38
519.173	1141.38
519.389	1192.38
519.605	1167.38
519.82	1200.38
520.036	1202.38
520.251	1170.38
520.467	1162.38
520.682	1241.38
520.898	1285.38
521.113	1174.38
521.329	1146.38
521.544	1203.38
521.76	1146.38
521.975	1105.38
522.19	1106.38
522.406	1156.38
522.621	1440.38
522.836	1331.38
523.052	1102.38
523.267	1112.38
523.482	1141.38
523.698	1065.38
523.913	1052.38
524.128	1087.38
524.343	1178.38
524.559	1176.38
524.774	1108.38
524.989	1092.38
525.204	1084.38
525.419	1111.38
525.634	1075.38
525.849	1092.38
526.064	1102.38
526.28	1088.38
526.495	1048.38
526.71	1018.38
526.925	1005.38
527.14	1003.38
527.355	1003.38
527.57	983.38
527.785	1056.38
527.999	1013.38
528.214	1011.38
528.429	1005.38
528.644	1014.38
528.859	1080.38
529.074	1104.38
529.289	1160.38
529.503	1123.38
529.718	1079.38
529.933	1042.38
530.148	994.38
530.363	1006.38
530.577	989.38
530.792	988.38
531.007	1001.38
531.221	964.38
531.436	976.38
531.651	1016.38
531.865	1066.38
532.08	1042.38
532.295	984.38
532.509	964.38
532.724	958.38
532.938	1041.38
533.153	1048.38
533.367	1058.38
533.582	1064.38
533.796	1035.38
534.011	1027.38
534.225	1025.38
534.44	974.38
534.654	1001.38
534.868	984.38
535.083	1035.38
535.297	1030.38
535.511	1016.38
535.726	1034.38
535.94	1027.38
536.154	985.38
536.369	960.38
536.583	946.38
536.797	944.38
537.011	990.38
537.225	948.38
537.44	931.38
537.654	1010.38
537.868	943.38
538.082	897.38
538.296	910.38
538.51	931.38
538.724	975.38
538.938	990.38
539.153	991.38
539.367	1006.38
539.581	1008.38
539.795	1013.38
540.009	977.38
540.222	948.38
540.436	970.38
540.65	1061.38
540.864	1096.38
541.078	1096.38
541.292	1036.38
541.506	1083.38
541.72	1131.38
541.934	1159.38
542.147	1185.38
542.361	1182.38
542.575	1115.38
542.789	1045.38
543.002	961.38
543.216	971.38
543.43	1016.38
543.644	1093.38
543.857	1152.38
544.071	1122.38
544.285	1080.38
544.498	1102.38
544.712	1116.38
544.925	1138.38
545.139	1138.38
545.352	1117.38
545.566	1084.38
545.779	1086.38
545.993	1101.38
546.206	1108.38
546.42	1060.38
546.633	1093.38
546.847	1069.38
547.06	1062.38
547.274	1107.38
547.487	1118.38
547.7	1108.38
547.914	1106.38
548.127	1099.38
548.34	1079.38
548.554	1076.38
548.767	1084.38
548.98	1084.38
549.193	1093.38
549.407	1124.38
549.62	1112.38
549.833	1080.38
550.046	1030.38
550.259	1063.38
550.473	1042.38
550.686	1029.38
550.899	996.38
551.112	1008.38
551.325	991.38
551.538	1031.38
551.751	1177.38
551.964	944.38
552.177	950.38
552.39	967.38
552.603	1016.38
552.816	1026.38
553.029	1080.38
553.242	1080.38
553.455	1030.38
553.667	1063.38
553.88	1035.38
554.093	1038.38
554.306	972.38
554.519	982.38
554.732	958.38
554.944	953.38
555.157	989.38
555.37	950.38
555.583	967.38
555.795	961.38
556.008	930.38
556.221	892.38
556.433	878.38
556.646	871.38
556.859	896.38
557.071	896.38
557.284	915.38
557.496	884.38
557.709	869.38
557.921	864.38
558.134	860.38
558.346	878.38
558.559	860.38
558.771	867.38
558.984	841.38
559.196	825.38
559.409	841.38
559.621	826.38
559.833	819.38
560.046	844.38
560.258	840.38
560.47	836.38
560.683	816.38
560.895	843.38
561.107	804.38
561.32	838.38
561.532	829.38
561.744	837.38
561.956	856.38
562.168	811.38
562.381	812.38
562.593	819.38
562.805	808.38
563.017	773.38
563.229	783.38
563.441	819.38
563.653	824.38
563.865	793.38
564.077	757.38
564.289	786.38
564.501	813.38
564.713	847.38
564.925	859.38
565.137	899.38
565.349	796.38
565.561	788.38
565.773	835.38
565.985	834.38
566.197	865.38
566.408	914.38
566.62	900.38
566.832	916.38
567.044	900.38
567.255	904.38
567.467	882.38
567.679	944.38
567.891	926.38
568.102	872.38
568.314	850.38
568.526	809.38
568.737	796.38
568.949	742.38
569.161	732.38
569.372	709.38
569.584	680.38
569.795	680.38
570.007	678.38
570.218	661.38
570.43	702.38
570.641	686.38
570.853	645.38
571.064	662.38
571.276	659.38
571.487	638.38
571.698	651.38
571.91	658.38
572.121	640.38
572.333	631.38
572.544	638.38
572.755	584.38
572.966	579.38
573.178	595.38
573.389	603.38
573.6	630.38
573.811	636.38
574.023	582.38
574.234	567.38
574.445	577.38
574.656	562.38
574.867	575.38
575.078	578.38
575.289	562.38
575.501	564.38
575.712	562.38
575.923	552.38
576.134	555.38
576.345	538.38
576.556	566.38
576.767	558.38
576.978	541.38
577.188	539.38
577.399	532.38
577.61	512.38
577.821	504.38
578.032	510.38
578.243	524.38
578.454	509.38
578.665	499.38
578.875	493.38
579.086	500.38
579.297	488.38
579.508	536.38
579.718	514.38
579.929	512.38
580.14	514.38
580.35	499.38
580.561	512.38
580.772	566.38
580.982	534.38
581.193	496.38
581.403	484.38
581.614	501.38
581.825	477.38
582.035	474.38
582.246	492.38
582.456	491.38
582.667	491.38
582.877	477.38
583.087	479.38
583.298	475.38
583.508	476.38
583.719	476.38
583.929	472.38
584.139	472.38
584.35	455.38
584.56	482.38
584.77	482.38
584.981	491.38
585.191	470.38
585.401	510.38
585.611	481.38
585.821	479.38
586.032	471.38
586.242	448.38
586.452	466.38
586.662	472.38
586.872	445.38
587.082	450.38
587.292	468.38
587.502	457.38
587.713	466.38
587.923	463.38
588.133	464.38
588.343	457.38
588.553	436.38
588.762	472.38
588.972	446.38
589.182	462.38
589.392	452.38
589.602	463.38
589.812	456.38
590.022	447.38
590.232	453.38
590.441	459.38
590.651	459.38
590.861	452.38
591.071	458.38
591.281	469.38
591.49	454.38
591.7	441.38
591.91	445.38
592.119	438.38
592.329	455.38
592.539	493.38
592.748	455.38
592.958	462.38
593.167	472.38
593.377	477.38
593.587	481.38
593.796	484.38
594.006	476.38
594.215	454.38
594.424	491.38
594.634	484.38
594.843	453.38
595.053	487.38
595.262	454.38
595.472	450.38
595.681	452.38
595.89	429.38
596.1	437.38
596.309	447.38
596.518	442.38
596.727	437.38
596.937	437.38
597.146	417.38
597.355	431.38
597.564	406.38
597.774	408.38
597.983	412.38
598.192	395.38
598.401	396.38
598.61	406.38
598.819	406.38
599.028	385.38
599.237	419.38
599.446	404.38
599.655	392.38
599.864	393.38
600.073	391.38
600.282	379.38
600.491	392.38
600.7	394.38
600.909	389.38
601.118	388.38
601.327	412.38
601.536	428.38
601.745	403.38
601.953	427.38
602.162	408.38
602.371	399.38
602.58	433.38
602.789	440.38
602.997	410.38
603.206	418.38
603.415	413.38
603.623	430.38
603.832	391.38
604.041	403.38
604.249	390.38
604.458	379.38
604.666	400.38
604.875	376.38
605.084	401.38
605.292	406.38
605.501	419.38
605.709	393.38
605.918	420.38
606.126	409.38
606.334	411.38
606.543	410.38
606.751	428.38
606.96	405.38
607.168	417.38
607.376	412.38
607.585	404.38
607.793	394.38
608.001	404.38
608.21	409.38
608.418	420.38
608.626	401.38
608.834	395.38
609.043	406.38
609.251	408.38
609.459	408.38
609.667	407.38
609.875	414.38
610.083	417.38
610.291	418.38
610.499	412.38
610.707	400.38
610.916	401.38
611.124	408.38
611.332	392.38
611.54	385.38
611.748	396.38
611.955	377.38
612.163	382.38
612.371	390.38
612.579	382.38
612.787	394.38
612.995	388.38
613.203	404.38
613.411	394.38
613.618	385.38
613.826	411.38
614.034	402.38
614.242	404.38
614.449	394.38
614.657	380.38
614.865	377.38
615.072	394.38
615.28	408.38
615.488	402.38
615.695	414.38
615.903	401.38
616.111	408.38
616.318	381.38
616.526	386.38
616.733	400.38
616.941	394.38
617.148	396.38
617.356	402.38
617.563	396.38
617.771	375.38
617.978	381.38
618.185	380.38
618.393	381.38
618.6	372.38
618.807	364.38
619.015	384.38
619.222	396.38
619.429	390.38
619.637	378.38
619.844	369.38
620.051	357.38
620.258	342.38
620.466	348.38
620.673	368.38
620.88	358.38
621.087	336.38
621.294	351.38
621.501	346.38
621.708	342.38
621.915	372.38
622.122	369.38
622.329	372.38
622.536	343.38
622.743	363.38
622.95	350.38
623.157	353.38
623.364	370.38
623.571	346.38
623.778	352.38
623.985	354.38
624.192	354.38
624.399	352.38
624.606	340.38
624.812	336.38
625.019	329.38
625.226	321.38
625.433	327.38
625.639	336.38
625.846	307.38
626.053	318.38
626.259	302.38
626.466	308.38
626.673	295.38
626.879	294.38
627.086	288.38
627.293	310.38
627.499	299.38
627.706	332.38
627.912	319.38
628.119	326.38
628.325	322.38
628.532	330.38
628.738	312.38
628.945	300.38
629.151	311.38
629.357	324.38
629.564	329.38
629.77	309.38
629.976	315.38
630.183	308.38
630.389	299.38
630.595	310.38
630.802	319.38
631.008	286.38
631.214	285.38
631.42	288.38
631.627	304.38
631.833	299.38
632.039	292.38
632.245	296.38
632.451	289.38
632.657	299.38
632.863	302.38
633.069	306.38
633.275	297.38
633.481	286.38
633.688	273.38
633.893	284.38
634.099	289.38
634.305	282.38
634.511	274.38
634.717	273.38
634.923	269.38
635.129	276.38
635.335	289.38
635.541	264.38
635.747	281.38
635.952	261.38
636.158	299.38
636.364	270.38
636.57	293.38
636.775	287.38
636.981	292.38
637.187	277.38
637.392	277.38
637.598	279.38
637.804	274.38
638.009	270.38
638.215	270.38
638.421	284.38
638.626	292.38
638.832	275.38
639.037	280.38
639.243	260.38
639.448	270.38
639.654	259.38
639.859	267.38
640.065	266.38
640.27	287.38
640.475	274.38
640.681	249.38
640.886	264.38
641.091	262.38
641.297	269.38
641.502	260.38
641.707	266.38
641.913	241.38
642.118	260.38
642.323	242.38
642.528	260.38
642.733	270.38
642.939	258.38
643.144	259.38
643.349	277.38
643.554	264.38
643.759	268.38
643.964	261.38
644.169	273.38
644.374	265.38
644.579	270.38
644.784	250.38
644.989	252.38
645.194	242.38
645.399	266.38
645.604	266.38
645.809	246.38
646.014	241.38
646.219	273.38
646.423	273.38
646.628	269.38
646.833	266.38
647.038	256.38
647.243	251.38
647.447	256.38
647.652	256.38
647.857	245.38
648.062	257.38
648.266	263.38
648.471	260.38
648.676	269.38
648.88	257.38
649.085	275.38
649.289	256.38
649.494	263.38
649.698	232.38
649.903	231.38
650.107	241.38
650.312	227.38
650.516	255.38
650.721	250.38
650.925	242.38
651.13	229.38
651.334	244.38
651.539	260.38
651.743	237.38
651.947	255.38
652.152	249.38
652.356	224.38
652.56	243.38
652.764	243.38
652.969	235.38
653.173	225.38
653.377	236.38
653.581	218.38
653.785	235.38
653.99	223.38
654.194	219.38
654.398	208.38
654.602	218.38
654.806	229.38
655.01	213.38
655.214	210.38
655.418	219.38
655.622	212.38
655.826	239.38
656.03	220.38
656.234	246.38
656.438	238.38
656.642	261.38
656.846	253.38
657.049	237.38
657.253	217.38
657.457	210.38
657.661	188.38
657.865	174.38
658.068	172.38
658.272	171.38
658.476	151.38
658.68	154.38
658.883	154.38
659.087	148.38
659.291	145.38
659.494	144.38
659.698	145.38
659.901	128.38
660.105	118.38
660.309	135.38
660.512	134.38
660.716	129.38
660.919	106.38
661.123	128.38
661.326	113.38
661.53	118.38
661.733	118.38
661.936	108.38
662.14	110.38
662.343	106.38
662.546	99.38
662.75	99.38
662.953	84.38
663.156	101.38
663.36	88.38
663.563	76.38
663.766	106.38
663.969	81.38
664.173	85.38
664.376	95.38
664.579	87.38
664.782	87.38
664.985	79.38
665.188	71.38
665.391	84.38
665.594	84.38
665.797	76.38
666	75.38
666.203	81.38
666.406	87.38
666.609	84.38
666.812	82.38
667.015	89.38
667.218	73.38
667.421	73.38
667.624	77.38
667.827	92.38
668.03	88.38
668.232	82.38
668.435	67.38
668.638	81.38
668.841	82.38
669.043	80.38
669.246	86.38
669.449	77.38
669.651	89.38
669.854	70.38
670.057	85.38
670.259	83.38
670.462	83.38
670.665	82.38
670.867	79.38
671.07	89.38
671.272	73.38
671.475	93.38
671.677	85.38
671.88	84.38
672.082	85.38
672.284	75.38
672.487	86.38
672.689	78.38
672.892	76.38
