Data from WStandard_LampEnergy10_LIBS07252019.E.O._I.C._HRD10591_15-55-28-928.txt Node
Date: Thu Jul 25 15:55:28 EDT 2019
User: cochatt
Spectrometer: HR+D1059
Trigger mode: 1
Integration Time (sec): 1.000000E-1
Scans to average: 1
Electric dark correction enabled: true
Nonlinearity correction enabled: false
Boxcar width: 0
XAxis mode: Wavelengths
Number of Pixels in Spectrum: 2048
>>>>>Begin Spectral Data<<<<<
223.165	-26.38
223.4	-26.38
223.635	-26.38
223.869	-26.38
224.104	-17.38
224.338	-18.38
224.573	-32.38
224.808	-9.38
225.042	-12.38
225.277	4.62
225.511	-0.38
225.746	12.62
225.98	13.62
226.215	13.62
226.449	21.62
226.683	8.62
226.918	25.62
227.152	42.62
227.387	40.62
227.621	40.62
227.856	56.62
228.09	58.62
228.324	53.62
228.559	64.62
228.793	84.62
229.027	139.62
229.262	136.62
229.496	137.62
229.73	153.62
229.964	163.62
230.199	167.62
230.433	169.62
230.667	171.62
230.901	185.62
231.136	168.62
231.37	174.62
231.604	172.62
231.838	163.62
232.072	170.62
232.306	170.62
232.541	182.62
232.775	199.62
233.009	211.62
233.243	207.62
233.477	191.62
233.711	188.62
233.945	198.62
234.179	186.62
234.413	190.62
234.647	206.62
234.881	199.62
235.115	196.62
235.349	216.62
235.583	191.62
235.817	188.62
236.051	195.62
236.285	192.62
236.519	209.62
236.753	198.62
236.987	228.62
237.221	218.62
237.455	226.62
237.689	219.62
237.922	239.62
238.156	216.62
238.39	227.62
238.624	226.62
238.858	247.62
239.091	246.62
239.325	248.62
239.559	268.62
239.793	268.62
240.027	298.62
240.26	282.62
240.494	242.62
240.728	230.62
240.961	224.62
241.195	232.62
241.429	264.62
241.662	257.62
241.896	234.62
242.13	254.62
242.363	259.62
242.597	278.62
242.83	285.62
243.064	265.62
243.298	290.62
243.531	260.62
243.765	281.62
243.998	276.62
244.232	236.62
244.465	237.62
244.699	234.62
244.932	261.62
245.166	298.62
245.399	292.62
245.633	282.62
245.866	269.62
246.099	284.62
246.333	288.62
246.566	284.62
246.8	296.62
247.033	351.62
247.266	300.62
247.5	322.62
247.733	336.62
247.966	334.62
248.2	344.62
248.433	334.62
248.666	350.62
248.899	397.62
249.133	400.62
249.366	439.62
249.599	361.62
249.832	367.62
250.066	363.62
250.299	361.62
250.532	348.62
250.765	308.62
250.998	327.62
251.231	332.62
251.465	342.62
251.698	344.62
251.931	346.62
252.164	321.62
252.397	349.62
252.63	359.62
252.863	314.62
253.096	315.62
253.329	344.62
253.562	344.62
253.795	368.62
254.028	354.62
254.261	324.62
254.494	339.62
254.727	327.62
254.96	334.62
255.193	365.62
255.426	410.62
255.659	456.62
255.892	433.62
256.124	378.62
256.357	374.62
256.59	384.62
256.823	393.62
257.056	398.62
257.289	460.62
257.521	508.62
257.754	446.62
257.987	441.62
258.22	450.62
258.452	454.62
258.685	384.62
258.918	378.62
259.151	376.62
259.383	352.62
259.616	347.62
259.849	362.62
260.081	403.62
260.314	440.62
260.547	454.62
260.779	444.62
261.012	422.62
261.244	382.62
261.477	371.62
261.71	403.62
261.942	392.62
262.175	377.62
262.407	399.62
262.64	376.62
262.872	354.62
263.105	352.62
263.337	366.62
263.57	364.62
263.802	359.62
264.035	329.62
264.267	339.62
264.499	324.62
264.732	370.62
264.964	378.62
265.197	381.62
265.429	408.62
265.661	456.62
265.894	484.62
266.126	481.62
266.358	442.62
266.591	456.62
266.823	484.62
267.055	459.62
267.287	454.62
267.52	436.62
267.752	429.62
267.984	428.62
268.216	457.62
268.448	450.62
268.681	449.62
268.913	414.62
269.145	398.62
269.377	397.62
269.609	434.62
269.841	503.62
270.073	554.62
270.306	599.62
270.538	622.62
270.77	512.62
271.002	470.62
271.234	445.62
271.466	482.62
271.698	514.62
271.93	591.62
272.162	558.62
272.394	526.62
272.626	511.62
272.858	464.62
273.09	392.62
273.322	390.62
273.553	366.62
273.785	397.62
274.017	404.62
274.249	434.62
274.481	436.62
274.713	423.62
274.945	399.62
275.176	390.62
275.408	396.62
275.64	403.62
275.872	381.62
276.104	417.62
276.335	470.62
276.567	516.62
276.799	499.62
277.031	475.62
277.262	458.62
277.494	516.62
277.726	524.62
277.957	511.62
278.189	462.62
278.421	452.62
278.652	421.62
278.884	418.62
279.115	444.62
279.347	428.62
279.579	408.62
279.81	429.62
280.042	471.62
280.273	498.62
280.505	474.62
280.736	468.62
280.968	434.62
281.199	419.62
281.431	411.62
281.662	414.62
281.894	397.62
282.125	438.62
282.356	432.62
282.588	463.62
282.819	455.62
283.051	466.62
283.282	508.62
283.513	463.62
283.745	434.62
283.976	408.62
284.207	414.62
284.439	423.62
284.67	415.62
284.901	438.62
285.132	428.62
285.364	451.62
285.595	444.62
285.826	422.62
286.057	429.62
286.288	440.62
286.52	444.62
286.751	462.62
286.982	466.62
287.213	440.62
287.444	429.62
287.675	430.62
287.906	454.62
288.138	470.62
288.369	470.62
288.6	451.62
288.831	426.62
289.062	416.62
289.293	430.62
289.524	455.62
289.755	460.62
289.986	453.62
290.217	420.62
290.448	434.62
290.679	440.62
290.91	449.62
291.141	473.62
291.371	494.62
291.602	474.62
291.833	480.62
292.064	474.62
292.295	467.62
292.526	497.62
292.757	496.62
292.987	496.62
293.218	468.62
293.449	514.62
293.68	540.62
293.91	587.62
294.141	549.62
294.372	537.62
294.603	551.62
294.833	542.62
295.064	520.62
295.295	464.62
295.525	466.62
295.756	444.62
295.987	436.62
296.217	438.62
296.448	431.62
296.679	439.62
296.909	451.62
297.14	456.62
297.37	490.62
297.601	495.62
297.831	533.62
298.062	518.62
298.292	465.62
298.523	472.62
298.753	447.62
298.984	471.62
299.214	473.62
299.445	484.62
299.675	499.62
299.905	501.62
300.136	454.62
300.366	476.62
300.597	467.62
300.827	458.62
301.057	460.62
301.288	527.62
301.518	493.62
301.748	514.62
301.979	541.62
302.209	550.62
302.439	598.62
302.669	575.62
302.9	509.62
303.13	492.62
303.36	510.62
303.59	515.62
303.82	482.62
304.051	520.62
304.281	499.62
304.511	525.62
304.741	549.62
304.971	590.62
305.201	600.62
305.431	557.62
305.661	476.62
305.891	462.62
306.121	461.62
306.352	482.62
306.582	514.62
306.812	537.62
307.042	547.62
307.272	554.62
307.502	571.62
307.731	609.62
307.961	602.62
308.191	588.62
308.421	499.62
308.651	506.62
308.881	493.62
309.111	480.62
309.341	479.62
309.571	501.62
309.8	480.62
310.03	475.62
310.26	488.62
310.49	468.62
310.72	493.62
310.949	509.62
311.179	510.62
311.409	495.62
311.639	504.62
311.868	487.62
312.098	452.62
312.328	499.62
312.557	514.62
312.787	520.62
313.017	506.62
313.246	538.62
313.476	485.62
313.706	543.62
313.935	523.62
314.165	516.62
314.394	552.62
314.624	559.62
314.853	589.62
315.083	623.62
315.312	601.62
315.542	577.62
315.771	530.62
316.001	543.62
316.23	570.62
316.46	554.62
316.689	528.62
316.919	507.62
317.148	505.62
317.377	543.62
317.607	567.62
317.836	616.62
318.065	620.62
318.295	596.62
318.524	579.62
318.753	548.62
318.983	540.62
319.212	547.62
319.441	533.62
319.67	537.62
319.9	565.62
320.129	574.62
320.358	594.62
320.587	619.62
320.816	605.62
321.046	604.62
321.275	569.62
321.504	573.62
321.733	616.62
321.962	571.62
322.191	554.62
322.42	540.62
322.649	552.62
322.878	539.62
323.108	568.62
323.337	580.62
323.566	574.62
323.795	562.62
324.024	543.62
324.253	547.62
324.482	547.62
324.71	517.62
324.939	522.62
325.168	524.62
325.397	557.62
325.626	582.62
325.855	564.62
326.084	538.62
326.313	545.62
326.542	544.62
326.77	610.62
326.999	584.62
327.228	557.62
327.457	504.62
327.686	527.62
327.914	528.62
328.143	525.62
328.372	540.62
328.6	555.62
328.829	555.62
329.058	541.62
329.287	540.62
329.515	587.62
329.744	567.62
329.972	594.62
330.201	611.62
330.43	588.62
330.658	591.62
330.887	582.62
331.115	578.62
331.344	584.62
331.572	571.62
331.801	564.62
332.03	584.62
332.258	588.62
332.486	591.62
332.715	582.62
332.943	590.62
333.172	573.62
333.4	602.62
333.629	607.62
333.857	654.62
334.085	728.62
334.314	803.62
334.542	826.62
334.771	754.62
334.999	677.62
335.227	630.62
335.455	610.62
335.684	610.62
335.912	637.62
336.14	659.62
336.369	619.62
336.597	591.62
336.825	590.62
337.053	596.62
337.281	674.62
337.51	677.62
337.738	681.62
337.966	639.62
338.194	594.62
338.422	590.62
338.65	573.62
338.878	546.62
339.106	573.62
339.334	547.62
339.562	573.62
339.79	594.62
340.018	584.62
340.246	601.62
340.474	623.62
340.702	611.62
340.93	621.62
341.158	596.62
341.386	598.62
341.614	599.62
341.842	602.62
342.07	582.62
342.298	602.62
342.526	590.62
342.754	594.62
342.981	584.62
343.209	575.62
343.437	589.62
343.665	587.62
343.893	613.62
344.12	612.62
344.348	627.62
344.576	596.62
344.804	616.62
345.031	574.62
345.259	574.62
345.487	566.62
345.714	564.62
345.942	556.62
346.17	553.62
346.397	567.62
346.625	563.62
346.853	549.62
347.08	519.62
347.308	522.62
347.535	553.62
347.763	565.62
347.99	569.62
348.218	532.62
348.445	534.62
348.673	569.62
348.9	562.62
349.128	579.62
349.355	605.62
349.583	578.62
349.81	546.62
350.037	516.62
350.265	531.62
350.492	550.62
350.72	550.62
350.947	566.62
351.174	579.62
351.402	548.62
351.629	499.62
351.856	516.62
352.083	536.62
352.311	526.62
352.538	506.62
352.765	586.62
352.992	569.62
353.22	540.62
353.447	538.62
353.674	570.62
353.901	550.62
354.128	544.62
354.355	554.62
354.583	595.62
354.81	584.62
355.037	593.62
355.264	572.62
355.491	564.62
355.718	558.62
355.945	566.62
356.172	533.62
356.399	503.62
356.626	524.62
356.853	574.62
357.08	603.62
357.307	657.62
357.534	638.62
357.761	582.62
357.988	526.62
358.215	515.62
358.441	541.62
358.668	539.62
358.895	570.62
359.122	598.62
359.349	618.62
359.576	583.62
359.802	573.62
360.029	526.62
360.256	554.62
360.483	564.62
360.709	579.62
360.936	599.62
361.163	626.62
361.39	678.62
361.616	723.62
361.843	690.62
362.07	635.62
362.296	575.62
362.523	564.62
362.749	566.62
362.976	582.62
363.203	581.62
363.429	562.62
363.656	536.62
363.882	594.62
364.109	634.62
364.335	668.62
364.562	596.62
364.788	585.62
365.015	559.62
365.241	566.62
365.468	568.62
365.694	596.62
365.92	589.62
366.147	600.62
366.373	549.62
366.599	554.62
366.826	559.62
367.052	563.62
367.278	580.62
367.505	589.62
367.731	596.62
367.957	594.62
368.184	622.62
368.41	660.62
368.636	662.62
368.862	658.62
369.089	665.62
369.315	643.62
369.541	596.62
369.767	581.62
369.993	560.62
370.219	591.62
370.445	618.62
370.672	632.62
370.898	661.62
371.124	644.62
371.35	626.62
371.576	647.62
371.802	652.62
372.028	630.62
372.254	598.62
372.48	592.62
372.706	576.62
372.932	588.62
373.158	605.62
373.384	592.62
373.61	640.62
373.835	642.62
374.061	624.62
374.287	618.62
374.513	607.62
374.739	624.62
374.965	620.62
375.191	619.62
375.416	644.62
375.642	654.62
375.868	687.62
376.094	699.62
376.319	666.62
376.545	624.62
376.771	666.62
376.997	696.62
377.222	666.62
377.448	642.62
377.674	667.62
377.899	658.62
378.125	698.62
378.35	676.62
378.576	637.62
378.802	584.62
379.027	618.62
379.253	626.62
379.478	650.62
379.704	632.62
379.929	622.62
380.155	634.62
380.38	628.62
380.606	648.62
380.831	647.62
381.057	675.62
381.282	692.62
381.507	691.62
381.733	722.62
381.958	720.62
382.184	682.62
382.409	670.62
382.634	653.62
382.86	649.62
383.085	683.62
383.31	693.62
383.535	756.62
383.761	788.62
383.986	753.62
384.211	743.62
384.436	708.62
384.662	782.62
384.887	730.62
385.112	726.62
385.337	725.62
385.562	703.62
385.787	723.62
386.013	757.62
386.238	720.62
386.463	732.62
386.688	825.62
386.913	831.62
387.138	795.62
387.363	796.62
387.588	739.62
387.813	765.62
388.038	762.62
388.263	786.62
388.488	722.62
388.713	721.62
388.938	684.62
389.163	690.62
389.387	730.62
389.612	725.62
389.837	781.62
390.062	741.62
390.287	759.62
390.512	712.62
390.736	727.62
390.961	734.62
391.186	700.62
391.411	710.62
391.636	731.62
391.86	729.62
392.085	758.62
392.31	740.62
392.534	745.62
392.759	736.62
392.984	747.62
393.208	770.62
393.433	796.62
393.658	802.62
393.882	802.62
394.107	741.62
394.331	740.62
394.556	758.62
394.78	761.62
395.005	792.62
395.229	819.62
395.454	866.62
395.678	855.62
395.903	798.62
396.127	784.62
396.352	828.62
396.576	811.62
396.801	835.62
397.025	826.62
397.249	818.62
397.474	798.62
397.698	822.62
397.922	846.62
398.147	880.62
398.371	905.62
398.595	906.62
398.82	855.62
399.044	870.62
399.268	923.62
399.492	971.62
399.717	963.62
399.941	948.62
400.165	943.62
400.389	969.62
400.613	956.62
400.837	1085.62
401.062	1183.62
401.286	1011.62
401.51	958.62
401.734	982.62
401.958	919.62
402.182	900.62
402.406	877.62
402.63	867.62
402.854	882.62
403.078	884.62
403.302	876.62
403.526	871.62
403.75	888.62
403.974	931.62
404.198	887.62
404.422	949.62
404.645	999.62
404.869	962.62
405.093	906.62
405.317	883.62
405.541	907.62
405.765	899.62
405.988	905.62
406.212	954.62
406.436	933.62
406.66	976.62
406.883	1006.62
407.107	1120.62
407.331	1204.62
407.555	1252.62
407.778	1096.62
408.002	967.62
408.226	968.62
408.449	936.62
408.673	930.62
408.896	943.62
409.12	952.62
409.344	960.62
409.567	920.62
409.791	948.62
410.014	932.62
410.238	1002.62
410.461	1032.62
410.685	962.62
410.908	907.62
411.132	952.62
411.355	934.62
411.578	927.62
411.802	932.62
412.025	958.62
412.249	907.62
412.472	916.62
412.695	908.62
412.919	904.62
413.142	902.62
413.365	932.62
413.589	943.62
413.812	969.62
414.035	991.62
414.258	917.62
414.482	893.62
414.705	911.62
414.928	891.62
415.151	868.62
415.374	891.62
415.597	916.62
415.821	931.62
416.044	938.62
416.267	924.62
416.49	879.62
416.713	910.62
416.936	921.62
417.159	962.62
417.382	941.62
417.605	911.62
417.828	935.62
418.051	956.62
418.274	944.62
418.497	912.62
418.72	918.62
418.943	932.62
419.166	954.62
419.389	1000.62
419.611	926.62
419.834	934.62
420.057	927.62
420.28	916.62
420.503	931.62
420.726	927.62
420.948	904.62
421.171	923.62
421.394	894.62
421.617	954.62
421.839	967.62
422.062	975.62
422.285	910.62
422.507	893.62
422.73	886.62
422.953	878.62
423.175	876.62
423.398	920.62
423.621	920.62
423.843	923.62
424.066	956.62
424.288	1015.62
424.511	1027.62
424.733	995.62
424.956	936.62
425.178	926.62
425.401	905.62
425.623	934.62
425.846	931.62
426.068	978.62
426.291	942.62
426.513	947.62
426.735	928.62
426.958	1025.62
427.18	1041.62
427.402	996.62
427.625	1019.62
427.847	942.62
428.069	910.62
428.292	891.62
428.514	908.62
428.736	896.62
428.958	904.62
429.181	897.62
429.403	1058.62
429.625	1193.62
429.847	1030.62
430.069	946.62
430.292	1054.62
430.514	1017.62
430.736	951.62
430.958	972.62
431.18	928.62
431.402	856.62
431.624	789.62
431.846	778.62
432.068	736.62
432.29	708.62
432.512	795.62
432.734	853.62
432.956	902.62
433.178	949.62
433.4	963.62
433.622	904.62
433.844	914.62
434.066	852.62
434.287	762.62
434.509	779.62
434.731	803.62
434.953	922.62
435.175	911.62
435.397	921.62
435.618	866.62
435.84	806.62
436.062	832.62
436.284	885.62
436.505	906.62
436.727	934.62
436.949	900.62
437.17	888.62
437.392	884.62
437.614	826.62
437.835	798.62
438.057	803.62
438.278	828.62
438.5	875.62
438.721	894.62
438.943	902.62
439.165	905.62
439.386	896.62
439.608	902.62
439.829	923.62
440.05	958.62
440.272	922.62
440.493	956.62
440.715	980.62
440.936	1013.62
441.158	1029.62
441.379	1030.62
441.6	1007.62
441.822	1032.62
442.043	998.62
442.264	963.62
442.486	952.62
442.707	922.62
442.928	951.62
443.149	959.62
443.371	964.62
443.592	989.62
443.813	965.62
444.034	1005.62
444.255	1019.62
444.476	1024.62
444.698	1035.62
444.919	1018.62
445.14	1127.62
445.361	1074.62
445.582	1063.62
445.803	1050.62
446.024	1026.62
446.245	1050.62
446.466	1038.62
446.687	978.62
446.908	1026.62
447.129	1006.62
447.35	993.62
447.571	981.62
447.792	909.62
448.013	946.62
448.234	960.62
448.455	966.62
448.675	979.62
448.896	913.62
449.117	905.62
449.338	879.62
449.559	946.62
449.779	946.62
450	995.62
450.221	1046.62
450.442	999.62
450.662	899.62
450.883	848.62
451.104	885.62
451.324	854.62
451.545	874.62
451.766	858.62
451.986	808.62
452.207	813.62
452.428	788.62
452.648	772.62
452.869	778.62
453.089	766.62
453.31	761.62
453.53	770.62
453.751	708.62
453.971	707.62
454.192	736.62
454.412	757.62
454.633	773.62
454.853	733.62
455.073	738.62
455.294	761.62
455.514	754.62
455.734	781.62
455.955	769.62
456.175	732.62
456.395	706.62
456.616	722.62
456.836	721.62
457.056	735.62
457.276	707.62
457.497	692.62
457.717	708.62
457.937	695.62
458.157	685.62
458.377	676.62
458.598	684.62
458.818	678.62
459.038	674.62
459.258	703.62
459.478	708.62
459.698	692.62
459.918	731.62
460.138	762.62
460.358	805.62
460.578	814.62
460.798	865.62
461.018	880.62
461.238	856.62
461.458	843.62
461.678	818.62
461.898	794.62
462.118	788.62
462.338	838.62
462.558	836.62
462.777	855.62
462.997	847.62
463.217	871.62
463.437	866.62
463.657	818.62
463.876	807.62
464.096	806.62
464.316	791.62
464.536	846.62
464.755	861.62
464.975	888.62
465.195	860.62
465.414	863.62
465.634	855.62
465.854	878.62
466.073	943.62
466.293	898.62
466.512	866.62
466.732	867.62
466.951	890.62
467.171	896.62
467.391	840.62
467.61	857.62
467.829	901.62
468.049	968.62
468.268	1015.62
468.488	971.62
468.707	920.62
468.927	873.62
469.146	882.62
469.365	910.62
469.585	912.62
469.804	916.62
470.023	905.62
470.243	914.62
470.462	925.62
470.681	908.62
470.901	937.62
471.12	900.62
471.339	926.62
471.558	915.62
471.777	895.62
471.997	868.62
472.216	842.62
472.435	770.62
472.654	790.62
472.873	786.62
473.092	831.62
473.311	836.62
473.53	818.62
473.749	785.62
473.968	829.62
474.187	863.62
474.406	838.62
474.625	828.62
474.844	870.62
475.063	878.62
475.282	866.62
475.501	820.62
475.72	840.62
475.939	871.62
476.158	869.62
476.377	844.62
476.596	830.62
476.814	797.62
477.033	778.62
477.252	832.62
477.471	886.62
477.69	898.62
477.908	923.62
478.127	958.62
478.346	976.62
478.564	993.62
478.783	1006.62
479.002	987.62
479.22	983.62
479.439	989.62
479.658	1045.62
479.876	981.62
480.095	883.62
480.313	898.62
480.532	855.62
480.751	850.62
480.969	837.62
481.188	776.62
481.406	760.62
481.624	735.62
481.843	789.62
482.061	812.62
482.28	862.62
482.498	876.62
482.717	871.62
482.935	898.62
483.153	986.62
483.372	1020.62
483.59	995.62
483.808	971.62
484.027	942.62
484.245	989.62
484.463	1206.62
484.681	1263.62
484.9	979.62
485.118	927.62
485.336	907.62
485.554	884.62
485.772	848.62
485.99	876.62
486.209	892.62
486.427	900.62
486.645	956.62
486.863	972.62
487.081	1041.62
487.299	1003.62
487.517	1010.62
487.735	1060.62
487.953	1141.62
488.171	1175.62
488.389	1098.62
488.607	1090.62
488.825	1127.62
489.043	1047.62
489.261	948.62
489.479	1022.62
489.696	1042.62
489.914	1044.62
490.132	1040.62
490.35	1082.62
490.568	1150.62
490.786	1161.62
491.003	1159.62
491.221	1253.62
491.439	1270.62
491.657	1287.62
491.874	1390.62
492.092	1421.62
492.31	1488.62
492.527	1447.62
492.745	1333.62
492.963	1337.62
493.18	1306.62
493.398	1338.62
493.615	1303.62
493.833	1270.62
494.05	1209.62
494.268	1230.62
494.485	1211.62
494.703	1189.62
494.92	1210.62
495.138	1189.62
495.355	1210.62
495.573	1246.62
495.79	1268.62
496.008	1243.62
496.225	1198.62
496.442	1230.62
496.66	1235.62
496.877	1172.62
497.094	1193.62
497.312	1233.62
497.529	1194.62
497.746	1176.62
497.963	1248.62
498.181	1253.62
498.398	1218.62
498.615	1191.62
498.832	1140.62
499.049	1148.62
499.267	1185.62
499.484	1219.62
499.701	1318.62
499.918	1366.62
500.135	1495.62
500.352	1536.62
500.569	1580.62
500.786	1655.62
501.003	1554.62
501.22	1417.62
501.437	1359.62
501.654	1424.62
501.871	1308.62
502.088	1185.62
502.305	1150.62
502.522	1150.62
502.739	1073.62
502.956	1050.62
503.172	1062.62
503.389	1008.62
503.606	992.62
503.823	981.62
504.04	976.62
504.256	987.62
504.473	977.62
504.69	999.62
504.907	945.62
505.123	956.62
505.34	1029.62
505.557	1318.62
505.773	1089.62
505.99	941.62
506.207	907.62
506.423	893.62
506.64	884.62
506.856	916.62
507.073	1014.62
507.289	1078.62
507.506	980.62
507.722	865.62
507.939	831.62
508.155	860.62
508.372	842.62
508.588	814.62
508.805	785.62
509.021	808.62
509.238	761.62
509.454	745.62
509.67	755.62
509.887	723.62
510.103	710.62
510.319	745.62
510.536	743.62
510.752	788.62
510.968	735.62
511.184	774.62
511.401	770.62
511.617	674.62
511.833	699.62
512.049	692.62
512.265	724.62
512.481	693.62
512.698	730.62
512.914	762.62
513.13	762.62
513.346	710.62
513.562	695.62
513.778	714.62
513.994	725.62
514.21	760.62
514.426	773.62
514.642	820.62
514.858	757.62
515.074	703.62
515.29	722.62
515.506	701.62
515.721	757.62
515.937	772.62
516.153	815.62
516.369	763.62
516.585	732.62
516.801	708.62
517.016	729.62
517.232	751.62
517.448	744.62
517.664	771.62
517.879	776.62
518.095	795.62
518.311	758.62
518.527	751.62
518.742	735.62
518.958	709.62
519.173	741.62
519.389	779.62
519.605	786.62
519.82	793.62
520.036	774.62
520.251	771.62
520.467	767.62
520.682	788.62
520.898	791.62
521.113	697.62
521.329	714.62
521.544	760.62
521.76	727.62
521.975	712.62
522.19	690.62
522.406	695.62
522.621	907.62
522.836	854.62
523.052	735.62
523.267	734.62
523.482	736.62
523.698	737.62
523.913	717.62
524.128	756.62
524.343	789.62
524.559	779.62
524.774	787.62
524.989	764.62
525.204	731.62
525.419	746.62
525.634	710.62
525.849	707.62
526.064	701.62
526.28	707.62
526.495	663.62
526.71	651.62
526.925	620.62
527.14	643.62
527.355	618.62
527.57	591.62
527.785	658.62
527.999	645.62
528.214	668.62
528.429	698.62
528.644	747.62
528.859	782.62
529.074	821.62
529.289	856.62
529.503	852.62
529.718	784.62
529.933	699.62
530.148	651.62
530.363	662.62
530.577	632.62
530.792	643.62
531.007	615.62
531.221	600.62
531.436	619.62
531.651	632.62
531.865	664.62
532.08	646.62
532.295	620.62
532.509	607.62
532.724	609.62
532.938	647.62
533.153	686.62
533.367	706.62
533.582	704.62
533.796	704.62
534.011	678.62
534.225	671.62
534.44	648.62
534.654	652.62
534.868	623.62
535.083	683.62
535.297	669.62
535.511	679.62
535.726	664.62
535.94	662.62
536.154	620.62
536.369	635.62
536.583	606.62
536.797	601.62
537.011	624.62
537.225	590.62
537.44	592.62
537.654	658.62
537.868	592.62
538.082	586.62
538.296	619.62
538.51	626.62
538.724	668.62
538.938	696.62
539.153	738.62
539.367	715.62
539.581	676.62
539.795	680.62
540.009	633.62
540.222	651.62
540.436	660.62
540.65	733.62
540.864	780.62
541.078	810.62
541.292	829.62
541.506	891.62
541.72	951.62
541.934	1014.62
542.147	1071.62
542.361	973.62
542.575	909.62
542.789	854.62
543.002	729.62
543.216	734.62
543.43	778.62
543.644	792.62
543.857	887.62
544.071	912.62
544.285	920.62
544.498	895.62
544.712	903.62
544.925	942.62
545.139	952.62
545.352	944.62
545.566	918.62
545.779	926.62
545.993	931.62
546.206	927.62
546.42	948.62
546.633	908.62
546.847	931.62
547.06	919.62
547.274	930.62
547.487	981.62
547.7	973.62
547.914	945.62
548.127	964.62
548.34	931.62
548.554	926.62
548.767	935.62
548.98	909.62
549.193	922.62
549.407	966.62
549.62	924.62
549.833	910.62
550.046	888.62
550.259	872.62
550.473	858.62
550.686	852.62
550.899	850.62
551.112	848.62
551.325	829.62
551.538	846.62
551.751	859.62
551.964	699.62
552.177	731.62
552.39	799.62
552.603	855.62
552.816	866.62
553.029	911.62
553.242	916.62
553.455	897.62
553.667	888.62
553.88	905.62
554.093	860.62
554.306	837.62
554.519	804.62
554.732	829.62
554.944	816.62
555.157	828.62
555.37	800.62
555.583	772.62
555.795	789.62
556.008	734.62
556.221	712.62
556.433	734.62
556.646	725.62
556.859	729.62
557.071	722.62
557.284	743.62
557.496	757.62
557.709	726.62
557.921	759.62
558.134	739.62
558.346	734.62
558.559	718.62
558.771	710.62
558.984	679.62
559.196	670.62
559.409	669.62
559.621	654.62
559.833	657.62
560.046	652.62
560.258	671.62
560.47	683.62
560.683	690.62
560.895	670.62
561.107	644.62
561.32	666.62
561.532	665.62
561.744	648.62
561.956	673.62
562.168	634.62
562.381	638.62
562.593	660.62
562.805	631.62
563.017	623.62
563.229	625.62
563.441	677.62
563.653	608.62
563.865	604.62
564.077	628.62
564.289	598.62
564.501	590.62
564.713	605.62
564.925	654.62
565.137	677.62
565.349	635.62
565.561	621.62
565.773	607.62
565.985	628.62
566.197	644.62
566.408	653.62
566.62	646.62
566.832	663.62
567.044	666.62
567.255	655.62
567.467	643.62
567.679	670.62
567.891	638.62
568.102	599.62
568.314	561.62
568.526	539.62
568.737	505.62
568.949	487.62
569.161	474.62
569.372	436.62
569.584	467.62
569.795	442.62
570.007	418.62
570.218	431.62
570.43	422.62
570.641	426.62
570.853	469.62
571.064	474.62
571.276	477.62
571.487	473.62
571.698	465.62
571.91	460.62
572.121	449.62
572.333	455.62
572.544	427.62
572.755	408.62
572.966	394.62
573.178	396.62
573.389	411.62
573.6	408.62
573.811	415.62
574.023	406.62
574.234	379.62
574.445	390.62
574.656	377.62
574.867	376.62
575.078	415.62
575.289	436.62
575.501	422.62
575.712	395.62
575.923	375.62
576.134	422.62
576.345	402.62
576.556	384.62
576.767	405.62
576.978	402.62
577.188	390.62
577.399	382.62
577.61	396.62
577.821	379.62
578.032	362.62
578.243	372.62
578.454	350.62
578.665	351.62
578.875	337.62
579.086	348.62
579.297	325.62
579.508	351.62
579.718	357.62
579.929	344.62
580.14	334.62
580.35	316.62
580.561	345.62
580.772	377.62
580.982	346.62
581.193	327.62
581.403	350.62
581.614	338.62
581.825	332.62
582.035	341.62
582.246	330.62
582.456	351.62
582.667	348.62
582.877	330.62
583.087	332.62
583.298	339.62
583.508	329.62
583.719	343.62
583.929	339.62
584.139	310.62
584.35	315.62
584.56	318.62
584.77	325.62
584.981	342.62
585.191	326.62
585.401	331.62
585.611	337.62
585.821	326.62
586.032	339.62
586.242	302.62
586.452	324.62
586.662	314.62
586.872	316.62
587.082	302.62
587.292	317.62
587.502	313.62
587.713	328.62
587.923	306.62
588.133	312.62
588.343	316.62
588.553	311.62
588.762	303.62
588.972	299.62
589.182	299.62
589.392	307.62
589.602	308.62
589.812	318.62
590.022	302.62
590.232	309.62
590.441	308.62
590.651	304.62
590.861	332.62
591.071	304.62
591.281	288.62
591.49	315.62
591.7	311.62
591.91	322.62
592.119	320.62
592.329	322.62
592.539	313.62
592.748	324.62
592.958	327.62
593.167	313.62
593.377	332.62
593.587	312.62
593.796	332.62
594.006	327.62
594.215	341.62
594.424	336.62
594.634	328.62
594.843	354.62
595.053	324.62
595.262	343.62
595.472	326.62
595.681	328.62
595.89	317.62
596.1	298.62
596.309	306.62
596.518	316.62
596.727	337.62
596.937	335.62
597.146	316.62
597.355	290.62
597.564	315.62
597.774	298.62
597.983	292.62
598.192	283.62
598.401	275.62
598.61	275.62
598.819	289.62
599.028	307.62
599.237	305.62
599.446	290.62
599.655	296.62
599.864	285.62
600.073	277.62
600.282	294.62
600.491	290.62
600.7	295.62
600.909	290.62
601.118	322.62
601.327	313.62
601.536	345.62
601.745	347.62
601.953	345.62
602.162	342.62
602.371	351.62
602.58	323.62
602.789	357.62
602.997	344.62
603.206	351.62
603.415	329.62
603.623	335.62
603.832	336.62
604.041	317.62
604.249	331.62
604.458	297.62
604.666	277.62
604.875	302.62
605.084	320.62
605.292	314.62
605.501	343.62
605.709	354.62
605.918	351.62
606.126	364.62
606.334	358.62
606.543	359.62
606.751	334.62
606.96	355.62
607.168	365.62
607.376	358.62
607.585	351.62
607.793	344.62
608.001	360.62
608.21	355.62
608.418	355.62
608.626	354.62
608.834	347.62
609.043	354.62
609.251	377.62
609.459	362.62
609.667	366.62
609.875	362.62
610.083	369.62
610.291	372.62
610.499	344.62
610.707	359.62
610.916	372.62
611.124	377.62
611.332	346.62
611.54	374.62
611.748	368.62
611.955	370.62
612.163	339.62
612.371	374.62
612.579	365.62
612.787	358.62
612.995	370.62
613.203	363.62
613.411	372.62
613.618	371.62
613.826	352.62
614.034	333.62
614.242	358.62
614.449	354.62
614.657	365.62
614.865	353.62
615.072	360.62
615.28	374.62
615.488	356.62
615.695	360.62
615.903	360.62
616.111	358.62
616.318	365.62
616.526	367.62
616.733	360.62
616.941	351.62
617.148	347.62
617.356	339.62
617.563	352.62
617.771	338.62
617.978	348.62
618.185	345.62
618.393	362.62
618.6	347.62
618.807	348.62
619.015	348.62
619.222	333.62
619.429	304.62
619.637	296.62
619.844	285.62
620.051	301.62
620.258	322.62
620.466	303.62
620.673	344.62
620.88	307.62
621.087	311.62
621.294	331.62
621.501	296.62
621.708	287.62
621.915	302.62
622.122	322.62
622.329	328.62
622.536	319.62
622.743	335.62
622.95	321.62
623.157	312.62
623.364	325.62
623.571	316.62
623.778	327.62
623.985	315.62
624.192	327.62
624.399	316.62
624.606	324.62
624.812	314.62
625.019	324.62
625.226	303.62
625.433	301.62
625.639	287.62
625.846	276.62
626.053	260.62
626.259	245.62
626.466	245.62
626.673	260.62
626.879	246.62
627.086	248.62
627.293	259.62
627.499	271.62
627.706	310.62
627.912	310.62
628.119	291.62
628.325	297.62
628.532	283.62
628.738	293.62
628.945	297.62
629.151	297.62
629.357	259.62
629.564	301.62
629.77	290.62
629.976	255.62
630.183	268.62
630.389	268.62
630.595	252.62
630.802	280.62
631.008	290.62
631.214	287.62
631.42	262.62
631.627	238.62
631.833	240.62
632.039	265.62
632.245	262.62
632.451	262.62
632.657	263.62
632.863	266.62
633.069	255.62
633.275	247.62
633.481	248.62
633.688	248.62
633.893	252.62
634.099	267.62
634.305	264.62
634.511	246.62
634.717	230.62
634.923	231.62
635.129	227.62
635.335	233.62
635.541	220.62
635.747	239.62
635.952	260.62
636.158	252.62
636.364	262.62
636.57	259.62
636.775	265.62
636.981	257.62
637.187	277.62
637.392	251.62
637.598	245.62
637.804	263.62
638.009	243.62
638.215	265.62
638.421	230.62
638.626	263.62
638.832	251.62
639.037	243.62
639.243	235.62
639.448	244.62
639.654	255.62
639.859	244.62
640.065	247.62
640.27	251.62
640.475	252.62
640.681	252.62
640.886	240.62
641.091	256.62
641.297	255.62
641.502	256.62
641.707	265.62
641.913	264.62
642.118	253.62
642.323	247.62
642.528	254.62
642.733	252.62
642.939	249.62
643.144	235.62
643.349	262.62
643.554	248.62
643.759	242.62
643.964	235.62
644.169	226.62
644.374	233.62
644.579	252.62
644.784	251.62
644.989	244.62
645.194	235.62
645.399	231.62
645.604	242.62
645.809	237.62
646.014	234.62
646.219	244.62
646.423	240.62
646.628	238.62
646.833	243.62
647.038	226.62
647.243	244.62
647.447	238.62
647.652	245.62
647.857	244.62
648.062	236.62
648.266	230.62
648.471	249.62
648.676	248.62
648.88	251.62
649.085	234.62
649.289	247.62
649.494	237.62
649.698	236.62
649.903	231.62
650.107	261.62
650.312	232.62
650.516	227.62
650.721	236.62
650.925	227.62
651.13	234.62
651.334	232.62
651.539	232.62
651.743	221.62
651.947	230.62
652.152	210.62
652.356	220.62
652.56	196.62
652.764	216.62
652.969	207.62
653.173	216.62
653.377	213.62
653.581	220.62
653.785	215.62
653.99	215.62
654.194	211.62
654.398	206.62
654.602	213.62
654.806	217.62
655.01	182.62
655.214	212.62
655.418	194.62
655.622	210.62
655.826	209.62
656.03	219.62
656.234	220.62
656.438	218.62
656.642	234.62
656.846	220.62
657.049	215.62
657.253	190.62
657.457	188.62
657.661	196.62
657.865	169.62
658.068	168.62
658.272	150.62
658.476	157.62
658.68	142.62
658.883	142.62
659.087	136.62
659.291	139.62
659.494	138.62
659.698	131.62
659.901	123.62
660.105	140.62
660.309	132.62
660.512	128.62
660.716	131.62
660.919	120.62
661.123	120.62
661.326	122.62
661.53	111.62
661.733	110.62
661.936	124.62
662.14	111.62
662.343	116.62
662.546	94.62
662.75	108.62
662.953	104.62
663.156	101.62
663.36	90.62
663.563	91.62
663.766	88.62
663.969	101.62
664.173	93.62
664.376	91.62
664.579	101.62
664.782	95.62
664.985	101.62
665.188	91.62
665.391	92.62
665.594	86.62
665.797	103.62
666	84.62
666.203	91.62
666.406	85.62
666.609	93.62
666.812	79.62
667.015	89.62
667.218	78.62
667.421	86.62
667.624	86.62
667.827	85.62
668.03	74.62
668.232	90.62
668.435	89.62
668.638	78.62
668.841	82.62
669.043	83.62
669.246	85.62
669.449	102.62
669.651	91.62
669.854	85.62
670.057	85.62
670.259	83.62
670.462	75.62
670.665	80.62
670.867	79.62
671.07	94.62
671.272	84.62
671.475	93.62
671.677	87.62
671.88	101.62
672.082	88.62
672.284	97.62
672.487	66.62
672.689	76.62
672.892	90.62
