Data from WStandard_LampEnergy5.5LIBS07252019.E.O._I.C._HRD10591_16-07-37-920.txt Node
Date: Thu Jul 25 16:07:37 EDT 2019
User: cochatt
Spectrometer: HR+D1059
Trigger mode: 1
Integration Time (sec): 1.000000E-1
Scans to average: 1
Electric dark correction enabled: true
Nonlinearity correction enabled: false
Boxcar width: 0
XAxis mode: Wavelengths
Number of Pixels in Spectrum: 2048
>>>>>Begin Spectral Data<<<<<
223.165	-9.31
223.4	-9.31
223.635	-9.31
223.869	-15.31
224.104	-8.31
224.338	-13.31
224.573	-10.31
224.808	-28.31
225.042	-17.31
225.277	-15.31
225.511	-1.31
225.746	-2.31
225.98	-2.31
226.215	22.69
226.449	16.69
226.683	35.69
226.918	26.69
227.152	21.69
227.387	28.69
227.621	41.69
227.856	40.69
228.09	48.69
228.324	42.69
228.559	45.69
228.793	149.69
229.027	374.69
229.262	388.69
229.496	395.69
229.73	400.69
229.964	460.69
230.199	474.69
230.433	498.69
230.667	514.69
230.901	551.69
231.136	496.69
231.37	501.69
231.604	487.69
231.838	479.69
232.072	490.69
232.306	466.69
232.541	502.69
232.775	585.69
233.009	637.69
233.243	578.69
233.477	550.69
233.711	564.69
233.945	575.69
234.179	579.69
234.413	600.69
234.647	672.69
234.881	617.69
235.115	567.69
235.349	568.69
235.583	571.69
235.817	567.69
236.051	528.69
236.285	580.69
236.519	615.69
236.753	676.69
236.987	710.69
237.221	693.69
237.455	770.69
237.689	771.69
237.922	710.69
238.156	653.69
238.39	707.69
238.624	721.69
238.858	762.69
239.091	792.69
239.325	828.69
239.559	946.69
239.793	992.69
240.027	1058.69
240.26	1061.69
240.494	798.69
240.728	747.69
240.961	778.69
241.195	778.69
241.429	851.69
241.662	850.69
241.896	792.69
242.13	783.69
242.363	869.69
242.597	948.69
242.83	910.69
243.064	947.69
243.298	1005.69
243.531	970.69
243.765	957.69
243.998	949.69
244.232	856.69
244.465	806.69
244.699	803.69
244.932	921.69
245.166	1076.69
245.399	1028.69
245.633	933.69
245.866	918.69
246.099	964.69
246.333	1007.69
246.566	1008.69
246.8	1098.69
247.033	1210.69
247.266	1103.69
247.5	1111.69
247.733	1089.69
247.966	1154.69
248.2	1316.69
248.433	1223.69
248.666	1278.69
248.899	1379.69
249.133	1564.69
249.366	1824.69
249.599	1469.69
249.832	1266.69
250.066	1304.69
250.299	1368.69
250.532	1245.69
250.765	1137.69
250.998	1192.69
251.231	1241.69
251.465	1274.69
251.698	1246.69
251.931	1227.69
252.164	1240.69
252.397	1308.69
252.63	1314.69
252.863	1160.69
253.096	1124.69
253.329	1179.69
253.562	1241.69
253.795	1315.69
254.028	1323.69
254.261	1256.69
254.494	1223.69
254.727	1163.69
254.96	1201.69
255.193	1298.69
255.426	1460.69
255.659	1698.69
255.892	1758.69
256.124	1424.69
256.357	1357.69
256.59	1438.69
256.823	1513.69
257.056	1478.69
257.289	1747.69
257.521	2016.69
257.754	1814.69
257.987	1650.69
258.22	1877.69
258.452	1821.69
258.685	1471.69
258.918	1415.69
259.151	1458.69
259.383	1379.69
259.616	1182.69
259.849	1294.69
260.081	1432.69
260.314	1594.69
260.547	1750.69
260.779	1818.69
261.012	1671.69
261.244	1505.69
261.477	1440.69
261.71	1429.69
261.942	1480.69
262.175	1439.69
262.407	1552.69
262.64	1442.69
262.872	1374.69
263.105	1282.69
263.337	1331.69
263.57	1340.69
263.802	1349.69
264.035	1290.69
264.267	1192.69
264.499	1197.69
264.732	1270.69
264.964	1360.69
265.197	1407.69
265.429	1448.69
265.661	1625.69
265.894	1784.69
266.126	1862.69
266.358	1658.69
266.591	1716.69
266.823	1879.69
267.055	1687.69
267.287	1618.69
267.52	1649.69
267.752	1609.69
267.984	1607.69
268.216	1672.69
268.448	1707.69
268.681	1701.69
268.913	1565.69
269.145	1480.69
269.377	1478.69
269.609	1546.69
269.841	1799.69
270.073	2087.69
270.306	2362.69
270.538	2547.69
270.77	2147.69
271.002	1800.69
271.234	1707.69
271.466	1701.69
271.698	1911.69
271.93	2308.69
272.162	2277.69
272.394	2036.69
272.626	1954.69
272.858	1735.69
273.09	1506.69
273.322	1513.69
273.553	1449.69
273.785	1446.69
274.017	1492.69
274.249	1639.69
274.481	1654.69
274.713	1497.69
274.945	1460.69
275.176	1485.69
275.408	1438.69
275.64	1422.69
275.872	1438.69
276.104	1503.69
276.335	1724.69
276.567	1952.69
276.799	1971.69
277.031	1781.69
277.262	1663.69
277.494	1717.69
277.726	1944.69
277.957	1897.69
278.189	1757.69
278.421	1597.69
278.652	1584.69
278.884	1522.69
279.115	1532.69
279.347	1576.69
279.579	1530.69
279.81	1497.69
280.042	1702.69
280.273	1824.69
280.505	1815.69
280.736	1882.69
280.968	1760.69
281.199	1542.69
281.431	1490.69
281.662	1487.69
281.894	1496.69
282.125	1513.69
282.356	1580.69
282.588	1635.69
282.819	1598.69
283.051	1750.69
283.282	1892.69
283.513	1814.69
283.745	1575.69
283.976	1456.69
284.207	1466.69
284.439	1505.69
284.67	1547.69
284.901	1601.69
285.132	1594.69
285.364	1603.69
285.595	1597.69
285.826	1574.69
286.057	1543.69
286.288	1550.69
286.52	1609.69
286.751	1754.69
286.982	1828.69
287.213	1659.69
287.444	1534.69
287.675	1504.69
287.906	1556.69
288.138	1710.69
288.369	1657.69
288.6	1594.69
288.831	1534.69
289.062	1519.69
289.293	1544.69
289.524	1591.69
289.755	1626.69
289.986	1612.69
290.217	1505.69
290.448	1537.69
290.679	1578.69
290.91	1550.69
291.141	1637.69
291.371	1709.69
291.602	1683.69
291.833	1626.69
292.064	1687.69
292.295	1688.69
292.526	1695.69
292.757	1810.69
292.987	1762.69
293.218	1604.69
293.449	1712.69
293.68	1931.69
293.91	2079.69
294.141	1977.69
294.372	1806.69
294.603	1890.69
294.833	1979.69
295.064	1862.69
295.295	1712.69
295.525	1659.69
295.756	1529.69
295.987	1469.69
296.217	1508.69
296.448	1552.69
296.679	1571.69
296.909	1556.69
297.14	1544.69
297.37	1516.69
297.601	1643.69
297.831	1761.69
298.062	1801.69
298.292	1676.69
298.523	1550.69
298.753	1576.69
298.984	1624.69
299.214	1601.69
299.445	1621.69
299.675	1654.69
299.905	1654.69
300.136	1614.69
300.366	1589.69
300.597	1529.69
300.827	1549.69
301.057	1592.69
301.288	1716.69
301.518	1691.69
301.748	1728.69
301.979	1809.69
302.209	1801.69
302.439	1948.69
302.669	2006.69
302.9	1910.69
303.13	1692.69
303.36	1724.69
303.59	1752.69
303.82	1700.69
304.051	1706.69
304.281	1694.69
304.511	1692.69
304.741	1803.69
304.971	1969.69
305.201	2187.69
305.431	2042.69
305.661	1662.69
305.891	1497.69
306.121	1509.69
306.352	1493.69
306.582	1628.69
306.812	1736.69
307.042	1838.69
307.272	1850.69
307.502	1936.69
307.731	2073.69
307.961	2253.69
308.191	2128.69
308.421	1788.69
308.651	1655.69
308.881	1627.69
309.111	1643.69
309.341	1610.69
309.571	1639.69
309.8	1628.69
310.03	1642.69
310.26	1613.69
310.49	1591.69
310.72	1644.69
310.949	1726.69
311.179	1767.69
311.409	1731.69
311.639	1680.69
311.868	1628.69
312.098	1673.69
312.328	1680.69
312.557	1648.69
312.787	1682.69
313.017	1741.69
313.246	1658.69
313.476	1678.69
313.706	1760.69
313.935	1733.69
314.165	1779.69
314.394	1788.69
314.624	1890.69
314.853	2000.69
315.083	2071.69
315.312	2121.69
315.542	1981.69
315.771	1776.69
316.001	1740.69
316.23	1896.69
316.46	1893.69
316.689	1846.69
316.919	1749.69
317.148	1682.69
317.377	1660.69
317.607	1791.69
317.836	1972.69
318.065	2134.69
318.295	2045.69
318.524	1944.69
318.753	1868.69
318.983	1857.69
319.212	1809.69
319.441	1762.69
319.67	1762.69
319.9	1820.69
320.129	1921.69
320.358	1983.69
320.587	2000.69
320.816	1997.69
321.046	1968.69
321.275	1850.69
321.504	1870.69
321.733	1995.69
321.962	2032.69
322.191	1798.69
322.42	1800.69
322.649	1791.69
322.878	1790.69
323.108	1797.69
323.337	1891.69
323.566	1876.69
323.795	1826.69
324.024	1861.69
324.253	1815.69
324.482	1825.69
324.71	1794.69
324.939	1676.69
325.168	1733.69
325.397	1784.69
325.626	1825.69
325.855	1861.69
326.084	1803.69
326.313	1793.69
326.542	1800.69
326.77	1881.69
326.999	1874.69
327.228	1813.69
327.457	1690.69
327.686	1666.69
327.914	1718.69
328.143	1770.69
328.372	1804.69
328.6	1792.69
328.829	1765.69
329.058	1756.69
329.287	1757.69
329.515	1799.69
329.744	1800.69
329.972	1898.69
330.201	2021.69
330.43	1936.69
330.658	1877.69
330.887	1885.69
331.115	1908.69
331.344	1921.69
331.572	1826.69
331.801	1856.69
332.03	1888.69
332.258	1881.69
332.486	1913.69
332.715	1968.69
332.943	1928.69
333.172	1884.69
333.4	1894.69
333.629	1952.69
333.857	2057.69
334.085	2236.69
334.314	2598.69
334.542	2838.69
334.771	2604.69
334.999	2257.69
335.227	2160.69
335.455	2018.69
335.684	1992.69
335.912	1996.69
336.14	2136.69
336.369	2034.69
336.597	1987.69
336.825	1905.69
337.053	1981.69
337.281	2085.69
337.51	2212.69
337.738	2282.69
337.966	2140.69
338.194	2006.69
338.422	1941.69
338.65	1885.69
338.878	1830.69
339.106	1824.69
339.334	1786.69
339.562	1792.69
339.79	1836.69
340.018	1923.69
340.246	2009.69
340.474	1972.69
340.702	1920.69
340.93	1948.69
341.158	1932.69
341.386	1912.69
341.614	1860.69
341.842	1848.69
342.07	1891.69
342.298	1867.69
342.526	1843.69
342.754	1828.69
342.981	1835.69
343.209	1850.69
343.437	1812.69
343.665	1840.69
343.893	1904.69
344.12	2003.69
344.348	2028.69
344.576	1946.69
344.804	1863.69
345.031	1864.69
345.259	1871.69
345.487	1844.69
345.714	1733.69
345.942	1725.69
346.17	1710.69
346.397	1774.69
346.625	1800.69
346.853	1701.69
347.08	1669.69
347.308	1674.69
347.535	1729.69
347.763	1792.69
347.99	1745.69
348.218	1705.69
348.445	1710.69
348.673	1719.69
348.9	1784.69
349.128	1878.69
349.355	1917.69
349.583	1852.69
349.81	1754.69
350.037	1653.69
350.265	1624.69
350.492	1657.69
350.72	1666.69
350.947	1716.69
351.174	1822.69
351.402	1706.69
351.629	1646.69
351.856	1603.69
352.083	1600.69
352.311	1594.69
352.538	1678.69
352.765	1741.69
352.992	1760.69
353.22	1735.69
353.447	1693.69
353.674	1706.69
353.901	1727.69
354.128	1677.69
354.355	1662.69
354.583	1749.69
354.81	1765.69
355.037	1749.69
355.264	1808.69
355.491	1693.69
355.718	1756.69
355.945	1724.69
356.172	1698.69
356.399	1620.69
356.626	1685.69
356.853	1660.69
357.08	1888.69
357.307	2015.69
357.534	2037.69
357.761	1767.69
357.988	1712.69
358.215	1600.69
358.441	1621.69
358.668	1641.69
358.895	1619.69
359.122	1735.69
359.349	1941.69
359.576	1928.69
359.802	1724.69
360.029	1661.69
360.256	1602.69
360.483	1654.69
360.709	1720.69
360.936	1751.69
361.163	1808.69
361.39	1965.69
361.616	2200.69
361.843	2102.69
362.07	1959.69
362.296	1720.69
362.523	1676.69
362.749	1681.69
362.976	1732.69
363.203	1767.69
363.429	1691.69
363.656	1645.69
363.882	1670.69
364.109	1849.69
364.335	2056.69
364.562	1872.69
364.788	1822.69
365.015	1733.69
365.241	1633.69
365.468	1712.69
365.694	1753.69
365.92	1872.69
366.147	1797.69
366.373	1708.69
366.599	1652.69
366.826	1662.69
367.052	1637.69
367.278	1691.69
367.505	1710.69
367.731	1742.69
367.957	1737.69
368.184	1778.69
368.41	1848.69
368.636	1918.69
368.862	1974.69
369.089	1968.69
369.315	1828.69
369.541	1835.69
369.767	1768.69
369.993	1664.69
370.219	1708.69
370.445	1704.69
370.672	1853.69
370.898	1897.69
371.124	1944.69
371.35	1761.69
371.576	1831.69
371.802	1931.69
372.028	1802.69
372.254	1752.69
372.48	1723.69
372.706	1692.69
372.932	1713.69
373.158	1741.69
373.384	1734.69
373.61	1791.69
373.835	1917.69
374.061	1795.69
374.287	1790.69
374.513	1735.69
374.739	1834.69
374.965	1824.69
375.191	1810.69
375.416	1857.69
375.642	1876.69
375.868	1947.69
376.094	2050.69
376.319	1961.69
376.545	1768.69
376.771	1809.69
376.997	1934.69
377.222	1903.69
377.448	1844.69
377.674	1850.69
377.899	1843.69
378.125	1985.69
378.35	1978.69
378.576	1796.69
378.802	1749.69
379.027	1747.69
379.253	1774.69
379.478	1761.69
379.704	1792.69
379.929	1766.69
380.155	1779.69
380.38	1770.69
380.606	1831.69
380.831	1809.69
381.057	1876.69
381.282	1894.69
381.507	1873.69
381.733	1936.69
381.958	2076.69
382.184	1905.69
382.409	1849.69
382.634	1861.69
382.86	1874.69
383.085	1853.69
383.31	1928.69
383.535	2044.69
383.761	2132.69
383.986	2045.69
384.211	2016.69
384.436	1975.69
384.662	2086.69
384.887	2190.69
385.112	2068.69
385.337	2125.69
385.562	2041.69
385.787	2017.69
386.013	2113.69
386.238	2108.69
386.463	2018.69
386.688	2211.69
386.913	2324.69
387.138	2311.69
387.363	2127.69
387.588	2100.69
387.813	2063.69
388.038	2118.69
388.263	2179.69
388.488	2120.69
388.713	1963.69
388.938	1945.69
389.163	1960.69
389.387	2009.69
389.612	1998.69
389.837	2058.69
390.062	2100.69
390.287	2082.69
390.512	2033.69
390.736	1996.69
390.961	1963.69
391.186	1936.69
391.411	1982.69
391.636	1989.69
391.86	2017.69
392.085	2030.69
392.31	1992.69
392.534	2059.69
392.759	2056.69
392.984	2034.69
393.208	2042.69
393.433	2129.69
393.658	2195.69
393.882	2209.69
394.107	2110.69
394.331	2078.69
394.556	2019.69
394.78	2050.69
395.005	2132.69
395.229	2216.69
395.454	2349.69
395.678	2393.69
395.903	2252.69
396.127	2170.69
396.352	2171.69
396.576	2217.69
396.801	2288.69
397.025	2228.69
397.249	2220.69
397.474	2212.69
397.698	2202.69
397.922	2280.69
398.147	2314.69
398.371	2480.69
398.595	2474.69
398.82	2410.69
399.044	2398.69
399.268	2500.69
399.492	2682.69
399.717	2757.69
399.941	2772.69
400.165	2710.69
400.389	2592.69
400.613	2561.69
400.837	2851.69
401.062	3290.69
401.286	2875.69
401.51	2560.69
401.734	2681.69
401.958	2595.69
402.182	2416.69
402.406	2338.69
402.63	2336.69
402.854	2308.69
403.078	2381.69
403.302	2384.69
403.526	2411.69
403.75	2414.69
403.974	2455.69
404.198	2487.69
404.422	2504.69
404.645	2701.69
404.869	2592.69
405.093	2403.69
405.317	2380.69
405.541	2470.69
405.765	2452.69
405.988	2408.69
406.212	2486.69
406.436	2528.69
406.66	2632.69
406.883	2662.69
407.107	2908.69
407.331	3188.69
407.555	3427.69
407.778	3147.69
408.002	2634.69
408.226	2608.69
408.449	2574.69
408.673	2532.69
408.896	2503.69
409.12	2568.69
409.344	2477.69
409.567	2371.69
409.791	2478.69
410.014	2517.69
410.238	2611.69
410.461	2766.69
410.685	2498.69
410.908	2363.69
411.132	2393.69
411.355	2456.69
411.578	2397.69
411.802	2330.69
412.025	2394.69
412.249	2419.69
412.472	2294.69
412.695	2288.69
412.919	2332.69
413.142	2360.69
413.365	2321.69
413.589	2369.69
413.812	2470.69
414.035	2550.69
414.258	2383.69
414.482	2332.69
414.705	2324.69
414.928	2319.69
415.151	2313.69
415.374	2293.69
415.597	2367.69
415.821	2354.69
416.044	2536.69
416.267	2482.69
416.49	2234.69
416.713	2216.69
416.936	2287.69
417.159	2385.69
417.382	2406.69
417.605	2274.69
417.828	2347.69
418.051	2424.69
418.274	2289.69
418.497	2205.69
418.72	2228.69
418.943	2253.69
419.166	2408.69
419.389	2513.69
419.611	2316.69
419.834	2267.69
420.057	2328.69
420.28	2246.69
420.503	2232.69
420.726	2317.69
420.948	2262.69
421.171	2224.69
421.394	2252.69
421.617	2310.69
421.839	2314.69
422.062	2256.69
422.285	2211.69
422.507	2240.69
422.73	2197.69
422.953	2147.69
423.175	2120.69
423.398	2236.69
423.621	2216.69
423.843	2279.69
424.066	2272.69
424.288	2348.69
424.511	2378.69
424.733	2380.69
424.956	2116.69
425.178	2114.69
425.401	2164.69
425.623	2187.69
425.846	2181.69
426.068	2290.69
426.291	2324.69
426.513	2275.69
426.735	2280.69
426.958	2405.69
427.18	2593.69
427.402	2300.69
427.625	2434.69
427.847	2466.69
428.069	2292.69
428.292	2172.69
428.514	2097.69
428.736	2149.69
428.958	2174.69
429.181	2184.69
429.403	2454.69
429.625	3023.69
429.847	2661.69
430.069	2266.69
430.292	2443.69
430.514	2572.69
430.736	2374.69
430.958	2387.69
431.18	2344.69
431.402	2172.69
431.624	2127.69
431.846	2185.69
432.068	2125.69
432.29	2167.69
432.512	2182.69
432.734	2200.69
432.956	2295.69
433.178	2380.69
433.4	2324.69
433.622	2364.69
433.844	2228.69
434.066	2122.69
434.287	2117.69
434.509	2227.69
434.731	2344.69
434.953	2510.69
435.175	2440.69
435.397	2318.69
435.618	2280.69
435.84	2306.69
436.062	2259.69
436.284	2262.69
436.505	2296.69
436.727	2325.69
436.949	2230.69
437.17	2180.69
437.392	2135.69
437.614	2199.69
437.835	2133.69
438.057	2300.69
438.278	2404.69
438.5	2202.69
438.721	2174.69
438.943	2172.69
439.165	2176.69
439.386	2101.69
439.608	2121.69
439.829	2140.69
440.05	2160.69
440.272	2137.69
440.493	2089.69
440.715	2178.69
440.936	2288.69
441.158	2547.69
441.379	2441.69
441.6	2398.69
441.822	2336.69
442.043	2373.69
442.264	2272.69
442.486	2173.69
442.707	2180.69
442.928	2112.69
443.149	2272.69
443.371	2347.69
443.592	2440.69
443.813	2388.69
444.034	2347.69
444.255	2332.69
444.476	2434.69
444.698	2440.69
444.919	2412.69
445.14	2488.69
445.361	2525.69
445.582	2616.69
445.803	2474.69
446.024	2400.69
446.245	2442.69
446.466	2379.69
446.687	2266.69
446.908	2268.69
447.129	2181.69
447.35	2254.69
447.571	2230.69
447.792	2117.69
448.013	2088.69
448.234	2182.69
448.455	2320.69
448.675	2313.69
448.896	2067.69
449.117	2052.69
449.338	2153.69
449.559	2196.69
449.779	2306.69
450	2572.69
450.221	2775.69
450.442	2626.69
450.662	2358.69
450.883	2081.69
451.104	2040.69
451.324	2059.69
451.545	2148.69
451.766	2090.69
451.986	2010.69
452.207	2008.69
452.428	1976.69
452.648	1938.69
452.869	1988.69
453.089	2126.69
453.31	2143.69
453.53	2206.69
453.751	2090.69
453.971	1957.69
454.192	2015.69
454.412	2136.69
454.633	2070.69
454.853	2035.69
455.073	1913.69
455.294	1883.69
455.514	1908.69
455.734	1890.69
455.955	1956.69
456.175	1948.69
456.395	1948.69
456.616	2010.69
456.836	2030.69
457.056	2009.69
457.276	1975.69
457.497	1916.69
457.717	1890.69
457.937	1911.69
458.157	1970.69
458.377	1953.69
458.598	1925.69
458.818	1944.69
459.038	2057.69
459.258	2184.69
459.478	2200.69
459.698	2091.69
459.918	2175.69
460.138	2307.69
460.358	2328.69
460.578	2299.69
460.798	2402.69
461.018	2571.69
461.238	2440.69
461.458	2337.69
461.678	2326.69
461.898	2248.69
462.118	2199.69
462.338	2277.69
462.558	2293.69
462.777	2317.69
462.997	2421.69
463.217	2605.69
463.437	2536.69
463.657	2417.69
463.876	2324.69
464.096	2300.69
464.316	2355.69
464.536	2377.69
464.755	2432.69
464.975	2489.69
465.195	2371.69
465.414	2446.69
465.634	2496.69
465.854	2326.69
466.073	2434.69
466.293	2422.69
466.512	2160.69
466.732	2124.69
466.951	2216.69
467.171	2209.69
467.391	2147.69
467.61	2033.69
467.829	2081.69
468.049	2256.69
468.268	2519.69
468.488	2381.69
468.707	2255.69
468.927	2171.69
469.146	2149.69
469.365	2056.69
469.585	2125.69
469.804	2033.69
470.023	2105.69
470.243	2146.69
470.462	2133.69
470.681	2092.69
470.901	2096.69
471.12	2121.69
471.339	2129.69
471.558	2016.69
471.777	2003.69
471.997	2047.69
472.216	2092.69
472.435	1991.69
472.654	2051.69
472.873	2132.69
473.092	2271.69
473.311	2178.69
473.53	2007.69
473.749	2038.69
473.968	2069.69
474.187	2183.69
474.406	2296.69
474.625	2166.69
474.844	2136.69
475.063	2152.69
475.282	2176.69
475.501	2119.69
475.72	2178.69
475.939	2241.69
476.158	2183.69
476.377	2096.69
476.596	2160.69
476.814	2224.69
477.033	2220.69
477.252	2283.69
477.471	2359.69
477.69	2248.69
477.908	2211.69
478.127	2354.69
478.346	2545.69
478.564	2565.69
478.783	2536.69
479.002	2566.69
479.22	2520.69
479.439	2640.69
479.658	2939.69
479.876	2994.69
480.095	2575.69
480.313	2452.69
480.532	2348.69
480.751	2425.69
480.969	2461.69
481.188	2381.69
481.406	2372.69
481.624	2314.69
481.843	2353.69
482.061	2382.69
482.28	2424.69
482.498	2453.69
482.717	2455.69
482.935	2352.69
483.153	2314.69
483.372	2363.69
483.59	2324.69
483.808	2352.69
484.027	2425.69
484.245	2522.69
484.463	2919.69
484.681	3396.69
484.9	2649.69
485.118	2450.69
485.336	2366.69
485.554	2524.69
485.772	2666.69
485.99	2539.69
486.209	2562.69
486.427	2530.69
486.645	2518.69
486.863	2476.69
487.081	2549.69
487.299	2626.69
487.517	2572.69
487.735	2464.69
487.953	2450.69
488.171	2456.69
488.389	2449.69
488.607	2465.69
488.825	2730.69
489.043	2693.69
489.261	2474.69
489.479	2581.69
489.696	2672.69
489.914	2592.69
490.132	2578.69
490.35	2492.69
490.568	2628.69
490.786	2534.69
491.003	2416.69
491.221	2493.69
491.439	2567.69
491.657	2504.69
491.874	2496.69
492.092	2529.69
492.31	2578.69
492.527	2590.69
492.745	2513.69
492.963	2525.69
493.18	2612.69
493.398	2788.69
493.615	2871.69
493.833	2567.69
494.05	2540.69
494.268	2582.69
494.485	2658.69
494.703	2619.69
494.92	2516.69
495.138	2509.69
495.355	2564.69
495.573	2675.69
495.79	2810.69
496.008	2877.69
496.225	2648.69
496.442	2678.69
496.66	2744.69
496.877	2656.69
497.094	2820.69
497.312	2840.69
497.529	2779.69
497.746	2880.69
497.963	3344.69
498.181	3732.69
498.398	3484.69
498.615	3379.69
498.832	3279.69
499.049	3302.69
499.267	3316.69
499.484	3494.69
499.701	3797.69
499.918	3856.69
500.135	4151.69
500.352	4437.69
500.569	4314.69
500.786	4656.69
501.003	4345.69
501.22	3915.69
501.437	3804.69
501.654	3798.69
501.871	3713.69
502.088	3276.69
502.305	3272.69
502.522	3156.69
502.739	2933.69
502.956	2874.69
503.172	2850.69
503.389	2725.69
503.606	2659.69
503.823	2736.69
504.04	2747.69
504.256	2709.69
504.473	2762.69
504.69	2821.69
504.907	2682.69
505.123	2549.69
505.34	2688.69
505.557	3458.69
505.773	2948.69
505.99	2477.69
506.207	2352.69
506.423	2313.69
506.64	2314.69
506.856	2341.69
507.073	2626.69
507.289	2832.69
507.506	2741.69
507.722	2349.69
507.939	2244.69
508.155	2286.69
508.372	2280.69
508.588	2194.69
508.805	2162.69
509.021	2145.69
509.238	2109.69
509.454	2083.69
509.67	2120.69
509.887	2071.69
510.103	2123.69
510.319	2136.69
510.536	2234.69
510.752	2296.69
510.968	2226.69
511.184	2477.69
511.401	2414.69
511.617	2116.69
511.833	2063.69
512.049	2048.69
512.265	2058.69
512.481	2036.69
512.698	2097.69
512.914	2248.69
513.13	2174.69
513.346	2090.69
513.562	2019.69
513.778	2057.69
513.994	2164.69
514.21	2211.69
514.426	2253.69
514.642	2510.69
514.858	2318.69
515.074	2188.69
515.29	2084.69
515.506	2144.69
515.721	2178.69
515.937	2185.69
516.153	2499.69
516.369	2360.69
516.585	2263.69
516.801	2168.69
517.016	2143.69
517.232	2244.69
517.448	2219.69
517.664	2235.69
517.879	2293.69
518.095	2352.69
518.311	2338.69
518.527	2154.69
518.742	2147.69
518.958	2064.69
519.173	2080.69
519.389	2094.69
519.605	2124.69
519.82	2101.69
520.036	2193.69
520.251	2061.69
520.467	2133.69
520.682	2293.69
520.898	2362.69
521.113	2111.69
521.329	2042.69
521.544	2207.69
521.76	2088.69
521.975	2034.69
522.19	1946.69
522.406	1974.69
522.621	2363.69
522.836	2405.69
523.052	2008.69
523.267	1916.69
523.482	1985.69
523.698	1884.69
523.913	1852.69
524.128	1937.69
524.343	2006.69
524.559	2037.69
524.774	1913.69
524.989	1853.69
525.204	1905.69
525.419	1831.69
525.634	1853.69
525.849	1895.69
526.064	1912.69
526.28	1963.69
526.495	1821.69
526.71	1808.69
526.925	1829.69
527.14	1793.69
527.355	1794.69
527.57	1758.69
527.785	1862.69
527.999	1810.69
528.214	1731.69
528.429	1705.69
528.644	1724.69
528.859	1802.69
529.074	1772.69
529.289	1782.69
529.503	1800.69
529.718	1847.69
529.933	1803.69
530.148	1726.69
530.363	1730.69
530.577	1764.69
530.792	1828.69
531.007	1827.69
531.221	1806.69
531.436	1847.69
531.651	1853.69
531.865	1933.69
532.08	1860.69
532.295	1744.69
532.509	1662.69
532.724	1736.69
532.938	1837.69
533.153	1959.69
533.367	1830.69
533.582	1789.69
533.796	1783.69
534.011	1801.69
534.225	1788.69
534.44	1724.69
534.654	1747.69
534.868	1744.69
535.083	1840.69
535.297	1804.69
535.511	1779.69
535.726	1752.69
535.94	1728.69
536.154	1763.69
536.369	1704.69
536.583	1720.69
536.797	1698.69
537.011	1737.69
537.225	1704.69
537.44	1660.69
537.654	1727.69
537.868	1674.69
538.082	1621.69
538.296	1605.69
538.51	1626.69
538.724	1638.69
538.938	1598.69
539.153	1661.69
539.367	1678.69
539.581	1670.69
539.795	1721.69
540.009	1702.69
540.222	1672.69
540.436	1733.69
540.65	1851.69
540.864	1877.69
541.078	1777.69
541.292	1652.69
541.506	1651.69
541.72	1657.69
541.934	1650.69
542.147	1693.69
542.361	1689.69
542.575	1609.69
542.789	1608.69
543.002	1595.69
543.216	1601.69
543.43	1704.69
543.644	1740.69
543.857	1829.69
544.071	1743.69
544.285	1703.69
544.498	1666.69
544.712	1657.69
544.925	1701.69
545.139	1732.69
545.352	1637.69
545.566	1553.69
545.779	1520.69
545.993	1573.69
546.206	1613.69
546.42	1564.69
546.633	1521.69
546.847	1538.69
547.06	1575.69
547.274	1563.69
547.487	1516.69
547.7	1552.69
547.914	1567.69
548.127	1600.69
548.34	1643.69
548.554	1590.69
548.767	1583.69
548.98	1601.69
549.193	1576.69
549.407	1676.69
549.62	1701.69
549.833	1596.69
550.046	1584.69
550.259	1586.69
550.473	1561.69
550.686	1595.69
550.899	1549.69
551.112	1521.69
551.325	1484.69
551.538	1612.69
551.751	1898.69
551.964	1534.69
552.177	1470.69
552.39	1504.69
552.603	1560.69
552.816	1540.69
553.029	1664.69
553.242	1665.69
553.455	1582.69
553.667	1542.69
553.88	1538.69
554.093	1509.69
554.306	1464.69
554.519	1458.69
554.732	1465.69
554.944	1483.69
555.157	1522.69
555.37	1446.69
555.583	1460.69
555.795	1401.69
556.008	1387.69
556.221	1364.69
556.433	1349.69
556.646	1320.69
556.859	1334.69
557.071	1340.69
557.284	1336.69
557.496	1342.69
557.709	1267.69
557.921	1296.69
558.134	1319.69
558.346	1331.69
558.559	1294.69
558.771	1314.69
558.984	1241.69
559.196	1210.69
559.409	1296.69
559.621	1262.69
559.833	1248.69
560.046	1344.69
560.258	1287.69
560.47	1284.69
560.683	1268.69
560.895	1261.69
561.107	1298.69
561.32	1308.69
561.532	1285.69
561.744	1284.69
561.956	1255.69
562.168	1249.69
562.381	1227.69
562.593	1234.69
562.805	1258.69
563.017	1236.69
563.229	1247.69
563.441	1270.69
563.653	1276.69
563.865	1239.69
564.077	1241.69
564.289	1275.69
564.501	1257.69
564.713	1299.69
564.925	1353.69
565.137	1411.69
565.349	1330.69
565.561	1320.69
565.773	1313.69
565.985	1356.69
566.197	1420.69
566.408	1544.69
566.62	1520.69
566.832	1507.69
567.044	1517.69
567.255	1514.69
567.467	1517.69
567.679	1592.69
567.891	1626.69
568.102	1556.69
568.314	1520.69
568.526	1486.69
568.737	1401.69
568.949	1351.69
569.161	1312.69
569.372	1265.69
569.584	1207.69
569.795	1249.69
570.007	1194.69
570.218	1166.69
570.43	1159.69
570.641	1169.69
570.853	1146.69
571.064	1156.69
571.276	1126.69
571.487	1106.69
571.698	1099.69
571.91	1064.69
572.121	1068.69
572.333	1068.69
572.544	1032.69
572.755	987.69
572.966	999.69
573.178	1005.69
573.389	1032.69
573.6	1046.69
573.811	1149.69
574.023	1045.69
574.234	1002.69
574.445	987.69
574.656	974.69
574.867	969.69
575.078	954.69
575.289	984.69
575.501	933.69
575.712	953.69
575.923	954.69
576.134	950.69
576.345	940.69
576.556	894.69
576.767	901.69
576.978	886.69
577.188	907.69
577.399	892.69
577.61	860.69
577.821	875.69
578.032	873.69
578.243	880.69
578.454	893.69
578.665	870.69
578.875	832.69
579.086	840.69
579.297	848.69
579.508	923.69
579.718	887.69
579.929	869.69
580.14	840.69
580.35	827.69
580.561	867.69
580.772	939.69
580.982	904.69
581.193	854.69
581.403	842.69
581.614	822.69
581.825	794.69
582.035	814.69
582.246	822.69
582.456	846.69
582.667	827.69
582.877	801.69
583.087	779.69
583.298	814.69
583.508	804.69
583.719	782.69
583.929	816.69
584.139	795.69
584.35	792.69
584.56	780.69
584.77	787.69
584.981	798.69
585.191	790.69
585.401	818.69
585.611	811.69
585.821	804.69
586.032	775.69
586.242	797.69
586.452	784.69
586.662	785.69
586.872	760.69
587.082	770.69
587.292	800.69
587.502	784.69
587.713	806.69
587.923	790.69
588.133	778.69
588.343	781.69
588.553	756.69
588.762	744.69
588.972	745.69
589.182	774.69
589.392	756.69
589.602	776.69
589.812	765.69
590.022	758.69
590.232	775.69
590.441	770.69
590.651	758.69
590.861	753.69
591.071	752.69
591.281	739.69
591.49	728.69
591.7	754.69
591.91	740.69
592.119	745.69
592.329	792.69
592.539	794.69
592.748	754.69
592.958	789.69
593.167	748.69
593.377	804.69
593.587	822.69
593.796	800.69
594.006	825.69
594.215	802.69
594.424	792.69
594.634	769.69
594.843	769.69
595.053	795.69
595.262	754.69
595.472	752.69
595.681	749.69
595.89	760.69
596.1	717.69
596.309	721.69
596.518	697.69
596.727	718.69
596.937	680.69
597.146	673.69
597.355	668.69
597.564	682.69
597.774	670.69
597.983	671.69
598.192	662.69
598.401	657.69
598.61	680.69
598.819	650.69
599.028	659.69
599.237	670.69
599.446	621.69
599.655	626.69
599.864	652.69
600.073	647.69
600.282	621.69
600.491	619.69
600.7	609.69
600.909	611.69
601.118	610.69
601.327	622.69
601.536	598.69
601.745	608.69
601.953	614.69
602.162	624.69
602.371	620.69
602.58	619.69
602.789	631.69
602.997	605.69
603.206	591.69
603.415	589.69
603.623	594.69
603.832	608.69
604.041	584.69
604.249	595.69
604.458	567.69
604.666	581.69
604.875	606.69
605.084	613.69
605.292	618.69
605.501	601.69
605.709	577.69
605.918	572.69
606.126	570.69
606.334	560.69
606.543	559.69
606.751	563.69
606.96	576.69
607.168	557.69
607.376	551.69
607.585	554.69
607.793	579.69
608.001	571.69
608.21	564.69
608.418	563.69
608.626	578.69
608.834	548.69
609.043	555.69
609.251	548.69
609.459	556.69
609.667	570.69
609.875	556.69
610.083	574.69
610.291	602.69
610.499	572.69
610.707	563.69
610.916	558.69
611.124	540.69
611.332	544.69
611.54	550.69
611.748	568.69
611.955	525.69
612.163	537.69
612.371	530.69
612.579	533.69
612.787	545.69
612.995	524.69
613.203	546.69
613.411	539.69
613.618	562.69
613.826	570.69
614.034	522.69
614.242	545.69
614.449	544.69
614.657	538.69
614.865	524.69
615.072	528.69
615.28	524.69
615.488	534.69
615.695	564.69
615.903	542.69
616.111	522.69
616.318	511.69
616.526	535.69
616.733	511.69
616.941	502.69
617.148	519.69
617.356	524.69
617.563	518.69
617.771	535.69
617.978	521.69
618.185	488.69
618.393	516.69
618.6	509.69
618.807	505.69
619.015	519.69
619.222	522.69
619.429	522.69
619.637	483.69
619.844	482.69
620.051	510.69
620.258	514.69
620.466	488.69
620.673	477.69
620.88	462.69
621.087	455.69
621.294	456.69
621.501	486.69
621.708	489.69
621.915	475.69
622.122	489.69
622.329	467.69
622.536	472.69
622.743	476.69
622.95	465.69
623.157	441.69
623.364	460.69
623.571	461.69
623.778	456.69
623.985	458.69
624.192	473.69
624.399	467.69
624.606	448.69
624.812	474.69
625.019	450.69
625.226	450.69
625.433	458.69
625.639	455.69
625.846	429.69
626.053	420.69
626.259	450.69
626.466	420.69
626.673	402.69
626.879	414.69
627.086	420.69
627.293	412.69
627.499	415.69
627.706	439.69
627.912	439.69
628.119	434.69
628.325	418.69
628.532	428.69
628.738	412.69
628.945	410.69
629.151	422.69
629.357	420.69
629.564	417.69
629.77	406.69
629.976	407.69
630.183	421.69
630.389	425.69
630.595	408.69
630.802	397.69
631.008	416.69
631.214	419.69
631.42	374.69
631.627	402.69
631.833	384.69
632.039	382.69
632.245	392.69
632.451	396.69
632.657	385.69
632.863	381.69
633.069	381.69
633.275	389.69
633.481	381.69
633.688	404.69
633.893	360.69
634.099	364.69
634.305	375.69
634.511	370.69
634.717	371.69
634.923	353.69
635.129	380.69
635.335	352.69
635.541	368.69
635.747	358.69
635.952	384.69
636.158	361.69
636.364	373.69
636.57	362.69
636.775	361.69
636.981	376.69
637.187	360.69
637.392	349.69
637.598	371.69
637.804	358.69
638.009	341.69
638.215	347.69
638.421	344.69
638.626	344.69
638.832	371.69
639.037	360.69
639.243	334.69
639.448	348.69
639.654	337.69
639.859	337.69
640.065	334.69
640.27	343.69
640.475	325.69
640.681	353.69
640.886	340.69
641.091	326.69
641.297	338.69
641.502	342.69
641.707	344.69
641.913	330.69
642.118	327.69
642.323	341.69
642.528	331.69
642.733	344.69
642.939	313.69
643.144	315.69
643.349	345.69
643.554	324.69
643.759	338.69
643.964	310.69
644.169	339.69
644.374	326.69
644.579	316.69
644.784	328.69
644.989	326.69
645.194	330.69
645.399	342.69
645.604	319.69
645.809	324.69
646.014	313.69
646.219	317.69
646.423	329.69
646.628	318.69
646.833	345.69
647.038	324.69
647.243	310.69
647.447	322.69
647.652	339.69
647.857	324.69
648.062	314.69
648.266	327.69
648.471	315.69
648.676	326.69
648.88	318.69
649.085	323.69
649.289	322.69
649.494	326.69
649.698	300.69
649.903	295.69
650.107	317.69
650.312	293.69
650.516	299.69
650.721	305.69
650.925	294.69
651.13	281.69
651.334	302.69
651.539	285.69
651.743	286.69
651.947	268.69
652.152	253.69
652.356	268.69
652.56	274.69
652.764	266.69
652.969	272.69
653.173	258.69
653.377	256.69
653.581	241.69
653.785	258.69
653.99	258.69
654.194	244.69
654.398	248.69
654.602	231.69
654.806	244.69
655.01	242.69
655.214	266.69
655.418	249.69
655.622	229.69
655.826	268.69
656.03	276.69
656.234	257.69
656.438	276.69
656.642	266.69
656.846	264.69
657.049	244.69
657.253	240.69
657.457	222.69
657.661	201.69
657.865	174.69
658.068	197.69
658.272	182.69
658.476	158.69
658.68	153.69
658.883	151.69
659.087	147.69
659.291	136.69
659.494	146.69
659.698	135.69
659.901	133.69
660.105	125.69
660.309	132.69
660.512	107.69
660.716	123.69
660.919	110.69
661.123	108.69
661.326	105.69
661.53	106.69
661.733	104.69
661.936	109.69
662.14	88.69
662.343	106.69
662.546	89.69
662.75	96.69
662.953	83.69
663.156	110.69
663.36	92.69
663.563	92.69
663.766	84.69
663.969	93.69
664.173	86.69
664.376	81.69
664.579	93.69
664.782	99.69
664.985	94.69
665.188	85.69
665.391	80.69
665.594	78.69
665.797	80.69
666	77.69
666.203	74.69
666.406	73.69
666.609	77.69
666.812	93.69
667.015	91.69
667.218	107.69
667.421	88.69
667.624	83.69
667.827	92.69
668.03	92.69
668.232	85.69
668.435	77.69
668.638	83.69
668.841	93.69
669.043	96.69
669.246	86.69
669.449	101.69
669.651	85.69
669.854	89.69
670.057	79.69
670.259	80.69
670.462	93.69
670.665	78.69
670.867	101.69
671.07	77.69
671.272	84.69
671.475	78.69
671.677	79.69
671.88	80.69
672.082	75.69
672.284	86.69
672.487	94.69
672.689	73.69
672.892	78.69
