Data from WStandard_LampEnergy8_LIBS07252019.E.O._I.C._HRD10591_15-58-08-929.txt Node
Date: Thu Jul 25 15:58:08 EDT 2019
User: cochatt
Spectrometer: HR+D1059
Trigger mode: 1
Integration Time (sec): 1.000000E-1
Scans to average: 1
Electric dark correction enabled: true
Nonlinearity correction enabled: false
Boxcar width: 0
XAxis mode: Wavelengths
Number of Pixels in Spectrum: 2048
>>>>>Begin Spectral Data<<<<<
223.165	-25.75
223.4	-25.75
223.635	-25.75
223.869	-23.75
224.104	-32.75
224.338	-22.75
224.573	-1.75
224.808	-9.75
225.042	-0.75
225.277	-2.75
225.511	-8.75
225.746	2.25
225.98	9.25
226.215	26.25
226.449	19.25
226.683	12.25
226.918	30.25
227.152	29.25
227.387	37.25
227.621	42.25
227.856	53.25
228.09	41.25
228.324	45.25
228.559	39.25
228.793	97.25
229.027	221.25
229.262	205.25
229.496	229.25
229.73	239.25
229.964	257.25
230.199	243.25
230.433	254.25
230.667	272.25
230.901	287.25
231.136	271.25
231.37	275.25
231.604	290.25
231.838	246.25
232.072	258.25
232.306	265.25
232.541	270.25
232.775	318.25
233.009	342.25
233.243	317.25
233.477	291.25
233.711	292.25
233.945	302.25
234.179	308.25
234.413	324.25
234.647	336.25
234.881	327.25
235.115	317.25
235.349	323.25
235.583	321.25
235.817	298.25
236.051	291.25
236.285	326.25
236.519	354.25
236.753	361.25
236.987	382.25
237.221	356.25
237.455	403.25
237.689	369.25
237.922	358.25
238.156	344.25
238.39	344.25
238.624	372.25
238.858	408.25
239.091	419.25
239.325	426.25
239.559	467.25
239.793	503.25
240.027	533.25
240.26	528.25
240.494	417.25
240.728	375.25
240.961	377.25
241.195	373.25
241.429	429.25
241.662	408.25
241.896	394.25
242.13	402.25
242.363	429.25
242.597	477.25
242.83	471.25
243.064	487.25
243.298	493.25
243.531	472.25
243.765	476.25
243.998	459.25
244.232	431.25
244.465	405.25
244.699	426.25
244.932	459.25
245.166	519.25
245.399	496.25
245.633	468.25
245.866	470.25
246.099	498.25
246.333	490.25
246.566	530.25
246.8	539.25
247.033	593.25
247.266	541.25
247.5	536.25
247.733	533.25
247.966	576.25
248.2	622.25
248.433	609.25
248.666	633.25
248.899	685.25
249.133	771.25
249.366	839.25
249.599	707.25
249.832	641.25
250.066	638.25
250.299	639.25
250.532	616.25
250.765	557.25
250.998	595.25
251.231	602.25
251.465	594.25
251.698	615.25
251.931	623.25
252.164	633.25
252.397	628.25
252.63	617.25
252.863	584.25
253.096	564.25
253.329	594.25
253.562	588.25
253.795	637.25
254.028	615.25
254.261	588.25
254.494	579.25
254.727	579.25
254.96	604.25
255.193	652.25
255.426	734.25
255.659	827.25
255.892	811.25
256.124	689.25
256.357	663.25
256.59	715.25
256.823	718.25
257.056	771.25
257.289	840.25
257.521	929.25
257.754	846.25
257.987	813.25
258.22	868.25
258.452	836.25
258.685	717.25
258.918	681.25
259.151	702.25
259.383	673.25
259.616	591.25
259.849	630.25
260.081	714.25
260.314	806.25
260.547	848.25
260.779	833.25
261.012	750.25
261.244	709.25
261.477	686.25
261.71	723.25
261.942	706.25
262.175	691.25
262.407	720.25
262.64	701.25
262.872	649.25
263.105	644.25
263.337	637.25
263.57	641.25
263.802	649.25
264.035	610.25
264.267	581.25
264.499	578.25
264.732	625.25
264.964	663.25
265.197	682.25
265.429	701.25
265.661	805.25
265.894	870.25
266.126	897.25
266.358	821.25
266.591	829.25
266.823	877.25
267.055	795.25
267.287	801.25
267.52	791.25
267.752	763.25
267.984	792.25
268.216	806.25
268.448	806.25
268.681	816.25
268.913	749.25
269.145	727.25
269.377	728.25
269.609	779.25
269.841	902.25
270.073	1057.25
270.306	1111.25
270.538	1150.25
270.77	998.25
271.002	861.25
271.234	854.25
271.466	839.25
271.698	927.25
271.93	1123.25
272.162	1069.25
272.394	937.25
272.626	894.25
272.858	826.25
273.09	737.25
273.322	712.25
273.553	706.25
273.785	701.25
274.017	721.25
274.249	763.25
274.481	773.25
274.713	735.25
274.945	721.25
275.176	721.25
275.408	731.25
275.64	713.25
275.872	701.25
276.104	729.25
276.335	894.25
276.567	941.25
276.799	932.25
277.031	885.25
277.262	817.25
277.494	853.25
277.726	920.25
277.957	914.25
278.189	840.25
278.421	760.25
278.652	754.25
278.884	752.25
279.115	739.25
279.347	770.25
279.579	778.25
279.81	782.25
280.042	847.25
280.273	878.25
280.505	870.25
280.736	888.25
280.968	835.25
281.199	761.25
281.431	715.25
281.662	725.25
281.894	742.25
282.125	776.25
282.356	797.25
282.588	812.25
282.819	810.25
283.051	872.25
283.282	918.25
283.513	883.25
283.745	780.25
283.976	728.25
284.207	725.25
284.439	761.25
284.67	752.25
284.901	785.25
285.132	799.25
285.364	775.25
285.595	789.25
285.826	786.25
286.057	759.25
286.288	776.25
286.52	813.25
286.751	878.25
286.982	897.25
287.213	804.25
287.444	759.25
287.675	786.25
287.906	815.25
288.138	833.25
288.369	816.25
288.6	769.25
288.831	748.25
289.062	750.25
289.293	785.25
289.524	775.25
289.755	797.25
289.986	801.25
290.217	729.25
290.448	749.25
290.679	797.25
290.91	802.25
291.141	840.25
291.371	833.25
291.602	837.25
291.833	822.25
292.064	833.25
292.295	839.25
292.526	846.25
292.757	871.25
292.987	831.25
293.218	836.25
293.449	890.25
293.68	968.25
293.91	1019.25
294.141	963.25
294.372	917.25
294.603	976.25
294.833	993.25
295.064	938.25
295.295	855.25
295.525	817.25
295.756	778.25
295.987	740.25
296.217	750.25
296.448	751.25
296.679	794.25
296.909	792.25
297.14	787.25
297.37	788.25
297.601	874.25
297.831	936.25
298.062	881.25
298.292	834.25
298.523	791.25
298.753	829.25
298.984	835.25
299.214	816.25
299.445	865.25
299.675	875.25
299.905	844.25
300.136	810.25
300.366	830.25
300.597	781.25
300.827	795.25
301.057	805.25
301.288	854.25
301.518	842.25
301.748	891.25
301.979	939.25
302.209	949.25
302.439	995.25
302.669	1042.25
302.9	955.25
303.13	868.25
303.36	861.25
303.59	916.25
303.82	882.25
304.051	877.25
304.281	895.25
304.511	886.25
304.741	993.25
304.971	1015.25
305.201	1105.25
305.431	1011.25
305.661	823.25
305.891	776.25
306.121	802.25
306.352	812.25
306.582	880.25
306.812	916.25
307.042	992.25
307.272	1006.25
307.502	1021.25
307.731	1095.25
307.961	1124.25
308.191	1016.25
308.421	890.25
308.651	857.25
308.881	869.25
309.111	840.25
309.341	862.25
309.571	861.25
309.8	848.25
310.03	835.25
310.26	809.25
310.49	842.25
310.72	865.25
310.949	913.25
311.179	892.25
311.409	893.25
311.639	857.25
311.868	856.25
312.098	859.25
312.328	861.25
312.557	840.25
312.787	877.25
313.017	874.25
313.246	901.25
313.476	889.25
313.706	905.25
313.935	927.25
314.165	929.25
314.394	964.25
314.624	1018.25
314.853	1039.25
315.083	1085.25
315.312	1086.25
315.542	982.25
315.771	923.25
316.001	913.25
316.23	959.25
316.46	1015.25
316.689	951.25
316.919	921.25
317.148	869.25
317.377	926.25
317.607	980.25
317.836	1081.25
318.065	1089.25
318.295	1059.25
318.524	1003.25
318.753	981.25
318.983	964.25
319.212	931.25
319.441	925.25
319.67	918.25
319.9	941.25
320.129	1005.25
320.358	1039.25
320.587	1065.25
320.816	1069.25
321.046	1024.25
321.275	990.25
321.504	994.25
321.733	1043.25
321.962	1032.25
322.191	969.25
322.42	953.25
322.649	921.25
322.878	955.25
323.108	964.25
323.337	989.25
323.566	961.25
323.795	945.25
324.024	955.25
324.253	949.25
324.482	913.25
324.71	926.25
324.939	867.25
325.168	902.25
325.397	960.25
325.626	990.25
325.855	969.25
326.084	948.25
326.313	959.25
326.542	979.25
326.77	1004.25
326.999	970.25
327.228	932.25
327.457	880.25
327.686	916.25
327.914	915.25
328.143	953.25
328.372	954.25
328.6	942.25
328.829	947.25
329.058	922.25
329.287	957.25
329.515	979.25
329.744	1000.25
329.972	1045.25
330.201	1079.25
330.43	1037.25
330.658	1011.25
330.887	1014.25
331.115	1014.25
331.344	990.25
331.572	989.25
331.801	980.25
332.03	985.25
332.258	1018.25
332.486	1024.25
332.715	1045.25
332.943	1031.25
333.172	992.25
333.4	1029.25
333.629	1084.25
333.857	1145.25
334.085	1257.25
334.314	1378.25
334.542	1455.25
334.771	1314.25
334.999	1197.25
335.227	1118.25
335.455	1043.25
335.684	1046.25
335.912	1095.25
336.14	1117.25
336.369	1077.25
336.597	1053.25
336.825	1024.25
337.053	1074.25
337.281	1122.25
337.51	1185.25
337.738	1211.25
337.966	1117.25
338.194	1030.25
338.422	1008.25
338.65	967.25
338.878	982.25
339.106	951.25
339.334	929.25
339.562	956.25
339.79	973.25
340.018	1043.25
340.246	1079.25
340.474	1071.25
340.702	1065.25
340.93	1031.25
341.158	1055.25
341.386	1026.25
341.614	1010.25
341.842	995.25
342.07	1014.25
342.298	992.25
342.526	995.25
342.754	983.25
342.981	967.25
343.209	981.25
343.437	1009.25
343.665	1007.25
343.893	1018.25
344.12	1070.25
344.348	1066.25
344.576	1039.25
344.804	954.25
345.031	994.25
345.259	982.25
345.487	951.25
345.714	934.25
345.942	918.25
346.17	924.25
346.397	964.25
346.625	932.25
346.853	887.25
347.08	903.25
347.308	900.25
347.535	945.25
347.763	969.25
347.99	947.25
348.218	932.25
348.445	957.25
348.673	941.25
348.9	967.25
349.128	1009.25
349.355	1033.25
349.583	991.25
349.81	933.25
350.037	856.25
350.265	871.25
350.492	893.25
350.72	907.25
350.947	954.25
351.174	940.25
351.402	929.25
351.629	872.25
351.856	874.25
352.083	884.25
352.311	870.25
352.538	933.25
352.765	979.25
352.992	977.25
353.22	936.25
353.447	898.25
353.674	926.25
353.901	929.25
354.128	918.25
354.355	879.25
354.583	976.25
354.81	997.25
355.037	956.25
355.264	957.25
355.491	950.25
355.718	959.25
355.945	886.25
356.172	907.25
356.399	890.25
356.626	905.25
356.853	967.25
357.08	1066.25
357.307	1139.25
357.534	1117.25
357.761	978.25
357.988	896.25
358.215	879.25
358.441	893.25
358.668	905.25
358.895	915.25
359.122	1024.25
359.349	1093.25
359.576	1029.25
359.802	958.25
360.029	900.25
360.256	900.25
360.483	930.25
360.709	937.25
360.936	988.25
361.163	1018.25
361.39	1134.25
361.616	1188.25
361.843	1146.25
362.07	1037.25
362.296	955.25
362.523	933.25
362.749	930.25
362.976	962.25
363.203	963.25
363.429	925.25
363.656	892.25
363.882	969.25
364.109	1083.25
364.335	1113.25
364.562	1052.25
364.788	987.25
365.015	920.25
365.241	893.25
365.468	964.25
365.694	1013.25
365.92	996.25
366.147	998.25
366.373	911.25
366.599	909.25
366.826	904.25
367.052	923.25
367.278	921.25
367.505	952.25
367.731	977.25
367.957	989.25
368.184	1023.25
368.41	1089.25
368.636	1092.25
368.862	1079.25
369.089	1076.25
369.315	1035.25
369.541	1004.25
369.767	917.25
369.993	912.25
370.219	945.25
370.445	1010.25
370.672	1042.25
370.898	1110.25
371.124	1055.25
371.35	1015.25
371.576	1037.25
371.802	1061.25
372.028	1010.25
372.254	958.25
372.48	945.25
372.706	945.25
372.932	960.25
373.158	969.25
373.384	1015.25
373.61	1027.25
373.835	1033.25
374.061	995.25
374.287	978.25
374.513	992.25
374.739	1011.25
374.965	988.25
375.191	1025.25
375.416	1034.25
375.642	1036.25
375.868	1088.25
376.094	1112.25
376.319	1071.25
376.545	1001.25
376.771	1045.25
376.997	1090.25
377.222	1104.25
377.448	1076.25
377.674	1057.25
377.899	1055.25
378.125	1125.25
378.35	1121.25
378.576	962.25
378.802	962.25
379.027	982.25
379.253	964.25
379.478	1005.25
379.704	997.25
379.929	980.25
380.155	968.25
380.38	1011.25
380.606	1032.25
380.831	1044.25
381.057	1059.25
381.282	1067.25
381.507	1066.25
381.733	1138.25
381.958	1185.25
382.184	1037.25
382.409	1022.25
382.634	1083.25
382.86	1049.25
383.085	1061.25
383.31	1113.25
383.535	1201.25
383.761	1245.25
383.986	1137.25
384.211	1126.25
384.436	1169.25
384.662	1165.25
384.887	1215.25
385.112	1147.25
385.337	1173.25
385.562	1139.25
385.787	1146.25
386.013	1172.25
386.238	1175.25
386.463	1171.25
386.688	1267.25
386.913	1326.25
387.138	1268.25
387.363	1178.25
387.588	1193.25
387.813	1192.25
388.038	1175.25
388.263	1225.25
388.488	1178.25
388.713	1075.25
388.938	1091.25
389.163	1129.25
389.387	1154.25
389.612	1147.25
389.837	1174.25
390.062	1142.25
390.287	1143.25
390.512	1134.25
390.736	1136.25
390.961	1106.25
391.186	1080.25
391.411	1113.25
391.636	1108.25
391.86	1149.25
392.085	1133.25
392.31	1131.25
392.534	1129.25
392.759	1145.25
392.984	1134.25
393.208	1184.25
393.433	1203.25
393.658	1211.25
393.882	1257.25
394.107	1171.25
394.331	1141.25
394.556	1127.25
394.78	1143.25
395.005	1176.25
395.229	1274.25
395.454	1331.25
395.678	1315.25
395.903	1271.25
396.127	1238.25
396.352	1235.25
396.576	1296.25
396.801	1265.25
397.025	1271.25
397.249	1258.25
397.474	1242.25
397.698	1242.25
397.922	1264.25
398.147	1353.25
398.371	1370.25
398.595	1384.25
398.82	1321.25
399.044	1323.25
399.268	1370.25
399.492	1442.25
399.717	1493.25
399.941	1522.25
400.165	1486.25
400.389	1455.25
400.613	1479.25
400.837	1695.25
401.062	1833.25
401.286	1538.25
401.51	1464.25
401.734	1494.25
401.958	1415.25
402.182	1317.25
402.406	1310.25
402.63	1297.25
402.854	1295.25
403.078	1314.25
403.302	1361.25
403.526	1364.25
403.75	1340.25
403.974	1398.25
404.198	1380.25
404.422	1431.25
404.645	1510.25
404.869	1429.25
405.093	1338.25
405.317	1310.25
405.541	1339.25
405.765	1380.25
405.988	1361.25
406.212	1382.25
406.436	1435.25
406.66	1487.25
406.883	1551.25
407.107	1729.25
407.331	1803.25
407.555	1922.25
407.778	1712.25
408.002	1476.25
408.226	1443.25
408.449	1422.25
408.673	1387.25
408.896	1398.25
409.12	1430.25
409.344	1430.25
409.567	1372.25
409.791	1358.25
410.014	1435.25
410.238	1480.25
410.461	1570.25
410.685	1421.25
410.908	1334.25
411.132	1379.25
411.355	1385.25
411.578	1332.25
411.802	1391.25
412.025	1373.25
412.249	1384.25
412.472	1296.25
412.695	1347.25
412.919	1317.25
413.142	1319.25
413.365	1327.25
413.589	1383.25
413.812	1435.25
414.035	1469.25
414.258	1363.25
414.482	1308.25
414.705	1320.25
414.928	1330.25
415.151	1327.25
415.374	1349.25
415.597	1357.25
415.821	1349.25
416.044	1338.25
416.267	1387.25
416.49	1286.25
416.713	1285.25
416.936	1359.25
417.159	1406.25
417.382	1355.25
417.605	1314.25
417.828	1323.25
418.051	1385.25
418.274	1332.25
418.497	1300.25
418.72	1291.25
418.943	1291.25
419.166	1368.25
419.389	1375.25
419.611	1327.25
419.834	1306.25
420.057	1358.25
420.28	1311.25
420.503	1314.25
420.726	1342.25
420.948	1304.25
421.171	1258.25
421.394	1282.25
421.617	1328.25
421.839	1342.25
422.062	1325.25
422.285	1311.25
422.507	1272.25
422.73	1248.25
422.953	1213.25
423.175	1246.25
423.398	1282.25
423.621	1276.25
423.843	1309.25
424.066	1326.25
424.288	1399.25
424.511	1431.25
424.733	1380.25
424.956	1267.25
425.178	1271.25
425.401	1270.25
425.623	1271.25
425.846	1286.25
426.068	1362.25
426.291	1373.25
426.513	1361.25
426.735	1363.25
426.958	1418.25
427.18	1521.25
427.402	1409.25
427.625	1400.25
427.847	1421.25
428.069	1292.25
428.292	1268.25
428.514	1269.25
428.736	1223.25
428.958	1277.25
429.181	1312.25
429.403	1488.25
429.625	1799.25
429.847	1525.25
430.069	1353.25
430.292	1473.25
430.514	1481.25
430.736	1353.25
430.958	1410.25
431.18	1299.25
431.402	1222.25
431.624	1200.25
431.846	1177.25
432.068	1161.25
432.29	1155.25
432.512	1220.25
432.734	1279.25
432.956	1275.25
433.178	1347.25
433.4	1323.25
433.622	1338.25
433.844	1248.25
434.066	1215.25
434.287	1230.25
434.509	1226.25
434.731	1294.25
434.953	1393.25
435.175	1375.25
435.397	1285.25
435.618	1288.25
435.84	1273.25
436.062	1255.25
436.284	1273.25
436.505	1287.25
436.727	1343.25
436.949	1284.25
437.17	1263.25
437.392	1240.25
437.614	1231.25
437.835	1165.25
438.057	1261.25
438.278	1277.25
438.5	1211.25
438.721	1218.25
438.943	1245.25
439.165	1217.25
439.386	1220.25
439.608	1244.25
439.829	1239.25
440.05	1255.25
440.272	1235.25
440.493	1279.25
440.715	1267.25
440.936	1342.25
441.158	1433.25
441.379	1405.25
441.6	1381.25
441.822	1349.25
442.043	1375.25
442.264	1323.25
442.486	1276.25
442.707	1285.25
442.928	1242.25
443.149	1334.25
443.371	1394.25
443.592	1383.25
443.813	1389.25
444.034	1432.25
444.255	1377.25
444.476	1381.25
444.698	1438.25
444.919	1399.25
445.14	1494.25
445.361	1462.25
445.582	1508.25
445.803	1450.25
446.024	1403.25
446.245	1438.25
446.466	1418.25
446.687	1351.25
446.908	1366.25
447.129	1334.25
447.35	1325.25
447.571	1303.25
447.792	1255.25
448.013	1245.25
448.234	1282.25
448.455	1349.25
448.675	1315.25
448.896	1264.25
449.117	1215.25
449.338	1252.25
449.559	1277.25
449.779	1339.25
450	1450.25
450.221	1482.25
450.442	1442.25
450.662	1322.25
450.883	1171.25
451.104	1197.25
451.324	1209.25
451.545	1220.25
451.766	1214.25
451.986	1193.25
452.207	1135.25
452.428	1097.25
452.648	1077.25
452.869	1097.25
453.089	1139.25
453.31	1188.25
453.53	1168.25
453.751	1148.25
453.971	1082.25
454.192	1103.25
454.412	1190.25
454.633	1147.25
454.853	1127.25
455.073	1061.25
455.294	1098.25
455.514	1089.25
455.734	1102.25
455.955	1126.25
456.175	1079.25
456.395	1078.25
456.616	1119.25
456.836	1127.25
457.056	1087.25
457.276	1081.25
457.497	1031.25
457.717	1017.25
457.937	1055.25
458.157	1055.25
458.377	1049.25
458.598	1055.25
458.818	1040.25
459.038	1131.25
459.258	1149.25
459.478	1177.25
459.698	1142.25
459.918	1171.25
460.138	1269.25
460.358	1223.25
460.578	1242.25
460.798	1306.25
461.018	1347.25
461.238	1315.25
461.458	1267.25
461.678	1312.25
461.898	1220.25
462.118	1201.25
462.338	1284.25
462.558	1282.25
462.777	1293.25
462.997	1317.25
463.217	1373.25
463.437	1350.25
463.657	1295.25
463.876	1253.25
464.096	1262.25
464.316	1283.25
464.536	1314.25
464.755	1337.25
464.975	1339.25
465.195	1288.25
465.414	1346.25
465.634	1313.25
465.854	1287.25
466.073	1421.25
466.293	1379.25
466.512	1227.25
466.732	1234.25
466.951	1269.25
467.171	1252.25
467.391	1235.25
467.61	1202.25
467.829	1262.25
468.049	1372.25
468.268	1448.25
468.488	1334.25
468.707	1288.25
468.927	1246.25
469.146	1230.25
469.365	1187.25
469.585	1250.25
469.804	1234.25
470.023	1267.25
470.243	1244.25
470.462	1262.25
470.681	1227.25
470.901	1253.25
471.12	1252.25
471.339	1238.25
471.558	1214.25
471.777	1215.25
471.997	1189.25
472.216	1193.25
472.435	1152.25
472.654	1160.25
472.873	1195.25
473.092	1245.25
473.311	1202.25
473.53	1154.25
473.749	1167.25
473.968	1186.25
474.187	1237.25
474.406	1249.25
474.625	1223.25
474.844	1256.25
475.063	1224.25
475.282	1265.25
475.501	1221.25
475.72	1214.25
475.939	1300.25
476.158	1274.25
476.377	1217.25
476.596	1253.25
476.814	1238.25
477.033	1237.25
477.252	1263.25
477.471	1295.25
477.69	1279.25
477.908	1255.25
478.127	1376.25
478.346	1422.25
478.564	1405.25
478.783	1433.25
479.002	1478.25
479.22	1419.25
479.439	1493.25
479.658	1571.25
479.876	1541.25
480.095	1400.25
480.313	1352.25
480.532	1335.25
480.751	1329.25
480.969	1312.25
481.188	1288.25
481.406	1239.25
481.624	1225.25
481.843	1270.25
482.061	1291.25
482.28	1348.25
482.498	1367.25
482.717	1297.25
482.935	1301.25
483.153	1390.25
483.372	1385.25
483.59	1396.25
483.808	1348.25
484.027	1408.25
484.245	1471.25
484.463	1763.25
484.681	1934.25
484.9	1484.25
485.118	1385.25
485.336	1367.25
485.554	1367.25
485.772	1413.25
485.99	1388.25
486.209	1413.25
486.427	1431.25
486.645	1409.25
486.863	1431.25
487.081	1474.25
487.299	1471.25
487.517	1486.25
487.735	1455.25
487.953	1491.25
488.171	1478.25
488.389	1486.25
488.607	1519.25
488.825	1640.25
489.043	1570.25
489.261	1409.25
489.479	1490.25
489.696	1471.25
489.914	1499.25
490.132	1447.25
490.35	1502.25
490.568	1565.25
490.786	1502.25
491.003	1513.25
491.221	1543.25
491.439	1639.25
491.657	1601.25
491.874	1648.25
492.092	1686.25
492.31	1669.25
492.527	1653.25
492.745	1619.25
492.963	1569.25
493.18	1625.25
493.398	1727.25
493.615	1666.25
493.833	1642.25
494.05	1553.25
494.268	1577.25
494.485	1565.25
494.703	1563.25
494.92	1531.25
495.138	1570.25
495.355	1588.25
495.573	1656.25
495.79	1702.25
496.008	1731.25
496.225	1607.25
496.442	1614.25
496.66	1617.25
496.877	1623.25
497.094	1661.25
497.312	1654.25
497.529	1612.25
497.746	1654.25
497.963	1855.25
498.181	1984.25
498.398	1951.25
498.615	1870.25
498.832	1815.25
499.049	1747.25
499.267	1786.25
499.484	1862.25
499.701	2075.25
499.918	2069.25
500.135	2261.25
500.352	2372.25
500.569	2382.25
500.786	2594.25
501.003	2343.25
501.22	2144.25
501.437	2101.25
501.654	2089.25
501.871	2024.25
502.088	1753.25
502.305	1816.25
502.522	1724.25
502.739	1637.25
502.956	1564.25
503.172	1559.25
503.389	1501.25
503.606	1522.25
503.823	1552.25
504.04	1503.25
504.256	1495.25
504.473	1496.25
504.69	1528.25
504.907	1435.25
505.123	1448.25
505.34	1590.25
505.557	2062.25
505.773	1670.25
505.99	1446.25
506.207	1320.25
506.423	1309.25
506.64	1305.25
506.856	1311.25
507.073	1503.25
507.289	1620.25
507.506	1534.25
507.722	1261.25
507.939	1263.25
508.155	1258.25
508.372	1272.25
508.588	1245.25
508.805	1172.25
509.021	1176.25
509.238	1157.25
509.454	1150.25
509.67	1147.25
509.887	1146.25
510.103	1143.25
510.319	1182.25
510.536	1199.25
510.752	1247.25
510.968	1242.25
511.184	1315.25
511.401	1283.25
511.617	1151.25
511.833	1111.25
512.049	1138.25
512.265	1085.25
512.481	1102.25
512.698	1169.25
512.914	1227.25
513.13	1167.25
513.346	1117.25
513.562	1105.25
513.778	1123.25
513.994	1178.25
514.21	1179.25
514.426	1203.25
514.642	1350.25
514.858	1262.25
515.074	1160.25
515.29	1137.25
515.506	1153.25
515.721	1182.25
515.937	1220.25
516.153	1321.25
516.369	1240.25
516.585	1197.25
516.801	1167.25
517.016	1178.25
517.232	1230.25
517.448	1225.25
517.664	1242.25
517.879	1235.25
518.095	1277.25
518.311	1235.25
518.527	1193.25
518.742	1141.25
518.958	1128.25
519.173	1143.25
519.389	1161.25
519.605	1196.25
519.82	1207.25
520.036	1190.25
520.251	1160.25
520.467	1174.25
520.682	1285.25
520.898	1241.25
521.113	1166.25
521.329	1118.25
521.544	1188.25
521.76	1144.25
521.975	1107.25
522.19	1087.25
522.406	1134.25
522.621	1403.25
522.836	1321.25
523.052	1108.25
523.267	1094.25
523.482	1136.25
523.698	1083.25
523.913	1055.25
524.128	1109.25
524.343	1160.25
524.559	1190.25
524.774	1120.25
524.989	1097.25
525.204	1089.25
525.419	1056.25
525.634	1088.25
525.849	1070.25
526.064	1057.25
526.28	1099.25
526.495	1042.25
526.71	1006.25
526.925	995.25
527.14	992.25
527.355	989.25
527.57	976.25
527.785	1026.25
527.999	998.25
528.214	997.25
528.429	985.25
528.644	1052.25
528.859	1065.25
529.074	1097.25
529.289	1125.25
529.503	1123.25
529.718	1096.25
529.933	1009.25
530.148	995.25
530.363	976.25
530.577	988.25
530.792	999.25
531.007	1003.25
531.221	989.25
531.436	1001.25
531.651	1030.25
531.865	1095.25
532.08	1015.25
532.295	970.25
532.509	956.25
532.724	989.25
532.938	1020.25
533.153	1071.25
533.367	1063.25
533.582	1035.25
533.796	1034.25
534.011	1048.25
534.225	996.25
534.44	962.25
534.654	967.25
534.868	981.25
535.083	1049.25
535.297	1028.25
535.511	991.25
535.726	985.25
535.94	986.25
536.154	987.25
536.369	974.25
536.583	966.25
536.797	954.25
537.011	966.25
537.225	932.25
537.44	920.25
537.654	999.25
537.868	947.25
538.082	897.25
538.296	887.25
538.51	925.25
538.724	933.25
538.938	960.25
539.153	992.25
539.367	993.25
539.581	964.25
539.795	992.25
540.009	973.25
540.222	965.25
540.436	978.25
540.65	1062.25
540.864	1078.25
541.078	1053.25
541.292	1023.25
541.506	1092.25
541.72	1105.25
541.934	1123.25
542.147	1193.25
542.361	1138.25
542.575	1075.25
542.789	1033.25
543.002	971.25
543.216	984.25
543.43	1020.25
543.644	1113.25
543.857	1129.25
544.071	1128.25
544.285	1111.25
544.498	1108.25
544.712	1065.25
544.925	1104.25
545.139	1133.25
545.352	1093.25
545.566	1037.25
545.779	1065.25
545.993	1097.25
546.206	1123.25
546.42	1052.25
546.633	1050.25
546.847	1044.25
547.06	1061.25
547.274	1095.25
547.487	1096.25
547.7	1090.25
547.914	1074.25
548.127	1077.25
548.34	1073.25
548.554	1085.25
548.767	1082.25
548.98	1070.25
549.193	1086.25
549.407	1115.25
549.62	1122.25
549.833	1062.25
550.046	1055.25
550.259	1062.25
550.473	1035.25
550.686	1030.25
550.899	1000.25
551.112	1001.25
551.325	986.25
551.538	1035.25
551.751	1146.25
551.964	919.25
552.177	908.25
552.39	978.25
552.603	1018.25
552.816	1027.25
553.029	1064.25
553.242	1074.25
553.455	1048.25
553.667	1026.25
553.88	1066.25
554.093	1034.25
554.306	1036.25
554.519	985.25
554.732	934.25
554.944	963.25
555.157	975.25
555.37	958.25
555.583	967.25
555.795	928.25
556.008	921.25
556.221	877.25
556.433	872.25
556.646	889.25
556.859	869.25
557.071	858.25
557.284	872.25
557.496	882.25
557.709	881.25
557.921	861.25
558.134	861.25
558.346	866.25
558.559	864.25
558.771	842.25
558.984	842.25
559.196	834.25
559.409	842.25
559.621	820.25
559.833	834.25
560.046	834.25
560.258	825.25
560.47	815.25
560.683	806.25
560.895	791.25
561.107	834.25
561.32	861.25
561.532	822.25
561.744	831.25
561.956	826.25
562.168	807.25
562.381	781.25
562.593	809.25
562.805	808.25
563.017	783.25
563.229	787.25
563.441	819.25
563.653	781.25
563.865	789.25
564.077	766.25
564.289	755.25
564.501	790.25
564.713	810.25
564.925	808.25
565.137	900.25
565.349	825.25
565.561	829.25
565.773	803.25
565.985	809.25
566.197	870.25
566.408	892.25
566.62	911.25
566.832	893.25
567.044	930.25
567.255	918.25
567.467	893.25
567.679	927.25
567.891	938.25
568.102	888.25
568.314	857.25
568.526	817.25
568.737	768.25
568.949	735.25
569.161	694.25
569.372	712.25
569.584	679.25
569.795	672.25
570.007	704.25
570.218	629.25
570.43	633.25
570.641	663.25
570.853	657.25
571.064	673.25
571.276	638.25
571.487	647.25
571.698	650.25
571.91	647.25
572.121	623.25
572.333	627.25
572.544	612.25
572.755	584.25
572.966	602.25
573.178	573.25
573.389	569.25
573.6	590.25
573.811	670.25
574.023	584.25
574.234	581.25
574.445	566.25
574.656	581.25
574.867	538.25
575.078	564.25
575.289	566.25
575.501	573.25
575.712	547.25
575.923	567.25
576.134	555.25
576.345	546.25
576.556	545.25
576.767	570.25
576.978	533.25
577.188	534.25
577.399	498.25
577.61	516.25
577.821	518.25
578.032	520.25
578.243	527.25
578.454	533.25
578.665	516.25
578.875	490.25
579.086	483.25
579.297	513.25
579.508	505.25
579.718	512.25
579.929	500.25
580.14	483.25
580.35	485.25
580.561	522.25
580.772	541.25
580.982	500.25
581.193	485.25
581.403	513.25
581.614	489.25
581.825	484.25
582.035	475.25
582.246	495.25
582.456	518.25
582.667	497.25
582.877	489.25
583.087	473.25
583.298	477.25
583.508	476.25
583.719	467.25
583.929	484.25
584.139	460.25
584.35	451.25
584.56	456.25
584.77	469.25
584.981	459.25
585.191	498.25
585.401	495.25
585.611	480.25
585.821	477.25
586.032	466.25
586.242	460.25
586.452	454.25
586.662	449.25
586.872	447.25
587.082	448.25
587.292	472.25
587.502	446.25
587.713	467.25
587.923	450.25
588.133	463.25
588.343	451.25
588.553	478.25
588.762	443.25
588.972	448.25
589.182	470.25
589.392	461.25
589.602	465.25
589.812	440.25
590.022	450.25
590.232	438.25
590.441	445.25
590.651	434.25
590.861	456.25
591.071	462.25
591.281	440.25
591.49	436.25
591.7	434.25
591.91	451.25
592.119	428.25
592.329	454.25
592.539	460.25
592.748	458.25
592.958	473.25
593.167	484.25
593.377	489.25
593.587	473.25
593.796	448.25
594.006	450.25
594.215	463.25
594.424	470.25
594.634	477.25
594.843	451.25
595.053	458.25
595.262	450.25
595.472	456.25
595.681	434.25
595.89	450.25
596.1	416.25
596.309	442.25
596.518	433.25
596.727	431.25
596.937	442.25
597.146	409.25
597.355	418.25
597.564	429.25
597.774	391.25
597.983	411.25
598.192	404.25
598.401	394.25
598.61	410.25
598.819	384.25
599.028	400.25
599.237	417.25
599.446	398.25
599.655	395.25
599.864	403.25
600.073	390.25
600.282	401.25
600.491	384.25
600.7	398.25
600.909	377.25
601.118	384.25
601.327	395.25
601.536	407.25
601.745	405.25
601.953	405.25
602.162	429.25
602.371	430.25
602.58	423.25
602.789	419.25
602.997	402.25
603.206	403.25
603.415	400.25
603.623	425.25
603.832	399.25
604.041	399.25
604.249	384.25
604.458	376.25
604.666	371.25
604.875	382.25
605.084	389.25
605.292	405.25
605.501	403.25
605.709	406.25
605.918	410.25
606.126	407.25
606.334	417.25
606.543	422.25
606.751	397.25
606.96	407.25
607.168	403.25
607.376	378.25
607.585	393.25
607.793	402.25
608.001	395.25
608.21	388.25
608.418	405.25
608.626	403.25
608.834	394.25
609.043	393.25
609.251	384.25
609.459	400.25
609.667	401.25
609.875	390.25
610.083	414.25
610.291	434.25
610.499	407.25
610.707	393.25
610.916	400.25
611.124	408.25
611.332	406.25
611.54	401.25
611.748	403.25
611.955	413.25
612.163	415.25
612.371	374.25
612.579	394.25
612.787	368.25
612.995	407.25
613.203	406.25
613.411	394.25
613.618	378.25
613.826	395.25
614.034	402.25
614.242	376.25
614.449	386.25
614.657	379.25
614.865	389.25
615.072	405.25
615.28	400.25
615.488	396.25
615.695	411.25
615.903	407.25
616.111	389.25
616.318	393.25
616.526	407.25
616.733	408.25
616.941	384.25
617.148	393.25
617.356	379.25
617.563	402.25
617.771	391.25
617.978	372.25
618.185	374.25
618.393	375.25
618.6	396.25
618.807	395.25
619.015	384.25
619.222	367.25
619.429	374.25
619.637	363.25
619.844	348.25
620.051	343.25
620.258	343.25
620.466	349.25
620.673	355.25
620.88	342.25
621.087	339.25
621.294	334.25
621.501	339.25
621.708	332.25
621.915	356.25
622.122	358.25
622.329	356.25
622.536	359.25
622.743	365.25
622.95	331.25
623.157	347.25
623.364	358.25
623.571	363.25
623.778	354.25
623.985	341.25
624.192	344.25
624.399	348.25
624.606	342.25
624.812	337.25
625.019	331.25
625.226	323.25
625.433	338.25
625.639	330.25
625.846	309.25
626.053	311.25
626.259	320.25
626.466	281.25
626.673	298.25
626.879	294.25
627.086	306.25
627.293	305.25
627.499	336.25
627.706	325.25
627.912	318.25
628.119	333.25
628.325	325.25
628.532	311.25
628.738	318.25
628.945	322.25
629.151	319.25
629.357	306.25
629.564	306.25
629.77	319.25
629.976	303.25
630.183	277.25
630.389	310.25
630.595	307.25
630.802	295.25
631.008	309.25
631.214	314.25
631.42	294.25
631.627	293.25
631.833	278.25
632.039	291.25
632.245	296.25
632.451	290.25
632.657	295.25
632.863	293.25
633.069	314.25
633.275	294.25
633.481	272.25
633.688	281.25
633.893	286.25
634.099	271.25
634.305	273.25
634.511	267.25
634.717	268.25
634.923	259.25
635.129	274.25
635.335	271.25
635.541	271.25
635.747	278.25
635.952	282.25
636.158	275.25
636.364	255.25
636.57	270.25
636.775	294.25
636.981	285.25
637.187	288.25
637.392	289.25
637.598	275.25
637.804	271.25
638.009	289.25
638.215	295.25
638.421	289.25
638.626	266.25
638.832	257.25
639.037	266.25
639.243	261.25
639.448	271.25
639.654	274.25
639.859	251.25
640.065	275.25
640.27	283.25
640.475	266.25
640.681	274.25
640.886	271.25
641.091	254.25
641.297	278.25
641.502	268.25
641.707	271.25
641.913	285.25
642.118	281.25
642.323	251.25
642.528	267.25
642.733	280.25
642.939	278.25
643.144	277.25
643.349	253.25
643.554	262.25
643.759	263.25
643.964	244.25
644.169	255.25
644.374	241.25
644.579	260.25
644.784	255.25
644.989	257.25
645.194	256.25
645.399	261.25
645.604	258.25
645.809	255.25
646.014	246.25
646.219	258.25
646.423	264.25
646.628	262.25
646.833	267.25
647.038	261.25
647.243	257.25
647.447	253.25
647.652	247.25
647.857	245.25
648.062	265.25
648.266	243.25
648.471	268.25
648.676	258.25
648.88	245.25
649.085	245.25
649.289	238.25
649.494	253.25
649.698	243.25
649.903	259.25
650.107	253.25
650.312	255.25
650.516	257.25
650.721	251.25
650.925	237.25
651.13	233.25
651.334	242.25
651.539	231.25
651.743	239.25
651.947	230.25
652.152	232.25
652.356	224.25
652.56	225.25
652.764	226.25
652.969	223.25
653.173	228.25
653.377	235.25
653.581	224.25
653.785	215.25
653.99	230.25
654.194	203.25
654.398	225.25
654.602	200.25
654.806	181.25
655.01	213.25
655.214	208.25
655.418	222.25
655.622	240.25
655.826	217.25
656.03	241.25
656.234	244.25
656.438	242.25
656.642	271.25
656.846	241.25
657.049	229.25
657.253	211.25
657.457	203.25
657.661	185.25
657.865	179.25
658.068	165.25
658.272	172.25
658.476	162.25
658.68	158.25
658.883	149.25
659.087	150.25
659.291	155.25
659.494	131.25
659.698	128.25
659.901	135.25
660.105	124.25
660.309	120.25
660.512	114.25
660.716	117.25
660.919	117.25
661.123	105.25
661.326	124.25
661.53	107.25
661.733	115.25
661.936	106.25
662.14	109.25
662.343	84.25
662.546	92.25
662.75	79.25
662.953	100.25
663.156	96.25
663.36	109.25
663.563	86.25
663.766	88.25
663.969	87.25
664.173	85.25
664.376	74.25
664.579	97.25
664.782	91.25
664.985	87.25
665.188	85.25
665.391	90.25
665.594	91.25
665.797	82.25
666	75.25
666.203	83.25
666.406	88.25
666.609	83.25
666.812	90.25
667.015	66.25
667.218	75.25
667.421	85.25
667.624	75.25
667.827	89.25
668.03	73.25
668.232	74.25
668.435	80.25
668.638	95.25
668.841	85.25
669.043	71.25
669.246	86.25
669.449	80.25
669.651	86.25
669.854	74.25
670.057	85.25
670.259	74.25
670.462	72.25
670.665	90.25
670.867	74.25
671.07	72.25
671.272	79.25
671.475	86.25
671.677	84.25
671.88	78.25
672.082	83.25
672.284	78.25
672.487	70.25
672.689	79.25
672.892	82.25
