Data from WStandard_LampEnergy8_LIBS07252019.E.O._I.C._HRD10591_15-58-03-928.txt Node
Date: Thu Jul 25 15:58:03 EDT 2019
User: cochatt
Spectrometer: HR+D1059
Trigger mode: 1
Integration Time (sec): 1.000000E-1
Scans to average: 1
Electric dark correction enabled: true
Nonlinearity correction enabled: false
Boxcar width: 0
XAxis mode: Wavelengths
Number of Pixels in Spectrum: 2048
>>>>>Begin Spectral Data<<<<<
223.165	-21.5
223.4	-21.5
223.635	-21.5
223.869	-25.5
224.104	-16.5
224.338	-7.5
224.573	-1.5
224.808	-19.5
225.042	-18.5
225.277	4.5
225.511	0.5
225.746	8.5
225.98	-2.5
226.215	3.5
226.449	25.5
226.683	17.5
226.918	32.5
227.152	20.5
227.387	32.5
227.621	42.5
227.856	46.5
228.09	39.5
228.324	42.5
228.559	63.5
228.793	107.5
229.027	200.5
229.262	208.5
229.496	209.5
229.73	233.5
229.964	252.5
230.199	262.5
230.433	272.5
230.667	284.5
230.901	296.5
231.136	273.5
231.37	261.5
231.604	271.5
231.838	250.5
232.072	257.5
232.306	278.5
232.541	275.5
232.775	297.5
233.009	344.5
233.243	330.5
233.477	285.5
233.711	301.5
233.945	312.5
234.179	319.5
234.413	333.5
234.647	340.5
234.881	329.5
235.115	301.5
235.349	290.5
235.583	294.5
235.817	303.5
236.051	292.5
236.285	300.5
236.519	341.5
236.753	364.5
236.987	376.5
237.221	378.5
237.455	398.5
237.689	373.5
237.922	348.5
238.156	353.5
238.39	352.5
238.624	383.5
238.858	402.5
239.091	388.5
239.325	429.5
239.559	493.5
239.793	519.5
240.027	524.5
240.26	525.5
240.494	396.5
240.728	375.5
240.961	398.5
241.195	378.5
241.429	432.5
241.662	438.5
241.896	413.5
242.13	393.5
242.363	440.5
242.597	457.5
242.83	466.5
243.064	478.5
243.298	476.5
243.531	467.5
243.765	459.5
243.998	489.5
244.232	417.5
244.465	417.5
244.699	438.5
244.932	468.5
245.166	528.5
245.399	501.5
245.633	448.5
245.866	472.5
246.099	495.5
246.333	496.5
246.566	490.5
246.8	544.5
247.033	605.5
247.266	557.5
247.5	529.5
247.733	540.5
247.966	578.5
248.2	636.5
248.433	597.5
248.666	619.5
248.899	681.5
249.133	791.5
249.366	874.5
249.599	693.5
249.832	627.5
250.066	636.5
250.299	649.5
250.532	588.5
250.765	536.5
250.998	592.5
251.231	607.5
251.465	629.5
251.698	605.5
251.931	604.5
252.164	629.5
252.397	622.5
252.63	619.5
252.863	556.5
253.096	565.5
253.329	589.5
253.562	580.5
253.795	658.5
254.028	624.5
254.261	561.5
254.494	589.5
254.727	584.5
254.96	598.5
255.193	660.5
255.426	738.5
255.659	843.5
255.892	810.5
256.124	665.5
256.357	652.5
256.59	715.5
256.823	738.5
257.056	748.5
257.289	859.5
257.521	920.5
257.754	830.5
257.987	813.5
258.22	868.5
258.452	824.5
258.685	691.5
258.918	704.5
259.151	685.5
259.383	675.5
259.616	590.5
259.849	636.5
260.081	707.5
260.314	787.5
260.547	820.5
260.779	842.5
261.012	789.5
261.244	724.5
261.477	682.5
261.71	707.5
261.942	683.5
262.175	662.5
262.407	715.5
262.64	681.5
262.872	659.5
263.105	642.5
263.337	653.5
263.57	639.5
263.802	658.5
264.035	647.5
264.267	570.5
264.499	570.5
264.732	638.5
264.964	639.5
265.197	678.5
265.429	724.5
265.661	808.5
265.894	865.5
266.126	902.5
266.358	826.5
266.591	843.5
266.823	891.5
267.055	786.5
267.287	795.5
267.52	796.5
267.752	759.5
267.984	770.5
268.216	827.5
268.448	837.5
268.681	810.5
268.913	740.5
269.145	724.5
269.377	743.5
269.609	776.5
269.841	901.5
270.073	1000.5
270.306	1137.5
270.538	1154.5
270.77	978.5
271.002	854.5
271.234	818.5
271.466	835.5
271.698	968.5
271.93	1072.5
272.162	1063.5
272.394	978.5
272.626	922.5
272.858	834.5
273.09	743.5
273.322	745.5
273.553	701.5
273.785	698.5
274.017	721.5
274.249	751.5
274.481	756.5
274.713	710.5
274.945	717.5
275.176	714.5
275.408	702.5
275.64	716.5
275.872	706.5
276.104	743.5
276.335	861.5
276.567	950.5
276.799	940.5
277.031	859.5
277.262	820.5
277.494	873.5
277.726	950.5
277.957	907.5
278.189	852.5
278.421	773.5
278.652	767.5
278.884	746.5
279.115	743.5
279.347	757.5
279.579	758.5
279.81	767.5
280.042	843.5
280.273	900.5
280.505	896.5
280.736	897.5
280.968	860.5
281.199	749.5
281.431	706.5
281.662	738.5
281.894	723.5
282.125	761.5
282.356	827.5
282.588	774.5
282.819	782.5
283.051	843.5
283.282	899.5
283.513	864.5
283.745	791.5
283.976	723.5
284.207	744.5
284.439	792.5
284.67	772.5
284.901	807.5
285.132	790.5
285.364	793.5
285.595	781.5
285.826	817.5
286.057	772.5
286.288	793.5
286.52	811.5
286.751	866.5
286.982	871.5
287.213	802.5
287.444	788.5
287.675	743.5
287.906	807.5
288.138	853.5
288.369	794.5
288.6	765.5
288.831	739.5
289.062	756.5
289.293	769.5
289.524	792.5
289.755	812.5
289.986	817.5
290.217	745.5
290.448	776.5
290.679	784.5
290.91	816.5
291.141	827.5
291.371	848.5
291.602	807.5
291.833	828.5
292.064	824.5
292.295	840.5
292.526	859.5
292.757	870.5
292.987	828.5
293.218	824.5
293.449	917.5
293.68	987.5
293.91	1044.5
294.141	950.5
294.372	925.5
294.603	958.5
294.833	1001.5
295.064	925.5
295.295	823.5
295.525	816.5
295.756	773.5
295.987	733.5
296.217	759.5
296.448	802.5
296.679	790.5
296.909	786.5
297.14	771.5
297.37	783.5
297.601	860.5
297.831	921.5
298.062	907.5
298.292	804.5
298.523	782.5
298.753	809.5
298.984	794.5
299.214	806.5
299.445	831.5
299.675	863.5
299.905	851.5
300.136	834.5
300.366	835.5
300.597	774.5
300.827	759.5
301.057	830.5
301.288	867.5
301.518	856.5
301.748	902.5
301.979	920.5
302.209	947.5
302.439	992.5
302.669	1018.5
302.9	948.5
303.13	874.5
303.36	872.5
303.59	880.5
303.82	889.5
304.051	875.5
304.281	846.5
304.511	885.5
304.741	948.5
304.971	1059.5
305.201	1072.5
305.431	981.5
305.661	820.5
305.891	764.5
306.121	789.5
306.352	797.5
306.582	853.5
306.812	913.5
307.042	965.5
307.272	996.5
307.502	1024.5
307.731	1082.5
307.961	1089.5
308.191	1030.5
308.421	908.5
308.651	834.5
308.881	859.5
309.111	839.5
309.341	844.5
309.571	826.5
309.8	837.5
310.03	830.5
310.26	825.5
310.49	830.5
310.72	858.5
310.949	900.5
311.179	904.5
311.409	863.5
311.639	838.5
311.868	842.5
312.098	883.5
312.328	856.5
312.557	831.5
312.787	836.5
313.017	910.5
313.246	895.5
313.476	896.5
313.706	886.5
313.935	892.5
314.165	926.5
314.394	938.5
314.624	1002.5
314.853	1029.5
315.083	1052.5
315.312	1076.5
315.542	998.5
315.771	928.5
316.001	941.5
316.23	965.5
316.46	950.5
316.689	943.5
316.919	890.5
317.148	881.5
317.377	893.5
317.607	986.5
317.836	1089.5
318.065	1132.5
318.295	1057.5
318.524	1005.5
318.753	959.5
318.983	971.5
319.212	925.5
319.441	906.5
319.67	894.5
319.9	928.5
320.129	1024.5
320.358	1037.5
320.587	1056.5
320.816	1045.5
321.046	1005.5
321.275	950.5
321.504	1011.5
321.733	1090.5
321.962	1003.5
322.191	931.5
322.42	946.5
322.649	930.5
322.878	920.5
323.108	916.5
323.337	1004.5
323.566	959.5
323.795	963.5
324.024	984.5
324.253	924.5
324.482	963.5
324.71	929.5
324.939	865.5
325.168	914.5
325.397	950.5
325.626	948.5
325.855	949.5
326.084	932.5
326.313	944.5
326.542	960.5
326.77	989.5
326.999	973.5
327.228	940.5
327.457	898.5
327.686	865.5
327.914	893.5
328.143	928.5
328.372	946.5
328.6	936.5
328.829	941.5
329.058	937.5
329.287	941.5
329.515	929.5
329.744	958.5
329.972	1014.5
330.201	1037.5
330.43	1024.5
330.658	992.5
330.887	994.5
331.115	987.5
331.344	1009.5
331.572	948.5
331.801	972.5
332.03	970.5
332.258	997.5
332.486	986.5
332.715	1012.5
332.943	1001.5
333.172	993.5
333.4	1011.5
333.629	1040.5
333.857	1139.5
334.085	1231.5
334.314	1404.5
334.542	1464.5
334.771	1335.5
334.999	1154.5
335.227	1081.5
335.455	1081.5
335.684	1037.5
335.912	1065.5
336.14	1128.5
336.369	1063.5
336.597	1018.5
336.825	997.5
337.053	1056.5
337.281	1116.5
337.51	1159.5
337.738	1180.5
337.966	1099.5
338.194	1012.5
338.422	1009.5
338.65	1000.5
338.878	956.5
339.106	979.5
339.334	905.5
339.562	921.5
339.79	953.5
340.018	1010.5
340.246	1064.5
340.474	1062.5
340.702	1015.5
340.93	1067.5
341.158	1024.5
341.386	989.5
341.614	1000.5
341.842	976.5
342.07	1000.5
342.298	1030.5
342.526	1002.5
342.754	1001.5
342.981	1002.5
343.209	980.5
343.437	973.5
343.665	974.5
343.893	1032.5
344.12	1040.5
344.348	1072.5
344.576	1010.5
344.804	990.5
345.031	988.5
345.259	970.5
345.487	968.5
345.714	927.5
345.942	875.5
346.17	947.5
346.397	958.5
346.625	917.5
346.853	876.5
347.08	906.5
347.308	896.5
347.535	928.5
347.763	975.5
347.99	952.5
348.218	886.5
348.445	903.5
348.673	917.5
348.9	966.5
349.128	1011.5
349.355	1030.5
349.583	989.5
349.81	942.5
350.037	860.5
350.265	860.5
350.492	893.5
350.72	921.5
350.947	966.5
351.174	952.5
351.402	880.5
351.629	862.5
351.856	855.5
352.083	858.5
352.311	883.5
352.538	908.5
352.765	933.5
352.992	970.5
353.22	929.5
353.447	886.5
353.674	924.5
353.901	925.5
354.128	940.5
354.355	906.5
354.583	944.5
354.81	940.5
355.037	958.5
355.264	952.5
355.491	902.5
355.718	955.5
355.945	933.5
356.172	889.5
356.399	875.5
356.626	888.5
356.853	939.5
357.08	1048.5
357.307	1117.5
357.534	1068.5
357.761	944.5
357.988	900.5
358.215	867.5
358.441	916.5
358.668	883.5
358.895	917.5
359.122	1015.5
359.349	1056.5
359.576	1007.5
359.802	934.5
360.029	889.5
360.256	896.5
360.483	916.5
360.709	926.5
360.936	989.5
361.163	1045.5
361.39	1134.5
361.616	1165.5
361.843	1117.5
362.07	1040.5
362.296	958.5
362.523	894.5
362.749	918.5
362.976	948.5
363.203	953.5
363.429	922.5
363.656	893.5
363.882	919.5
364.109	1042.5
364.335	1110.5
364.562	1041.5
364.788	984.5
365.015	950.5
365.241	906.5
365.468	932.5
365.694	982.5
365.92	996.5
366.147	939.5
366.373	893.5
366.599	914.5
366.826	908.5
367.052	912.5
367.278	930.5
367.505	955.5
367.731	937.5
367.957	952.5
368.184	1008.5
368.41	1076.5
368.636	1079.5
368.862	1059.5
369.089	1066.5
369.315	1037.5
369.541	972.5
369.767	946.5
369.993	922.5
370.219	907.5
370.445	969.5
370.672	1038.5
370.898	1068.5
371.124	1051.5
371.35	992.5
371.576	1010.5
371.802	1044.5
372.028	1000.5
372.254	956.5
372.48	934.5
372.706	923.5
372.932	968.5
373.158	948.5
373.384	973.5
373.61	1033.5
373.835	1036.5
374.061	997.5
374.287	981.5
374.513	1006.5
374.739	1000.5
374.965	1000.5
375.191	1009.5
375.416	1052.5
375.642	996.5
375.868	1085.5
376.094	1144.5
376.319	1066.5
376.545	1001.5
376.771	1037.5
376.997	1076.5
377.222	1070.5
377.448	1050.5
377.674	1052.5
377.899	1052.5
378.125	1113.5
378.35	1080.5
378.576	971.5
378.802	952.5
379.027	947.5
379.253	973.5
379.478	974.5
379.704	979.5
379.929	964.5
380.155	1027.5
380.38	1015.5
380.606	1008.5
380.831	996.5
381.057	1100.5
381.282	1076.5
381.507	1075.5
381.733	1146.5
381.958	1149.5
382.184	1051.5
382.409	1052.5
382.634	1060.5
382.86	1027.5
383.085	1020.5
383.31	1066.5
383.535	1159.5
383.761	1231.5
383.986	1170.5
384.211	1101.5
384.436	1124.5
384.662	1164.5
384.887	1184.5
385.112	1124.5
385.337	1105.5
385.562	1125.5
385.787	1101.5
386.013	1138.5
386.238	1170.5
386.463	1175.5
386.688	1247.5
386.913	1302.5
387.138	1248.5
387.363	1151.5
387.588	1165.5
387.813	1165.5
388.038	1204.5
388.263	1234.5
388.488	1170.5
388.713	1059.5
388.938	1090.5
389.163	1083.5
389.387	1094.5
389.612	1124.5
389.837	1139.5
390.062	1134.5
390.287	1146.5
390.512	1133.5
390.736	1120.5
390.961	1080.5
391.186	1099.5
391.411	1088.5
391.636	1131.5
391.86	1130.5
392.085	1108.5
392.31	1110.5
392.534	1143.5
392.759	1162.5
392.984	1127.5
393.208	1147.5
393.433	1176.5
393.658	1265.5
393.882	1216.5
394.107	1160.5
394.331	1140.5
394.556	1140.5
394.78	1160.5
395.005	1196.5
395.229	1236.5
395.454	1303.5
395.678	1292.5
395.903	1217.5
396.127	1216.5
396.352	1207.5
396.576	1283.5
396.801	1292.5
397.025	1234.5
397.249	1252.5
397.474	1228.5
397.698	1206.5
397.922	1286.5
398.147	1321.5
398.371	1401.5
398.595	1320.5
398.82	1305.5
399.044	1329.5
399.268	1414.5
399.492	1460.5
399.717	1464.5
399.941	1491.5
400.165	1467.5
400.389	1426.5
400.613	1436.5
400.837	1650.5
401.062	1773.5
401.286	1541.5
401.51	1424.5
401.734	1460.5
401.958	1405.5
402.182	1317.5
402.406	1286.5
402.63	1256.5
402.854	1271.5
403.078	1311.5
403.302	1309.5
403.526	1317.5
403.75	1366.5
403.974	1366.5
404.198	1315.5
404.422	1377.5
404.645	1490.5
404.869	1412.5
405.093	1311.5
405.317	1291.5
405.541	1308.5
405.765	1343.5
405.988	1346.5
406.212	1376.5
406.436	1420.5
406.66	1458.5
406.883	1468.5
407.107	1673.5
407.331	1806.5
407.555	1914.5
407.778	1658.5
408.002	1418.5
408.226	1421.5
408.449	1411.5
408.673	1343.5
408.896	1374.5
409.12	1395.5
409.344	1356.5
409.567	1336.5
409.791	1325.5
410.014	1386.5
410.238	1462.5
410.461	1516.5
410.685	1369.5
410.908	1342.5
411.132	1332.5
411.355	1308.5
411.578	1314.5
411.802	1345.5
412.025	1346.5
412.249	1307.5
412.472	1304.5
412.695	1288.5
412.919	1306.5
413.142	1287.5
413.365	1319.5
413.589	1326.5
413.812	1405.5
414.035	1452.5
414.258	1289.5
414.482	1294.5
414.705	1325.5
414.928	1273.5
415.151	1312.5
415.374	1314.5
415.597	1337.5
415.821	1339.5
416.044	1335.5
416.267	1330.5
416.49	1284.5
416.713	1269.5
416.936	1312.5
417.159	1402.5
417.382	1385.5
417.605	1270.5
417.828	1329.5
418.051	1333.5
418.274	1292.5
418.497	1279.5
418.72	1284.5
418.943	1260.5
419.166	1323.5
419.389	1362.5
419.611	1323.5
419.834	1309.5
420.057	1320.5
420.28	1301.5
420.503	1277.5
420.726	1345.5
420.948	1315.5
421.171	1272.5
421.394	1296.5
421.617	1324.5
421.839	1358.5
422.062	1330.5
422.285	1237.5
422.507	1280.5
422.73	1239.5
422.953	1225.5
423.175	1227.5
423.398	1241.5
423.621	1235.5
423.843	1254.5
424.066	1340.5
424.288	1357.5
424.511	1429.5
424.733	1318.5
424.956	1245.5
425.178	1267.5
425.401	1244.5
425.623	1272.5
425.846	1239.5
426.068	1332.5
426.291	1328.5
426.513	1347.5
426.735	1360.5
426.958	1405.5
427.18	1479.5
427.402	1349.5
427.625	1373.5
427.847	1380.5
428.069	1269.5
428.292	1274.5
428.514	1240.5
428.736	1233.5
428.958	1254.5
429.181	1271.5
429.403	1478.5
429.625	1802.5
429.847	1472.5
430.069	1313.5
430.292	1473.5
430.514	1444.5
430.736	1357.5
430.958	1371.5
431.18	1290.5
431.402	1214.5
431.624	1210.5
431.846	1190.5
432.068	1141.5
432.29	1093.5
432.512	1190.5
432.734	1244.5
432.956	1326.5
433.178	1329.5
433.4	1334.5
433.622	1275.5
433.844	1255.5
434.066	1171.5
434.287	1128.5
434.509	1200.5
434.731	1266.5
434.953	1366.5
435.175	1317.5
435.397	1308.5
435.618	1266.5
435.84	1221.5
436.062	1220.5
436.284	1262.5
436.505	1286.5
436.727	1308.5
436.949	1264.5
437.17	1233.5
437.392	1213.5
437.614	1216.5
437.835	1174.5
438.057	1220.5
438.278	1253.5
438.5	1209.5
438.721	1247.5
438.943	1241.5
439.165	1250.5
439.386	1231.5
439.608	1266.5
439.829	1245.5
440.05	1267.5
440.272	1243.5
440.493	1230.5
440.715	1273.5
440.936	1358.5
441.158	1439.5
441.379	1398.5
441.6	1355.5
441.822	1357.5
442.043	1330.5
442.264	1304.5
442.486	1218.5
442.707	1220.5
442.928	1268.5
443.149	1290.5
443.371	1340.5
443.592	1436.5
443.813	1394.5
444.034	1378.5
444.255	1344.5
444.476	1381.5
444.698	1397.5
444.919	1365.5
445.14	1488.5
445.361	1452.5
445.582	1471.5
445.803	1433.5
446.024	1383.5
446.245	1409.5
446.466	1402.5
446.687	1301.5
446.908	1330.5
447.129	1304.5
447.35	1321.5
447.571	1282.5
447.792	1235.5
448.013	1233.5
448.234	1280.5
448.455	1332.5
448.675	1334.5
448.896	1199.5
449.117	1217.5
449.338	1219.5
449.559	1308.5
449.779	1335.5
450	1441.5
450.221	1491.5
450.442	1478.5
450.662	1278.5
450.883	1198.5
451.104	1152.5
451.324	1208.5
451.545	1227.5
451.766	1209.5
451.986	1150.5
452.207	1152.5
452.428	1107.5
452.648	1076.5
452.869	1137.5
453.089	1148.5
453.31	1147.5
453.53	1166.5
453.751	1133.5
453.971	1064.5
454.192	1108.5
454.412	1129.5
454.633	1140.5
454.853	1112.5
455.073	1034.5
455.294	1055.5
455.514	1040.5
455.734	1065.5
455.955	1092.5
456.175	1070.5
456.395	1081.5
456.616	1087.5
456.836	1091.5
457.056	1066.5
457.276	1089.5
457.497	1042.5
457.717	1014.5
457.937	1055.5
458.157	1091.5
458.377	1032.5
458.598	1053.5
458.818	1014.5
459.038	1136.5
459.258	1151.5
459.478	1152.5
459.698	1127.5
459.918	1137.5
460.138	1228.5
460.358	1221.5
460.578	1239.5
460.798	1300.5
461.018	1348.5
461.238	1296.5
461.458	1281.5
461.678	1234.5
461.898	1213.5
462.118	1213.5
462.338	1266.5
462.558	1244.5
462.777	1239.5
462.997	1292.5
463.217	1373.5
463.437	1340.5
463.657	1283.5
463.876	1244.5
464.096	1220.5
464.316	1236.5
464.536	1281.5
464.755	1307.5
464.975	1299.5
465.195	1285.5
465.414	1308.5
465.634	1311.5
465.854	1293.5
466.073	1394.5
466.293	1315.5
466.512	1212.5
466.732	1235.5
466.951	1244.5
467.171	1250.5
467.391	1181.5
467.61	1148.5
467.829	1243.5
468.049	1326.5
468.268	1467.5
468.488	1341.5
468.707	1261.5
468.927	1237.5
469.146	1200.5
469.365	1213.5
469.585	1236.5
469.804	1220.5
470.023	1236.5
470.243	1262.5
470.462	1251.5
470.681	1240.5
470.901	1266.5
471.12	1249.5
471.339	1210.5
471.558	1210.5
471.777	1197.5
471.997	1198.5
472.216	1172.5
472.435	1128.5
472.654	1148.5
472.873	1174.5
473.092	1218.5
473.311	1184.5
473.53	1130.5
473.749	1129.5
473.968	1131.5
474.187	1204.5
474.406	1242.5
474.625	1213.5
474.844	1224.5
475.063	1204.5
475.282	1229.5
475.501	1191.5
475.72	1229.5
475.939	1278.5
476.158	1254.5
476.377	1173.5
476.596	1172.5
476.814	1208.5
477.033	1186.5
477.252	1285.5
477.471	1291.5
477.69	1255.5
477.908	1292.5
478.127	1338.5
478.346	1440.5
478.564	1404.5
478.783	1449.5
479.002	1440.5
479.22	1404.5
479.439	1466.5
479.658	1597.5
479.876	1516.5
480.095	1373.5
480.313	1340.5
480.532	1295.5
480.751	1278.5
480.969	1268.5
481.188	1295.5
481.406	1270.5
481.624	1206.5
481.843	1240.5
482.061	1275.5
482.28	1324.5
482.498	1362.5
482.717	1293.5
482.935	1298.5
483.153	1324.5
483.372	1356.5
483.59	1341.5
483.808	1364.5
484.027	1370.5
484.245	1406.5
484.463	1738.5
484.681	1912.5
484.9	1453.5
485.118	1333.5
485.336	1332.5
485.554	1368.5
485.772	1406.5
485.99	1349.5
486.209	1397.5
486.427	1356.5
486.645	1349.5
486.863	1421.5
487.081	1442.5
487.299	1447.5
487.517	1403.5
487.735	1491.5
487.953	1473.5
488.171	1526.5
488.389	1445.5
488.607	1448.5
488.825	1556.5
489.043	1536.5
489.261	1384.5
489.479	1450.5
489.696	1490.5
489.914	1473.5
490.132	1403.5
490.35	1430.5
490.568	1521.5
490.786	1479.5
491.003	1468.5
491.221	1532.5
491.439	1579.5
491.657	1581.5
491.874	1627.5
492.092	1668.5
492.31	1691.5
492.527	1659.5
492.745	1652.5
492.963	1578.5
493.18	1614.5
493.398	1665.5
493.615	1677.5
493.833	1597.5
494.05	1557.5
494.268	1550.5
494.485	1587.5
494.703	1576.5
494.92	1550.5
495.138	1544.5
495.355	1558.5
495.573	1615.5
495.79	1668.5
496.008	1630.5
496.225	1604.5
496.442	1602.5
496.66	1615.5
496.877	1561.5
497.094	1607.5
497.312	1636.5
497.529	1609.5
497.746	1660.5
497.963	1845.5
498.181	1961.5
498.398	1940.5
498.615	1814.5
498.832	1761.5
499.049	1727.5
499.267	1761.5
499.484	1869.5
499.701	1955.5
499.918	2006.5
500.135	2176.5
500.352	2275.5
500.569	2290.5
500.786	2509.5
501.003	2285.5
501.22	2061.5
501.437	2078.5
501.654	2107.5
501.871	1998.5
502.088	1766.5
502.305	1724.5
502.522	1685.5
502.739	1591.5
502.956	1534.5
503.172	1581.5
503.389	1499.5
503.606	1427.5
503.823	1466.5
504.04	1517.5
504.256	1473.5
504.473	1495.5
504.69	1531.5
504.907	1444.5
505.123	1407.5
505.34	1525.5
505.557	1985.5
505.773	1654.5
505.99	1360.5
506.207	1290.5
506.423	1274.5
506.64	1265.5
506.856	1326.5
507.073	1543.5
507.289	1573.5
507.506	1496.5
507.722	1297.5
507.939	1250.5
508.155	1237.5
508.372	1248.5
508.588	1205.5
508.805	1174.5
509.021	1161.5
509.238	1159.5
509.454	1145.5
509.67	1146.5
509.887	1150.5
510.103	1139.5
510.319	1131.5
510.536	1223.5
510.752	1228.5
510.968	1220.5
511.184	1294.5
511.401	1245.5
511.617	1160.5
511.833	1123.5
512.049	1084.5
512.265	1097.5
512.481	1067.5
512.698	1138.5
512.914	1218.5
513.13	1163.5
513.346	1093.5
513.562	1078.5
513.778	1105.5
513.994	1170.5
514.21	1170.5
514.426	1170.5
514.642	1336.5
514.858	1221.5
515.074	1150.5
515.29	1140.5
515.506	1135.5
515.721	1149.5
515.937	1194.5
516.153	1315.5
516.369	1251.5
516.585	1179.5
516.801	1158.5
517.016	1133.5
517.232	1181.5
517.448	1186.5
517.664	1184.5
517.879	1193.5
518.095	1269.5
518.311	1204.5
518.527	1167.5
518.742	1163.5
518.958	1106.5
519.173	1140.5
519.389	1171.5
519.605	1168.5
519.82	1174.5
520.036	1174.5
520.251	1138.5
520.467	1184.5
520.682	1242.5
520.898	1269.5
521.113	1124.5
521.329	1104.5
521.544	1204.5
521.76	1147.5
521.975	1089.5
522.19	1073.5
522.406	1113.5
522.621	1420.5
522.836	1346.5
523.052	1087.5
523.267	1121.5
523.482	1108.5
523.698	1046.5
523.913	1053.5
524.128	1081.5
524.343	1179.5
524.559	1160.5
524.774	1100.5
524.989	1097.5
525.204	1056.5
525.419	1046.5
525.634	1059.5
525.849	1056.5
526.064	1059.5
526.28	1065.5
526.495	1009.5
526.71	1004.5
526.925	987.5
527.14	1002.5
527.355	956.5
527.57	981.5
527.785	1025.5
527.999	996.5
528.214	986.5
528.429	976.5
528.644	999.5
528.859	1061.5
529.074	1070.5
529.289	1101.5
529.503	1092.5
529.718	1058.5
529.933	1003.5
530.148	972.5
530.363	959.5
530.577	963.5
530.792	978.5
531.007	987.5
531.221	961.5
531.436	998.5
531.651	982.5
531.865	1061.5
532.08	1018.5
532.295	951.5
532.509	919.5
532.724	931.5
532.938	977.5
533.153	1048.5
533.367	1026.5
533.582	1019.5
533.796	1025.5
534.011	998.5
534.225	1009.5
534.44	950.5
534.654	954.5
534.868	981.5
535.083	1008.5
535.297	1021.5
535.511	1030.5
535.726	1012.5
535.94	962.5
536.154	968.5
536.369	954.5
536.583	951.5
536.797	931.5
537.011	970.5
537.225	952.5
537.44	928.5
537.654	983.5
537.868	936.5
538.082	893.5
538.296	880.5
538.51	906.5
538.724	908.5
538.938	947.5
539.153	998.5
539.367	990.5
539.581	953.5
539.795	993.5
540.009	969.5
540.222	941.5
540.436	997.5
540.65	1080.5
540.864	1084.5
541.078	1033.5
541.292	1060.5
541.506	1040.5
541.72	1097.5
541.934	1122.5
542.147	1183.5
542.361	1124.5
542.575	1100.5
542.789	999.5
543.002	1000.5
543.216	994.5
543.43	994.5
543.644	1044.5
543.857	1106.5
544.071	1097.5
544.285	1107.5
544.498	1076.5
544.712	1095.5
544.925	1117.5
545.139	1124.5
545.352	1078.5
545.566	1074.5
545.779	1074.5
545.993	1060.5
546.206	1098.5
546.42	1070.5
546.633	1051.5
546.847	1042.5
547.06	1026.5
547.274	1093.5
547.487	1053.5
547.7	1063.5
547.914	1086.5
548.127	1074.5
548.34	1092.5
548.554	1053.5
548.767	1051.5
548.98	1049.5
549.193	1076.5
549.407	1090.5
549.62	1109.5
549.833	1020.5
550.046	1046.5
550.259	1078.5
550.473	1030.5
550.686	1034.5
550.899	998.5
551.112	986.5
551.325	1005.5
551.538	1038.5
551.751	1150.5
551.964	919.5
552.177	918.5
552.39	963.5
552.603	977.5
552.816	1002.5
553.029	1059.5
553.242	1070.5
553.455	1036.5
553.667	1037.5
553.88	1043.5
554.093	1016.5
554.306	982.5
554.519	958.5
554.732	928.5
554.944	959.5
555.157	961.5
555.37	971.5
555.583	957.5
555.795	916.5
556.008	902.5
556.221	870.5
556.433	876.5
556.646	877.5
556.859	868.5
557.071	864.5
557.284	888.5
557.496	874.5
557.709	833.5
557.921	854.5
558.134	852.5
558.346	894.5
558.559	853.5
558.771	802.5
558.984	819.5
559.196	781.5
559.409	787.5
559.621	814.5
559.833	777.5
560.046	870.5
560.258	827.5
560.47	802.5
560.683	810.5
560.895	808.5
561.107	823.5
561.32	806.5
561.532	819.5
561.744	806.5
561.956	796.5
562.168	775.5
562.381	768.5
562.593	759.5
562.805	786.5
563.017	767.5
563.229	786.5
563.441	808.5
563.653	765.5
563.865	794.5
564.077	789.5
564.289	767.5
564.501	797.5
564.713	818.5
564.925	835.5
565.137	867.5
565.349	815.5
565.561	803.5
565.773	808.5
565.985	822.5
566.197	833.5
566.408	901.5
566.62	898.5
566.832	904.5
567.044	878.5
567.255	893.5
567.467	913.5
567.679	906.5
567.891	907.5
568.102	866.5
568.314	836.5
568.526	802.5
568.737	764.5
568.949	730.5
569.161	722.5
569.372	679.5
569.584	668.5
569.795	665.5
570.007	685.5
570.218	653.5
570.43	636.5
570.641	663.5
570.853	668.5
571.064	665.5
571.276	640.5
571.487	628.5
571.698	633.5
571.91	619.5
572.121	605.5
572.333	604.5
572.544	607.5
572.755	585.5
572.966	596.5
573.178	602.5
573.389	587.5
573.6	603.5
573.811	645.5
574.023	570.5
574.234	597.5
574.445	547.5
574.656	557.5
574.867	553.5
575.078	561.5
575.289	562.5
575.501	564.5
575.712	551.5
575.923	565.5
576.134	566.5
576.345	548.5
576.556	548.5
576.767	537.5
576.978	556.5
577.188	533.5
577.399	520.5
577.61	489.5
577.821	514.5
578.032	490.5
578.243	511.5
578.454	516.5
578.665	515.5
578.875	519.5
579.086	502.5
579.297	489.5
579.508	500.5
579.718	500.5
579.929	488.5
580.14	483.5
580.35	462.5
580.561	480.5
580.772	556.5
580.982	506.5
581.193	503.5
581.403	498.5
581.614	460.5
581.825	477.5
582.035	457.5
582.246	480.5
582.456	493.5
582.667	461.5
582.877	495.5
583.087	451.5
583.298	456.5
583.508	456.5
583.719	462.5
583.929	448.5
584.139	457.5
584.35	442.5
584.56	457.5
584.77	490.5
584.981	469.5
585.191	462.5
585.401	473.5
585.611	464.5
585.821	469.5
586.032	452.5
586.242	448.5
586.452	419.5
586.662	473.5
586.872	449.5
587.082	421.5
587.292	440.5
587.502	473.5
587.713	472.5
587.923	453.5
588.133	442.5
588.343	463.5
588.553	424.5
588.762	450.5
588.972	448.5
589.182	433.5
589.392	446.5
589.602	454.5
589.812	454.5
590.022	455.5
590.232	436.5
590.441	445.5
590.651	452.5
590.861	424.5
591.071	427.5
591.281	429.5
591.49	433.5
591.7	415.5
591.91	444.5
592.119	447.5
592.329	442.5
592.539	445.5
592.748	460.5
592.958	442.5
593.167	427.5
593.377	447.5
593.587	460.5
593.796	438.5
594.006	468.5
594.215	458.5
594.424	435.5
594.634	460.5
594.843	448.5
595.053	463.5
595.262	464.5
595.472	443.5
595.681	430.5
595.89	423.5
596.1	421.5
596.309	430.5
596.518	422.5
596.727	447.5
596.937	412.5
597.146	403.5
597.355	414.5
597.564	418.5
597.774	405.5
597.983	396.5
598.192	373.5
598.401	387.5
598.61	388.5
598.819	413.5
599.028	410.5
599.237	396.5
599.446	388.5
599.655	376.5
599.864	393.5
600.073	392.5
600.282	379.5
600.491	380.5
600.7	379.5
600.909	398.5
601.118	399.5
601.327	419.5
601.536	417.5
601.745	398.5
601.953	412.5
602.162	420.5
602.371	405.5
602.58	410.5
602.789	405.5
602.997	413.5
603.206	424.5
603.415	417.5
603.623	401.5
603.832	394.5
604.041	386.5
604.249	378.5
604.458	370.5
604.666	385.5
604.875	379.5
605.084	392.5
605.292	403.5
605.501	405.5
605.709	413.5
605.918	399.5
606.126	409.5
606.334	400.5
606.543	380.5
606.751	408.5
606.96	385.5
607.168	397.5
607.376	411.5
607.585	385.5
607.793	395.5
608.001	419.5
608.21	390.5
608.418	407.5
608.626	402.5
608.834	382.5
609.043	400.5
609.251	370.5
609.459	391.5
609.667	397.5
609.875	377.5
610.083	395.5
610.291	396.5
610.499	417.5
610.707	398.5
610.916	377.5
611.124	388.5
611.332	379.5
611.54	408.5
611.748	410.5
611.955	405.5
612.163	393.5
612.371	382.5
612.579	386.5
612.787	381.5
612.995	370.5
613.203	400.5
613.411	408.5
613.618	394.5
613.826	381.5
614.034	405.5
614.242	386.5
614.449	394.5
614.657	381.5
614.865	402.5
615.072	402.5
615.28	377.5
615.488	388.5
615.695	404.5
615.903	378.5
616.111	405.5
616.318	409.5
616.526	370.5
616.733	377.5
616.941	390.5
617.148	393.5
617.356	380.5
617.563	377.5
617.771	372.5
617.978	376.5
618.185	376.5
618.393	376.5
618.6	362.5
618.807	380.5
619.015	378.5
619.222	371.5
619.429	362.5
619.637	352.5
619.844	347.5
620.051	352.5
620.258	352.5
620.466	346.5
620.673	333.5
620.88	338.5
621.087	323.5
621.294	343.5
621.501	353.5
621.708	322.5
621.915	339.5
622.122	341.5
622.329	380.5
622.536	356.5
622.743	351.5
622.95	338.5
623.157	354.5
623.364	338.5
623.571	332.5
623.778	356.5
623.985	349.5
624.192	340.5
624.399	345.5
624.606	333.5
624.812	342.5
625.019	331.5
625.226	330.5
625.433	311.5
625.639	329.5
625.846	318.5
626.053	292.5
626.259	310.5
626.466	304.5
626.673	289.5
626.879	293.5
627.086	297.5
627.293	307.5
627.499	331.5
627.706	345.5
627.912	304.5
628.119	331.5
628.325	322.5
628.532	315.5
628.738	296.5
628.945	308.5
629.151	297.5
629.357	300.5
629.564	312.5
629.77	310.5
629.976	302.5
630.183	303.5
630.389	290.5
630.595	292.5
630.802	316.5
631.008	300.5
631.214	301.5
631.42	297.5
631.627	281.5
631.833	302.5
632.039	295.5
632.245	301.5
632.451	312.5
632.657	280.5
632.863	308.5
633.069	286.5
633.275	283.5
633.481	283.5
633.688	282.5
633.893	276.5
634.099	280.5
634.305	281.5
634.511	277.5
634.717	276.5
634.923	272.5
635.129	276.5
635.335	264.5
635.541	282.5
635.747	269.5
635.952	268.5
636.158	270.5
636.364	280.5
636.57	294.5
636.775	282.5
636.981	287.5
637.187	272.5
637.392	271.5
637.598	291.5
637.804	281.5
638.009	274.5
638.215	272.5
638.421	268.5
638.626	270.5
638.832	276.5
639.037	254.5
639.243	256.5
639.448	256.5
639.654	253.5
639.859	272.5
640.065	274.5
640.27	275.5
640.475	261.5
640.681	276.5
640.886	266.5
641.091	264.5
641.297	274.5
641.502	259.5
641.707	271.5
641.913	255.5
642.118	268.5
642.323	258.5
642.528	267.5
642.733	250.5
642.939	242.5
643.144	261.5
643.349	264.5
643.554	256.5
643.759	253.5
643.964	243.5
644.169	259.5
644.374	258.5
644.579	269.5
644.784	244.5
644.989	266.5
645.194	266.5
645.399	232.5
645.604	258.5
645.809	243.5
646.014	250.5
646.219	268.5
646.423	250.5
646.628	244.5
646.833	248.5
647.038	270.5
647.243	263.5
647.447	253.5
647.652	256.5
647.857	251.5
648.062	263.5
648.266	265.5
648.471	250.5
648.676	276.5
648.88	262.5
649.085	250.5
649.289	245.5
649.494	244.5
649.698	256.5
649.903	242.5
650.107	260.5
650.312	256.5
650.516	230.5
650.721	234.5
650.925	237.5
651.13	242.5
651.334	235.5
651.539	250.5
651.743	249.5
651.947	236.5
652.152	234.5
652.356	235.5
652.56	211.5
652.764	221.5
652.969	225.5
653.173	240.5
653.377	224.5
653.581	224.5
653.785	218.5
653.99	220.5
654.194	209.5
654.398	212.5
654.602	206.5
654.806	229.5
655.01	232.5
655.214	223.5
655.418	205.5
655.622	214.5
655.826	225.5
656.03	255.5
656.234	236.5
656.438	252.5
656.642	250.5
656.846	235.5
657.049	227.5
657.253	219.5
657.457	190.5
657.661	178.5
657.865	192.5
658.068	183.5
658.272	174.5
658.476	166.5
658.68	145.5
658.883	147.5
659.087	148.5
659.291	145.5
659.494	142.5
659.698	135.5
659.901	135.5
660.105	140.5
660.309	125.5
660.512	131.5
660.716	147.5
660.919	126.5
661.123	117.5
661.326	108.5
661.53	113.5
661.733	110.5
661.936	116.5
662.14	96.5
662.343	98.5
662.546	100.5
662.75	91.5
662.953	94.5
663.156	98.5
663.36	86.5
663.563	91.5
663.766	82.5
663.969	86.5
664.173	88.5
664.376	79.5
664.579	90.5
664.782	85.5
664.985	77.5
665.188	90.5
665.391	93.5
665.594	76.5
665.797	86.5
666	100.5
666.203	81.5
666.406	85.5
666.609	92.5
666.812	74.5
667.015	88.5
667.218	86.5
667.421	84.5
667.624	90.5
667.827	86.5
668.03	79.5
668.232	76.5
668.435	75.5
668.638	80.5
668.841	88.5
669.043	74.5
669.246	74.5
669.449	91.5
669.651	97.5
669.854	74.5
670.057	85.5
670.259	92.5
670.462	86.5
670.665	92.5
670.867	88.5
671.07	84.5
671.272	89.5
671.475	99.5
671.677	86.5
671.88	81.5
672.082	67.5
672.284	77.5
672.487	82.5
672.689	80.5
672.892	96.5
