Data from WStandard_LampEnergy10_LIBS07252019.E.O._I.C._HRD10591_15-54-42-928.txt Node
Date: Thu Jul 25 15:54:42 EDT 2019
User: cochatt
Spectrometer: HR+D1059
Trigger mode: 1
Integration Time (sec): 1.000000E-1
Scans to average: 1
Electric dark correction enabled: true
Nonlinearity correction enabled: false
Boxcar width: 0
XAxis mode: Wavelengths
Number of Pixels in Spectrum: 2048
>>>>>Begin Spectral Data<<<<<
223.165	-25.5
223.4	-25.5
223.635	-25.5
223.869	-17.5
224.104	-29.5
224.338	-14.5
224.573	-4.5
224.808	-2.5
225.042	-3.5
225.277	-20.5
225.511	-7.5
225.746	3.5
225.98	13.5
226.215	10.5
226.449	19.5
226.683	23.5
226.918	25.5
227.152	29.5
227.387	39.5
227.621	17.5
227.856	38.5
228.09	45.5
228.324	36.5
228.559	46.5
228.793	66.5
229.027	118.5
229.262	123.5
229.496	135.5
229.73	142.5
229.964	139.5
230.199	157.5
230.433	155.5
230.667	173.5
230.901	181.5
231.136	177.5
231.37	178.5
231.604	171.5
231.838	176.5
232.072	181.5
232.306	166.5
232.541	183.5
232.775	204.5
233.009	216.5
233.243	200.5
233.477	191.5
233.711	174.5
233.945	184.5
234.179	199.5
234.413	190.5
234.647	200.5
234.881	179.5
235.115	201.5
235.349	178.5
235.583	191.5
235.817	176.5
236.051	194.5
236.285	193.5
236.519	194.5
236.753	223.5
236.987	213.5
237.221	211.5
237.455	229.5
237.689	214.5
237.922	215.5
238.156	227.5
238.39	228.5
238.624	223.5
238.858	252.5
239.091	267.5
239.325	256.5
239.559	281.5
239.793	291.5
240.027	307.5
240.26	289.5
240.494	231.5
240.728	229.5
240.961	240.5
241.195	245.5
241.429	242.5
241.662	252.5
241.896	230.5
242.13	222.5
242.363	244.5
242.597	271.5
242.83	270.5
243.064	257.5
243.298	273.5
243.531	274.5
243.765	271.5
243.998	288.5
244.232	262.5
244.465	259.5
244.699	250.5
244.932	273.5
245.166	311.5
245.399	294.5
245.633	291.5
245.866	280.5
246.099	283.5
246.333	283.5
246.566	297.5
246.8	322.5
247.033	343.5
247.266	320.5
247.5	306.5
247.733	320.5
247.966	337.5
248.2	350.5
248.433	368.5
248.666	361.5
248.899	392.5
249.133	435.5
249.366	445.5
249.599	372.5
249.832	357.5
250.066	367.5
250.299	366.5
250.532	345.5
250.765	315.5
250.998	334.5
251.231	341.5
251.465	352.5
251.698	307.5
251.931	340.5
252.164	350.5
252.397	363.5
252.63	342.5
252.863	333.5
253.096	318.5
253.329	330.5
253.562	351.5
253.795	350.5
254.028	353.5
254.261	344.5
254.494	335.5
254.727	311.5
254.96	334.5
255.193	381.5
255.426	431.5
255.659	463.5
255.892	454.5
256.124	377.5
256.357	387.5
256.59	409.5
256.823	419.5
257.056	422.5
257.289	455.5
257.521	501.5
257.754	460.5
257.987	441.5
258.22	469.5
258.452	443.5
258.685	383.5
258.918	384.5
259.151	387.5
259.383	374.5
259.616	350.5
259.849	375.5
260.081	378.5
260.314	425.5
260.547	451.5
260.779	452.5
261.012	424.5
261.244	400.5
261.477	379.5
261.71	384.5
261.942	404.5
262.175	382.5
262.407	397.5
262.64	401.5
262.872	365.5
263.105	355.5
263.337	375.5
263.57	363.5
263.802	367.5
264.035	352.5
264.267	356.5
264.499	333.5
264.732	363.5
264.964	377.5
265.197	396.5
265.429	415.5
265.661	443.5
265.894	464.5
266.126	481.5
266.358	459.5
266.591	456.5
266.823	476.5
267.055	463.5
267.287	448.5
267.52	427.5
267.752	432.5
267.984	436.5
268.216	459.5
268.448	465.5
268.681	461.5
268.913	437.5
269.145	398.5
269.377	407.5
269.609	424.5
269.841	520.5
270.073	577.5
270.306	615.5
270.538	649.5
270.77	520.5
271.002	469.5
271.234	461.5
271.466	460.5
271.698	516.5
271.93	600.5
272.162	582.5
272.394	533.5
272.626	492.5
272.858	443.5
273.09	394.5
273.322	406.5
273.553	400.5
273.785	398.5
274.017	425.5
274.249	430.5
274.481	437.5
274.713	433.5
274.945	408.5
275.176	409.5
275.408	400.5
275.64	402.5
275.872	404.5
276.104	439.5
276.335	467.5
276.567	519.5
276.799	528.5
277.031	477.5
277.262	456.5
277.494	479.5
277.726	509.5
277.957	516.5
278.189	469.5
278.421	449.5
278.652	404.5
278.884	424.5
279.115	420.5
279.347	446.5
279.579	421.5
279.81	443.5
280.042	492.5
280.273	495.5
280.505	511.5
280.736	494.5
280.968	444.5
281.199	432.5
281.431	388.5
281.662	399.5
281.894	417.5
282.125	453.5
282.356	453.5
282.588	443.5
282.819	439.5
283.051	473.5
283.282	529.5
283.513	462.5
283.745	450.5
283.976	403.5
284.207	443.5
284.439	435.5
284.67	445.5
284.901	453.5
285.132	461.5
285.364	457.5
285.595	457.5
285.826	435.5
286.057	445.5
286.288	439.5
286.52	468.5
286.751	475.5
286.982	495.5
287.213	470.5
287.444	429.5
287.675	442.5
287.906	458.5
288.138	487.5
288.369	464.5
288.6	444.5
288.831	428.5
289.062	437.5
289.293	430.5
289.524	468.5
289.755	460.5
289.986	439.5
290.217	449.5
290.448	454.5
290.679	461.5
290.91	455.5
291.141	491.5
291.371	488.5
291.602	481.5
291.833	462.5
292.064	501.5
292.295	491.5
292.526	497.5
292.757	484.5
292.987	478.5
293.218	481.5
293.449	521.5
293.68	569.5
293.91	573.5
294.141	562.5
294.372	537.5
294.603	566.5
294.833	573.5
295.064	525.5
295.295	494.5
295.525	474.5
295.756	450.5
295.987	419.5
296.217	432.5
296.448	446.5
296.679	457.5
296.909	441.5
297.14	442.5
297.37	469.5
297.601	511.5
297.831	499.5
298.062	498.5
298.292	467.5
298.523	461.5
298.753	474.5
298.984	481.5
299.214	482.5
299.445	485.5
299.675	500.5
299.905	493.5
300.136	474.5
300.366	469.5
300.597	446.5
300.827	468.5
301.057	469.5
301.288	495.5
301.518	520.5
301.748	525.5
301.979	543.5
302.209	538.5
302.439	576.5
302.669	600.5
302.9	539.5
303.13	507.5
303.36	529.5
303.59	527.5
303.82	505.5
304.051	497.5
304.281	526.5
304.511	519.5
304.741	569.5
304.971	610.5
305.201	617.5
305.431	550.5
305.661	476.5
305.891	446.5
306.121	464.5
306.352	492.5
306.582	519.5
306.812	537.5
307.042	567.5
307.272	557.5
307.502	601.5
307.731	625.5
307.961	645.5
308.191	569.5
308.421	510.5
308.651	497.5
308.881	495.5
309.111	503.5
309.341	486.5
309.571	503.5
309.8	499.5
310.03	506.5
310.26	485.5
310.49	496.5
310.72	503.5
310.949	544.5
311.179	497.5
311.409	512.5
311.639	507.5
311.868	511.5
312.098	513.5
312.328	489.5
312.557	503.5
312.787	515.5
313.017	517.5
313.246	521.5
313.476	518.5
313.706	553.5
313.935	521.5
314.165	528.5
314.394	567.5
314.624	604.5
314.853	602.5
315.083	632.5
315.312	609.5
315.542	585.5
315.771	559.5
316.001	559.5
316.23	561.5
316.46	577.5
316.689	550.5
316.919	517.5
317.148	525.5
317.377	538.5
317.607	581.5
317.836	615.5
318.065	610.5
318.295	596.5
318.524	600.5
318.753	573.5
318.983	579.5
319.212	535.5
319.441	543.5
319.67	539.5
319.9	571.5
320.129	579.5
320.358	619.5
320.587	599.5
320.816	601.5
321.046	594.5
321.275	572.5
321.504	601.5
321.733	632.5
321.962	591.5
322.191	574.5
322.42	565.5
322.649	559.5
322.878	563.5
323.108	556.5
323.337	584.5
323.566	565.5
323.795	575.5
324.024	564.5
324.253	571.5
324.482	557.5
324.71	526.5
324.939	515.5
325.168	535.5
325.397	575.5
325.626	589.5
325.855	555.5
326.084	549.5
326.313	572.5
326.542	565.5
326.77	587.5
326.999	581.5
327.228	537.5
327.457	509.5
327.686	537.5
327.914	529.5
328.143	565.5
328.372	568.5
328.6	568.5
328.829	535.5
329.058	532.5
329.287	542.5
329.515	531.5
329.744	580.5
329.972	603.5
330.201	613.5
330.43	597.5
330.658	575.5
330.887	587.5
331.115	599.5
331.344	591.5
331.572	591.5
331.801	583.5
332.03	597.5
332.258	572.5
332.486	605.5
332.715	598.5
332.943	624.5
333.172	600.5
333.4	609.5
333.629	613.5
333.857	687.5
334.085	716.5
334.314	806.5
334.542	817.5
334.771	749.5
334.999	662.5
335.227	663.5
335.455	631.5
335.684	631.5
335.912	633.5
336.14	653.5
336.369	642.5
336.597	591.5
336.825	603.5
337.053	646.5
337.281	672.5
337.51	683.5
337.738	683.5
337.966	648.5
338.194	590.5
338.422	585.5
338.65	609.5
338.878	565.5
339.106	583.5
339.334	534.5
339.562	561.5
339.79	565.5
340.018	597.5
340.246	631.5
340.474	624.5
340.702	622.5
340.93	629.5
341.158	594.5
341.386	621.5
341.614	623.5
341.842	606.5
342.07	599.5
342.298	597.5
342.526	600.5
342.754	578.5
342.981	591.5
343.209	600.5
343.437	578.5
343.665	607.5
343.893	603.5
344.12	648.5
344.348	633.5
344.576	589.5
344.804	586.5
345.031	595.5
345.259	593.5
345.487	555.5
345.714	551.5
345.942	566.5
346.17	538.5
346.397	557.5
346.625	573.5
346.853	556.5
347.08	542.5
347.308	536.5
347.535	559.5
347.763	557.5
347.99	544.5
348.218	573.5
348.445	565.5
348.673	585.5
348.9	576.5
349.128	605.5
349.355	603.5
349.583	590.5
349.81	579.5
350.037	515.5
350.265	511.5
350.492	542.5
350.72	589.5
350.947	577.5
351.174	583.5
351.402	563.5
351.629	523.5
351.856	541.5
352.083	538.5
352.311	528.5
352.538	562.5
352.765	550.5
352.992	593.5
353.22	567.5
353.447	549.5
353.674	548.5
353.901	555.5
354.128	571.5
354.355	572.5
354.583	577.5
354.81	581.5
355.037	589.5
355.264	582.5
355.491	551.5
355.718	565.5
355.945	543.5
356.172	553.5
356.399	533.5
356.626	538.5
356.853	590.5
357.08	637.5
357.307	671.5
357.534	644.5
357.761	565.5
357.988	551.5
358.215	539.5
358.441	543.5
358.668	534.5
358.895	555.5
359.122	609.5
359.349	643.5
359.576	609.5
359.802	544.5
360.029	538.5
360.256	555.5
360.483	570.5
360.709	588.5
360.936	600.5
361.163	631.5
361.39	671.5
361.616	719.5
361.843	702.5
362.07	649.5
362.296	571.5
362.523	576.5
362.749	586.5
362.976	568.5
363.203	576.5
363.429	571.5
363.656	572.5
363.882	595.5
364.109	633.5
364.335	661.5
364.562	619.5
364.788	577.5
365.015	583.5
365.241	557.5
365.468	575.5
365.694	589.5
365.92	601.5
366.147	580.5
366.373	577.5
366.599	560.5
366.826	542.5
367.052	558.5
367.278	564.5
367.505	588.5
367.731	622.5
367.957	629.5
368.184	656.5
368.41	644.5
368.636	633.5
368.862	659.5
369.089	647.5
369.315	640.5
369.541	605.5
369.767	584.5
369.993	586.5
370.219	585.5
370.445	579.5
370.672	679.5
370.898	679.5
371.124	684.5
371.35	631.5
371.576	663.5
371.802	653.5
372.028	634.5
372.254	621.5
372.48	603.5
372.706	603.5
372.932	605.5
373.158	615.5
373.384	629.5
373.61	654.5
373.835	630.5
374.061	643.5
374.287	633.5
374.513	611.5
374.739	617.5
374.965	630.5
375.191	645.5
375.416	631.5
375.642	669.5
375.868	694.5
376.094	723.5
376.319	649.5
376.545	658.5
376.771	651.5
376.997	688.5
377.222	677.5
377.448	668.5
377.674	641.5
377.899	685.5
378.125	737.5
378.35	696.5
378.576	632.5
378.802	620.5
379.027	641.5
379.253	623.5
379.478	652.5
379.704	641.5
379.929	637.5
380.155	640.5
380.38	660.5
380.606	647.5
380.831	665.5
381.057	701.5
381.282	699.5
381.507	689.5
381.733	759.5
381.958	730.5
382.184	681.5
382.409	669.5
382.634	662.5
382.86	659.5
383.085	671.5
383.31	700.5
383.535	755.5
383.761	809.5
383.986	734.5
384.211	723.5
384.436	732.5
384.662	763.5
384.887	776.5
385.112	730.5
385.337	736.5
385.562	732.5
385.787	741.5
386.013	741.5
386.238	740.5
386.463	756.5
386.688	799.5
386.913	820.5
387.138	811.5
387.363	787.5
387.588	803.5
387.813	760.5
388.038	776.5
388.263	813.5
388.488	759.5
388.713	706.5
388.938	717.5
389.163	715.5
389.387	747.5
389.612	731.5
389.837	740.5
390.062	770.5
390.287	749.5
390.512	743.5
390.736	703.5
390.961	749.5
391.186	707.5
391.411	723.5
391.636	760.5
391.86	749.5
392.085	736.5
392.31	738.5
392.534	757.5
392.759	776.5
392.984	782.5
393.208	762.5
393.433	789.5
393.658	806.5
393.882	825.5
394.107	760.5
394.331	767.5
394.556	783.5
394.78	788.5
395.005	800.5
395.229	830.5
395.454	876.5
395.678	840.5
395.903	831.5
396.127	808.5
396.352	809.5
396.576	839.5
396.801	845.5
397.025	827.5
397.249	841.5
397.474	814.5
397.698	829.5
397.922	858.5
398.147	920.5
398.371	931.5
398.595	931.5
398.82	847.5
399.044	867.5
399.268	902.5
399.492	973.5
399.717	973.5
399.941	965.5
400.165	962.5
400.389	951.5
400.613	964.5
400.837	1126.5
401.062	1158.5
401.286	1041.5
401.51	980.5
401.734	975.5
401.958	945.5
402.182	891.5
402.406	875.5
402.63	845.5
402.854	863.5
403.078	892.5
403.302	891.5
403.526	900.5
403.75	924.5
403.974	924.5
404.198	920.5
404.422	968.5
404.645	990.5
404.869	937.5
405.093	889.5
405.317	910.5
405.541	944.5
405.765	931.5
405.988	924.5
406.212	956.5
406.436	948.5
406.66	987.5
406.883	1055.5
407.107	1140.5
407.331	1215.5
407.555	1241.5
407.778	1140.5
408.002	993.5
408.226	968.5
408.449	983.5
408.673	930.5
408.896	945.5
409.12	966.5
409.344	961.5
409.567	938.5
409.791	924.5
410.014	960.5
410.238	1025.5
410.461	1070.5
410.685	969.5
410.908	927.5
411.132	953.5
411.355	894.5
411.578	939.5
411.802	933.5
412.025	919.5
412.249	899.5
412.472	923.5
412.695	895.5
412.919	902.5
413.142	912.5
413.365	909.5
413.589	928.5
413.812	973.5
414.035	999.5
414.258	919.5
414.482	919.5
414.705	943.5
414.928	903.5
415.151	923.5
415.374	930.5
415.597	942.5
415.821	908.5
416.044	923.5
416.267	943.5
416.49	915.5
416.713	930.5
416.936	959.5
417.159	984.5
417.382	936.5
417.605	910.5
417.828	941.5
418.051	961.5
418.274	923.5
418.497	949.5
418.72	933.5
418.943	903.5
419.166	961.5
419.389	982.5
419.611	951.5
419.834	932.5
420.057	944.5
420.28	931.5
420.503	941.5
420.726	931.5
420.948	943.5
421.171	927.5
421.394	930.5
421.617	975.5
421.839	992.5
422.062	964.5
422.285	934.5
422.507	941.5
422.73	903.5
422.953	867.5
423.175	880.5
423.398	893.5
423.621	899.5
423.843	935.5
424.066	980.5
424.288	1012.5
424.511	1043.5
424.733	993.5
424.956	934.5
425.178	955.5
425.401	950.5
425.623	942.5
425.846	964.5
426.068	980.5
426.291	956.5
426.513	962.5
426.735	971.5
426.958	1046.5
427.18	1068.5
427.402	998.5
427.625	1029.5
427.847	979.5
428.069	927.5
428.292	926.5
428.514	879.5
428.736	889.5
428.958	911.5
429.181	919.5
429.403	1037.5
429.625	1223.5
429.847	1045.5
430.069	958.5
430.292	1048.5
430.514	1027.5
430.736	963.5
430.958	989.5
431.18	904.5
431.402	886.5
431.624	837.5
431.846	792.5
432.068	723.5
432.29	733.5
432.512	795.5
432.734	871.5
432.956	922.5
433.178	957.5
433.4	976.5
433.622	972.5
433.844	898.5
434.066	846.5
434.287	789.5
434.509	759.5
434.731	830.5
434.953	927.5
435.175	939.5
435.397	909.5
435.618	906.5
435.84	838.5
436.062	836.5
436.284	876.5
436.505	931.5
436.727	956.5
436.949	943.5
437.17	899.5
437.392	876.5
437.614	854.5
437.835	791.5
438.057	807.5
438.278	818.5
438.5	861.5
438.721	908.5
438.943	914.5
439.165	931.5
439.386	922.5
439.608	917.5
439.829	932.5
440.05	940.5
440.272	949.5
440.493	933.5
440.715	970.5
440.936	1026.5
441.158	1036.5
441.379	1007.5
441.6	1040.5
441.822	1030.5
442.043	1002.5
442.264	967.5
442.486	944.5
442.707	966.5
442.928	944.5
443.149	968.5
443.371	988.5
443.592	1053.5
443.813	1020.5
444.034	1004.5
444.255	1016.5
444.476	1044.5
444.698	1045.5
444.919	1078.5
445.14	1167.5
445.361	1121.5
445.582	1087.5
445.803	1069.5
446.024	1053.5
446.245	1062.5
446.466	1055.5
446.687	1027.5
446.908	1038.5
447.129	979.5
447.35	1008.5
447.571	1002.5
447.792	960.5
448.013	943.5
448.234	965.5
448.455	983.5
448.675	997.5
448.896	920.5
449.117	895.5
449.338	891.5
449.559	952.5
449.779	979.5
450	1020.5
450.221	1042.5
450.442	1026.5
450.662	904.5
450.883	884.5
451.104	882.5
451.324	882.5
451.545	879.5
451.766	819.5
451.986	827.5
452.207	807.5
452.428	801.5
452.648	776.5
452.869	789.5
453.089	786.5
453.31	767.5
453.53	777.5
453.751	752.5
453.971	697.5
454.192	730.5
454.412	783.5
454.633	774.5
454.853	779.5
455.073	748.5
455.294	785.5
455.514	756.5
455.734	756.5
455.955	762.5
456.175	756.5
456.395	731.5
456.616	741.5
456.836	717.5
457.056	732.5
457.276	716.5
457.497	688.5
457.717	681.5
457.937	721.5
458.157	717.5
458.377	687.5
458.598	689.5
458.818	672.5
459.038	692.5
459.258	700.5
459.478	725.5
459.698	699.5
459.918	759.5
460.138	772.5
460.358	823.5
460.578	811.5
460.798	859.5
461.018	883.5
461.238	871.5
461.458	883.5
461.678	850.5
461.898	817.5
462.118	831.5
462.338	829.5
462.558	852.5
462.777	836.5
462.997	866.5
463.217	887.5
463.437	860.5
463.657	838.5
463.876	819.5
464.096	849.5
464.316	841.5
464.536	868.5
464.755	877.5
464.975	870.5
465.195	877.5
465.414	872.5
465.634	861.5
465.854	909.5
466.073	982.5
466.293	927.5
466.512	863.5
466.732	881.5
466.951	898.5
467.171	903.5
467.391	894.5
467.61	858.5
467.829	901.5
468.049	993.5
468.268	1057.5
468.488	977.5
468.707	928.5
468.927	911.5
469.146	877.5
469.365	904.5
469.585	920.5
469.804	909.5
470.023	919.5
470.243	926.5
470.462	954.5
470.681	895.5
470.901	935.5
471.12	913.5
471.339	938.5
471.558	903.5
471.777	899.5
471.997	887.5
472.216	861.5
472.435	808.5
472.654	767.5
472.873	768.5
473.092	840.5
473.311	859.5
473.53	809.5
473.749	814.5
473.968	847.5
474.187	853.5
474.406	843.5
474.625	860.5
474.844	850.5
475.063	881.5
475.282	867.5
475.501	820.5
475.72	835.5
475.939	886.5
476.158	867.5
476.377	875.5
476.596	815.5
476.814	820.5
477.033	822.5
477.252	841.5
477.471	879.5
477.69	886.5
477.908	966.5
478.127	973.5
478.346	981.5
478.564	973.5
478.783	986.5
479.002	1023.5
479.22	1007.5
479.439	1055.5
479.658	1064.5
479.876	980.5
480.095	893.5
480.313	921.5
480.532	872.5
480.751	872.5
480.969	812.5
481.188	789.5
481.406	769.5
481.624	737.5
481.843	802.5
482.061	821.5
482.28	882.5
482.498	936.5
482.717	845.5
482.935	900.5
483.153	985.5
483.372	991.5
483.59	1019.5
483.808	976.5
484.027	956.5
484.245	998.5
484.463	1226.5
484.681	1269.5
484.9	1049.5
485.118	989.5
485.336	925.5
485.554	936.5
485.772	888.5
485.99	871.5
486.209	890.5
486.427	893.5
486.645	918.5
486.863	1012.5
487.081	1039.5
487.299	1005.5
487.517	1011.5
487.735	1116.5
487.953	1187.5
488.171	1161.5
488.389	1140.5
488.607	1071.5
488.825	1132.5
489.043	1049.5
489.261	977.5
489.479	1020.5
489.696	1019.5
489.914	1026.5
490.132	1036.5
490.35	1089.5
490.568	1199.5
490.786	1202.5
491.003	1208.5
491.221	1254.5
491.439	1300.5
491.657	1327.5
491.874	1350.5
492.092	1423.5
492.31	1477.5
492.527	1442.5
492.745	1313.5
492.963	1319.5
493.18	1329.5
493.398	1352.5
493.615	1357.5
493.833	1259.5
494.05	1232.5
494.268	1232.5
494.485	1231.5
494.703	1212.5
494.92	1207.5
495.138	1220.5
495.355	1213.5
495.573	1244.5
495.79	1291.5
496.008	1262.5
496.225	1231.5
496.442	1231.5
496.66	1228.5
496.877	1223.5
497.094	1230.5
497.312	1214.5
497.529	1229.5
497.746	1218.5
497.963	1265.5
498.181	1319.5
498.398	1245.5
498.615	1183.5
498.832	1153.5
499.049	1167.5
499.267	1166.5
499.484	1264.5
499.701	1355.5
499.918	1379.5
500.135	1446.5
500.352	1555.5
500.569	1564.5
500.786	1711.5
501.003	1545.5
501.22	1448.5
501.437	1405.5
501.654	1427.5
501.871	1345.5
502.088	1240.5
502.305	1207.5
502.522	1133.5
502.739	1100.5
502.956	1075.5
503.172	1062.5
503.389	1004.5
503.606	989.5
503.823	1000.5
504.04	994.5
504.256	982.5
504.473	998.5
504.69	997.5
504.907	990.5
505.123	1000.5
505.34	1059.5
505.557	1335.5
505.773	1100.5
505.99	961.5
506.207	896.5
506.423	898.5
506.64	868.5
506.856	886.5
507.073	999.5
507.289	1100.5
507.506	1022.5
507.722	901.5
507.939	883.5
508.155	862.5
508.372	833.5
508.588	836.5
508.805	816.5
509.021	761.5
509.238	767.5
509.454	770.5
509.67	748.5
509.887	751.5
510.103	735.5
510.319	737.5
510.536	768.5
510.752	767.5
510.968	751.5
511.184	771.5
511.401	767.5
511.617	725.5
511.833	700.5
512.049	738.5
512.265	718.5
512.481	708.5
512.698	736.5
512.914	781.5
513.13	739.5
513.346	713.5
513.562	704.5
513.778	714.5
513.994	751.5
514.21	735.5
514.426	771.5
514.642	816.5
514.858	773.5
515.074	720.5
515.29	699.5
515.506	733.5
515.721	738.5
515.937	751.5
516.153	821.5
516.369	755.5
516.585	753.5
516.801	739.5
517.016	728.5
517.232	762.5
517.448	774.5
517.664	744.5
517.879	800.5
518.095	785.5
518.311	794.5
518.527	783.5
518.742	757.5
518.958	737.5
519.173	766.5
519.389	783.5
519.605	786.5
519.82	795.5
520.036	795.5
520.251	745.5
520.467	788.5
520.682	804.5
520.898	799.5
521.113	717.5
521.329	729.5
521.544	756.5
521.76	738.5
521.975	732.5
522.19	706.5
522.406	725.5
522.621	945.5
522.836	851.5
523.052	729.5
523.267	727.5
523.482	768.5
523.698	721.5
523.913	728.5
524.128	765.5
524.343	790.5
524.559	824.5
524.774	784.5
524.989	755.5
525.204	754.5
525.419	740.5
525.634	718.5
525.849	720.5
526.064	728.5
526.28	699.5
526.495	662.5
526.71	643.5
526.925	630.5
527.14	617.5
527.355	612.5
527.57	625.5
527.785	675.5
527.999	658.5
528.214	677.5
528.429	684.5
528.644	750.5
528.859	795.5
529.074	831.5
529.289	892.5
529.503	880.5
529.718	820.5
529.933	710.5
530.148	661.5
530.363	655.5
530.577	638.5
530.792	635.5
531.007	617.5
531.221	610.5
531.436	613.5
531.651	627.5
531.865	665.5
532.08	649.5
532.295	636.5
532.509	602.5
532.724	623.5
532.938	654.5
533.153	696.5
533.367	727.5
533.582	713.5
533.796	723.5
534.011	716.5
534.225	679.5
534.44	637.5
534.654	624.5
534.868	632.5
535.083	693.5
535.297	710.5
535.511	698.5
535.726	665.5
535.94	669.5
536.154	642.5
536.369	624.5
536.583	608.5
536.797	604.5
537.011	631.5
537.225	612.5
537.44	582.5
537.654	653.5
537.868	619.5
538.082	608.5
538.296	597.5
538.51	640.5
538.724	673.5
538.938	703.5
539.153	743.5
539.367	741.5
539.581	704.5
539.795	696.5
540.009	671.5
540.222	633.5
540.436	659.5
540.65	727.5
540.864	805.5
541.078	825.5
541.292	833.5
541.506	871.5
541.72	950.5
541.934	1017.5
542.147	1082.5
542.361	1023.5
542.575	903.5
542.789	817.5
543.002	757.5
543.216	762.5
543.43	768.5
543.644	816.5
543.857	899.5
544.071	947.5
544.285	928.5
544.498	934.5
544.712	932.5
544.925	980.5
545.139	976.5
545.352	951.5
545.566	937.5
545.779	915.5
545.993	963.5
546.206	959.5
546.42	946.5
546.633	945.5
546.847	947.5
547.06	950.5
547.274	919.5
547.487	972.5
547.7	995.5
547.914	959.5
548.127	969.5
548.34	957.5
548.554	938.5
548.767	925.5
548.98	909.5
549.193	912.5
549.407	965.5
549.62	969.5
549.833	931.5
550.046	881.5
550.259	900.5
550.473	876.5
550.686	888.5
550.899	846.5
551.112	849.5
551.325	811.5
551.538	863.5
551.751	881.5
551.964	712.5
552.177	732.5
552.39	817.5
552.603	838.5
552.816	856.5
553.029	911.5
553.242	926.5
553.455	918.5
553.667	915.5
553.88	883.5
554.093	867.5
554.306	867.5
554.519	859.5
554.732	840.5
554.944	835.5
555.157	821.5
555.37	792.5
555.583	790.5
555.795	784.5
556.008	729.5
556.221	728.5
556.433	736.5
556.646	726.5
556.859	718.5
557.071	741.5
557.284	755.5
557.496	753.5
557.709	751.5
557.921	729.5
558.134	724.5
558.346	724.5
558.559	721.5
558.771	705.5
558.984	686.5
559.196	705.5
559.409	661.5
559.621	680.5
559.833	634.5
560.046	661.5
560.258	668.5
560.47	678.5
560.683	687.5
560.895	674.5
561.107	691.5
561.32	687.5
561.532	692.5
561.744	650.5
561.956	657.5
562.168	651.5
562.381	657.5
562.593	628.5
562.805	649.5
563.017	624.5
563.229	644.5
563.441	661.5
563.653	620.5
563.865	613.5
564.077	626.5
564.289	620.5
564.501	602.5
564.713	611.5
564.925	645.5
565.137	679.5
565.349	650.5
565.561	633.5
565.773	612.5
565.985	617.5
566.197	637.5
566.408	689.5
566.62	670.5
566.832	671.5
567.044	677.5
567.255	655.5
567.467	648.5
567.679	663.5
567.891	663.5
568.102	613.5
568.314	589.5
568.526	530.5
568.737	524.5
568.949	521.5
569.161	456.5
569.372	447.5
569.584	470.5
569.795	473.5
570.007	450.5
570.218	425.5
570.43	433.5
570.641	449.5
570.853	473.5
571.064	477.5
571.276	490.5
571.487	481.5
571.698	481.5
571.91	468.5
572.121	445.5
572.333	441.5
572.544	416.5
572.755	414.5
572.966	397.5
573.178	391.5
573.389	384.5
573.6	419.5
573.811	437.5
574.023	404.5
574.234	403.5
574.445	394.5
574.656	372.5
574.867	387.5
575.078	380.5
575.289	429.5
575.501	407.5
575.712	400.5
575.923	429.5
576.134	399.5
576.345	382.5
576.556	418.5
576.767	384.5
576.978	397.5
577.188	373.5
577.399	352.5
577.61	365.5
577.821	355.5
578.032	387.5
578.243	363.5
578.454	382.5
578.665	352.5
578.875	341.5
579.086	345.5
579.297	348.5
579.508	361.5
579.718	332.5
579.929	353.5
580.14	339.5
580.35	322.5
580.561	353.5
580.772	400.5
580.982	369.5
581.193	355.5
581.403	346.5
581.614	332.5
581.825	347.5
582.035	335.5
582.246	350.5
582.456	374.5
582.667	347.5
582.877	319.5
583.087	327.5
583.298	341.5
583.508	311.5
583.719	323.5
583.929	317.5
584.139	335.5
584.35	323.5
584.56	324.5
584.77	325.5
584.981	332.5
585.191	331.5
585.401	343.5
585.611	325.5
585.821	300.5
586.032	319.5
586.242	301.5
586.452	320.5
586.662	305.5
586.872	320.5
587.082	323.5
587.292	307.5
587.502	310.5
587.713	313.5
587.923	307.5
588.133	307.5
588.343	309.5
588.553	310.5
588.762	332.5
588.972	326.5
589.182	311.5
589.392	307.5
589.602	311.5
589.812	295.5
590.022	315.5
590.232	308.5
590.441	324.5
590.651	323.5
590.861	322.5
591.071	304.5
591.281	294.5
591.49	325.5
591.7	306.5
591.91	300.5
592.119	288.5
592.329	319.5
592.539	321.5
592.748	321.5
592.958	334.5
593.167	302.5
593.377	332.5
593.587	319.5
593.796	311.5
594.006	304.5
594.215	318.5
594.424	337.5
594.634	343.5
594.843	357.5
595.053	359.5
595.262	318.5
595.472	339.5
595.681	315.5
595.89	307.5
596.1	315.5
596.309	330.5
596.518	312.5
596.727	316.5
596.937	313.5
597.146	321.5
597.355	308.5
597.564	313.5
597.774	305.5
597.983	279.5
598.192	297.5
598.401	282.5
598.61	278.5
598.819	285.5
599.028	277.5
599.237	295.5
599.446	313.5
599.655	303.5
599.864	283.5
600.073	288.5
600.282	291.5
600.491	295.5
600.7	307.5
600.909	307.5
601.118	305.5
601.327	327.5
601.536	333.5
601.745	349.5
601.953	329.5
602.162	337.5
602.371	333.5
602.58	338.5
602.789	354.5
602.997	337.5
603.206	353.5
603.415	343.5
603.623	357.5
603.832	339.5
604.041	318.5
604.249	301.5
604.458	308.5
604.666	292.5
604.875	307.5
605.084	309.5
605.292	340.5
605.501	341.5
605.709	369.5
605.918	367.5
606.126	352.5
606.334	364.5
606.543	369.5
606.751	348.5
606.96	347.5
607.168	347.5
607.376	353.5
607.585	339.5
607.793	339.5
608.001	372.5
608.21	379.5
608.418	359.5
608.626	354.5
608.834	358.5
609.043	382.5
609.251	361.5
609.459	357.5
609.667	351.5
609.875	367.5
610.083	378.5
610.291	368.5
610.499	350.5
610.707	351.5
610.916	372.5
611.124	342.5
611.332	348.5
611.54	345.5
611.748	347.5
611.955	369.5
612.163	364.5
612.371	343.5
612.579	372.5
612.787	365.5
612.995	359.5
613.203	389.5
613.411	350.5
613.618	328.5
613.826	336.5
614.034	355.5
614.242	374.5
614.449	347.5
614.657	360.5
614.865	350.5
615.072	356.5
615.28	345.5
615.488	355.5
615.695	388.5
615.903	365.5
616.111	363.5
616.318	350.5
616.526	361.5
616.733	357.5
616.941	356.5
617.148	351.5
617.356	343.5
617.563	349.5
617.771	357.5
617.978	327.5
618.185	315.5
618.393	336.5
618.6	356.5
618.807	347.5
619.015	351.5
619.222	329.5
619.429	314.5
619.637	315.5
619.844	281.5
620.051	287.5
620.258	309.5
620.466	326.5
620.673	306.5
620.88	316.5
621.087	317.5
621.294	318.5
621.501	303.5
621.708	293.5
621.915	289.5
622.122	317.5
622.329	344.5
622.536	335.5
622.743	317.5
622.95	303.5
623.157	321.5
623.364	324.5
623.571	321.5
623.778	317.5
623.985	321.5
624.192	300.5
624.399	307.5
624.606	303.5
624.812	307.5
625.019	313.5
625.226	277.5
625.433	273.5
625.639	272.5
625.846	251.5
626.053	248.5
626.259	261.5
626.466	232.5
626.673	228.5
626.879	236.5
627.086	237.5
627.293	259.5
627.499	287.5
627.706	289.5
627.912	309.5
628.119	303.5
628.325	305.5
628.532	303.5
628.738	277.5
628.945	275.5
629.151	270.5
629.357	256.5
629.564	275.5
629.77	276.5
629.976	297.5
630.183	261.5
630.389	267.5
630.595	284.5
630.802	274.5
631.008	267.5
631.214	269.5
631.42	264.5
631.627	262.5
631.833	246.5
632.039	252.5
632.245	267.5
632.451	277.5
632.657	248.5
632.863	270.5
633.069	262.5
633.275	260.5
633.481	265.5
633.688	252.5
633.893	265.5
634.099	247.5
634.305	235.5
634.511	266.5
634.717	240.5
634.923	229.5
635.129	238.5
635.335	213.5
635.541	227.5
635.747	243.5
635.952	235.5
636.158	274.5
636.364	254.5
636.57	245.5
636.775	274.5
636.981	262.5
637.187	256.5
637.392	265.5
637.598	265.5
637.804	256.5
638.009	261.5
638.215	253.5
638.421	255.5
638.626	249.5
638.832	259.5
639.037	244.5
639.243	251.5
639.448	245.5
639.654	228.5
639.859	224.5
640.065	228.5
640.27	252.5
640.475	240.5
640.681	243.5
640.886	252.5
641.091	224.5
641.297	239.5
641.502	244.5
641.707	251.5
641.913	243.5
642.118	255.5
642.323	236.5
642.528	236.5
642.733	265.5
642.939	223.5
643.144	243.5
643.349	228.5
643.554	237.5
643.759	238.5
643.964	226.5
644.169	233.5
644.374	227.5
644.579	224.5
644.784	231.5
644.989	238.5
645.194	234.5
645.399	227.5
645.604	235.5
645.809	257.5
646.014	221.5
646.219	237.5
646.423	239.5
646.628	231.5
646.833	241.5
647.038	241.5
647.243	243.5
647.447	241.5
647.652	233.5
647.857	240.5
648.062	245.5
648.266	244.5
648.471	243.5
648.676	259.5
648.88	249.5
649.085	231.5
649.289	238.5
649.494	235.5
649.698	229.5
649.903	235.5
650.107	234.5
650.312	240.5
650.516	225.5
650.721	232.5
650.925	217.5
651.13	228.5
651.334	237.5
651.539	203.5
651.743	219.5
651.947	215.5
652.152	214.5
652.356	235.5
652.56	216.5
652.764	211.5
652.969	221.5
653.173	196.5
653.377	215.5
653.581	217.5
653.785	208.5
653.99	204.5
654.194	193.5
654.398	214.5
654.602	187.5
654.806	197.5
655.01	193.5
655.214	214.5
655.418	190.5
655.622	207.5
655.826	217.5
656.03	223.5
656.234	207.5
656.438	220.5
656.642	216.5
656.846	213.5
657.049	216.5
657.253	200.5
657.457	191.5
657.661	167.5
657.865	164.5
658.068	171.5
658.272	160.5
658.476	153.5
658.68	163.5
658.883	129.5
659.087	137.5
659.291	134.5
659.494	147.5
659.698	128.5
659.901	125.5
660.105	133.5
660.309	123.5
660.512	125.5
660.716	121.5
660.919	120.5
661.123	110.5
661.326	114.5
661.53	117.5
661.733	113.5
661.936	105.5
662.14	108.5
662.343	107.5
662.546	87.5
662.75	89.5
662.953	89.5
663.156	91.5
663.36	82.5
663.563	91.5
663.766	100.5
663.969	83.5
664.173	78.5
664.376	92.5
664.579	80.5
664.782	75.5
664.985	94.5
665.188	83.5
665.391	87.5
665.594	83.5
665.797	80.5
666	69.5
666.203	89.5
666.406	79.5
666.609	99.5
666.812	84.5
667.015	76.5
667.218	95.5
667.421	93.5
667.624	78.5
667.827	92.5
668.03	94.5
668.232	85.5
668.435	86.5
668.638	83.5
668.841	67.5
669.043	72.5
669.246	75.5
669.449	75.5
669.651	73.5
669.854	75.5
670.057	85.5
670.259	71.5
670.462	61.5
670.665	83.5
670.867	87.5
671.07	80.5
671.272	84.5
671.475	90.5
671.677	84.5
671.88	79.5
672.082	81.5
672.284	84.5
672.487	79.5
672.689	87.5
672.892	72.5
