Data from WStandard_LampEnergy5.5LIBS07252019.E.O._I.C._HRD10591_16-09-34-921.txt Node
Date: Thu Jul 25 16:09:34 EDT 2019
User: cochatt
Spectrometer: HR+D1059
Trigger mode: 1
Integration Time (sec): 1.000000E-1
Scans to average: 1
Electric dark correction enabled: true
Nonlinearity correction enabled: false
Boxcar width: 0
XAxis mode: Wavelengths
Number of Pixels in Spectrum: 2048
>>>>>Begin Spectral Data<<<<<
223.165	-12.62
223.4	-12.62
223.635	-12.62
223.869	-3.62
224.104	-22.62
224.338	-14.62
224.573	-16.62
224.808	-20.62
225.042	-3.62
225.277	1.38
225.511	-1.62
225.746	0.38
225.98	-2.62
226.215	2.38
226.449	23.38
226.683	22.38
226.918	27.38
227.152	21.38
227.387	31.38
227.621	34.38
227.856	40.38
228.09	51.38
228.324	41.38
228.559	36.38
228.793	126.38
229.027	359.38
229.262	344.38
229.496	355.38
229.73	379.38
229.964	411.38
230.199	435.38
230.433	447.38
230.667	509.38
230.901	502.38
231.136	448.38
231.37	420.38
231.604	430.38
231.838	452.38
232.072	456.38
232.306	434.38
232.541	470.38
232.775	525.38
233.009	601.38
233.243	571.38
233.477	494.38
233.711	514.38
233.945	512.38
234.179	508.38
234.413	553.38
234.647	602.38
234.881	551.38
235.115	525.38
235.349	530.38
235.583	546.38
235.817	555.38
236.051	502.38
236.285	512.38
236.519	566.38
236.753	626.38
236.987	641.38
237.221	633.38
237.455	702.38
237.689	698.38
237.922	639.38
238.156	611.38
238.39	619.38
238.624	700.38
238.858	721.38
239.091	725.38
239.325	765.38
239.559	889.38
239.793	907.38
240.027	1006.38
240.26	986.38
240.494	734.38
240.728	670.38
240.961	710.38
241.195	706.38
241.429	753.38
241.662	779.38
241.896	711.38
242.13	724.38
242.363	815.38
242.597	862.38
242.83	841.38
243.064	826.38
243.298	902.38
243.531	890.38
243.765	881.38
243.998	903.38
244.232	763.38
244.465	757.38
244.699	742.38
244.932	845.38
245.166	978.38
245.399	913.38
245.633	886.38
245.866	871.38
246.099	877.38
246.333	915.38
246.566	939.38
246.8	978.38
247.033	1111.38
247.266	1022.38
247.5	991.38
247.733	994.38
247.966	1038.38
248.2	1144.38
248.433	1120.38
248.666	1166.38
248.899	1265.38
249.133	1420.38
249.366	1641.38
249.599	1351.38
249.832	1164.38
250.066	1231.38
250.299	1216.38
250.532	1149.38
250.765	989.38
250.998	1070.38
251.231	1137.38
251.465	1175.38
251.698	1130.38
251.931	1113.38
252.164	1138.38
252.397	1188.38
252.63	1196.38
252.863	1053.38
253.096	1029.38
253.329	1081.38
253.562	1124.38
253.795	1218.38
254.028	1209.38
254.261	1128.38
254.494	1124.38
254.727	1037.38
254.96	1075.38
255.193	1183.38
255.426	1367.38
255.659	1544.38
255.892	1588.38
256.124	1310.38
256.357	1259.38
256.59	1336.38
256.823	1365.38
257.056	1314.38
257.289	1556.38
257.521	1810.38
257.754	1623.38
257.987	1491.38
258.22	1643.38
258.452	1639.38
258.685	1309.38
258.918	1294.38
259.151	1292.38
259.383	1254.38
259.616	1118.38
259.849	1159.38
260.081	1320.38
260.314	1474.38
260.547	1622.38
260.779	1617.38
261.012	1500.38
261.244	1344.38
261.477	1270.38
261.71	1344.38
261.942	1367.38
262.175	1278.38
262.407	1398.38
262.64	1314.38
262.872	1216.38
263.105	1153.38
263.337	1190.38
263.57	1243.38
263.802	1229.38
264.035	1170.38
264.267	1103.38
264.499	1072.38
264.732	1162.38
264.964	1212.38
265.197	1262.38
265.429	1326.38
265.661	1488.38
265.894	1612.38
266.126	1679.38
266.358	1490.38
266.591	1575.38
266.823	1735.38
267.055	1543.38
267.287	1504.38
267.52	1493.38
267.752	1428.38
267.984	1451.38
268.216	1542.38
268.448	1575.38
268.681	1560.38
268.913	1453.38
269.145	1356.38
269.377	1294.38
269.609	1404.38
269.841	1632.38
270.073	1915.38
270.306	2140.38
270.538	2308.38
270.77	1987.38
271.002	1624.38
271.234	1512.38
271.466	1544.38
271.698	1685.38
271.93	2058.38
272.162	2111.38
272.394	1888.38
272.626	1818.38
272.858	1601.38
273.09	1397.38
273.322	1371.38
273.553	1294.38
273.785	1326.38
274.017	1359.38
274.249	1488.38
274.481	1496.38
274.713	1336.38
274.945	1334.38
275.176	1375.38
275.408	1350.38
275.64	1302.38
275.872	1255.38
276.104	1379.38
276.335	1606.38
276.567	1800.38
276.799	1812.38
277.031	1605.38
277.262	1510.38
277.494	1559.38
277.726	1738.38
277.957	1722.38
278.189	1603.38
278.421	1449.38
278.652	1396.38
278.884	1417.38
279.115	1428.38
279.347	1421.38
279.579	1389.38
279.81	1387.38
280.042	1526.38
280.273	1660.38
280.505	1672.38
280.736	1717.38
280.968	1631.38
281.199	1431.38
281.431	1371.38
281.662	1356.38
281.894	1384.38
282.125	1403.38
282.356	1464.38
282.588	1486.38
282.819	1474.38
283.051	1583.38
283.282	1744.38
283.513	1658.38
283.745	1447.38
283.976	1356.38
284.207	1342.38
284.439	1405.38
284.67	1387.38
284.901	1458.38
285.132	1499.38
285.364	1431.38
285.595	1468.38
285.826	1460.38
286.057	1439.38
286.288	1411.38
286.52	1493.38
286.751	1591.38
286.982	1641.38
287.213	1519.38
287.444	1381.38
287.675	1365.38
287.906	1448.38
288.138	1544.38
288.369	1493.38
288.6	1447.38
288.831	1388.38
289.062	1370.38
289.293	1439.38
289.524	1438.38
289.755	1479.38
289.986	1506.38
290.217	1354.38
290.448	1370.38
290.679	1415.38
290.91	1454.38
291.141	1488.38
291.371	1584.38
291.602	1546.38
291.833	1543.38
292.064	1578.38
292.295	1504.38
292.526	1550.38
292.757	1678.38
292.987	1609.38
293.218	1473.38
293.449	1602.38
293.68	1755.38
293.91	1867.38
294.141	1769.38
294.372	1653.38
294.603	1739.38
294.833	1856.38
295.064	1743.38
295.295	1560.38
295.525	1566.38
295.756	1408.38
295.987	1369.38
296.217	1374.38
296.448	1394.38
296.679	1421.38
296.909	1418.38
297.14	1379.38
297.37	1450.38
297.601	1508.38
297.831	1607.38
298.062	1646.38
298.292	1503.38
298.523	1426.38
298.753	1462.38
298.984	1462.38
299.214	1459.38
299.445	1515.38
299.675	1531.38
299.905	1509.38
300.136	1472.38
300.366	1424.38
300.597	1396.38
300.827	1433.38
301.057	1471.38
301.288	1575.38
301.518	1532.38
301.748	1568.38
301.979	1675.38
302.209	1688.38
302.439	1772.38
302.669	1893.38
302.9	1746.38
303.13	1572.38
303.36	1538.38
303.59	1579.38
303.82	1569.38
304.051	1543.38
304.281	1528.38
304.511	1559.38
304.741	1666.38
304.971	1803.38
305.201	1986.38
305.431	1853.38
305.661	1507.38
305.891	1390.38
306.121	1363.38
306.352	1416.38
306.582	1494.38
306.812	1599.38
307.042	1716.38
307.272	1691.38
307.502	1736.38
307.731	1850.38
307.961	2086.38
308.191	1938.38
308.421	1656.38
308.651	1515.38
308.881	1514.38
309.111	1497.38
309.341	1466.38
309.571	1509.38
309.8	1505.38
310.03	1495.38
310.26	1477.38
310.49	1463.38
310.72	1511.38
310.949	1590.38
311.179	1603.38
311.409	1571.38
311.639	1550.38
311.868	1477.38
312.098	1555.38
312.328	1518.38
312.557	1530.38
312.787	1551.38
313.017	1558.38
313.246	1580.38
313.476	1561.38
313.706	1612.38
313.935	1584.38
314.165	1610.38
314.394	1656.38
314.624	1699.38
314.853	1823.38
315.083	1891.38
315.312	1986.38
315.542	1868.38
315.771	1614.38
316.001	1593.38
316.23	1722.38
316.46	1698.38
316.689	1671.38
316.919	1587.38
317.148	1576.38
317.377	1568.38
317.607	1665.38
317.836	1859.38
318.065	1914.38
318.295	1854.38
318.524	1752.38
318.753	1658.38
318.983	1694.38
319.212	1651.38
319.441	1601.38
319.67	1570.38
319.9	1660.38
320.129	1712.38
320.358	1796.38
320.587	1835.38
320.816	1829.38
321.046	1808.38
321.275	1711.38
321.504	1684.38
321.733	1859.38
321.962	1798.38
322.191	1661.38
322.42	1639.38
322.649	1620.38
322.878	1626.38
323.108	1634.38
323.337	1729.38
323.566	1694.38
323.795	1698.38
324.024	1673.38
324.253	1611.38
324.482	1686.38
324.71	1633.38
324.939	1515.38
325.168	1558.38
325.397	1643.38
325.626	1679.38
325.855	1692.38
326.084	1635.38
326.313	1652.38
326.542	1698.38
326.77	1706.38
326.999	1713.38
327.228	1690.38
327.457	1566.38
327.686	1562.38
327.914	1603.38
328.143	1651.38
328.372	1638.38
328.6	1662.38
328.829	1648.38
329.058	1611.38
329.287	1602.38
329.515	1636.38
329.744	1706.38
329.972	1745.38
330.201	1834.38
330.43	1767.38
330.658	1727.38
330.887	1738.38
331.115	1760.38
331.344	1741.38
331.572	1714.38
331.801	1706.38
332.03	1722.38
332.258	1726.38
332.486	1772.38
332.715	1792.38
332.943	1815.38
333.172	1714.38
333.4	1764.38
333.629	1790.38
333.857	1915.38
334.085	2012.38
334.314	2302.38
334.542	2569.38
334.771	2387.38
334.999	2071.38
335.227	1955.38
335.455	1871.38
335.684	1850.38
335.912	1886.38
336.14	2003.38
336.369	1897.38
336.597	1735.38
336.825	1790.38
337.053	1767.38
337.281	1868.38
337.51	1994.38
337.738	2060.38
337.966	2059.38
338.194	1774.38
338.422	1766.38
338.65	1696.38
338.878	1710.38
339.106	1702.38
339.334	1658.38
339.562	1639.38
339.79	1658.38
340.018	1783.38
340.246	1817.38
340.474	1833.38
340.702	1780.38
340.93	1818.38
341.158	1758.38
341.386	1712.38
341.614	1746.38
341.842	1721.38
342.07	1739.38
342.298	1737.38
342.526	1762.38
342.754	1687.38
342.981	1702.38
343.209	1676.38
343.437	1666.38
343.665	1681.38
343.893	1734.38
344.12	1822.38
344.348	1825.38
344.576	1768.38
344.804	1733.38
345.031	1712.38
345.259	1753.38
345.487	1694.38
345.714	1635.38
345.942	1578.38
346.17	1571.38
346.397	1642.38
346.625	1638.38
346.853	1535.38
347.08	1566.38
347.308	1564.38
347.535	1595.38
347.763	1654.38
347.99	1634.38
348.218	1562.38
348.445	1523.38
348.673	1573.38
348.9	1645.38
349.128	1674.38
349.355	1740.38
349.583	1737.38
349.81	1591.38
350.037	1505.38
350.265	1478.38
350.492	1500.38
350.72	1548.38
350.947	1585.38
351.174	1633.38
351.402	1619.38
351.629	1500.38
351.856	1499.38
352.083	1491.38
352.311	1511.38
352.538	1551.38
352.765	1623.38
352.992	1638.38
353.22	1572.38
353.447	1504.38
353.674	1600.38
353.901	1560.38
354.128	1583.38
354.355	1499.38
354.583	1598.38
354.81	1652.38
355.037	1640.38
355.264	1632.38
355.491	1590.38
355.718	1606.38
355.945	1578.38
356.172	1607.38
356.399	1540.38
356.626	1526.38
356.853	1565.38
357.08	1718.38
357.307	1926.38
357.534	1845.38
357.761	1684.38
357.988	1528.38
358.215	1484.38
358.441	1548.38
358.668	1499.38
358.895	1523.38
359.122	1620.38
359.349	1803.38
359.576	1748.38
359.802	1618.38
360.029	1577.38
360.256	1524.38
360.483	1560.38
360.709	1590.38
360.936	1618.38
361.163	1676.38
361.39	1844.38
361.616	1941.38
361.843	1890.38
362.07	1843.38
362.296	1596.38
362.523	1561.38
362.749	1563.38
362.976	1641.38
363.203	1631.38
363.429	1578.38
363.656	1529.38
363.882	1568.38
364.109	1751.38
364.335	1883.38
364.562	1767.38
364.788	1710.38
365.015	1643.38
365.241	1546.38
365.468	1564.38
365.694	1635.38
365.92	1705.38
366.147	1656.38
366.373	1562.38
366.599	1564.38
366.826	1530.38
367.052	1553.38
367.278	1556.38
367.505	1589.38
367.731	1584.38
367.957	1597.38
368.184	1661.38
368.41	1758.38
368.636	1735.38
368.862	1752.38
369.089	1796.38
369.315	1699.38
369.541	1601.38
369.767	1602.38
369.993	1547.38
370.219	1553.38
370.445	1609.38
370.672	1673.38
370.898	1762.38
371.124	1777.38
371.35	1672.38
371.576	1719.38
371.802	1800.38
372.028	1674.38
372.254	1629.38
372.48	1605.38
372.706	1562.38
372.932	1605.38
373.158	1633.38
373.384	1631.38
373.61	1658.38
373.835	1733.38
374.061	1700.38
374.287	1652.38
374.513	1610.38
374.739	1677.38
374.965	1683.38
375.191	1751.38
375.416	1706.38
375.642	1736.38
375.868	1775.38
376.094	1850.38
376.319	1762.38
376.545	1676.38
376.771	1648.38
376.997	1783.38
377.222	1713.38
377.448	1681.38
377.674	1697.38
377.899	1728.38
378.125	1849.38
378.35	1819.38
378.576	1674.38
378.802	1636.38
379.027	1611.38
379.253	1622.38
379.478	1617.38
379.704	1628.38
379.929	1623.38
380.155	1642.38
380.38	1700.38
380.606	1671.38
380.831	1676.38
381.057	1766.38
381.282	1746.38
381.507	1665.38
381.733	1799.38
381.958	1900.38
382.184	1765.38
382.409	1707.38
382.634	1706.38
382.86	1722.38
383.085	1726.38
383.31	1762.38
383.535	1915.38
383.761	1985.38
383.986	1926.38
384.211	1848.38
384.436	1833.38
384.662	1904.38
384.887	2018.38
385.112	1894.38
385.337	1931.38
385.562	1864.38
385.787	1910.38
386.013	1946.38
386.238	1923.38
386.463	1912.38
386.688	2041.38
386.913	2131.38
387.138	2109.38
387.363	1930.38
387.588	1944.38
387.813	1948.38
388.038	1945.38
388.263	2021.38
388.488	1973.38
388.713	1848.38
388.938	1839.38
389.163	1847.38
389.387	1844.38
389.612	1844.38
389.837	1879.38
390.062	1922.38
390.287	1886.38
390.512	1918.38
390.736	1816.38
390.961	1829.38
391.186	1804.38
391.411	1843.38
391.636	1871.38
391.86	1917.38
392.085	1914.38
392.31	1886.38
392.534	1906.38
392.759	1920.38
392.984	1882.38
393.208	1902.38
393.433	1942.38
393.658	1988.38
393.882	2067.38
394.107	1937.38
394.331	1882.38
394.556	1900.38
394.78	1945.38
395.005	1972.38
395.229	1975.38
395.454	2123.38
395.678	2195.38
395.903	2092.38
396.127	1974.38
396.352	1991.38
396.576	2033.38
396.801	2060.38
397.025	2062.38
397.249	2039.38
397.474	2083.38
397.698	2002.38
397.922	2102.38
398.147	2148.38
398.371	2275.38
398.595	2187.38
398.82	2192.38
399.044	2230.38
399.268	2269.38
399.492	2426.38
399.717	2536.38
399.941	2601.38
400.165	2504.38
400.389	2419.38
400.613	2400.38
400.837	2623.38
401.062	3051.38
401.286	2601.38
401.51	2320.38
401.734	2468.38
401.958	2392.38
402.182	2274.38
402.406	2188.38
402.63	2130.38
402.854	2139.38
403.078	2207.38
403.302	2234.38
403.526	2230.38
403.75	2215.38
403.974	2317.38
404.198	2231.38
404.422	2363.38
404.645	2460.38
404.869	2375.38
405.093	2208.38
405.317	2172.38
405.541	2217.38
405.765	2276.38
405.988	2246.38
406.212	2286.38
406.436	2391.38
406.66	2404.38
406.883	2402.38
407.107	2725.38
407.331	2916.38
407.555	3136.38
407.778	2920.38
408.002	2488.38
408.226	2355.38
408.449	2408.38
408.673	2270.38
408.896	2301.38
409.12	2324.38
409.344	2288.38
409.567	2227.38
409.791	2290.38
410.014	2296.38
410.238	2427.38
410.461	2594.38
410.685	2299.38
410.908	2186.38
411.132	2267.38
411.355	2246.38
411.578	2172.38
411.802	2167.38
412.025	2235.38
412.249	2194.38
412.472	2181.38
412.695	2108.38
412.919	2154.38
413.142	2148.38
413.365	2161.38
413.589	2192.38
413.812	2260.38
414.035	2351.38
414.258	2167.38
414.482	2135.38
414.705	2143.38
414.928	2086.38
415.151	2056.38
415.374	2136.38
415.597	2234.38
415.821	2260.38
416.044	2310.38
416.267	2320.38
416.49	2089.38
416.713	2036.38
416.936	2140.38
417.159	2202.38
417.382	2205.38
417.605	2085.38
417.828	2167.38
418.051	2218.38
418.274	2115.38
418.497	2054.38
418.72	2094.38
418.943	2045.38
419.166	2183.38
419.389	2352.38
419.611	2191.38
419.834	2128.38
420.057	2161.38
420.28	2115.38
420.503	2056.38
420.726	2090.38
420.948	2147.38
421.171	2015.38
421.394	2097.38
421.617	2126.38
421.839	2096.38
422.062	2126.38
422.285	2027.38
422.507	2034.38
422.73	1986.38
422.953	1959.38
423.175	1972.38
423.398	2042.38
423.621	2082.38
423.843	2080.38
424.066	2170.38
424.288	2160.38
424.511	2161.38
424.733	2148.38
424.956	1950.38
425.178	1952.38
425.401	2026.38
425.623	2024.38
425.846	1985.38
426.068	2088.38
426.291	2151.38
426.513	2124.38
426.735	2114.38
426.958	2170.38
427.18	2378.38
427.402	2123.38
427.625	2199.38
427.847	2252.38
428.069	2081.38
428.292	2023.38
428.514	1958.38
428.736	1958.38
428.958	1969.38
429.181	2000.38
429.403	2296.38
429.625	2846.38
429.847	2389.38
430.069	2008.38
430.292	2242.38
430.514	2316.38
430.736	2156.38
430.958	2234.38
431.18	2144.38
431.402	2002.38
431.624	1977.38
431.846	1999.38
432.068	1958.38
432.29	1992.38
432.512	2002.38
432.734	2040.38
432.956	2106.38
433.178	2168.38
433.4	2170.38
433.622	2158.38
433.844	2052.38
434.066	1946.38
434.287	2015.38
434.509	2070.38
434.731	2170.38
434.953	2312.38
435.175	2243.38
435.397	2122.38
435.618	2131.38
435.84	2103.38
436.062	2094.38
436.284	2127.38
436.505	2138.38
436.727	2137.38
436.949	2116.38
437.17	1982.38
437.392	2032.38
437.614	1989.38
437.835	1988.38
438.057	2116.38
438.278	2153.38
438.5	2046.38
438.721	2010.38
438.943	1988.38
439.165	2008.38
439.386	1934.38
439.608	1978.38
439.829	2001.38
440.05	2009.38
440.272	1957.38
440.493	1921.38
440.715	1940.38
440.936	2123.38
441.158	2355.38
441.379	2246.38
441.6	2182.38
441.822	2139.38
442.043	2098.38
442.264	2099.38
442.486	1980.38
442.707	1985.38
442.928	1995.38
443.149	2073.38
443.371	2187.38
443.592	2254.38
443.813	2211.38
444.034	2185.38
444.255	2163.38
444.476	2236.38
444.698	2299.38
444.919	2202.38
445.14	2372.38
445.361	2360.38
445.582	2388.38
445.803	2278.38
446.024	2201.38
446.245	2266.38
446.466	2211.38
446.687	2080.38
446.908	2082.38
447.129	2039.38
447.35	2052.38
447.571	2050.38
447.792	1965.38
448.013	1954.38
448.234	1969.38
448.455	2045.38
448.675	2051.38
448.896	1918.38
449.117	1884.38
449.338	1952.38
449.559	2022.38
449.779	2127.38
450	2349.38
450.221	2566.38
450.442	2475.38
450.662	2118.38
450.883	1905.38
451.104	1904.38
451.324	1872.38
451.545	1956.38
451.766	1925.38
451.986	1849.38
452.207	1854.38
452.428	1800.38
452.648	1745.38
452.869	1824.38
453.089	1961.38
453.31	1986.38
453.53	2025.38
453.751	1922.38
453.971	1824.38
454.192	1844.38
454.412	2021.38
454.633	1902.38
454.853	1881.38
455.073	1760.38
455.294	1752.38
455.514	1754.38
455.734	1751.38
455.955	1811.38
456.175	1788.38
456.395	1767.38
456.616	1825.38
456.836	1890.38
457.056	1848.38
457.276	1793.38
457.497	1767.38
457.717	1743.38
457.937	1767.38
458.157	1823.38
458.377	1801.38
458.598	1782.38
458.818	1777.38
459.038	1926.38
459.258	2000.38
459.478	2024.38
459.698	1919.38
459.918	1980.38
460.138	2084.38
460.358	2166.38
460.578	2124.38
460.798	2242.38
461.018	2351.38
461.238	2227.38
461.458	2121.38
461.678	2169.38
461.898	2086.38
462.118	2039.38
462.338	2160.38
462.558	2145.38
462.777	2116.38
462.997	2239.38
463.217	2350.38
463.437	2339.38
463.657	2161.38
463.876	2123.38
464.096	2151.38
464.316	2119.38
464.536	2203.38
464.755	2247.38
464.975	2270.38
465.195	2198.38
465.414	2273.38
465.634	2282.38
465.854	2114.38
466.073	2260.38
466.293	2195.38
466.512	1932.38
466.732	1938.38
466.951	2004.38
467.171	2003.38
467.391	1911.38
467.61	1887.38
467.829	1913.38
468.049	2055.38
468.268	2315.38
468.488	2187.38
468.707	2066.38
468.927	1998.38
469.146	1956.38
469.365	1907.38
469.585	1915.38
469.804	1929.38
470.023	1932.38
470.243	1991.38
470.462	1975.38
470.681	1897.38
470.901	1964.38
471.12	1925.38
471.339	1927.38
471.558	1861.38
471.777	1832.38
471.997	1931.38
472.216	1887.38
472.435	1848.38
472.654	1914.38
472.873	1980.38
473.092	2104.38
473.311	1982.38
473.53	1896.38
473.749	1860.38
473.968	1946.38
474.187	2004.38
474.406	2138.38
474.625	2006.38
474.844	1982.38
475.063	1934.38
475.282	2031.38
475.501	1963.38
475.72	1976.38
475.939	2075.38
476.158	2059.38
476.377	2007.38
476.596	2010.38
476.814	2044.38
477.033	2051.38
477.252	2161.38
477.471	2172.38
477.69	2085.38
477.908	2047.38
478.127	2169.38
478.346	2375.38
478.564	2344.38
478.783	2338.38
479.002	2368.38
479.22	2387.38
479.439	2387.38
479.658	2759.38
479.876	2694.38
480.095	2400.38
480.313	2275.38
480.532	2192.38
480.751	2232.38
480.969	2261.38
481.188	2236.38
481.406	2208.38
481.624	2161.38
481.843	2139.38
482.061	2203.38
482.28	2250.38
482.498	2322.38
482.717	2282.38
482.935	2185.38
483.153	2196.38
483.372	2151.38
483.59	2176.38
483.808	2208.38
484.027	2222.38
484.245	2380.38
484.463	2627.38
484.681	3072.38
484.9	2433.38
485.118	2272.38
485.336	2214.38
485.554	2321.38
485.772	2375.38
485.99	2307.38
486.209	2377.38
486.427	2335.38
486.645	2364.38
486.863	2283.38
487.081	2388.38
487.299	2446.38
487.517	2412.38
487.735	2326.38
487.953	2292.38
488.171	2257.38
488.389	2244.38
488.607	2314.38
488.825	2474.38
489.043	2510.38
489.261	2248.38
489.479	2385.38
489.696	2427.38
489.914	2423.38
490.132	2374.38
490.35	2296.38
490.568	2370.38
490.786	2286.38
491.003	2240.38
491.221	2295.38
491.439	2376.38
491.657	2396.38
491.874	2357.38
492.092	2383.38
492.31	2352.38
492.527	2327.38
492.745	2338.38
492.963	2359.38
493.18	2450.38
493.398	2580.38
493.615	2682.38
493.833	2407.38
494.05	2354.38
494.268	2382.38
494.485	2464.38
494.703	2407.38
494.92	2347.38
495.138	2323.38
495.355	2375.38
495.573	2476.38
495.79	2608.38
496.008	2626.38
496.225	2482.38
496.442	2532.38
496.66	2542.38
496.877	2522.38
497.094	2610.38
497.312	2609.38
497.529	2555.38
497.746	2672.38
497.963	3035.38
498.181	3418.38
498.398	3219.38
498.615	3096.38
498.832	3099.38
499.049	3019.38
499.267	3095.38
499.484	3263.38
499.701	3527.38
499.918	3536.38
500.135	3716.38
500.352	4074.38
500.569	4009.38
500.786	4230.38
501.003	3967.38
501.22	3625.38
501.437	3552.38
501.654	3527.38
501.871	3376.38
502.088	3048.38
502.305	3024.38
502.522	2890.38
502.739	2726.38
502.956	2619.38
503.172	2632.38
503.389	2550.38
503.606	2484.38
503.823	2536.38
504.04	2524.38
504.256	2523.38
504.473	2508.38
504.69	2630.38
504.907	2449.38
505.123	2367.38
505.34	2450.38
505.557	3169.38
505.773	2740.38
505.99	2320.38
506.207	2220.38
506.423	2164.38
506.64	2153.38
506.856	2153.38
507.073	2402.38
507.289	2535.38
507.506	2507.38
507.722	2156.38
507.939	2076.38
508.155	2083.38
508.372	2146.38
508.588	2034.38
508.805	1959.38
509.021	1923.38
509.238	1989.38
509.454	1952.38
509.67	1944.38
509.887	1924.38
510.103	1947.38
510.319	1947.38
510.536	2051.38
510.752	2103.38
510.968	2134.38
511.184	2238.38
511.401	2212.38
511.617	1968.38
511.833	1876.38
512.049	1870.38
512.265	1913.38
512.481	1890.38
512.698	1995.38
512.914	2090.38
513.13	1993.38
513.346	1915.38
513.562	1857.38
513.778	1849.38
513.994	2038.38
514.21	2025.38
514.426	2094.38
514.642	2318.38
514.858	2190.38
515.074	1963.38
515.29	1920.38
515.506	1995.38
515.721	2046.38
515.937	2027.38
516.153	2329.38
516.369	2215.38
516.585	2078.38
516.801	2008.38
517.016	2015.38
517.232	2048.38
517.448	2079.38
517.664	2129.38
517.879	2068.38
518.095	2203.38
518.311	2136.38
518.527	2010.38
518.742	2022.38
518.958	1903.38
519.173	1912.38
519.389	1951.38
519.605	1986.38
519.82	1968.38
520.036	1981.38
520.251	1928.38
520.467	1919.38
520.682	2092.38
520.898	2163.38
521.113	1950.38
521.329	1900.38
521.544	2067.38
521.76	1968.38
521.975	1850.38
522.19	1797.38
522.406	1802.38
522.621	2155.38
522.836	2172.38
523.052	1799.38
523.267	1808.38
523.482	1839.38
523.698	1733.38
523.913	1699.38
524.128	1792.38
524.343	1825.38
524.559	1843.38
524.774	1771.38
524.989	1766.38
525.204	1772.38
525.419	1717.38
525.634	1697.38
525.849	1727.38
526.064	1775.38
526.28	1776.38
526.495	1722.38
526.71	1689.38
526.925	1730.38
527.14	1712.38
527.355	1658.38
527.57	1666.38
527.785	1713.38
527.999	1610.38
528.214	1614.38
528.429	1658.38
528.644	1608.38
528.859	1682.38
529.074	1631.38
529.289	1640.38
529.503	1688.38
529.718	1687.38
529.933	1666.38
530.148	1627.38
530.363	1618.38
530.577	1662.38
530.792	1700.38
531.007	1715.38
531.221	1655.38
531.436	1681.38
531.651	1740.38
531.865	1816.38
532.08	1751.38
532.295	1670.38
532.509	1574.38
532.724	1632.38
532.938	1682.38
533.153	1785.38
533.367	1700.38
533.582	1670.38
533.796	1663.38
534.011	1646.38
534.225	1667.38
534.44	1636.38
534.654	1631.38
534.868	1587.38
535.083	1676.38
535.297	1669.38
535.511	1631.38
535.726	1625.38
535.94	1640.38
536.154	1593.38
536.369	1588.38
536.583	1574.38
536.797	1585.38
537.011	1650.38
537.225	1542.38
537.44	1563.38
537.654	1626.38
537.868	1562.38
538.082	1473.38
538.296	1497.38
538.51	1513.38
538.724	1497.38
538.938	1511.38
539.153	1536.38
539.367	1556.38
539.581	1540.38
539.795	1616.38
540.009	1590.38
540.222	1564.38
540.436	1586.38
540.65	1732.38
540.864	1724.38
541.078	1643.38
541.292	1537.38
541.506	1520.38
541.72	1556.38
541.934	1524.38
542.147	1587.38
542.361	1563.38
542.575	1530.38
542.789	1472.38
543.002	1427.38
543.216	1499.38
543.43	1568.38
543.644	1588.38
543.857	1660.38
544.071	1616.38
544.285	1577.38
544.498	1534.38
544.712	1561.38
544.925	1547.38
545.139	1576.38
545.352	1539.38
545.566	1441.38
545.779	1437.38
545.993	1466.38
546.206	1486.38
546.42	1442.38
546.633	1423.38
546.847	1414.38
547.06	1476.38
547.274	1429.38
547.487	1426.38
547.7	1458.38
547.914	1477.38
548.127	1492.38
548.34	1498.38
548.554	1470.38
548.767	1459.38
548.98	1415.38
549.193	1513.38
549.407	1536.38
549.62	1522.38
549.833	1454.38
550.046	1445.38
550.259	1503.38
550.473	1426.38
550.686	1448.38
550.899	1395.38
551.112	1360.38
551.325	1381.38
551.538	1447.38
551.751	1690.38
551.964	1392.38
552.177	1380.38
552.39	1398.38
552.603	1412.38
552.816	1442.38
553.029	1480.38
553.242	1511.38
553.455	1480.38
553.667	1417.38
553.88	1477.38
554.093	1433.38
554.306	1395.38
554.519	1377.38
554.732	1347.38
554.944	1368.38
555.157	1392.38
555.37	1321.38
555.583	1378.38
555.795	1318.38
556.008	1311.38
556.221	1278.38
556.433	1270.38
556.646	1232.38
556.859	1213.38
557.071	1240.38
557.284	1241.38
557.496	1238.38
557.709	1230.38
557.921	1222.38
558.134	1211.38
558.346	1222.38
558.559	1187.38
558.771	1184.38
558.984	1186.38
559.196	1174.38
559.409	1170.38
559.621	1185.38
559.833	1204.38
560.046	1242.38
560.258	1193.38
560.47	1190.38
560.683	1217.38
560.895	1203.38
561.107	1206.38
561.32	1170.38
561.532	1212.38
561.744	1159.38
561.956	1188.38
562.168	1196.38
562.381	1179.38
562.593	1131.38
562.805	1139.38
563.017	1148.38
563.229	1181.38
563.441	1207.38
563.653	1154.38
563.865	1202.38
564.077	1166.38
564.289	1129.38
564.501	1171.38
564.713	1190.38
564.925	1180.38
565.137	1336.38
565.349	1214.38
565.561	1232.38
565.773	1259.38
565.985	1278.38
566.197	1341.38
566.408	1414.38
566.62	1421.38
566.832	1410.38
567.044	1410.38
567.255	1388.38
567.467	1444.38
567.679	1490.38
567.891	1502.38
568.102	1488.38
568.314	1398.38
568.526	1362.38
568.737	1279.38
568.949	1240.38
569.161	1230.38
569.372	1151.38
569.584	1154.38
569.795	1131.38
570.007	1112.38
570.218	1077.38
570.43	1087.38
570.641	1057.38
570.853	1052.38
571.064	1075.38
571.276	1050.38
571.487	1028.38
571.698	976.38
571.91	983.38
572.121	988.38
572.333	958.38
572.544	969.38
572.755	933.38
572.966	962.38
573.178	930.38
573.389	956.38
573.6	973.38
573.811	1042.38
574.023	965.38
574.234	970.38
574.445	886.38
574.656	888.38
574.867	884.38
575.078	868.38
575.289	917.38
575.501	889.38
575.712	864.38
575.923	875.38
576.134	884.38
576.345	875.38
576.556	841.38
576.767	867.38
576.978	843.38
577.188	839.38
577.399	828.38
577.61	850.38
577.821	838.38
578.032	820.38
578.243	825.38
578.454	807.38
578.665	814.38
578.875	782.38
579.086	817.38
579.297	807.38
579.508	853.38
579.718	820.38
579.929	794.38
580.14	766.38
580.35	789.38
580.561	807.38
580.772	883.38
580.982	851.38
581.193	792.38
581.403	772.38
581.614	750.38
581.825	778.38
582.035	767.38
582.246	741.38
582.456	814.38
582.667	781.38
582.877	769.38
583.087	758.38
583.298	757.38
583.508	754.38
583.719	762.38
583.929	748.38
584.139	754.38
584.35	707.38
584.56	721.38
584.77	747.38
584.981	740.38
585.191	760.38
585.401	770.38
585.611	736.38
585.821	743.38
586.032	742.38
586.242	723.38
586.452	700.38
586.662	700.38
586.872	730.38
587.082	706.38
587.292	744.38
587.502	743.38
587.713	730.38
587.923	715.38
588.133	711.38
588.343	738.38
588.553	702.38
588.762	709.38
588.972	727.38
589.182	753.38
589.392	737.38
589.602	737.38
589.812	705.38
590.022	704.38
590.232	684.38
590.441	709.38
590.651	740.38
590.861	700.38
591.071	712.38
591.281	695.38
591.49	721.38
591.7	708.38
591.91	706.38
592.119	721.38
592.329	722.38
592.539	717.38
592.748	744.38
592.958	758.38
593.167	756.38
593.377	750.38
593.587	766.38
593.796	747.38
594.006	752.38
594.215	768.38
594.424	709.38
594.634	722.38
594.843	736.38
595.053	744.38
595.262	711.38
595.472	698.38
595.681	675.38
595.89	684.38
596.1	671.38
596.309	670.38
596.518	664.38
596.727	661.38
596.937	644.38
597.146	640.38
597.355	641.38
597.564	642.38
597.774	632.38
597.983	614.38
598.192	622.38
598.401	615.38
598.61	614.38
598.819	604.38
599.028	597.38
599.237	620.38
599.446	602.38
599.655	605.38
599.864	597.38
600.073	575.38
600.282	590.38
600.491	581.38
600.7	594.38
600.909	567.38
601.118	581.38
601.327	577.38
601.536	588.38
601.745	588.38
601.953	553.38
602.162	571.38
602.371	599.38
602.58	559.38
602.789	580.38
602.997	587.38
603.206	572.38
603.415	561.38
603.623	550.38
603.832	570.38
604.041	545.38
604.249	535.38
604.458	555.38
604.666	555.38
604.875	538.38
605.084	543.38
605.292	589.38
605.501	561.38
605.709	552.38
605.918	539.38
606.126	513.38
606.334	533.38
606.543	546.38
606.751	561.38
606.96	550.38
607.168	545.38
607.376	509.38
607.585	548.38
607.793	548.38
608.001	522.38
608.21	524.38
608.418	532.38
608.626	524.38
608.834	522.38
609.043	539.38
609.251	534.38
609.459	515.38
609.667	535.38
609.875	517.38
610.083	515.38
610.291	547.38
610.499	535.38
610.707	522.38
610.916	518.38
611.124	496.38
611.332	486.38
611.54	514.38
611.748	520.38
611.955	517.38
612.163	504.38
612.371	508.38
612.579	492.38
612.787	514.38
612.995	499.38
613.203	499.38
613.411	511.38
613.618	487.38
613.826	497.38
614.034	508.38
614.242	495.38
614.449	488.38
614.657	504.38
614.865	490.38
615.072	502.38
615.28	480.38
615.488	506.38
615.695	522.38
615.903	524.38
616.111	480.38
616.318	495.38
616.526	483.38
616.733	489.38
616.941	477.38
617.148	491.38
617.356	505.38
617.563	484.38
617.771	473.38
617.978	467.38
618.185	459.38
618.393	496.38
618.6	455.38
618.807	495.38
619.015	483.38
619.222	466.38
619.429	467.38
619.637	478.38
619.844	471.38
620.051	454.38
620.258	442.38
620.466	422.38
620.673	436.38
620.88	427.38
621.087	418.38
621.294	447.38
621.501	427.38
621.708	473.38
621.915	454.38
622.122	438.38
622.329	458.38
622.536	457.38
622.743	428.38
622.95	450.38
623.157	444.38
623.364	410.38
623.571	420.38
623.778	427.38
623.985	443.38
624.192	421.38
624.399	425.38
624.606	419.38
624.812	402.38
625.019	424.38
625.226	419.38
625.433	423.38
625.639	428.38
625.846	425.38
626.053	420.38
626.259	400.38
626.466	399.38
626.673	415.38
626.879	373.38
627.086	395.38
627.293	411.38
627.499	382.38
627.706	408.38
627.912	380.38
628.119	413.38
628.325	382.38
628.532	401.38
628.738	409.38
628.945	387.38
629.151	379.38
629.357	397.38
629.564	376.38
629.77	383.38
629.976	380.38
630.183	397.38
630.389	384.38
630.595	396.38
630.802	363.38
631.008	358.38
631.214	375.38
631.42	352.38
631.627	351.38
631.833	355.38
632.039	372.38
632.245	358.38
632.451	352.38
632.657	374.38
632.863	358.38
633.069	367.38
633.275	350.38
633.481	348.38
633.688	340.38
633.893	374.38
634.099	332.38
634.305	354.38
634.511	338.38
634.717	351.38
634.923	354.38
635.129	329.38
635.335	354.38
635.541	355.38
635.747	342.38
635.952	339.38
636.158	356.38
636.364	346.38
636.57	342.38
636.775	342.38
636.981	351.38
637.187	312.38
637.392	342.38
637.598	339.38
637.804	336.38
638.009	335.38
638.215	329.38
638.421	329.38
638.626	342.38
638.832	330.38
639.037	326.38
639.243	338.38
639.448	331.38
639.654	318.38
639.859	324.38
640.065	322.38
640.27	333.38
640.475	324.38
640.681	341.38
640.886	319.38
641.091	308.38
641.297	315.38
641.502	319.38
641.707	323.38
641.913	320.38
642.118	325.38
642.323	306.38
642.528	331.38
642.733	311.38
642.939	313.38
643.144	314.38
643.349	313.38
643.554	319.38
643.759	303.38
643.964	300.38
644.169	308.38
644.374	303.38
644.579	306.38
644.784	292.38
644.989	294.38
645.194	309.38
645.399	298.38
645.604	297.38
645.809	314.38
646.014	297.38
646.219	296.38
646.423	322.38
646.628	326.38
646.833	293.38
647.038	301.38
647.243	303.38
647.447	293.38
647.652	304.38
647.857	297.38
648.062	327.38
648.266	306.38
648.471	294.38
648.676	298.38
648.88	331.38
649.085	306.38
649.289	291.38
649.494	288.38
649.698	273.38
649.903	290.38
650.107	285.38
650.312	295.38
650.516	273.38
650.721	272.38
650.925	250.38
651.13	266.38
651.334	300.38
651.539	262.38
651.743	269.38
651.947	242.38
652.152	260.38
652.356	249.38
652.56	243.38
652.764	257.38
652.969	255.38
653.173	245.38
653.377	235.38
653.581	250.38
653.785	246.38
653.99	235.38
654.194	240.38
654.398	250.38
654.602	223.38
654.806	224.38
655.01	228.38
655.214	249.38
655.418	248.38
655.622	240.38
655.826	238.38
656.03	238.38
656.234	257.38
656.438	252.38
656.642	263.38
656.846	249.38
657.049	233.38
657.253	218.38
657.457	194.38
657.661	186.38
657.865	191.38
658.068	186.38
658.272	167.38
658.476	160.38
658.68	160.38
658.883	160.38
659.087	148.38
659.291	148.38
659.494	141.38
659.698	132.38
659.901	143.38
660.105	130.38
660.309	120.38
660.512	123.38
660.716	98.38
660.919	109.38
661.123	105.38
661.326	108.38
661.53	106.38
661.733	115.38
661.936	100.38
662.14	86.38
662.343	102.38
662.546	76.38
662.75	89.38
662.953	85.38
663.156	106.38
663.36	85.38
663.563	92.38
663.766	85.38
663.969	88.38
664.173	92.38
664.376	76.38
664.579	79.38
664.782	77.38
664.985	79.38
665.188	80.38
665.391	82.38
665.594	69.38
665.797	69.38
666	86.38
666.203	81.38
666.406	91.38
666.609	78.38
666.812	87.38
667.015	68.38
667.218	85.38
667.421	64.38
667.624	75.38
667.827	81.38
668.03	80.38
668.232	78.38
668.435	81.38
668.638	85.38
668.841	79.38
669.043	81.38
669.246	92.38
669.449	67.38
669.651	74.38
669.854	82.38
670.057	79.38
670.259	81.38
670.462	65.38
670.665	64.38
670.867	84.38
671.07	80.38
671.272	88.38
671.475	81.38
671.677	95.38
671.88	88.38
672.082	70.38
672.284	74.38
672.487	93.38
672.689	80.38
672.892	76.38
