Data from WStandard_LampEnergy5.5LIBS07252019.E.O._I.C._HRD10591_16-08-26-920.txt Node
Date: Thu Jul 25 16:08:26 EDT 2019
User: cochatt
Spectrometer: HR+D1059
Trigger mode: 1
Integration Time (sec): 1.000000E-1
Scans to average: 1
Electric dark correction enabled: true
Nonlinearity correction enabled: false
Boxcar width: 0
XAxis mode: Wavelengths
Number of Pixels in Spectrum: 2048
>>>>>Begin Spectral Data<<<<<
223.165	-28.56
223.4	-28.56
223.635	-28.56
223.869	-23.56
224.104	-16.56
224.338	-18.56
224.573	-23.56
224.808	-15.56
225.042	-5.56
225.277	-5.56
225.511	-6.56
225.746	10.44
225.98	12.44
226.215	20.44
226.449	10.44
226.683	28.44
226.918	34.44
227.152	27.44
227.387	36.44
227.621	30.44
227.856	40.44
228.09	48.44
228.324	45.44
228.559	74.44
228.793	139.44
229.027	337.44
229.262	367.44
229.496	385.44
229.73	376.44
229.964	420.44
230.199	447.44
230.433	479.44
230.667	499.44
230.901	518.44
231.136	490.44
231.37	465.44
231.604	446.44
231.838	474.44
232.072	484.44
232.306	415.44
232.541	470.44
232.775	564.44
233.009	613.44
233.243	579.44
233.477	516.44
233.711	543.44
233.945	552.44
234.179	539.44
234.413	588.44
234.647	613.44
234.881	585.44
235.115	523.44
235.349	535.44
235.583	576.44
235.817	520.44
236.051	543.44
236.285	562.44
236.519	560.44
236.753	657.44
236.987	674.44
237.221	648.44
237.455	719.44
237.689	723.44
237.922	666.44
238.156	647.44
238.39	645.44
238.624	715.44
238.858	730.44
239.091	746.44
239.325	799.44
239.559	921.44
239.793	928.44
240.027	1002.44
240.26	1007.44
240.494	748.44
240.728	691.44
240.961	714.44
241.195	718.44
241.429	803.44
241.662	807.44
241.896	749.44
242.13	752.44
242.363	825.44
242.597	889.44
242.83	866.44
243.064	850.44
243.298	950.44
243.531	908.44
243.765	923.44
243.998	908.44
244.232	811.44
244.465	777.44
244.699	761.44
244.932	882.44
245.166	1031.44
245.399	976.44
245.633	873.44
245.866	856.44
246.099	917.44
246.333	930.44
246.566	951.44
246.8	1025.44
247.033	1176.44
247.266	1058.44
247.5	1045.44
247.733	1036.44
247.966	1084.44
248.2	1207.44
248.433	1171.44
248.666	1176.44
248.899	1282.44
249.133	1467.44
249.366	1729.44
249.599	1396.44
249.832	1188.44
250.066	1250.44
250.299	1294.44
250.532	1186.44
250.765	1065.44
250.998	1145.44
251.231	1172.44
251.465	1217.44
251.698	1155.44
251.931	1151.44
252.164	1184.44
252.397	1223.44
252.63	1215.44
252.863	1084.44
253.096	1083.44
253.329	1120.44
253.562	1163.44
253.795	1258.44
254.028	1246.44
254.261	1127.44
254.494	1143.44
254.727	1098.44
254.96	1098.44
255.193	1209.44
255.426	1353.44
255.659	1573.44
255.892	1647.44
256.124	1326.44
256.357	1314.44
256.59	1377.44
256.823	1381.44
257.056	1396.44
257.289	1647.44
257.521	1917.44
257.754	1691.44
257.987	1556.44
258.22	1742.44
258.452	1729.44
258.685	1407.44
258.918	1337.44
259.151	1361.44
259.383	1290.44
259.616	1134.44
259.849	1201.44
260.081	1353.44
260.314	1490.44
260.547	1671.44
260.779	1680.44
261.012	1575.44
261.244	1407.44
261.477	1327.44
261.71	1397.44
261.942	1360.44
262.175	1339.44
262.407	1462.44
262.64	1336.44
262.872	1235.44
263.105	1193.44
263.337	1233.44
263.57	1249.44
263.802	1247.44
264.035	1174.44
264.267	1093.44
264.499	1087.44
264.732	1172.44
264.964	1256.44
265.197	1300.44
265.429	1368.44
265.661	1540.44
265.894	1698.44
266.126	1778.44
266.358	1579.44
266.591	1601.44
266.823	1737.44
267.055	1581.44
267.287	1583.44
267.52	1529.44
267.752	1502.44
267.984	1511.44
268.216	1577.44
268.448	1625.44
268.681	1608.44
268.913	1448.44
269.145	1386.44
269.377	1367.44
269.609	1435.44
269.841	1721.44
270.073	2003.44
270.306	2240.44
270.538	2375.44
270.77	2000.44
271.002	1718.44
271.234	1569.44
271.466	1577.44
271.698	1770.44
271.93	2125.44
272.162	2165.44
272.394	1949.44
272.626	1853.44
272.858	1628.44
273.09	1417.44
273.322	1409.44
273.553	1366.44
273.785	1359.44
274.017	1397.44
274.249	1523.44
274.481	1557.44
274.713	1409.44
274.945	1367.44
275.176	1393.44
275.408	1333.44
275.64	1345.44
275.872	1296.44
276.104	1375.44
276.335	1615.44
276.567	1848.44
276.799	1894.44
277.031	1673.44
277.262	1549.44
277.494	1628.44
277.726	1803.44
277.957	1809.44
278.189	1647.44
278.421	1494.44
278.652	1474.44
278.884	1442.44
279.115	1451.44
279.347	1517.44
279.579	1428.44
279.81	1396.44
280.042	1568.44
280.273	1712.44
280.505	1728.44
280.736	1782.44
280.968	1664.44
281.199	1500.44
281.431	1411.44
281.662	1394.44
281.894	1391.44
282.125	1443.44
282.356	1484.44
282.588	1515.44
282.819	1496.44
283.051	1619.44
283.282	1745.44
283.513	1724.44
283.745	1463.44
283.976	1362.44
284.207	1383.44
284.439	1419.44
284.67	1414.44
284.901	1452.44
285.132	1506.44
285.364	1506.44
285.595	1483.44
285.826	1471.44
286.057	1456.44
286.288	1447.44
286.52	1513.44
286.751	1661.44
286.982	1725.44
287.213	1529.44
287.444	1413.44
287.675	1413.44
287.906	1487.44
288.138	1587.44
288.369	1568.44
288.6	1482.44
288.831	1408.44
289.062	1450.44
289.293	1481.44
289.524	1470.44
289.755	1508.44
289.986	1513.44
290.217	1399.44
290.448	1433.44
290.679	1481.44
290.91	1499.44
291.141	1510.44
291.371	1583.44
291.602	1558.44
291.833	1548.44
292.064	1636.44
292.295	1570.44
292.526	1623.44
292.757	1669.44
292.987	1603.44
293.218	1463.44
293.449	1568.44
293.68	1795.44
293.91	2013.44
294.141	1852.44
294.372	1725.44
294.603	1752.44
294.833	1875.44
295.064	1776.44
295.295	1579.44
295.525	1575.44
295.756	1451.44
295.987	1360.44
296.217	1407.44
296.448	1445.44
296.679	1441.44
296.909	1440.44
297.14	1431.44
297.37	1447.44
297.601	1522.44
297.831	1643.44
298.062	1715.44
298.292	1559.44
298.523	1487.44
298.753	1508.44
298.984	1485.44
299.214	1493.44
299.445	1480.44
299.675	1573.44
299.905	1555.44
300.136	1528.44
300.366	1463.44
300.597	1403.44
300.827	1446.44
301.057	1501.44
301.288	1592.44
301.518	1568.44
301.748	1621.44
301.979	1663.44
302.209	1694.44
302.439	1772.44
302.669	1926.44
302.9	1790.44
303.13	1605.44
303.36	1601.44
303.59	1623.44
303.82	1602.44
304.051	1592.44
304.281	1607.44
304.511	1584.44
304.741	1683.44
304.971	1872.44
305.201	2065.44
305.431	1923.44
305.661	1535.44
305.891	1406.44
306.121	1407.44
306.352	1429.44
306.582	1548.44
306.812	1659.44
307.042	1746.44
307.272	1759.44
307.502	1805.44
307.731	1943.44
307.961	2083.44
308.191	1964.44
308.421	1647.44
308.651	1571.44
308.881	1557.44
309.111	1540.44
309.341	1517.44
309.571	1510.44
309.8	1540.44
310.03	1527.44
310.26	1517.44
310.49	1497.44
310.72	1598.44
310.949	1619.44
311.179	1621.44
311.409	1613.44
311.639	1559.44
311.868	1529.44
312.098	1533.44
312.328	1527.44
312.557	1529.44
312.787	1545.44
313.017	1619.44
313.246	1592.44
313.476	1592.44
313.706	1651.44
313.935	1659.44
314.165	1634.44
314.394	1660.44
314.624	1740.44
314.853	1883.44
315.083	1903.44
315.312	2018.44
315.542	1910.44
315.771	1696.44
316.001	1647.44
316.23	1707.44
316.46	1752.44
316.689	1718.44
316.919	1609.44
317.148	1577.44
317.377	1539.44
317.607	1700.44
317.836	1907.44
318.065	2010.44
318.295	1920.44
318.524	1835.44
318.753	1727.44
318.983	1719.44
319.212	1703.44
319.441	1639.44
319.67	1667.44
319.9	1715.44
320.129	1766.44
320.358	1860.44
320.587	1884.44
320.816	1854.44
321.046	1822.44
321.275	1676.44
321.504	1735.44
321.733	1851.44
321.962	1846.44
322.191	1693.44
322.42	1706.44
322.649	1657.44
322.878	1654.44
323.108	1677.44
323.337	1740.44
323.566	1761.44
323.795	1704.44
324.024	1739.44
324.253	1657.44
324.482	1691.44
324.71	1675.44
324.939	1580.44
325.168	1613.44
325.397	1653.44
325.626	1740.44
325.855	1711.44
326.084	1630.44
326.313	1707.44
326.542	1695.44
326.77	1760.44
326.999	1739.44
327.228	1706.44
327.457	1572.44
327.686	1602.44
327.914	1669.44
328.143	1657.44
328.372	1661.44
328.6	1639.44
328.829	1661.44
329.058	1643.44
329.287	1627.44
329.515	1695.44
329.744	1703.44
329.972	1793.44
330.201	1860.44
330.43	1863.44
330.658	1758.44
330.887	1781.44
331.115	1785.44
331.344	1840.44
331.572	1773.44
331.801	1738.44
332.03	1745.44
332.258	1788.44
332.486	1829.44
332.715	1774.44
332.943	1786.44
333.172	1797.44
333.4	1771.44
333.629	1819.44
333.857	1900.44
334.085	2101.44
334.314	2368.44
334.542	2649.44
334.771	2460.44
334.999	2151.44
335.227	2012.44
335.455	1881.44
335.684	1857.44
335.912	1892.44
336.14	2013.44
336.369	1940.44
336.597	1855.44
336.825	1797.44
337.053	1848.44
337.281	1917.44
337.51	2049.44
337.738	2118.44
337.966	2040.44
338.194	1865.44
338.422	1805.44
338.65	1724.44
338.878	1714.44
339.106	1733.44
339.334	1648.44
339.562	1585.44
339.79	1692.44
340.018	1790.44
340.246	1848.44
340.474	1854.44
340.702	1791.44
340.93	1849.44
341.158	1795.44
341.386	1760.44
341.614	1772.44
341.842	1740.44
342.07	1752.44
342.298	1801.44
342.526	1755.44
342.754	1727.44
342.981	1684.44
343.209	1732.44
343.437	1720.44
343.665	1741.44
343.893	1756.44
344.12	1908.44
344.348	1896.44
344.576	1788.44
344.804	1723.44
345.031	1723.44
345.259	1725.44
345.487	1699.44
345.714	1636.44
345.942	1594.44
346.17	1612.44
346.397	1673.44
346.625	1676.44
346.853	1589.44
347.08	1569.44
347.308	1550.44
347.535	1627.44
347.763	1709.44
347.99	1589.44
348.218	1555.44
348.445	1594.44
348.673	1601.44
348.9	1689.44
349.128	1732.44
349.355	1763.44
349.583	1729.44
349.81	1680.44
350.037	1516.44
350.265	1533.44
350.492	1555.44
350.72	1557.44
350.947	1610.44
351.174	1656.44
351.402	1594.44
351.629	1524.44
351.856	1496.44
352.083	1552.44
352.311	1500.44
352.538	1539.44
352.765	1598.44
352.992	1683.44
353.22	1602.44
353.447	1547.44
353.674	1576.44
353.901	1595.44
354.128	1577.44
354.355	1542.44
354.583	1664.44
354.81	1714.44
355.037	1659.44
355.264	1639.44
355.491	1599.44
355.718	1636.44
355.945	1596.44
356.172	1576.44
356.399	1531.44
356.626	1567.44
356.853	1579.44
357.08	1713.44
357.307	1879.44
357.534	1905.44
357.761	1703.44
357.988	1555.44
358.215	1497.44
358.441	1536.44
358.668	1540.44
358.895	1515.44
359.122	1611.44
359.349	1812.44
359.576	1772.44
359.802	1621.44
360.029	1536.44
360.256	1521.44
360.483	1548.44
360.709	1565.44
360.936	1657.44
361.163	1688.44
361.39	1877.44
361.616	2002.44
361.843	1986.44
362.07	1805.44
362.296	1639.44
362.523	1588.44
362.749	1598.44
362.976	1618.44
363.203	1620.44
363.429	1584.44
363.656	1540.44
363.882	1575.44
364.109	1777.44
364.335	1943.44
364.562	1813.44
364.788	1720.44
365.015	1665.44
365.241	1535.44
365.468	1575.44
365.694	1644.44
365.92	1749.44
366.147	1695.44
366.373	1542.44
366.599	1526.44
366.826	1552.44
367.052	1573.44
367.278	1572.44
367.505	1608.44
367.731	1659.44
367.957	1645.44
368.184	1637.44
368.41	1747.44
368.636	1788.44
368.862	1776.44
369.089	1799.44
369.315	1734.44
369.541	1674.44
369.767	1610.44
369.993	1589.44
370.219	1587.44
370.445	1618.44
370.672	1698.44
370.898	1784.44
371.124	1835.44
371.35	1676.44
371.576	1732.44
371.802	1809.44
372.028	1729.44
372.254	1672.44
372.48	1599.44
372.706	1604.44
372.932	1637.44
373.158	1602.44
373.384	1656.44
373.61	1704.44
373.835	1786.44
374.061	1687.44
374.287	1644.44
374.513	1661.44
374.739	1676.44
374.965	1716.44
375.191	1718.44
375.416	1731.44
375.642	1683.44
375.868	1829.44
376.094	1843.44
376.319	1803.44
376.545	1719.44
376.771	1697.44
376.997	1817.44
377.222	1752.44
377.448	1705.44
377.674	1755.44
377.899	1703.44
378.125	1827.44
378.35	1855.44
378.576	1666.44
378.802	1607.44
379.027	1627.44
379.253	1648.44
379.478	1642.44
379.704	1661.44
379.929	1660.44
380.155	1693.44
380.38	1706.44
380.606	1707.44
380.831	1704.44
381.057	1737.44
381.282	1759.44
381.507	1738.44
381.733	1813.44
381.958	1927.44
382.184	1780.44
382.409	1733.44
382.634	1743.44
382.86	1716.44
383.085	1764.44
383.31	1805.44
383.535	1928.44
383.761	2062.44
383.986	1904.44
384.211	1879.44
384.436	1869.44
384.662	1933.44
384.887	2028.44
385.112	1944.44
385.337	1929.44
385.562	1925.44
385.787	1924.44
386.013	1967.44
386.238	1957.44
386.463	1923.44
386.688	2081.44
386.913	2196.44
387.138	2132.44
387.363	1945.44
387.588	1962.44
387.813	1990.44
388.038	1955.44
388.263	2047.44
388.488	2044.44
388.713	1827.44
388.938	1793.44
389.163	1843.44
389.387	1891.44
389.612	1896.44
389.837	1915.44
390.062	1932.44
390.287	1941.44
390.512	1929.44
390.736	1842.44
390.961	1855.44
391.186	1831.44
391.411	1847.44
391.636	1907.44
391.86	1898.44
392.085	1897.44
392.31	1879.44
392.534	1916.44
392.759	1944.44
392.984	1930.44
393.208	1946.44
393.433	1980.44
393.658	2028.44
393.882	2091.44
394.107	1980.44
394.331	1945.44
394.556	1877.44
394.78	1931.44
395.005	1963.44
395.229	2010.44
395.454	2200.44
395.678	2220.44
395.903	2110.44
396.127	1979.44
396.352	2022.44
396.576	2137.44
396.801	2104.44
397.025	2098.44
397.249	2091.44
397.474	2061.44
397.698	2025.44
397.922	2126.44
398.147	2217.44
398.371	2280.44
398.595	2281.44
398.82	2231.44
399.044	2294.44
399.268	2324.44
399.492	2501.44
399.717	2573.44
399.941	2608.44
400.165	2499.44
400.389	2413.44
400.613	2417.44
400.837	2650.44
401.062	3091.44
401.286	2650.44
401.51	2374.44
401.734	2461.44
401.958	2421.44
402.182	2234.44
402.406	2183.44
402.63	2166.44
402.854	2146.44
403.078	2175.44
403.302	2240.44
403.526	2308.44
403.75	2283.44
403.974	2237.44
404.198	2300.44
404.422	2281.44
404.645	2447.44
404.869	2406.44
405.093	2254.44
405.317	2172.44
405.541	2274.44
405.765	2309.44
405.988	2258.44
406.212	2364.44
406.436	2367.44
406.66	2439.44
406.883	2419.44
407.107	2709.44
407.331	2919.44
407.555	3162.44
407.778	2969.44
408.002	2458.44
408.226	2370.44
408.449	2397.44
408.673	2348.44
408.896	2307.44
409.12	2418.44
409.344	2347.44
409.567	2245.44
409.791	2314.44
410.014	2340.44
410.238	2424.44
410.461	2551.44
410.685	2311.44
410.908	2223.44
411.132	2261.44
411.355	2309.44
411.578	2154.44
411.802	2231.44
412.025	2287.44
412.249	2232.44
412.472	2149.44
412.695	2105.44
412.919	2134.44
413.142	2100.44
413.365	2199.44
413.589	2218.44
413.812	2270.44
414.035	2412.44
414.258	2234.44
414.482	2197.44
414.705	2219.44
414.928	2154.44
415.151	2156.44
415.374	2170.44
415.597	2212.44
415.821	2219.44
416.044	2281.44
416.267	2311.44
416.49	2109.44
416.713	2078.44
416.936	2132.44
417.159	2248.44
417.382	2245.44
417.605	2112.44
417.828	2180.44
418.051	2217.44
418.274	2174.44
418.497	2092.44
418.72	2108.44
418.943	2078.44
419.166	2203.44
419.389	2363.44
419.611	2222.44
419.834	2156.44
420.057	2200.44
420.28	2070.44
420.503	2105.44
420.726	2140.44
420.948	2107.44
421.171	2059.44
421.394	2147.44
421.617	2179.44
421.839	2189.44
422.062	2133.44
422.285	2097.44
422.507	2108.44
422.73	2028.44
422.953	1988.44
423.175	2020.44
423.398	2085.44
423.621	2104.44
423.843	2109.44
424.066	2138.44
424.288	2236.44
424.511	2220.44
424.733	2144.44
424.956	1983.44
425.178	1940.44
425.401	2013.44
425.623	2035.44
425.846	1990.44
426.068	2093.44
426.291	2178.44
426.513	2172.44
426.735	2136.44
426.958	2242.44
427.18	2385.44
427.402	2198.44
427.625	2250.44
427.847	2281.44
428.069	2116.44
428.292	2092.44
428.514	2000.44
428.736	1977.44
428.958	2026.44
429.181	2055.44
429.403	2270.44
429.625	2849.44
429.847	2520.44
430.069	2072.44
430.292	2266.44
430.514	2338.44
430.736	2189.44
430.958	2304.44
431.18	2194.44
431.402	1998.44
431.624	1999.44
431.846	2009.44
432.068	1985.44
432.29	2009.44
432.512	2069.44
432.734	2081.44
432.956	2104.44
433.178	2204.44
433.4	2181.44
433.622	2193.44
433.844	2076.44
434.066	1971.44
434.287	1993.44
434.509	2108.44
434.731	2207.44
434.953	2296.44
435.175	2255.44
435.397	2160.44
435.618	2117.44
435.84	2187.44
436.062	2093.44
436.284	2124.44
436.505	2168.44
436.727	2197.44
436.949	2041.44
437.17	2035.44
437.392	2017.44
437.614	2061.44
437.835	2036.44
438.057	2105.44
438.278	2175.44
438.5	2094.44
438.721	1984.44
438.943	2078.44
439.165	2007.44
439.386	1973.44
439.608	2012.44
439.829	2006.44
440.05	2022.44
440.272	1978.44
440.493	1891.44
440.715	1996.44
440.936	2153.44
441.158	2353.44
441.379	2364.44
441.6	2237.44
441.822	2168.44
442.043	2170.44
442.264	2129.44
442.486	1989.44
442.707	2004.44
442.928	1979.44
443.149	2058.44
443.371	2248.44
443.592	2273.44
443.813	2226.44
444.034	2228.44
444.255	2228.44
444.476	2290.44
444.698	2329.44
444.919	2296.44
445.14	2324.44
445.361	2351.44
445.582	2418.44
445.803	2299.44
446.024	2225.44
446.245	2298.44
446.466	2227.44
446.687	2085.44
446.908	2127.44
447.129	2037.44
447.35	2103.44
447.571	2068.44
447.792	2007.44
448.013	1931.44
448.234	1995.44
448.455	2131.44
448.675	2146.44
448.896	1942.44
449.117	1917.44
449.338	2007.44
449.559	2041.44
449.779	2201.44
450	2421.44
450.221	2573.44
450.442	2483.44
450.662	2211.44
450.883	1921.44
451.104	1895.44
451.324	1967.44
451.545	1984.44
451.766	1962.44
451.986	1891.44
452.207	1872.44
452.428	1829.44
452.648	1813.44
452.869	1849.44
453.089	1980.44
453.31	2001.44
453.53	2001.44
453.751	1947.44
453.971	1845.44
454.192	1876.44
454.412	2042.44
454.633	1936.44
454.853	1881.44
455.073	1776.44
455.294	1774.44
455.514	1803.44
455.734	1807.44
455.955	1823.44
456.175	1823.44
456.395	1800.44
456.616	1834.44
456.836	1944.44
457.056	1865.44
457.276	1865.44
457.497	1778.44
457.717	1773.44
457.937	1797.44
458.157	1870.44
458.377	1799.44
458.598	1773.44
458.818	1794.44
459.038	1938.44
459.258	2072.44
459.478	2041.44
459.698	2010.44
459.918	2018.44
460.138	2096.44
460.358	2172.44
460.578	2196.44
460.798	2268.44
461.018	2389.44
461.238	2258.44
461.458	2139.44
461.678	2164.44
461.898	2155.44
462.118	2065.44
462.338	2183.44
462.558	2191.44
462.777	2154.44
462.997	2279.44
463.217	2431.44
463.437	2406.44
463.657	2181.44
463.876	2136.44
464.096	2166.44
464.316	2172.44
464.536	2255.44
464.755	2228.44
464.975	2315.44
465.195	2173.44
465.414	2309.44
465.634	2285.44
465.854	2153.44
466.073	2278.44
466.293	2257.44
466.512	1983.44
466.732	1967.44
466.951	2102.44
467.171	2053.44
467.391	1990.44
467.61	1886.44
467.829	1977.44
468.049	2089.44
468.268	2299.44
468.488	2186.44
468.707	2083.44
468.927	2019.44
469.146	1949.44
469.365	1927.44
469.585	1955.44
469.804	1967.44
470.023	1971.44
470.243	1986.44
470.462	1956.44
470.681	1945.44
470.901	2002.44
471.12	1955.44
471.339	1951.44
471.558	1895.44
471.777	1861.44
471.997	1951.44
472.216	1911.44
472.435	1832.44
472.654	1913.44
472.873	1972.44
473.092	2116.44
473.311	2059.44
473.53	1877.44
473.749	1889.44
473.968	1954.44
474.187	2039.44
474.406	2146.44
474.625	2043.44
474.844	2021.44
475.063	1989.44
475.282	2053.44
475.501	1991.44
475.72	2008.44
475.939	2111.44
476.158	2085.44
476.377	2000.44
476.596	2058.44
476.814	2071.44
477.033	2078.44
477.252	2166.44
477.471	2221.44
477.69	2120.44
477.908	2082.44
478.127	2206.44
478.346	2367.44
478.564	2359.44
478.783	2374.44
479.002	2453.44
479.22	2369.44
479.439	2483.44
479.658	2772.44
479.876	2793.44
480.095	2410.44
480.313	2287.44
480.532	2205.44
480.751	2256.44
480.969	2303.44
481.188	2205.44
481.406	2304.44
481.624	2172.44
481.843	2229.44
482.061	2258.44
482.28	2311.44
482.498	2317.44
482.717	2307.44
482.935	2216.44
483.153	2195.44
483.372	2237.44
483.59	2218.44
483.808	2238.44
484.027	2296.44
484.245	2412.44
484.463	2761.44
484.681	3202.44
484.9	2464.44
485.118	2288.44
485.336	2230.44
485.554	2369.44
485.772	2475.44
485.99	2423.44
486.209	2440.44
486.427	2409.44
486.645	2439.44
486.863	2343.44
487.081	2395.44
487.299	2435.44
487.517	2405.44
487.735	2309.44
487.953	2276.44
488.171	2256.44
488.389	2245.44
488.607	2298.44
488.825	2472.44
489.043	2548.44
489.261	2310.44
489.479	2481.44
489.696	2481.44
489.914	2470.44
490.132	2355.44
490.35	2321.44
490.568	2429.44
490.786	2319.44
491.003	2220.44
491.221	2303.44
491.439	2405.44
491.657	2365.44
491.874	2382.44
492.092	2422.44
492.31	2364.44
492.527	2389.44
492.745	2404.44
492.963	2401.44
493.18	2435.44
493.398	2631.44
493.615	2678.44
493.833	2461.44
494.05	2435.44
494.268	2431.44
494.485	2483.44
494.703	2406.44
494.92	2375.44
495.138	2382.44
495.355	2427.44
495.573	2505.44
495.79	2711.44
496.008	2739.44
496.225	2505.44
496.442	2530.44
496.66	2565.44
496.877	2520.44
497.094	2645.44
497.312	2668.44
497.529	2611.44
497.746	2636.44
497.963	3161.44
498.181	3482.44
498.398	3219.44
498.615	3179.44
498.832	3113.44
499.049	3084.44
499.267	3062.44
499.484	3239.44
499.701	3500.44
499.918	3540.44
500.135	3814.44
500.352	4111.44
500.569	4058.44
500.786	4319.44
501.003	4025.44
501.22	3639.44
501.437	3556.44
501.654	3605.44
501.871	3446.44
502.088	3038.44
502.305	3062.44
502.522	2903.44
502.739	2737.44
502.956	2681.44
503.172	2677.44
503.389	2594.44
503.606	2536.44
503.823	2561.44
504.04	2523.44
504.256	2543.44
504.473	2529.44
504.69	2664.44
504.907	2508.44
505.123	2380.44
505.34	2465.44
505.557	3181.44
505.773	2747.44
505.99	2298.44
506.207	2205.44
506.423	2148.44
506.64	2175.44
506.856	2208.44
507.073	2481.44
507.289	2636.44
507.506	2524.44
507.722	2151.44
507.939	2102.44
508.155	2118.44
508.372	2092.44
508.588	2057.44
508.805	1997.44
509.021	1980.44
509.238	1973.44
509.454	1946.44
509.67	1981.44
509.887	1957.44
510.103	1980.44
510.319	1979.44
510.536	2124.44
510.752	2123.44
510.968	2121.44
511.184	2306.44
511.401	2259.44
511.617	1984.44
511.833	1926.44
512.049	1937.44
512.265	1943.44
512.481	1906.44
512.698	2000.44
512.914	2127.44
513.13	2052.44
513.346	1918.44
513.562	1923.44
513.778	1920.44
513.994	2075.44
514.21	2087.44
514.426	2061.44
514.642	2365.44
514.858	2239.44
515.074	2007.44
515.29	1945.44
515.506	2029.44
515.721	1993.44
515.937	2057.44
516.153	2347.44
516.369	2248.44
516.585	2129.44
516.801	2007.44
517.016	2006.44
517.232	2092.44
517.448	2146.44
517.664	2129.44
517.879	2132.44
518.095	2217.44
518.311	2144.44
518.527	2044.44
518.742	1994.44
518.958	1956.44
519.173	1969.44
519.389	1984.44
519.605	1995.44
519.82	2004.44
520.036	2009.44
520.251	1895.44
520.467	1973.44
520.682	2108.44
520.898	2243.44
521.113	1959.44
521.329	1948.44
521.544	2054.44
521.76	2034.44
521.975	1895.44
522.19	1835.44
522.406	1842.44
522.621	2180.44
522.836	2215.44
523.052	1860.44
523.267	1870.44
523.482	1825.44
523.698	1775.44
523.913	1735.44
524.128	1778.44
524.343	1877.44
524.559	1867.44
524.774	1822.44
524.989	1761.44
525.204	1759.44
525.419	1737.44
525.634	1704.44
525.849	1759.44
526.064	1731.44
526.28	1832.44
526.495	1735.44
526.71	1650.44
526.925	1702.44
527.14	1696.44
527.355	1687.44
527.57	1638.44
527.785	1727.44
527.999	1688.44
528.214	1641.44
528.429	1617.44
528.644	1652.44
528.859	1683.44
529.074	1660.44
529.289	1673.44
529.503	1684.44
529.718	1721.44
529.933	1631.44
530.148	1603.44
530.363	1638.44
530.577	1697.44
530.792	1681.44
531.007	1680.44
531.221	1665.44
531.436	1684.44
531.651	1743.44
531.865	1841.44
532.08	1755.44
532.295	1670.44
532.509	1569.44
532.724	1667.44
532.938	1710.44
533.153	1811.44
533.367	1704.44
533.582	1676.44
533.796	1616.44
534.011	1689.44
534.225	1692.44
534.44	1622.44
534.654	1640.44
534.868	1652.44
535.083	1679.44
535.297	1697.44
535.511	1641.44
535.726	1632.44
535.94	1608.44
536.154	1599.44
536.369	1623.44
536.583	1622.44
536.797	1569.44
537.011	1664.44
537.225	1588.44
537.44	1565.44
537.654	1617.44
537.868	1570.44
538.082	1515.44
538.296	1472.44
538.51	1491.44
538.724	1495.44
538.938	1551.44
539.153	1551.44
539.367	1567.44
539.581	1527.44
539.795	1672.44
540.009	1619.44
540.222	1573.44
540.436	1576.44
540.65	1764.44
540.864	1749.44
541.078	1671.44
541.292	1564.44
541.506	1559.44
541.72	1560.44
541.934	1577.44
542.147	1587.44
542.361	1552.44
542.575	1536.44
542.789	1469.44
543.002	1483.44
543.216	1519.44
543.43	1653.44
543.644	1641.44
543.857	1708.44
544.071	1636.44
544.285	1605.44
544.498	1550.44
544.712	1508.44
544.925	1568.44
545.139	1610.44
545.352	1519.44
545.566	1494.44
545.779	1466.44
545.993	1508.44
546.206	1507.44
546.42	1478.44
546.633	1450.44
546.847	1456.44
547.06	1450.44
547.274	1467.44
547.487	1447.44
547.7	1459.44
547.914	1501.44
548.127	1516.44
548.34	1519.44
548.554	1471.44
548.767	1462.44
548.98	1499.44
549.193	1497.44
549.407	1561.44
549.62	1568.44
549.833	1495.44
550.046	1463.44
550.259	1454.44
550.473	1488.44
550.686	1460.44
550.899	1445.44
551.112	1353.44
551.325	1435.44
551.538	1439.44
551.751	1732.44
551.964	1416.44
552.177	1356.44
552.39	1420.44
552.603	1461.44
552.816	1408.44
553.029	1555.44
553.242	1546.44
553.455	1460.44
553.667	1460.44
553.88	1421.44
554.093	1439.44
554.306	1366.44
554.519	1333.44
554.732	1337.44
554.944	1348.44
555.157	1412.44
555.37	1363.44
555.583	1358.44
555.795	1311.44
556.008	1273.44
556.221	1281.44
556.433	1309.44
556.646	1269.44
556.859	1242.44
557.071	1241.44
557.284	1211.44
557.496	1264.44
557.709	1229.44
557.921	1226.44
558.134	1203.44
558.346	1245.44
558.559	1208.44
558.771	1201.44
558.984	1185.44
559.196	1130.44
559.409	1167.44
559.621	1193.44
559.833	1185.44
560.046	1225.44
560.258	1225.44
560.47	1160.44
560.683	1205.44
560.895	1187.44
561.107	1223.44
561.32	1165.44
561.532	1237.44
561.744	1201.44
561.956	1181.44
562.168	1159.44
562.381	1155.44
562.593	1164.44
562.805	1162.44
563.017	1147.44
563.229	1200.44
563.441	1236.44
563.653	1182.44
563.865	1181.44
564.077	1184.44
564.289	1190.44
564.501	1181.44
564.713	1238.44
564.925	1271.44
565.137	1343.44
565.349	1244.44
565.561	1219.44
565.773	1285.44
565.985	1259.44
566.197	1375.44
566.408	1417.44
566.62	1435.44
566.832	1389.44
567.044	1419.44
567.255	1393.44
567.467	1410.44
567.679	1425.44
567.891	1497.44
568.102	1507.44
568.314	1434.44
568.526	1345.44
568.737	1303.44
568.949	1253.44
569.161	1213.44
569.372	1159.44
569.584	1121.44
569.795	1128.44
570.007	1147.44
570.218	1071.44
570.43	1057.44
570.641	1061.44
570.853	1058.44
571.064	1071.44
571.276	1046.44
571.487	1064.44
571.698	1022.44
571.91	1029.44
572.121	970.44
572.333	1017.44
572.544	973.44
572.755	957.44
572.966	956.44
573.178	967.44
573.389	978.44
573.6	972.44
573.811	1045.44
574.023	960.44
574.234	938.44
574.445	914.44
574.656	889.44
574.867	862.44
575.078	911.44
575.289	915.44
575.501	909.44
575.712	899.44
575.923	885.44
576.134	889.44
576.345	850.44
576.556	872.44
576.767	879.44
576.978	867.44
577.188	840.44
577.399	834.44
577.61	838.44
577.821	840.44
578.032	796.44
578.243	824.44
578.454	800.44
578.665	836.44
578.875	779.44
579.086	786.44
579.297	807.44
579.508	830.44
579.718	846.44
579.929	808.44
580.14	816.44
580.35	767.44
580.561	808.44
580.772	866.44
580.982	819.44
581.193	788.44
581.403	791.44
581.614	788.44
581.825	768.44
582.035	791.44
582.246	758.44
582.456	779.44
582.667	789.44
582.877	779.44
583.087	758.44
583.298	754.44
583.508	763.44
583.719	748.44
583.929	792.44
584.139	758.44
584.35	735.44
584.56	751.44
584.77	747.44
584.981	742.44
585.191	752.44
585.401	781.44
585.611	737.44
585.821	737.44
586.032	758.44
586.242	716.44
586.452	727.44
586.662	713.44
586.872	732.44
587.082	711.44
587.292	739.44
587.502	744.44
587.713	747.44
587.923	731.44
588.133	756.44
588.343	748.44
588.553	705.44
588.762	728.44
588.972	697.44
589.182	747.44
589.392	726.44
589.602	709.44
589.812	728.44
590.022	677.44
590.232	693.44
590.441	721.44
590.651	712.44
590.861	697.44
591.071	694.44
591.281	714.44
591.49	716.44
591.7	700.44
591.91	727.44
592.119	700.44
592.329	730.44
592.539	744.44
592.748	727.44
592.958	745.44
593.167	775.44
593.377	722.44
593.587	772.44
593.796	758.44
594.006	742.44
594.215	741.44
594.424	737.44
594.634	735.44
594.843	735.44
595.053	721.44
595.262	708.44
595.472	705.44
595.681	715.44
595.89	699.44
596.1	675.44
596.309	675.44
596.518	687.44
596.727	680.44
596.937	666.44
597.146	659.44
597.355	631.44
597.564	634.44
597.774	619.44
597.983	620.44
598.192	602.44
598.401	607.44
598.61	618.44
598.819	599.44
599.028	613.44
599.237	609.44
599.446	603.44
599.655	611.44
599.864	613.44
600.073	581.44
600.282	582.44
600.491	571.44
600.7	592.44
600.909	561.44
601.118	586.44
601.327	611.44
601.536	619.44
601.745	607.44
601.953	577.44
602.162	581.44
602.371	579.44
602.58	556.44
602.789	578.44
602.997	575.44
603.206	576.44
603.415	555.44
603.623	571.44
603.832	581.44
604.041	549.44
604.249	537.44
604.458	577.44
604.666	535.44
604.875	562.44
605.084	537.44
605.292	572.44
605.501	582.44
605.709	573.44
605.918	552.44
606.126	540.44
606.334	555.44
606.543	548.44
606.751	541.44
606.96	554.44
607.168	530.44
607.376	520.44
607.585	544.44
607.793	533.44
608.001	536.44
608.21	529.44
608.418	519.44
608.626	537.44
608.834	521.44
609.043	522.44
609.251	546.44
609.459	526.44
609.667	528.44
609.875	530.44
610.083	547.44
610.291	567.44
610.499	559.44
610.707	522.44
610.916	519.44
611.124	528.44
611.332	509.44
611.54	529.44
611.748	527.44
611.955	506.44
612.163	499.44
612.371	506.44
612.579	488.44
612.787	527.44
612.995	542.44
613.203	495.44
613.411	499.44
613.618	528.44
613.826	507.44
614.034	488.44
614.242	525.44
614.449	511.44
614.657	523.44
614.865	518.44
615.072	498.44
615.28	489.44
615.488	533.44
615.695	536.44
615.903	525.44
616.111	519.44
616.318	514.44
616.526	507.44
616.733	488.44
616.941	472.44
617.148	486.44
617.356	479.44
617.563	475.44
617.771	498.44
617.978	497.44
618.185	493.44
618.393	496.44
618.6	471.44
618.807	509.44
619.015	475.44
619.222	476.44
619.429	485.44
619.637	468.44
619.844	466.44
620.051	474.44
620.258	473.44
620.466	445.44
620.673	457.44
620.88	437.44
621.087	437.44
621.294	433.44
621.501	445.44
621.708	445.44
621.915	445.44
622.122	460.44
622.329	468.44
622.536	441.44
622.743	442.44
622.95	459.44
623.157	443.44
623.364	439.44
623.571	453.44
623.778	436.44
623.985	437.44
624.192	437.44
624.399	421.44
624.606	415.44
624.812	431.44
625.019	418.44
625.226	409.44
625.433	407.44
625.639	417.44
625.846	421.44
626.053	404.44
626.259	415.44
626.466	393.44
626.673	373.44
626.879	387.44
627.086	407.44
627.293	379.44
627.499	411.44
627.706	390.44
627.912	423.44
628.119	410.44
628.325	386.44
628.532	414.44
628.738	420.44
628.945	396.44
629.151	394.44
629.357	385.44
629.564	388.44
629.77	375.44
629.976	369.44
630.183	387.44
630.389	387.44
630.595	412.44
630.802	369.44
631.008	385.44
631.214	361.44
631.42	379.44
631.627	357.44
631.833	358.44
632.039	358.44
632.245	369.44
632.451	383.44
632.657	367.44
632.863	372.44
633.069	369.44
633.275	369.44
633.481	362.44
633.688	346.44
633.893	368.44
634.099	342.44
634.305	348.44
634.511	344.44
634.717	326.44
634.923	329.44
635.129	324.44
635.335	340.44
635.541	351.44
635.747	351.44
635.952	347.44
636.158	325.44
636.364	333.44
636.57	354.44
636.775	343.44
636.981	364.44
637.187	351.44
637.392	339.44
637.598	332.44
637.804	339.44
638.009	325.44
638.215	333.44
638.421	330.44
638.626	337.44
638.832	315.44
639.037	330.44
639.243	329.44
639.448	328.44
639.654	339.44
639.859	326.44
640.065	332.44
640.27	318.44
640.475	303.44
640.681	331.44
640.886	325.44
641.091	321.44
641.297	322.44
641.502	324.44
641.707	322.44
641.913	324.44
642.118	316.44
642.323	313.44
642.528	323.44
642.733	322.44
642.939	315.44
643.144	300.44
643.349	319.44
643.554	316.44
643.759	309.44
643.964	307.44
644.169	313.44
644.374	298.44
644.579	314.44
644.784	311.44
644.989	315.44
645.194	321.44
645.399	316.44
645.604	300.44
645.809	323.44
646.014	316.44
646.219	308.44
646.423	320.44
646.628	310.44
646.833	319.44
647.038	314.44
647.243	295.44
647.447	290.44
647.652	314.44
647.857	315.44
648.062	315.44
648.266	322.44
648.471	296.44
648.676	291.44
648.88	324.44
649.085	306.44
649.289	316.44
649.494	297.44
649.698	288.44
649.903	294.44
650.107	302.44
650.312	286.44
650.516	288.44
650.721	277.44
650.925	290.44
651.13	275.44
651.334	263.44
651.539	259.44
651.743	273.44
651.947	269.44
652.152	276.44
652.356	267.44
652.56	262.44
652.764	257.44
652.969	257.44
653.173	247.44
653.377	241.44
653.581	242.44
653.785	232.44
653.99	240.44
654.194	255.44
654.398	249.44
654.602	239.44
654.806	227.44
655.01	234.44
655.214	222.44
655.418	247.44
655.622	223.44
655.826	248.44
656.03	267.44
656.234	253.44
656.438	270.44
656.642	266.44
656.846	253.44
657.049	258.44
657.253	225.44
657.457	188.44
657.661	200.44
657.865	181.44
658.068	176.44
658.272	169.44
658.476	174.44
658.68	160.44
658.883	159.44
659.087	147.44
659.291	140.44
659.494	131.44
659.698	129.44
659.901	111.44
660.105	108.44
660.309	105.44
660.512	118.44
660.716	117.44
660.919	123.44
661.123	120.44
661.326	99.44
661.53	107.44
661.733	96.44
661.936	104.44
662.14	82.44
662.343	95.44
662.546	107.44
662.75	82.44
662.953	97.44
663.156	89.44
663.36	86.44
663.563	82.44
663.766	106.44
663.969	88.44
664.173	84.44
664.376	97.44
664.579	104.44
664.782	69.44
664.985	85.44
665.188	83.44
665.391	74.44
665.594	71.44
665.797	80.44
666	73.44
666.203	89.44
666.406	98.44
666.609	92.44
666.812	87.44
667.015	84.44
667.218	78.44
667.421	100.44
667.624	89.44
667.827	82.44
668.03	82.44
668.232	84.44
668.435	80.44
668.638	87.44
668.841	81.44
669.043	85.44
669.246	84.44
669.449	64.44
669.651	80.44
669.854	82.44
670.057	81.44
670.259	78.44
670.462	76.44
670.665	70.44
670.867	82.44
671.07	92.44
671.272	81.44
671.475	90.44
671.677	71.44
671.88	91.44
672.082	71.44
672.284	70.44
672.487	62.44
672.689	84.44
672.892	79.44
