Data from WStandard_LampEnergy5.5LIBS07252019.E.O._I.C._HRD10591_16-06-34-920.txt Node
Date: Thu Jul 25 16:06:34 EDT 2019
User: cochatt
Spectrometer: HR+D1059
Trigger mode: 1
Integration Time (sec): 1.000000E-1
Scans to average: 1
Electric dark correction enabled: true
Nonlinearity correction enabled: false
Boxcar width: 0
XAxis mode: Wavelengths
Number of Pixels in Spectrum: 2048
>>>>>Begin Spectral Data<<<<<
223.165	-17.19
223.4	-17.19
223.635	-17.19
223.869	-19.19
224.104	-16.19
224.338	-18.19
224.573	-3.19
224.808	-15.19
225.042	-21.19
225.277	-17.19
225.511	-1.19
225.746	6.81
225.98	2.81
226.215	13.81
226.449	19.81
226.683	25.81
226.918	20.81
227.152	38.81
227.387	38.81
227.621	35.81
227.856	43.81
228.09	35.81
228.324	38.81
228.559	38.81
228.793	135.81
229.027	365.81
229.262	369.81
229.496	379.81
229.73	367.81
229.964	430.81
230.199	430.81
230.433	455.81
230.667	484.81
230.901	536.81
231.136	484.81
231.37	455.81
231.604	463.81
231.838	470.81
232.072	478.81
232.306	447.81
232.541	476.81
232.775	532.81
233.009	595.81
233.243	567.81
233.477	518.81
233.711	530.81
233.945	542.81
234.179	539.81
234.413	577.81
234.647	637.81
234.881	589.81
235.115	538.81
235.349	540.81
235.583	567.81
235.817	550.81
236.051	544.81
236.285	547.81
236.519	594.81
236.753	641.81
236.987	698.81
237.221	634.81
237.455	742.81
237.689	672.81
237.922	681.81
238.156	651.81
238.39	651.81
238.624	671.81
238.858	745.81
239.091	731.81
239.325	794.81
239.559	877.81
239.793	942.81
240.027	1019.81
240.26	1035.81
240.494	753.81
240.728	698.81
240.961	698.81
241.195	709.81
241.429	811.81
241.662	820.81
241.896	745.81
242.13	775.81
242.363	847.81
242.597	895.81
242.83	874.81
243.064	879.81
243.298	934.81
243.531	912.81
243.765	907.81
243.998	927.81
244.232	815.81
244.465	754.81
244.699	756.81
244.932	894.81
245.166	1012.81
245.399	945.81
245.633	878.81
245.866	879.81
246.099	915.81
246.333	946.81
246.566	948.81
246.8	1024.81
247.033	1157.81
247.266	1080.81
247.5	1040.81
247.733	1017.81
247.966	1083.81
248.2	1227.81
248.433	1153.81
248.666	1210.81
248.899	1287.81
249.133	1511.81
249.366	1695.81
249.599	1370.81
249.832	1228.81
250.066	1225.81
250.299	1264.81
250.532	1166.81
250.765	1050.81
250.998	1126.81
251.231	1164.81
251.465	1208.81
251.698	1158.81
251.931	1164.81
252.164	1188.81
252.397	1205.81
252.63	1212.81
252.863	1103.81
253.096	1076.81
253.329	1102.81
253.562	1138.81
253.795	1261.81
254.028	1244.81
254.261	1150.81
254.494	1148.81
254.727	1080.81
254.96	1147.81
255.193	1224.81
255.426	1398.81
255.659	1587.81
255.892	1652.81
256.124	1338.81
256.357	1270.81
256.59	1396.81
256.823	1401.81
257.056	1370.81
257.289	1664.81
257.521	1866.81
257.754	1666.81
257.987	1586.81
258.22	1724.81
258.452	1719.81
258.685	1348.81
258.918	1341.81
259.151	1333.81
259.383	1306.81
259.616	1174.81
259.849	1200.81
260.081	1350.81
260.314	1512.81
260.547	1648.81
260.779	1705.81
261.012	1554.81
261.244	1400.81
261.477	1323.81
261.71	1421.81
261.942	1368.81
262.175	1330.81
262.407	1425.81
262.64	1326.81
262.872	1240.81
263.105	1190.81
263.337	1262.81
263.57	1261.81
263.802	1271.81
264.035	1205.81
264.267	1127.81
264.499	1092.81
264.732	1151.81
264.964	1269.81
265.197	1311.81
265.429	1323.81
265.661	1507.81
265.894	1676.81
266.126	1734.81
266.358	1558.81
266.591	1603.81
266.823	1741.81
267.055	1564.81
267.287	1562.81
267.52	1547.81
267.752	1525.81
267.984	1524.81
268.216	1556.81
268.448	1596.81
268.681	1597.81
268.913	1518.81
269.145	1381.81
269.377	1371.81
269.609	1494.81
269.841	1700.81
270.073	1975.81
270.306	2190.81
270.538	2376.81
270.77	2024.81
271.002	1698.81
271.234	1607.81
271.466	1603.81
271.698	1792.81
271.93	2146.81
272.162	2122.81
272.394	1890.81
272.626	1855.81
272.858	1663.81
273.09	1446.81
273.322	1409.81
273.553	1355.81
273.785	1348.81
274.017	1415.81
274.249	1504.81
274.481	1539.81
274.713	1387.81
274.945	1348.81
275.176	1404.81
275.408	1355.81
275.64	1351.81
275.872	1278.81
276.104	1402.81
276.335	1603.81
276.567	1799.81
276.799	1876.81
277.031	1651.81
277.262	1563.81
277.494	1634.81
277.726	1815.81
277.957	1793.81
278.189	1656.81
278.421	1492.81
278.652	1459.81
278.884	1443.81
279.115	1444.81
279.347	1492.81
279.579	1441.81
279.81	1374.81
280.042	1571.81
280.273	1769.81
280.505	1728.81
280.736	1758.81
280.968	1683.81
281.199	1504.81
281.431	1400.81
281.662	1385.81
281.894	1406.81
282.125	1473.81
282.356	1479.81
282.588	1548.81
282.819	1500.81
283.051	1611.81
283.282	1755.81
283.513	1699.81
283.745	1472.81
283.976	1382.81
284.207	1375.81
284.439	1446.81
284.67	1444.81
284.901	1500.81
285.132	1516.81
285.364	1469.81
285.595	1523.81
285.826	1462.81
286.057	1469.81
286.288	1424.81
286.52	1499.81
286.751	1643.81
286.982	1685.81
287.213	1584.81
287.444	1409.81
287.675	1407.81
287.906	1478.81
288.138	1575.81
288.369	1557.81
288.6	1480.81
288.831	1417.81
289.062	1454.81
289.293	1496.81
289.524	1494.81
289.755	1534.81
289.986	1586.81
290.217	1412.81
290.448	1434.81
290.679	1505.81
290.91	1496.81
291.141	1538.81
291.371	1602.81
291.602	1592.81
291.833	1589.81
292.064	1616.81
292.295	1619.81
292.526	1621.81
292.757	1682.81
292.987	1632.81
293.218	1501.81
293.449	1613.81
293.68	1845.81
293.91	1985.81
294.141	1812.81
294.372	1718.81
294.603	1782.81
294.833	1831.81
295.064	1750.81
295.295	1605.81
295.525	1556.81
295.756	1452.81
295.987	1395.81
296.217	1425.81
296.448	1472.81
296.679	1471.81
296.909	1492.81
297.14	1443.81
297.37	1450.81
297.601	1555.81
297.831	1700.81
298.062	1664.81
298.292	1531.81
298.523	1414.81
298.753	1506.81
298.984	1539.81
299.214	1526.81
299.445	1502.81
299.675	1602.81
299.905	1527.81
300.136	1542.81
300.366	1522.81
300.597	1489.81
300.827	1450.81
301.057	1497.81
301.288	1559.81
301.518	1560.81
301.748	1623.81
301.979	1682.81
302.209	1721.81
302.439	1835.81
302.669	1904.81
302.9	1824.81
303.13	1598.81
303.36	1602.81
303.59	1635.81
303.82	1638.81
304.051	1625.81
304.281	1609.81
304.511	1582.81
304.741	1696.81
304.971	1840.81
305.201	2002.81
305.431	1896.81
305.661	1548.81
305.891	1424.81
306.121	1406.81
306.352	1443.81
306.582	1556.81
306.812	1610.81
307.042	1768.81
307.272	1792.81
307.502	1810.81
307.731	1972.81
307.961	2111.81
308.191	1928.81
308.421	1636.81
308.651	1605.81
308.881	1533.81
309.111	1565.81
309.341	1510.81
309.571	1585.81
309.8	1542.81
310.03	1563.81
310.26	1563.81
310.49	1533.81
310.72	1554.81
310.949	1646.81
311.179	1672.81
311.409	1635.81
311.639	1587.81
311.868	1534.81
312.098	1572.81
312.328	1596.81
312.557	1547.81
312.787	1530.81
313.017	1634.81
313.246	1635.81
313.476	1598.81
313.706	1648.81
313.935	1642.81
314.165	1665.81
314.394	1704.81
314.624	1763.81
314.853	1912.81
315.083	1958.81
315.312	2032.81
315.542	1918.81
315.771	1722.81
316.001	1675.81
316.23	1797.81
316.46	1730.81
316.689	1748.81
316.919	1664.81
317.148	1579.81
317.377	1600.81
317.607	1672.81
317.836	1930.81
318.065	2005.81
318.295	1889.81
318.524	1818.81
318.753	1707.81
318.983	1767.81
319.212	1732.81
319.441	1704.81
319.67	1616.81
319.9	1672.81
320.129	1834.81
320.358	1863.81
320.587	1883.81
320.816	1918.81
321.046	1824.81
321.275	1745.81
321.504	1764.81
321.733	1943.81
321.962	1823.81
322.191	1693.81
322.42	1730.81
322.649	1665.81
322.878	1680.81
323.108	1710.81
323.337	1778.81
323.566	1739.81
323.795	1740.81
324.024	1771.81
324.253	1715.81
324.482	1720.81
324.71	1707.81
324.939	1614.81
325.168	1634.81
325.397	1692.81
325.626	1736.81
325.855	1751.81
326.084	1704.81
326.313	1710.81
326.542	1726.81
326.77	1777.81
326.999	1803.81
327.228	1720.81
327.457	1638.81
327.686	1588.81
327.914	1682.81
328.143	1730.81
328.372	1725.81
328.6	1686.81
328.829	1684.81
329.058	1634.81
329.287	1674.81
329.515	1722.81
329.744	1737.81
329.972	1777.81
330.201	1896.81
330.43	1854.81
330.658	1786.81
330.887	1822.81
331.115	1832.81
331.344	1830.81
331.572	1769.81
331.801	1791.81
332.03	1793.81
332.258	1767.81
332.486	1828.81
332.715	1855.81
332.943	1862.81
333.172	1751.81
333.4	1856.81
333.629	1847.81
333.857	2004.81
334.085	2142.81
334.314	2365.81
334.542	2701.81
334.771	2458.81
334.999	2129.81
335.227	2041.81
335.455	1985.81
335.684	1914.81
335.912	1930.81
336.14	2003.81
336.369	1962.81
336.597	1839.81
336.825	1793.81
337.053	1868.81
337.281	1967.81
337.51	2058.81
337.738	2148.81
337.966	2062.81
338.194	1849.81
338.422	1801.81
338.65	1781.81
338.878	1802.81
339.106	1749.81
339.334	1704.81
339.562	1683.81
339.79	1730.81
340.018	1830.81
340.246	1860.81
340.474	1863.81
340.702	1859.81
340.93	1827.81
341.158	1841.81
341.386	1775.81
341.614	1846.81
341.842	1803.81
342.07	1782.81
342.298	1820.81
342.526	1769.81
342.754	1725.81
342.981	1756.81
343.209	1730.81
343.437	1777.81
343.665	1765.81
343.893	1808.81
344.12	1905.81
344.348	1941.81
344.576	1840.81
344.804	1756.81
345.031	1767.81
345.259	1802.81
345.487	1718.81
345.714	1673.81
345.942	1633.81
346.17	1624.81
346.397	1689.81
346.625	1716.81
346.853	1641.81
347.08	1612.81
347.308	1584.81
347.535	1623.81
347.763	1712.81
347.99	1670.81
348.218	1601.81
348.445	1638.81
348.673	1635.81
348.9	1672.81
349.128	1711.81
349.355	1796.81
349.583	1755.81
349.81	1634.81
350.037	1560.81
350.265	1568.81
350.492	1620.81
350.72	1622.81
350.947	1664.81
351.174	1695.81
351.402	1588.81
351.629	1529.81
351.856	1538.81
352.083	1538.81
352.311	1531.81
352.538	1552.81
352.765	1673.81
352.992	1726.81
353.22	1615.81
353.447	1583.81
353.674	1620.81
353.901	1673.81
354.128	1603.81
354.355	1598.81
354.583	1630.81
354.81	1721.81
355.037	1697.81
355.264	1689.81
355.491	1622.81
355.718	1655.81
355.945	1651.81
356.172	1602.81
356.399	1607.81
356.626	1587.81
356.853	1637.81
357.08	1781.81
357.307	1929.81
357.534	2005.81
357.761	1750.81
357.988	1569.81
358.215	1527.81
358.441	1568.81
358.668	1619.81
358.895	1582.81
359.122	1633.81
359.349	1823.81
359.576	1852.81
359.802	1666.81
360.029	1574.81
360.256	1594.81
360.483	1580.81
360.709	1672.81
360.936	1670.81
361.163	1692.81
361.39	1862.81
361.616	2011.81
361.843	1987.81
362.07	1890.81
362.296	1650.81
362.523	1623.81
362.749	1641.81
362.976	1607.81
363.203	1674.81
363.429	1605.81
363.656	1572.81
363.882	1614.81
364.109	1778.81
364.335	1916.81
364.562	1784.81
364.788	1757.81
365.015	1613.81
365.241	1605.81
365.468	1613.81
365.694	1694.81
365.92	1798.81
366.147	1717.81
366.373	1631.81
366.599	1569.81
366.826	1566.81
367.052	1576.81
367.278	1622.81
367.505	1632.81
367.731	1656.81
367.957	1673.81
368.184	1670.81
368.41	1762.81
368.636	1843.81
368.862	1827.81
369.089	1804.81
369.315	1769.81
369.541	1698.81
369.767	1684.81
369.993	1634.81
370.219	1605.81
370.445	1689.81
370.672	1723.81
370.898	1831.81
371.124	1827.81
371.35	1715.81
371.576	1743.81
371.802	1831.81
372.028	1765.81
372.254	1678.81
372.48	1673.81
372.706	1650.81
372.932	1675.81
373.158	1617.81
373.384	1684.81
373.61	1764.81
373.835	1816.81
374.061	1738.81
374.287	1721.81
374.513	1676.81
374.739	1758.81
374.965	1737.81
375.191	1767.81
375.416	1754.81
375.642	1763.81
375.868	1864.81
376.094	1922.81
376.319	1842.81
376.545	1688.81
376.771	1749.81
376.997	1832.81
377.222	1820.81
377.448	1731.81
377.674	1816.81
377.899	1755.81
378.125	1875.81
378.35	1877.81
378.576	1728.81
378.802	1660.81
379.027	1632.81
379.253	1657.81
379.478	1714.81
379.704	1679.81
379.929	1676.81
380.155	1711.81
380.38	1688.81
380.606	1748.81
380.831	1754.81
381.057	1810.81
381.282	1817.81
381.507	1771.81
381.733	1846.81
381.958	1950.81
382.184	1827.81
382.409	1754.81
382.634	1802.81
382.86	1808.81
383.085	1769.81
383.31	1804.81
383.535	1932.81
383.761	2090.81
383.986	1991.81
384.211	1905.81
384.436	1894.81
384.662	1989.81
384.887	2066.81
385.112	1942.81
385.337	1978.81
385.562	1990.81
385.787	1953.81
386.013	2005.81
386.238	2019.81
386.463	1986.81
386.688	2080.81
386.913	2243.81
387.138	2171.81
387.363	2013.81
387.588	1994.81
387.813	1993.81
388.038	2024.81
388.263	2083.81
388.488	2057.81
388.713	1897.81
388.938	1895.81
389.163	1860.81
389.387	1936.81
389.612	1933.81
389.837	2015.81
390.062	1985.81
390.287	1936.81
390.512	1962.81
390.736	1932.81
390.961	1889.81
391.186	1855.81
391.411	1865.81
391.636	1945.81
391.86	1982.81
392.085	1970.81
392.31	1921.81
392.534	1950.81
392.759	2005.81
392.984	1991.81
393.208	2003.81
393.433	2106.81
393.658	2218.81
393.882	2114.81
394.107	2064.81
394.331	1957.81
394.556	1908.81
394.78	1952.81
395.005	2051.81
395.229	2090.81
395.454	2197.81
395.678	2263.81
395.903	2199.81
396.127	2080.81
396.352	2092.81
396.576	2147.81
396.801	2159.81
397.025	2166.81
397.249	2127.81
397.474	2118.81
397.698	2087.81
397.922	2136.81
398.147	2217.81
398.371	2348.81
398.595	2369.81
398.82	2332.81
399.044	2310.81
399.268	2415.81
399.492	2546.81
399.717	2623.81
399.941	2651.81
400.165	2619.81
400.389	2508.81
400.613	2472.81
400.837	2683.81
401.062	3077.81
401.286	2657.81
401.51	2435.81
401.734	2526.81
401.958	2468.81
402.182	2301.81
402.406	2195.81
402.63	2195.81
402.854	2187.81
403.078	2231.81
403.302	2297.81
403.526	2354.81
403.75	2346.81
403.974	2308.81
404.198	2316.81
404.422	2397.81
404.645	2522.81
404.869	2490.81
405.093	2293.81
405.317	2234.81
405.541	2338.81
405.765	2402.81
405.988	2363.81
406.212	2359.81
406.436	2424.81
406.66	2459.81
406.883	2491.81
407.107	2766.81
407.331	3047.81
407.555	3230.81
407.778	3007.81
408.002	2520.81
408.226	2472.81
408.449	2466.81
408.673	2397.81
408.896	2436.81
409.12	2464.81
409.344	2402.81
409.567	2299.81
409.791	2340.81
410.014	2384.81
410.238	2505.81
410.461	2637.81
410.685	2403.81
410.908	2248.81
411.132	2331.81
411.355	2298.81
411.578	2289.81
411.802	2248.81
412.025	2331.81
412.249	2258.81
412.472	2220.81
412.695	2214.81
412.919	2234.81
413.142	2181.81
413.365	2218.81
413.589	2267.81
413.812	2314.81
414.035	2441.81
414.258	2298.81
414.482	2228.81
414.705	2227.81
414.928	2163.81
415.151	2207.81
415.374	2246.81
415.597	2266.81
415.821	2294.81
416.044	2340.81
416.267	2416.81
416.49	2176.81
416.713	2134.81
416.936	2184.81
417.159	2311.81
417.382	2340.81
417.605	2170.81
417.828	2259.81
418.051	2306.81
418.274	2234.81
418.497	2135.81
418.72	2192.81
418.943	2136.81
419.166	2298.81
419.389	2386.81
419.611	2303.81
419.834	2228.81
420.057	2271.81
420.28	2136.81
420.503	2122.81
420.726	2174.81
420.948	2192.81
421.171	2129.81
421.394	2176.81
421.617	2236.81
421.839	2230.81
422.062	2187.81
422.285	2142.81
422.507	2164.81
422.73	2102.81
422.953	2129.81
423.175	2089.81
423.398	2140.81
423.621	2128.81
423.843	2151.81
424.066	2231.81
424.288	2255.81
424.511	2291.81
424.733	2236.81
424.956	2059.81
425.178	2046.81
425.401	2091.81
425.623	2144.81
425.846	2080.81
426.068	2165.81
426.291	2200.81
426.513	2163.81
426.735	2147.81
426.958	2302.81
427.18	2437.81
427.402	2213.81
427.625	2268.81
427.847	2334.81
428.069	2194.81
428.292	2100.81
428.514	2027.81
428.736	2041.81
428.958	2083.81
429.181	2099.81
429.403	2338.81
429.625	2896.81
429.847	2503.81
430.069	2144.81
430.292	2324.81
430.514	2433.81
430.736	2219.81
430.958	2313.81
431.18	2223.81
431.402	2128.81
431.624	2046.81
431.846	2054.81
432.068	2016.81
432.29	2049.81
432.512	2147.81
432.734	2135.81
432.956	2157.81
433.178	2216.81
433.4	2225.81
433.622	2249.81
433.844	2108.81
434.066	2046.81
434.287	2063.81
434.509	2180.81
434.731	2201.81
434.953	2356.81
435.175	2325.81
435.397	2180.81
435.618	2194.81
435.84	2194.81
436.062	2131.81
436.284	2175.81
436.505	2188.81
436.727	2240.81
436.949	2148.81
437.17	2074.81
437.392	2074.81
437.614	2108.81
437.835	2031.81
438.057	2168.81
438.278	2288.81
438.5	2129.81
438.721	2064.81
438.943	2126.81
439.165	2097.81
439.386	2041.81
439.608	2052.81
439.829	2060.81
440.05	2087.81
440.272	2051.81
440.493	2018.81
440.715	2088.81
440.936	2182.81
441.158	2430.81
441.379	2361.81
441.6	2276.81
441.822	2255.81
442.043	2240.81
442.264	2170.81
442.486	2020.81
442.707	2015.81
442.928	2022.81
443.149	2164.81
443.371	2286.81
443.592	2334.81
443.813	2259.81
444.034	2266.81
444.255	2256.81
444.476	2328.81
444.698	2393.81
444.919	2341.81
445.14	2427.81
445.361	2376.81
445.582	2491.81
445.803	2428.81
446.024	2299.81
446.245	2410.81
446.466	2294.81
446.687	2200.81
446.908	2182.81
447.129	2085.81
447.35	2139.81
447.571	2112.81
447.792	2033.81
448.013	2032.81
448.234	2083.81
448.455	2151.81
448.675	2170.81
448.896	2012.81
449.117	1970.81
449.338	2021.81
449.559	2083.81
449.779	2211.81
450	2436.81
450.221	2667.81
450.442	2544.81
450.662	2264.81
450.883	2035.81
451.104	1952.81
451.324	1996.81
451.545	2081.81
451.766	2052.81
451.986	1929.81
452.207	1920.81
452.428	1830.81
452.648	1820.81
452.869	1913.81
453.089	2038.81
453.31	2007.81
453.53	2100.81
453.751	2003.81
453.971	1861.81
454.192	1897.81
454.412	2082.81
454.633	1987.81
454.853	1898.81
455.073	1842.81
455.294	1814.81
455.514	1798.81
455.734	1818.81
455.955	1899.81
456.175	1892.81
456.395	1858.81
456.616	1906.81
456.836	1944.81
457.056	1872.81
457.276	1902.81
457.497	1864.81
457.717	1786.81
457.937	1826.81
458.157	1894.81
458.377	1860.81
458.598	1870.81
458.818	1879.81
459.038	1982.81
459.258	2098.81
459.478	2098.81
459.698	2022.81
459.918	2098.81
460.138	2177.81
460.358	2222.81
460.578	2218.81
460.798	2286.81
461.018	2457.81
461.238	2313.81
461.458	2196.81
461.678	2233.81
461.898	2176.81
462.118	2164.81
462.338	2256.81
462.558	2230.81
462.777	2192.81
462.997	2332.81
463.217	2441.81
463.437	2441.81
463.657	2311.81
463.876	2264.81
464.096	2229.81
464.316	2216.81
464.536	2334.81
464.755	2330.81
464.975	2318.81
465.195	2290.81
465.414	2369.81
465.634	2366.81
465.854	2209.81
466.073	2330.81
466.293	2328.81
466.512	2067.81
466.732	2018.81
466.951	2099.81
467.171	2104.81
467.391	2008.81
467.61	1948.81
467.829	1993.81
468.049	2101.81
468.268	2350.81
468.488	2265.81
468.707	2152.81
468.927	2084.81
469.146	2031.81
469.365	1988.81
469.585	2042.81
469.804	1991.81
470.023	2012.81
470.243	2027.81
470.462	2001.81
470.681	1950.81
470.901	2079.81
471.12	2034.81
471.339	2013.81
471.558	1972.81
471.777	1947.81
471.997	2001.81
472.216	2017.81
472.435	1934.81
472.654	1942.81
472.873	2035.81
473.092	2174.81
473.311	2074.81
473.53	1946.81
473.749	1905.81
473.968	2005.81
474.187	2067.81
474.406	2243.81
474.625	2083.81
474.844	2014.81
475.063	2038.81
475.282	2105.81
475.501	2032.81
475.72	2013.81
475.939	2140.81
476.158	2106.81
476.377	2067.81
476.596	2059.81
476.814	2116.81
477.033	2098.81
477.252	2201.81
477.471	2277.81
477.69	2156.81
477.908	2162.81
478.127	2234.81
478.346	2478.81
478.564	2482.81
478.783	2405.81
479.002	2488.81
479.22	2418.81
479.439	2508.81
479.658	2832.81
479.876	2804.81
480.095	2466.81
480.313	2326.81
480.532	2246.81
480.751	2321.81
480.969	2318.81
481.188	2277.81
481.406	2258.81
481.624	2195.81
481.843	2238.81
482.061	2336.81
482.28	2395.81
482.498	2328.81
482.717	2352.81
482.935	2279.81
483.153	2259.81
483.372	2265.81
483.59	2211.81
483.808	2222.81
484.027	2322.81
484.245	2395.81
484.463	2816.81
484.681	3258.81
484.9	2497.81
485.118	2346.81
485.336	2288.81
485.554	2372.81
485.772	2505.81
485.99	2480.81
486.209	2462.81
486.427	2398.81
486.645	2453.81
486.863	2382.81
487.081	2468.81
487.299	2517.81
487.517	2460.81
487.735	2374.81
487.953	2316.81
488.171	2328.81
488.389	2304.81
488.607	2337.81
488.825	2563.81
489.043	2628.81
489.261	2376.81
489.479	2492.81
489.696	2594.81
489.914	2519.81
490.132	2503.81
490.35	2344.81
490.568	2478.81
490.786	2419.81
491.003	2306.81
491.221	2393.81
491.439	2490.81
491.657	2408.81
491.874	2448.81
492.092	2508.81
492.31	2499.81
492.527	2449.81
492.745	2420.81
492.963	2442.81
493.18	2526.81
493.398	2721.81
493.615	2719.81
493.833	2570.81
494.05	2472.81
494.268	2480.81
494.485	2539.81
494.703	2464.81
494.92	2421.81
495.138	2452.81
495.355	2467.81
495.573	2569.81
495.79	2744.81
496.008	2772.81
496.225	2571.81
496.442	2586.81
496.66	2666.81
496.877	2571.81
497.094	2683.81
497.312	2736.81
497.529	2644.81
497.746	2743.81
497.963	3146.81
498.181	3582.81
498.398	3305.81
498.615	3322.81
498.832	3120.81
499.049	3163.81
499.267	3111.81
499.484	3366.81
499.701	3638.81
499.918	3698.81
500.135	3955.81
500.352	4222.81
500.569	4231.81
500.786	4419.81
501.003	4199.81
501.22	3865.81
501.437	3700.81
501.654	3664.81
501.871	3541.81
502.088	3154.81
502.305	3184.81
502.522	3029.81
502.739	2851.81
502.956	2717.81
503.172	2722.81
503.389	2641.81
503.606	2612.81
503.823	2584.81
504.04	2605.81
504.256	2679.81
504.473	2654.81
504.69	2728.81
504.907	2615.81
505.123	2433.81
505.34	2550.81
505.557	3252.81
505.773	2834.81
505.99	2417.81
506.207	2246.81
506.423	2206.81
506.64	2218.81
506.856	2252.81
507.073	2486.81
507.289	2699.81
507.506	2622.81
507.722	2231.81
507.939	2193.81
508.155	2147.81
508.372	2219.81
508.588	2107.81
508.805	2048.81
509.021	2096.81
509.238	2025.81
509.454	2009.81
509.67	2036.81
509.887	2012.81
510.103	2032.81
510.319	2008.81
510.536	2122.81
510.752	2185.81
510.968	2202.81
511.184	2330.81
511.401	2340.81
511.617	2041.81
511.833	1972.81
512.049	1993.81
512.265	1992.81
512.481	1980.81
512.698	1993.81
512.914	2134.81
513.13	2087.81
513.346	1980.81
513.562	1961.81
513.778	1970.81
513.994	2113.81
514.21	2125.81
514.426	2170.81
514.642	2422.81
514.858	2277.81
515.074	2072.81
515.29	2034.81
515.506	2064.81
515.721	2067.81
515.937	2120.81
516.153	2405.81
516.369	2330.81
516.585	2135.81
516.801	2111.81
517.016	2120.81
517.232	2160.81
517.448	2193.81
517.664	2216.81
517.879	2245.81
518.095	2372.81
518.311	2196.81
518.527	2144.81
518.742	2047.81
518.958	2002.81
519.173	2030.81
519.389	2022.81
519.605	2047.81
519.82	2050.81
520.036	2085.81
520.251	1997.81
520.467	1998.81
520.682	2193.81
520.898	2280.81
521.113	2011.81
521.329	1974.81
521.544	2098.81
521.76	2044.81
521.975	1903.81
522.19	1962.81
522.406	1906.81
522.621	2300.81
522.836	2301.81
523.052	1872.81
523.267	1876.81
523.482	1894.81
523.698	1842.81
523.913	1776.81
524.128	1819.81
524.343	1948.81
524.559	1953.81
524.774	1851.81
524.989	1832.81
525.204	1820.81
525.419	1734.81
525.634	1796.81
525.849	1765.81
526.064	1818.81
526.28	1872.81
526.495	1761.81
526.71	1808.81
526.925	1770.81
527.14	1754.81
527.355	1730.81
527.57	1732.81
527.785	1804.81
527.999	1710.81
528.214	1699.81
528.429	1667.81
528.644	1721.81
528.859	1697.81
529.074	1736.81
529.289	1692.81
529.503	1743.81
529.718	1757.81
529.933	1722.81
530.148	1671.81
530.363	1693.81
530.577	1704.81
530.792	1706.81
531.007	1752.81
531.221	1706.81
531.436	1779.81
531.651	1814.81
531.865	1878.81
532.08	1808.81
532.295	1695.81
532.509	1634.81
532.724	1693.81
532.938	1743.81
533.153	1841.81
533.367	1802.81
533.582	1762.81
533.796	1718.81
534.011	1708.81
534.225	1710.81
534.44	1658.81
534.654	1651.81
534.868	1671.81
535.083	1747.81
535.297	1762.81
535.511	1695.81
535.726	1713.81
535.94	1713.81
536.154	1683.81
536.369	1665.81
536.583	1665.81
536.797	1634.81
537.011	1694.81
537.225	1631.81
537.44	1590.81
537.654	1682.81
537.868	1649.81
538.082	1592.81
538.296	1525.81
538.51	1546.81
538.724	1556.81
538.938	1556.81
539.153	1625.81
539.367	1609.81
539.581	1595.81
539.795	1701.81
540.009	1651.81
540.222	1611.81
540.436	1623.81
540.65	1849.81
540.864	1828.81
541.078	1730.81
541.292	1577.81
541.506	1597.81
541.72	1619.81
541.934	1644.81
542.147	1608.81
542.361	1630.81
542.575	1563.81
542.789	1534.81
543.002	1501.81
543.216	1544.81
543.43	1642.81
543.644	1665.81
543.857	1770.81
544.071	1645.81
544.285	1622.81
544.498	1612.81
544.712	1586.81
544.925	1621.81
545.139	1679.81
545.352	1586.81
545.566	1516.81
545.779	1524.81
545.993	1562.81
546.206	1578.81
546.42	1530.81
546.633	1501.81
546.847	1508.81
547.06	1545.81
547.274	1519.81
547.487	1511.81
547.7	1538.81
547.914	1516.81
548.127	1547.81
548.34	1547.81
548.554	1558.81
548.767	1540.81
548.98	1578.81
549.193	1540.81
549.407	1592.81
549.62	1595.81
549.833	1552.81
550.046	1480.81
550.259	1527.81
550.473	1530.81
550.686	1503.81
550.899	1478.81
551.112	1505.81
551.325	1443.81
551.538	1539.81
551.751	1788.81
551.964	1478.81
552.177	1463.81
552.39	1450.81
552.603	1529.81
552.816	1493.81
553.029	1574.81
553.242	1602.81
553.455	1536.81
553.667	1495.81
553.88	1534.81
554.093	1526.81
554.306	1423.81
554.519	1423.81
554.732	1396.81
554.944	1448.81
555.157	1480.81
555.37	1395.81
555.583	1397.81
555.795	1393.81
556.008	1328.81
556.221	1324.81
556.433	1306.81
556.646	1314.81
556.859	1315.81
557.071	1309.81
557.284	1292.81
557.496	1314.81
557.709	1240.81
557.921	1280.81
558.134	1256.81
558.346	1296.81
558.559	1296.81
558.771	1250.81
558.984	1244.81
559.196	1222.81
559.409	1212.81
559.621	1239.81
559.833	1253.81
560.046	1290.81
560.258	1286.81
560.47	1244.81
560.683	1258.81
560.895	1264.81
561.107	1238.81
561.32	1217.81
561.532	1279.81
561.744	1278.81
561.956	1278.81
562.168	1265.81
562.381	1202.81
562.593	1211.81
562.805	1174.81
563.017	1210.81
563.229	1211.81
563.441	1255.81
563.653	1216.81
563.865	1234.81
564.077	1193.81
564.289	1239.81
564.501	1249.81
564.713	1266.81
564.925	1297.81
565.137	1374.81
565.349	1294.81
565.561	1269.81
565.773	1324.81
565.985	1311.81
566.197	1383.81
566.408	1466.81
566.62	1495.81
566.832	1488.81
567.044	1490.81
567.255	1531.81
567.467	1516.81
567.679	1547.81
567.891	1591.81
568.102	1556.81
568.314	1506.81
568.526	1411.81
568.737	1374.81
568.949	1337.81
569.161	1254.81
569.372	1234.81
569.584	1183.81
569.795	1184.81
570.007	1220.81
570.218	1124.81
570.43	1110.81
570.641	1108.81
570.853	1110.81
571.064	1126.81
571.276	1095.81
571.487	1105.81
571.698	1056.81
571.91	1034.81
572.121	1044.81
572.333	1022.81
572.544	1003.81
572.755	975.81
572.966	980.81
573.178	987.81
573.389	998.81
573.6	1015.81
573.811	1097.81
574.023	991.81
574.234	978.81
574.445	974.81
574.656	948.81
574.867	932.81
575.078	934.81
575.289	942.81
575.501	924.81
575.712	902.81
575.923	935.81
576.134	921.81
576.345	916.81
576.556	915.81
576.767	894.81
576.978	874.81
577.188	884.81
577.399	883.81
577.61	863.81
577.821	887.81
578.032	843.81
578.243	862.81
578.454	880.81
578.665	826.81
578.875	836.81
579.086	835.81
579.297	836.81
579.508	884.81
579.718	867.81
579.929	842.81
580.14	825.81
580.35	782.81
580.561	848.81
580.772	913.81
580.982	866.81
581.193	834.81
581.403	799.81
581.614	818.81
581.825	770.81
582.035	804.81
582.246	783.81
582.456	834.81
582.667	807.81
582.877	798.81
583.087	776.81
583.298	815.81
583.508	763.81
583.719	802.81
583.929	794.81
584.139	792.81
584.35	768.81
584.56	779.81
584.77	786.81
584.981	778.81
585.191	790.81
585.401	764.81
585.611	793.81
585.821	780.81
586.032	760.81
586.242	739.81
586.452	735.81
586.662	759.81
586.872	753.81
587.082	741.81
587.292	786.81
587.502	779.81
587.713	788.81
587.923	738.81
588.133	766.81
588.343	782.81
588.553	752.81
588.762	740.81
588.972	754.81
589.182	790.81
589.392	776.81
589.602	771.81
589.812	753.81
590.022	731.81
590.232	710.81
590.441	753.81
590.651	752.81
590.861	747.81
591.071	726.81
591.281	727.81
591.49	720.81
591.7	727.81
591.91	743.81
592.119	714.81
592.329	765.81
592.539	780.81
592.748	764.81
592.958	789.81
593.167	804.81
593.377	774.81
593.587	794.81
593.796	804.81
594.006	777.81
594.215	802.81
594.424	782.81
594.634	795.81
594.843	742.81
595.053	769.81
595.262	732.81
595.472	706.81
595.681	727.81
595.89	718.81
596.1	703.81
596.309	705.81
596.518	697.81
596.727	713.81
596.937	673.81
597.146	657.81
597.355	662.81
597.564	653.81
597.774	660.81
597.983	651.81
598.192	625.81
598.401	636.81
598.61	636.81
598.819	620.81
599.028	631.81
599.237	650.81
599.446	652.81
599.655	615.81
599.864	616.81
600.073	614.81
600.282	617.81
600.491	600.81
600.7	621.81
600.909	615.81
601.118	627.81
601.327	608.81
601.536	596.81
601.745	598.81
601.953	591.81
602.162	610.81
602.371	607.81
602.58	601.81
602.789	610.81
602.997	602.81
603.206	603.81
603.415	611.81
603.623	609.81
603.832	613.81
604.041	594.81
604.249	565.81
604.458	574.81
604.666	606.81
604.875	567.81
605.084	583.81
605.292	600.81
605.501	592.81
605.709	564.81
605.918	562.81
606.126	546.81
606.334	566.81
606.543	571.81
606.751	571.81
606.96	570.81
607.168	552.81
607.376	556.81
607.585	568.81
607.793	544.81
608.001	562.81
608.21	563.81
608.418	548.81
608.626	565.81
608.834	537.81
609.043	580.81
609.251	533.81
609.459	544.81
609.667	534.81
609.875	562.81
610.083	580.81
610.291	579.81
610.499	556.81
610.707	555.81
610.916	555.81
611.124	560.81
611.332	546.81
611.54	514.81
611.748	552.81
611.955	505.81
612.163	527.81
612.371	520.81
612.579	523.81
612.787	528.81
612.995	518.81
613.203	527.81
613.411	514.81
613.618	532.81
613.826	527.81
614.034	536.81
614.242	523.81
614.449	519.81
614.657	519.81
614.865	513.81
615.072	508.81
615.28	500.81
615.488	535.81
615.695	538.81
615.903	550.81
616.111	508.81
616.318	543.81
616.526	518.81
616.733	537.81
616.941	512.81
617.148	511.81
617.356	511.81
617.563	511.81
617.771	516.81
617.978	509.81
618.185	497.81
618.393	516.81
618.6	484.81
618.807	523.81
619.015	499.81
619.222	494.81
619.429	499.81
619.637	500.81
619.844	490.81
620.051	487.81
620.258	486.81
620.466	481.81
620.673	474.81
620.88	465.81
621.087	464.81
621.294	462.81
621.501	480.81
621.708	486.81
621.915	472.81
622.122	466.81
622.329	467.81
622.536	480.81
622.743	452.81
622.95	451.81
623.157	459.81
623.364	473.81
623.571	466.81
623.778	456.81
623.985	457.81
624.192	444.81
624.399	461.81
624.606	450.81
624.812	454.81
625.019	461.81
625.226	451.81
625.433	451.81
625.639	437.81
625.846	434.81
626.053	431.81
626.259	425.81
626.466	416.81
626.673	410.81
626.879	425.81
627.086	407.81
627.293	423.81
627.499	417.81
627.706	415.81
627.912	422.81
628.119	429.81
628.325	435.81
628.532	405.81
628.738	424.81
628.945	418.81
629.151	396.81
629.357	425.81
629.564	409.81
629.77	400.81
629.976	400.81
630.183	402.81
630.389	406.81
630.595	416.81
630.802	389.81
631.008	404.81
631.214	390.81
631.42	394.81
631.627	375.81
631.833	364.81
632.039	366.81
632.245	395.81
632.451	384.81
632.657	394.81
632.863	374.81
633.069	378.81
633.275	374.81
633.481	386.81
633.688	379.81
633.893	368.81
634.099	382.81
634.305	354.81
634.511	366.81
634.717	368.81
634.923	340.81
635.129	328.81
635.335	360.81
635.541	375.81
635.747	361.81
635.952	359.81
636.158	367.81
636.364	360.81
636.57	353.81
636.775	371.81
636.981	374.81
637.187	357.81
637.392	355.81
637.598	342.81
637.804	356.81
638.009	355.81
638.215	340.81
638.421	354.81
638.626	338.81
638.832	337.81
639.037	352.81
639.243	339.81
639.448	335.81
639.654	350.81
639.859	349.81
640.065	314.81
640.27	342.81
640.475	326.81
640.681	358.81
640.886	319.81
641.091	338.81
641.297	329.81
641.502	328.81
641.707	332.81
641.913	344.81
642.118	337.81
642.323	333.81
642.528	329.81
642.733	314.81
642.939	325.81
643.144	307.81
643.349	346.81
643.554	331.81
643.759	318.81
643.964	323.81
644.169	325.81
644.374	325.81
644.579	338.81
644.784	340.81
644.989	338.81
645.194	325.81
645.399	282.81
645.604	306.81
645.809	321.81
646.014	310.81
646.219	322.81
646.423	329.81
646.628	316.81
646.833	313.81
647.038	315.81
647.243	303.81
647.447	299.81
647.652	324.81
647.857	333.81
648.062	344.81
648.266	324.81
648.471	318.81
648.676	323.81
648.88	330.81
649.085	313.81
649.289	326.81
649.494	308.81
649.698	304.81
649.903	302.81
650.107	313.81
650.312	318.81
650.516	278.81
650.721	310.81
650.925	270.81
651.13	287.81
651.334	282.81
651.539	281.81
651.743	266.81
651.947	273.81
652.152	274.81
652.356	255.81
652.56	268.81
652.764	268.81
652.969	262.81
653.173	275.81
653.377	260.81
653.581	261.81
653.785	244.81
653.99	247.81
654.194	253.81
654.398	251.81
654.602	251.81
654.806	242.81
655.01	227.81
655.214	235.81
655.418	241.81
655.622	233.81
655.826	238.81
656.03	254.81
656.234	263.81
656.438	275.81
656.642	268.81
656.846	241.81
657.049	235.81
657.253	220.81
657.457	197.81
657.661	192.81
657.865	198.81
658.068	165.81
658.272	166.81
658.476	164.81
658.68	158.81
658.883	143.81
659.087	137.81
659.291	148.81
659.494	142.81
659.698	114.81
659.901	124.81
660.105	121.81
660.309	140.81
660.512	125.81
660.716	115.81
660.919	114.81
661.123	113.81
661.326	110.81
661.53	116.81
661.733	103.81
661.936	91.81
662.14	100.81
662.343	93.81
662.546	94.81
662.75	93.81
662.953	100.81
663.156	82.81
663.36	91.81
663.563	93.81
663.766	87.81
663.969	86.81
664.173	84.81
664.376	91.81
664.579	83.81
664.782	83.81
664.985	84.81
665.188	86.81
665.391	93.81
665.594	76.81
665.797	75.81
666	83.81
666.203	74.81
666.406	70.81
666.609	74.81
666.812	71.81
667.015	80.81
667.218	79.81
667.421	81.81
667.624	93.81
667.827	81.81
668.03	83.81
668.232	78.81
668.435	71.81
668.638	71.81
668.841	79.81
669.043	89.81
669.246	89.81
669.449	78.81
669.651	90.81
669.854	71.81
670.057	85.81
670.259	85.81
670.462	95.81
670.665	83.81
670.867	91.81
671.07	69.81
671.272	78.81
671.475	78.81
671.677	86.81
671.88	76.81
672.082	88.81
672.284	78.81
672.487	95.81
672.689	83.81
672.892	86.81
