Data from WStandard_LampEnergy10_LIBS07252019.E.O._I.C._HRD10591_15-54-10-928.txt Node
Date: Thu Jul 25 15:54:10 EDT 2019
User: cochatt
Spectrometer: HR+D1059
Trigger mode: 1
Integration Time (sec): 1.000000E-1
Scans to average: 1
Electric dark correction enabled: true
Nonlinearity correction enabled: false
Boxcar width: 0
XAxis mode: Wavelengths
Number of Pixels in Spectrum: 2048
>>>>>Begin Spectral Data<<<<<
223.165	-18.38
223.4	-18.38
223.635	-18.38
223.869	-13.38
224.104	-18.38
224.338	-15.38
224.573	-0.38
224.808	-17.38
225.042	-11.38
225.277	-15.38
225.511	-10.38
225.746	6.62
225.98	15.62
226.215	8.62
226.449	5.62
226.683	18.62
226.918	25.62
227.152	39.62
227.387	31.62
227.621	33.62
227.856	59.62
228.09	38.62
228.324	56.62
228.559	49.62
228.793	81.62
229.027	126.62
229.262	140.62
229.496	148.62
229.73	144.62
229.964	145.62
230.199	164.62
230.433	192.62
230.667	182.62
230.901	185.62
231.136	178.62
231.37	182.62
231.604	163.62
231.838	176.62
232.072	178.62
232.306	180.62
232.541	185.62
232.775	210.62
233.009	206.62
233.243	198.62
233.477	183.62
233.711	204.62
233.945	180.62
234.179	207.62
234.413	193.62
234.647	205.62
234.881	204.62
235.115	180.62
235.349	216.62
235.583	190.62
235.817	183.62
236.051	188.62
236.285	211.62
236.519	198.62
236.753	203.62
236.987	214.62
237.221	232.62
237.455	244.62
237.689	231.62
237.922	242.62
238.156	228.62
238.39	217.62
238.624	240.62
238.858	225.62
239.091	252.62
239.325	258.62
239.559	282.62
239.793	291.62
240.027	298.62
240.26	303.62
240.494	240.62
240.728	234.62
240.961	227.62
241.195	232.62
241.429	259.62
241.662	235.62
241.896	242.62
242.13	254.62
242.363	271.62
242.597	272.62
242.83	276.62
243.064	291.62
243.298	295.62
243.531	278.62
243.765	284.62
243.998	275.62
244.232	268.62
244.465	248.62
244.699	268.62
244.932	289.62
245.166	315.62
245.399	288.62
245.633	290.62
245.866	283.62
246.099	305.62
246.333	308.62
246.566	320.62
246.8	314.62
247.033	357.62
247.266	320.62
247.5	319.62
247.733	329.62
247.966	337.62
248.2	376.62
248.433	354.62
248.666	388.62
248.899	410.62
249.133	447.62
249.366	475.62
249.599	406.62
249.832	374.62
250.066	354.62
250.299	374.62
250.532	350.62
250.765	336.62
250.998	339.62
251.231	369.62
251.465	343.62
251.698	366.62
251.931	368.62
252.164	357.62
252.397	394.62
252.63	364.62
252.863	329.62
253.096	345.62
253.329	352.62
253.562	372.62
253.795	371.62
254.028	377.62
254.261	353.62
254.494	360.62
254.727	339.62
254.96	349.62
255.193	391.62
255.426	421.62
255.659	460.62
255.892	459.62
256.124	409.62
256.357	384.62
256.59	411.62
256.823	425.62
257.056	450.62
257.289	499.62
257.521	513.62
257.754	495.62
257.987	460.62
258.22	497.62
258.452	467.62
258.685	404.62
258.918	390.62
259.151	412.62
259.383	392.62
259.616	369.62
259.849	376.62
260.081	409.62
260.314	459.62
260.547	501.62
260.779	494.62
261.012	428.62
261.244	434.62
261.477	400.62
261.71	405.62
261.942	406.62
262.175	408.62
262.407	453.62
262.64	403.62
262.872	379.62
263.105	363.62
263.337	380.62
263.57	386.62
263.802	371.62
264.035	361.62
264.267	342.62
264.499	370.62
264.732	378.62
264.964	386.62
265.197	417.62
265.429	433.62
265.661	469.62
265.894	514.62
266.126	517.62
266.358	463.62
266.591	505.62
266.823	496.62
267.055	477.62
267.287	463.62
267.52	457.62
267.752	436.62
267.984	448.62
268.216	466.62
268.448	492.62
268.681	468.62
268.913	446.62
269.145	434.62
269.377	412.62
269.609	479.62
269.841	530.62
270.073	617.62
270.306	642.62
270.538	630.62
270.77	558.62
271.002	512.62
271.234	490.62
271.466	504.62
271.698	548.62
271.93	635.62
272.162	612.62
272.394	555.62
272.626	511.62
272.858	478.62
273.09	429.62
273.322	422.62
273.553	395.62
273.785	404.62
274.017	431.62
274.249	442.62
274.481	425.62
274.713	436.62
274.945	416.62
275.176	430.62
275.408	423.62
275.64	411.62
275.872	411.62
276.104	452.62
276.335	494.62
276.567	539.62
276.799	536.62
277.031	474.62
277.262	490.62
277.494	507.62
277.726	558.62
277.957	535.62
278.189	489.62
278.421	464.62
278.652	443.62
278.884	438.62
279.115	438.62
279.347	444.62
279.579	444.62
279.81	449.62
280.042	484.62
280.273	511.62
280.505	543.62
280.736	499.62
280.968	468.62
281.199	443.62
281.431	438.62
281.662	427.62
281.894	419.62
282.125	464.62
282.356	445.62
282.588	458.62
282.819	486.62
283.051	522.62
283.282	537.62
283.513	493.62
283.745	443.62
283.976	410.62
284.207	445.62
284.439	452.62
284.67	469.62
284.901	454.62
285.132	487.62
285.364	455.62
285.595	475.62
285.826	445.62
286.057	444.62
286.288	461.62
286.52	469.62
286.751	497.62
286.982	476.62
287.213	464.62
287.444	441.62
287.675	457.62
287.906	465.62
288.138	499.62
288.369	467.62
288.6	459.62
288.831	442.62
289.062	464.62
289.293	470.62
289.524	454.62
289.755	474.62
289.986	464.62
290.217	460.62
290.448	449.62
290.679	452.62
290.91	462.62
291.141	489.62
291.371	488.62
291.602	489.62
291.833	508.62
292.064	504.62
292.295	496.62
292.526	524.62
292.757	512.62
292.987	497.62
293.218	522.62
293.449	539.62
293.68	594.62
293.91	616.62
294.141	567.62
294.372	525.62
294.603	582.62
294.833	595.62
295.064	528.62
295.295	512.62
295.525	496.62
295.756	466.62
295.987	448.62
296.217	452.62
296.448	471.62
296.679	454.62
296.909	487.62
297.14	450.62
297.37	499.62
297.601	512.62
297.831	539.62
298.062	514.62
298.292	489.62
298.523	476.62
298.753	475.62
298.984	507.62
299.214	487.62
299.445	516.62
299.675	518.62
299.905	485.62
300.136	498.62
300.366	468.62
300.597	480.62
300.827	485.62
301.057	488.62
301.288	516.62
301.518	527.62
301.748	536.62
301.979	542.62
302.209	549.62
302.439	589.62
302.669	600.62
302.9	560.62
303.13	536.62
303.36	516.62
303.59	535.62
303.82	538.62
304.051	541.62
304.281	541.62
304.511	530.62
304.741	598.62
304.971	626.62
305.201	656.62
305.431	558.62
305.661	489.62
305.891	452.62
306.121	444.62
306.352	511.62
306.582	532.62
306.812	560.62
307.042	566.62
307.272	578.62
307.502	587.62
307.731	623.62
307.961	649.62
308.191	603.62
308.421	530.62
308.651	525.62
308.881	501.62
309.111	514.62
309.341	499.62
309.571	501.62
309.8	500.62
310.03	507.62
310.26	511.62
310.49	508.62
310.72	529.62
310.949	535.62
311.179	538.62
311.409	531.62
311.639	502.62
311.868	523.62
312.098	527.62
312.328	509.62
312.557	525.62
312.787	514.62
313.017	517.62
313.246	532.62
313.476	517.62
313.706	546.62
313.935	543.62
314.165	561.62
314.394	572.62
314.624	604.62
314.853	640.62
315.083	624.62
315.312	638.62
315.542	595.62
315.771	552.62
316.001	538.62
316.23	593.62
316.46	579.62
316.689	576.62
316.919	529.62
317.148	539.62
317.377	550.62
317.607	587.62
317.836	642.62
318.065	648.62
318.295	646.62
318.524	615.62
318.753	584.62
318.983	574.62
319.212	561.62
319.441	542.62
319.67	537.62
319.9	574.62
320.129	594.62
320.358	610.62
320.587	635.62
320.816	625.62
321.046	617.62
321.275	574.62
321.504	596.62
321.733	625.62
321.962	610.62
322.191	589.62
322.42	579.62
322.649	553.62
322.878	562.62
323.108	560.62
323.337	584.62
323.566	593.62
323.795	596.62
324.024	590.62
324.253	573.62
324.482	586.62
324.71	546.62
324.939	546.62
325.168	579.62
325.397	588.62
325.626	585.62
325.855	558.62
326.084	570.62
326.313	576.62
326.542	583.62
326.77	594.62
326.999	596.62
327.228	552.62
327.457	551.62
327.686	533.62
327.914	564.62
328.143	575.62
328.372	580.62
328.6	566.62
328.829	562.62
329.058	539.62
329.287	558.62
329.515	587.62
329.744	562.62
329.972	640.62
330.201	642.62
330.43	635.62
330.658	592.62
330.887	591.62
331.115	604.62
331.344	613.62
331.572	571.62
331.801	598.62
332.03	597.62
332.258	614.62
332.486	610.62
332.715	610.62
332.943	617.62
333.172	606.62
333.4	610.62
333.629	616.62
333.857	678.62
334.085	745.62
334.314	848.62
334.542	855.62
334.771	756.62
334.999	690.62
335.227	662.62
335.455	640.62
335.684	667.62
335.912	648.62
336.14	663.62
336.369	626.62
336.597	596.62
336.825	626.62
337.053	614.62
337.281	690.62
337.51	701.62
337.738	711.62
337.966	685.62
338.194	627.62
338.422	603.62
338.65	596.62
338.878	594.62
339.106	599.62
339.334	595.62
339.562	585.62
339.79	574.62
340.018	636.62
340.246	664.62
340.474	631.62
340.702	625.62
340.93	649.62
341.158	611.62
341.386	620.62
341.614	602.62
341.842	618.62
342.07	643.62
342.298	615.62
342.526	634.62
342.754	598.62
342.981	608.62
343.209	599.62
343.437	603.62
343.665	596.62
343.893	626.62
344.12	632.62
344.348	640.62
344.576	618.62
344.804	589.62
345.031	601.62
345.259	608.62
345.487	567.62
345.714	574.62
345.942	555.62
346.17	593.62
346.397	588.62
346.625	586.62
346.853	568.62
347.08	560.62
347.308	572.62
347.535	572.62
347.763	601.62
347.99	563.62
348.218	558.62
348.445	596.62
348.673	588.62
348.9	597.62
349.128	617.62
349.355	647.62
349.583	607.62
349.81	584.62
350.037	535.62
350.265	546.62
350.492	562.62
350.72	587.62
350.947	591.62
351.174	587.62
351.402	552.62
351.629	561.62
351.856	499.62
352.083	528.62
352.311	539.62
352.538	568.62
352.765	589.62
352.992	595.62
353.22	567.62
353.447	571.62
353.674	540.62
353.901	553.62
354.128	548.62
354.355	561.62
354.583	607.62
354.81	617.62
355.037	568.62
355.264	582.62
355.491	591.62
355.718	589.62
355.945	583.62
356.172	557.62
356.399	542.62
356.626	559.62
356.853	606.62
357.08	667.62
357.307	686.62
357.534	644.62
357.761	599.62
357.988	548.62
358.215	561.62
358.441	547.62
358.668	554.62
358.895	564.62
359.122	625.62
359.349	654.62
359.576	632.62
359.802	559.62
360.029	548.62
360.256	578.62
360.483	562.62
360.709	575.62
360.936	613.62
361.163	638.62
361.39	705.62
361.616	750.62
361.843	734.62
362.07	640.62
362.296	581.62
362.523	572.62
362.749	577.62
362.976	610.62
363.203	592.62
363.429	576.62
363.656	556.62
363.882	616.62
364.109	669.62
364.335	664.62
364.562	652.62
364.788	607.62
365.015	575.62
365.241	582.62
365.468	581.62
365.694	619.62
365.92	625.62
366.147	601.62
366.373	562.62
366.599	571.62
366.826	565.62
367.052	576.62
367.278	590.62
367.505	582.62
367.731	606.62
367.957	609.62
368.184	655.62
368.41	667.62
368.636	679.62
368.862	674.62
369.089	668.62
369.315	668.62
369.541	607.62
369.767	614.62
369.993	589.62
370.219	574.62
370.445	615.62
370.672	663.62
370.898	698.62
371.124	658.62
371.35	641.62
371.576	646.62
371.802	656.62
372.028	649.62
372.254	617.62
372.48	627.62
372.706	602.62
372.932	599.62
373.158	607.62
373.384	625.62
373.61	646.62
373.835	677.62
374.061	649.62
374.287	641.62
374.513	647.62
374.739	673.62
374.965	642.62
375.191	660.62
375.416	655.62
375.642	678.62
375.868	706.62
376.094	718.62
376.319	681.62
376.545	651.62
376.771	702.62
376.997	705.62
377.222	704.62
377.448	674.62
377.674	680.62
377.899	693.62
378.125	712.62
378.35	681.62
378.576	659.62
378.802	608.62
379.027	642.62
379.253	639.62
379.478	656.62
379.704	694.62
379.929	648.62
380.155	669.62
380.38	694.62
380.606	678.62
380.831	697.62
381.057	716.62
381.282	696.62
381.507	695.62
381.733	766.62
381.958	774.62
382.184	699.62
382.409	662.62
382.634	676.62
382.86	690.62
383.085	693.62
383.31	750.62
383.535	776.62
383.761	819.62
383.986	782.62
384.211	768.62
384.436	753.62
384.662	778.62
384.887	795.62
385.112	736.62
385.337	758.62
385.562	750.62
385.787	749.62
386.013	781.62
386.238	775.62
386.463	788.62
386.688	847.62
386.913	866.62
387.138	843.62
387.363	792.62
387.588	786.62
387.813	768.62
388.038	788.62
388.263	808.62
388.488	764.62
388.713	730.62
388.938	750.62
389.163	727.62
389.387	746.62
389.612	740.62
389.837	777.62
390.062	750.62
390.287	762.62
390.512	758.62
390.736	742.62
390.961	724.62
391.186	721.62
391.411	745.62
391.636	742.62
391.86	752.62
392.085	766.62
392.31	770.62
392.534	766.62
392.759	799.62
392.984	773.62
393.208	769.62
393.433	835.62
393.658	858.62
393.882	827.62
394.107	806.62
394.331	780.62
394.556	786.62
394.78	791.62
395.005	794.62
395.229	836.62
395.454	880.62
395.678	858.62
395.903	842.62
396.127	814.62
396.352	840.62
396.576	850.62
396.801	861.62
397.025	863.62
397.249	853.62
397.474	866.62
397.698	817.62
397.922	890.62
398.147	894.62
398.371	954.62
398.595	915.62
398.82	880.62
399.044	920.62
399.268	943.62
399.492	969.62
399.717	981.62
399.941	997.62
400.165	975.62
400.389	947.62
400.613	980.62
400.837	1147.62
401.062	1178.62
401.286	1032.62
401.51	1009.62
401.734	1022.62
401.958	928.62
402.182	901.62
402.406	894.62
402.63	870.62
402.854	880.62
403.078	909.62
403.302	921.62
403.526	938.62
403.75	940.62
403.974	930.62
404.198	952.62
404.422	1001.62
404.645	1024.62
404.869	986.62
405.093	906.62
405.317	923.62
405.541	939.62
405.765	963.62
405.988	931.62
406.212	917.62
406.436	985.62
406.66	1029.62
406.883	1070.62
407.107	1172.62
407.331	1225.62
407.555	1305.62
407.778	1139.62
408.002	1026.62
408.226	964.62
408.449	941.62
408.673	948.62
408.896	970.62
409.12	963.62
409.344	981.62
409.567	947.62
409.791	988.62
410.014	977.62
410.238	1029.62
410.461	1067.62
410.685	989.62
410.908	944.62
411.132	953.62
411.355	925.62
411.578	943.62
411.802	947.62
412.025	971.62
412.249	957.62
412.472	928.62
412.695	947.62
412.919	950.62
413.142	920.62
413.365	950.62
413.589	972.62
413.812	1012.62
414.035	1022.62
414.258	937.62
414.482	942.62
414.705	917.62
414.928	940.62
415.151	928.62
415.374	915.62
415.597	938.62
415.821	950.62
416.044	950.62
416.267	979.62
416.49	951.62
416.713	938.62
416.936	943.62
417.159	982.62
417.382	1007.62
417.605	965.62
417.828	944.62
418.051	944.62
418.274	944.62
418.497	959.62
418.72	948.62
418.943	929.62
419.166	939.62
419.389	996.62
419.611	959.62
419.834	934.62
420.057	959.62
420.28	942.62
420.503	948.62
420.726	960.62
420.948	954.62
421.171	920.62
421.394	924.62
421.617	991.62
421.839	1008.62
422.062	995.62
422.285	942.62
422.507	946.62
422.73	924.62
422.953	905.62
423.175	879.62
423.398	929.62
423.621	952.62
423.843	940.62
424.066	993.62
424.288	1034.62
424.511	1062.62
424.733	1025.62
424.956	940.62
425.178	910.62
425.401	943.62
425.623	920.62
425.846	935.62
426.068	983.62
426.291	973.62
426.513	966.62
426.735	963.62
426.958	1039.62
427.18	1084.62
427.402	1010.62
427.625	1074.62
427.847	1010.62
428.069	930.62
428.292	929.62
428.514	913.62
428.736	912.62
428.958	929.62
429.181	964.62
429.403	1082.62
429.625	1270.62
429.847	1057.62
430.069	960.62
430.292	1079.62
430.514	1022.62
430.736	986.62
430.958	996.62
431.18	937.62
431.402	901.62
431.624	871.62
431.846	811.62
432.068	750.62
432.29	747.62
432.512	811.62
432.734	921.62
432.956	932.62
433.178	987.62
433.4	969.62
433.622	966.62
433.844	928.62
434.066	860.62
434.287	789.62
434.509	814.62
434.731	848.62
434.953	933.62
435.175	965.62
435.397	928.62
435.618	900.62
435.84	856.62
436.062	824.62
436.284	923.62
436.505	935.62
436.727	956.62
436.949	935.62
437.17	894.62
437.392	901.62
437.614	854.62
437.835	836.62
438.057	869.62
438.278	878.62
438.5	875.62
438.721	900.62
438.943	905.62
439.165	933.62
439.386	954.62
439.608	981.62
439.829	958.62
440.05	968.62
440.272	983.62
440.493	963.62
440.715	999.62
440.936	1041.62
441.158	1053.62
441.379	1066.62
441.6	1058.62
441.822	1052.62
442.043	1032.62
442.264	1012.62
442.486	986.62
442.707	988.62
442.928	993.62
443.149	1003.62
443.371	979.62
443.592	1042.62
443.813	1024.62
444.034	1011.62
444.255	1044.62
444.476	1057.62
444.698	1055.62
444.919	1082.62
445.14	1129.62
445.361	1091.62
445.582	1074.62
445.803	1056.62
446.024	1091.62
446.245	1090.62
446.466	1084.62
446.687	1040.62
446.908	1043.62
447.129	1022.62
447.35	1023.62
447.571	1003.62
447.792	979.62
448.013	971.62
448.234	989.62
448.455	1032.62
448.675	995.62
448.896	928.62
449.117	904.62
449.338	933.62
449.559	947.62
449.779	1007.62
450	1043.62
450.221	1068.62
450.442	1052.62
450.662	952.62
450.883	889.62
451.104	887.62
451.324	860.62
451.545	901.62
451.766	896.62
451.986	844.62
452.207	835.62
452.428	833.62
452.648	798.62
452.869	812.62
453.089	778.62
453.31	778.62
453.53	804.62
453.751	768.62
453.971	719.62
454.192	725.62
454.412	809.62
454.633	811.62
454.853	805.62
455.073	780.62
455.294	779.62
455.514	791.62
455.734	777.62
455.955	785.62
456.175	769.62
456.395	724.62
456.616	750.62
456.836	762.62
457.056	746.62
457.276	745.62
457.497	705.62
457.717	716.62
457.937	723.62
458.157	730.62
458.377	727.62
458.598	705.62
458.818	703.62
459.038	729.62
459.258	730.62
459.478	732.62
459.698	714.62
459.918	740.62
460.138	794.62
460.358	823.62
460.578	855.62
460.798	876.62
461.018	904.62
461.238	882.62
461.458	872.62
461.678	879.62
461.898	811.62
462.118	804.62
462.338	896.62
462.558	865.62
462.777	844.62
462.997	873.62
463.217	883.62
463.437	865.62
463.657	857.62
463.876	823.62
464.096	830.62
464.316	846.62
464.536	897.62
464.755	908.62
464.975	867.62
465.195	858.62
465.414	895.62
465.634	926.62
465.854	903.62
466.073	995.62
466.293	938.62
466.512	887.62
466.732	886.62
466.951	925.62
467.171	923.62
467.391	864.62
467.61	904.62
467.829	914.62
468.049	996.62
468.268	1064.62
468.488	965.62
468.707	980.62
468.927	936.62
469.146	888.62
469.365	904.62
469.585	934.62
469.804	913.62
470.023	962.62
470.243	927.62
470.462	945.62
470.681	946.62
470.901	937.62
471.12	960.62
471.339	967.62
471.558	917.62
471.777	926.62
471.997	916.62
472.216	883.62
472.435	811.62
472.654	774.62
472.873	800.62
473.092	837.62
473.311	841.62
473.53	824.62
473.749	834.62
473.968	853.62
474.187	848.62
474.406	873.62
474.625	844.62
474.844	901.62
475.063	890.62
475.282	861.62
475.501	850.62
475.72	851.62
475.939	903.62
476.158	912.62
476.377	886.62
476.596	869.62
476.814	838.62
477.033	830.62
477.252	873.62
477.471	936.62
477.69	927.62
477.908	939.62
478.127	981.62
478.346	1042.62
478.564	1026.62
478.783	1003.62
479.002	1034.62
479.22	1034.62
479.439	1026.62
479.658	1082.62
479.876	1017.62
480.095	962.62
480.313	914.62
480.532	900.62
480.751	866.62
480.969	859.62
481.188	814.62
481.406	792.62
481.624	780.62
481.843	811.62
482.061	844.62
482.28	867.62
482.498	893.62
482.717	859.62
482.935	912.62
483.153	985.62
483.372	1039.62
483.59	1035.62
483.808	977.62
484.027	942.62
484.245	1011.62
484.463	1249.62
484.681	1323.62
484.9	1052.62
485.118	999.62
485.336	946.62
485.554	928.62
485.772	909.62
485.99	931.62
486.209	919.62
486.427	922.62
486.645	954.62
486.863	1020.62
487.081	1064.62
487.299	1020.62
487.517	1032.62
487.735	1118.62
487.953	1215.62
488.171	1190.62
488.389	1162.62
488.607	1095.62
488.825	1180.62
489.043	1081.62
489.261	985.62
489.479	1084.62
489.696	1081.62
489.914	1054.62
490.132	1076.62
490.35	1094.62
490.568	1176.62
490.786	1182.62
491.003	1198.62
491.221	1259.62
491.439	1338.62
491.657	1328.62
491.874	1385.62
492.092	1494.62
492.31	1513.62
492.527	1486.62
492.745	1385.62
492.963	1328.62
493.18	1324.62
493.398	1377.62
493.615	1354.62
493.833	1312.62
494.05	1234.62
494.268	1234.62
494.485	1288.62
494.703	1256.62
494.92	1255.62
495.138	1263.62
495.355	1243.62
495.573	1278.62
495.79	1294.62
496.008	1300.62
496.225	1260.62
496.442	1225.62
496.66	1248.62
496.877	1242.62
497.094	1252.62
497.312	1251.62
497.529	1179.62
497.746	1178.62
497.963	1288.62
498.181	1302.62
498.398	1291.62
498.615	1252.62
498.832	1169.62
499.049	1198.62
499.267	1198.62
499.484	1280.62
499.701	1375.62
499.918	1413.62
500.135	1514.62
500.352	1564.62
500.569	1582.62
500.786	1737.62
501.003	1562.62
501.22	1464.62
501.437	1424.62
501.654	1447.62
501.871	1387.62
502.088	1229.62
502.305	1191.62
502.522	1174.62
502.739	1082.62
502.956	1120.62
503.172	1078.62
503.389	1034.62
503.606	1010.62
503.823	1043.62
504.04	1031.62
504.256	1002.62
504.473	1033.62
504.69	1035.62
504.907	970.62
505.123	976.62
505.34	1102.62
505.557	1380.62
505.773	1126.62
505.99	976.62
506.207	936.62
506.423	906.62
506.64	922.62
506.856	920.62
507.073	1075.62
507.289	1094.62
507.506	1014.62
507.722	918.62
507.939	892.62
508.155	878.62
508.372	858.62
508.588	863.62
508.805	793.62
509.021	781.62
509.238	764.62
509.454	754.62
509.67	736.62
509.887	751.62
510.103	739.62
510.319	786.62
510.536	759.62
510.752	776.62
510.968	788.62
511.184	796.62
511.401	782.62
511.617	719.62
511.833	697.62
512.049	678.62
512.265	734.62
512.481	744.62
512.698	771.62
512.914	799.62
513.13	775.62
513.346	742.62
513.562	700.62
513.778	727.62
513.994	773.62
514.21	785.62
514.426	790.62
514.642	841.62
514.858	796.62
515.074	740.62
515.29	736.62
515.506	745.62
515.721	762.62
515.937	771.62
516.153	793.62
516.369	784.62
516.585	774.62
516.801	743.62
517.016	742.62
517.232	770.62
517.448	805.62
517.664	790.62
517.879	816.62
518.095	858.62
518.311	777.62
518.527	772.62
518.742	774.62
518.958	782.62
519.173	771.62
519.389	806.62
519.605	805.62
519.82	805.62
520.036	802.62
520.251	765.62
520.467	786.62
520.682	818.62
520.898	812.62
521.113	736.62
521.329	728.62
521.544	778.62
521.76	768.62
521.975	740.62
522.19	754.62
522.406	747.62
522.621	930.62
522.836	865.62
523.052	762.62
523.267	740.62
523.482	750.62
523.698	760.62
523.913	755.62
524.128	783.62
524.343	814.62
524.559	836.62
524.774	781.62
524.989	776.62
525.204	779.62
525.419	772.62
525.634	742.62
525.849	785.62
526.064	774.62
526.28	727.62
526.495	704.62
526.71	656.62
526.925	630.62
527.14	641.62
527.355	633.62
527.57	652.62
527.785	648.62
527.999	671.62
528.214	680.62
528.429	696.62
528.644	760.62
528.859	816.62
529.074	848.62
529.289	883.62
529.503	890.62
529.718	817.62
529.933	738.62
530.148	675.62
530.363	655.62
530.577	642.62
530.792	643.62
531.007	630.62
531.221	622.62
531.436	659.62
531.651	669.62
531.865	674.62
532.08	663.62
532.295	617.62
532.509	620.62
532.724	638.62
532.938	670.62
533.153	707.62
533.367	726.62
533.582	756.62
533.796	748.62
534.011	699.62
534.225	667.62
534.44	649.62
534.654	664.62
534.868	662.62
535.083	708.62
535.297	698.62
535.511	693.62
535.726	683.62
535.94	660.62
536.154	678.62
536.369	615.62
536.583	613.62
536.797	598.62
537.011	640.62
537.225	617.62
537.44	617.62
537.654	670.62
537.868	614.62
538.082	619.62
538.296	631.62
538.51	634.62
538.724	693.62
538.938	728.62
539.153	774.62
539.367	754.62
539.581	706.62
539.795	672.62
540.009	643.62
540.222	639.62
540.436	688.62
540.65	755.62
540.864	811.62
541.078	844.62
541.292	864.62
541.506	900.62
541.72	950.62
541.934	1048.62
542.147	1076.62
542.361	1012.62
542.575	918.62
542.789	848.62
543.002	780.62
543.216	753.62
543.43	780.62
543.644	800.62
543.857	914.62
544.071	950.62
544.285	924.62
544.498	949.62
544.712	924.62
544.925	935.62
545.139	979.62
545.352	940.62
545.566	924.62
545.779	929.62
545.993	942.62
546.206	959.62
546.42	924.62
546.633	963.62
546.847	946.62
547.06	983.62
547.274	995.62
547.487	994.62
547.7	978.62
547.914	999.62
548.127	973.62
548.34	966.62
548.554	938.62
548.767	973.62
548.98	934.62
549.193	931.62
549.407	974.62
549.62	950.62
549.833	926.62
550.046	939.62
550.259	883.62
550.473	911.62
550.686	912.62
550.899	893.62
551.112	846.62
551.325	844.62
551.538	852.62
551.751	899.62
551.964	728.62
552.177	758.62
552.39	805.62
552.603	851.62
552.816	866.62
553.029	935.62
553.242	948.62
553.455	926.62
553.667	906.62
553.88	897.62
554.093	884.62
554.306	864.62
554.519	839.62
554.732	858.62
554.944	840.62
555.157	845.62
555.37	796.62
555.583	822.62
555.795	770.62
556.008	784.62
556.221	758.62
556.433	746.62
556.646	749.62
556.859	740.62
557.071	747.62
557.284	778.62
557.496	762.62
557.709	737.62
557.921	762.62
558.134	755.62
558.346	737.62
558.559	724.62
558.771	723.62
558.984	712.62
559.196	701.62
559.409	690.62
559.621	680.62
559.833	672.62
560.046	679.62
560.258	679.62
560.47	692.62
560.683	694.62
560.895	699.62
561.107	699.62
561.32	684.62
561.532	694.62
561.744	688.62
561.956	707.62
562.168	664.62
562.381	644.62
562.593	635.62
562.805	659.62
563.017	638.62
563.229	640.62
563.441	652.62
563.653	631.62
563.865	624.62
564.077	611.62
564.289	606.62
564.501	610.62
564.713	623.62
564.925	629.62
565.137	675.62
565.349	645.62
565.561	613.62
565.773	618.62
565.985	642.62
566.197	659.62
566.408	675.62
566.62	691.62
566.832	688.62
567.044	696.62
567.255	658.62
567.467	663.62
567.679	682.62
567.891	691.62
568.102	624.62
568.314	604.62
568.526	562.62
568.737	518.62
568.949	485.62
569.161	478.62
569.372	469.62
569.584	465.62
569.795	457.62
570.007	478.62
570.218	444.62
570.43	439.62
570.641	444.62
570.853	483.62
571.064	476.62
571.276	481.62
571.487	483.62
571.698	482.62
571.91	474.62
572.121	455.62
572.333	455.62
572.544	448.62
572.755	411.62
572.966	388.62
573.178	396.62
573.389	410.62
573.6	415.62
573.811	448.62
574.023	405.62
574.234	402.62
574.445	398.62
574.656	394.62
574.867	400.62
575.078	399.62
575.289	410.62
575.501	400.62
575.712	390.62
575.923	412.62
576.134	401.62
576.345	405.62
576.556	394.62
576.767	398.62
576.978	392.62
577.188	388.62
577.399	382.62
577.61	372.62
577.821	392.62
578.032	369.62
578.243	376.62
578.454	362.62
578.665	362.62
578.875	354.62
579.086	340.62
579.297	340.62
579.508	368.62
579.718	353.62
579.929	348.62
580.14	344.62
580.35	337.62
580.561	366.62
580.772	394.62
580.982	388.62
581.193	363.62
581.403	360.62
581.614	355.62
581.825	355.62
582.035	343.62
582.246	344.62
582.456	364.62
582.667	355.62
582.877	331.62
583.087	325.62
583.298	329.62
583.508	319.62
583.719	339.62
583.929	344.62
584.139	344.62
584.35	311.62
584.56	328.62
584.77	323.62
584.981	332.62
585.191	336.62
585.401	339.62
585.611	341.62
585.821	331.62
586.032	331.62
586.242	335.62
586.452	308.62
586.662	313.62
586.872	320.62
587.082	316.62
587.292	316.62
587.502	336.62
587.713	313.62
587.923	309.62
588.133	314.62
588.343	328.62
588.553	325.62
588.762	319.62
588.972	317.62
589.182	322.62
589.392	336.62
589.602	312.62
589.812	322.62
590.022	312.62
590.232	308.62
590.441	327.62
590.651	329.62
590.861	332.62
591.071	318.62
591.281	318.62
591.49	299.62
591.7	300.62
591.91	312.62
592.119	299.62
592.329	325.62
592.539	322.62
592.748	321.62
592.958	306.62
593.167	306.62
593.377	315.62
593.587	321.62
593.796	326.62
594.006	330.62
594.215	311.62
594.424	331.62
594.634	345.62
594.843	338.62
595.053	375.62
595.262	343.62
595.472	325.62
595.681	331.62
595.89	328.62
596.1	295.62
596.309	324.62
596.518	326.62
596.727	327.62
596.937	344.62
597.146	334.62
597.355	326.62
597.564	314.62
597.774	307.62
597.983	298.62
598.192	289.62
598.401	300.62
598.61	295.62
598.819	304.62
599.028	320.62
599.237	294.62
599.446	309.62
599.655	323.62
599.864	300.62
600.073	273.62
600.282	298.62
600.491	296.62
600.7	306.62
600.909	299.62
601.118	318.62
601.327	343.62
601.536	338.62
601.745	331.62
601.953	344.62
602.162	359.62
602.371	351.62
602.58	345.62
602.789	358.62
602.997	344.62
603.206	367.62
603.415	357.62
603.623	323.62
603.832	356.62
604.041	332.62
604.249	329.62
604.458	319.62
604.666	314.62
604.875	307.62
605.084	314.62
605.292	331.62
605.501	356.62
605.709	373.62
605.918	362.62
606.126	353.62
606.334	367.62
606.543	347.62
606.751	359.62
606.96	351.62
607.168	372.62
607.376	350.62
607.585	370.62
607.793	350.62
608.001	352.62
608.21	358.62
608.418	378.62
608.626	380.62
608.834	363.62
609.043	376.62
609.251	372.62
609.459	343.62
609.667	392.62
609.875	387.62
610.083	387.62
610.291	373.62
610.499	373.62
610.707	352.62
610.916	362.62
611.124	366.62
611.332	359.62
611.54	381.62
611.748	373.62
611.955	358.62
612.163	344.62
612.371	366.62
612.579	366.62
612.787	371.62
612.995	361.62
613.203	372.62
613.411	365.62
613.618	350.62
613.826	376.62
614.034	345.62
614.242	367.62
614.449	360.62
614.657	360.62
614.865	355.62
615.072	353.62
615.28	370.62
615.488	361.62
615.695	382.62
615.903	362.62
616.111	354.62
616.318	342.62
616.526	353.62
616.733	359.62
616.941	367.62
617.148	354.62
617.356	345.62
617.563	336.62
617.771	334.62
617.978	346.62
618.185	337.62
618.393	344.62
618.6	352.62
618.807	354.62
619.015	364.62
619.222	345.62
619.429	312.62
619.637	332.62
619.844	294.62
620.051	295.62
620.258	323.62
620.466	342.62
620.673	317.62
620.88	348.62
621.087	321.62
621.294	318.62
621.501	305.62
621.708	306.62
621.915	323.62
622.122	318.62
622.329	326.62
622.536	325.62
622.743	338.62
622.95	330.62
623.157	321.62
623.364	330.62
623.571	321.62
623.778	342.62
623.985	331.62
624.192	329.62
624.399	317.62
624.606	309.62
624.812	327.62
625.019	296.62
625.226	281.62
625.433	286.62
625.639	266.62
625.846	249.62
626.053	254.62
626.259	255.62
626.466	262.62
626.673	259.62
626.879	247.62
627.086	256.62
627.293	260.62
627.499	289.62
627.706	293.62
627.912	303.62
628.119	299.62
628.325	306.62
628.532	286.62
628.738	296.62
628.945	287.62
629.151	278.62
629.357	292.62
629.564	275.62
629.77	286.62
629.976	277.62
630.183	274.62
630.389	256.62
630.595	276.62
630.802	271.62
631.008	294.62
631.214	277.62
631.42	284.62
631.627	258.62
631.833	264.62
632.039	271.62
632.245	263.62
632.451	257.62
632.657	275.62
632.863	279.62
633.069	265.62
633.275	264.62
633.481	261.62
633.688	276.62
633.893	262.62
634.099	234.62
634.305	272.62
634.511	262.62
634.717	230.62
634.923	238.62
635.129	228.62
635.335	241.62
635.541	242.62
635.747	255.62
635.952	250.62
636.158	239.62
636.364	259.62
636.57	271.62
636.775	258.62
636.981	276.62
637.187	265.62
637.392	288.62
637.598	267.62
637.804	262.62
638.009	260.62
638.215	253.62
638.421	246.62
638.626	255.62
638.832	269.62
639.037	258.62
639.243	249.62
639.448	251.62
639.654	238.62
639.859	231.62
640.065	230.62
640.27	249.62
640.475	242.62
640.681	243.62
640.886	264.62
641.091	255.62
641.297	241.62
641.502	255.62
641.707	247.62
641.913	251.62
642.118	246.62
642.323	250.62
642.528	235.62
642.733	238.62
642.939	232.62
643.144	237.62
643.349	249.62
643.554	242.62
643.759	243.62
643.964	229.62
644.169	242.62
644.374	235.62
644.579	243.62
644.784	256.62
644.989	248.62
645.194	250.62
645.399	239.62
645.604	247.62
645.809	240.62
646.014	252.62
646.219	243.62
646.423	245.62
646.628	234.62
646.833	267.62
647.038	242.62
647.243	234.62
647.447	262.62
647.652	241.62
647.857	241.62
648.062	236.62
648.266	229.62
648.471	224.62
648.676	233.62
648.88	249.62
649.085	249.62
649.289	244.62
649.494	250.62
649.698	231.62
649.903	233.62
650.107	233.62
650.312	232.62
650.516	234.62
650.721	210.62
650.925	242.62
651.13	223.62
651.334	230.62
651.539	222.62
651.743	203.62
651.947	216.62
652.152	208.62
652.356	193.62
652.56	211.62
652.764	214.62
652.969	220.62
653.173	222.62
653.377	216.62
653.581	220.62
653.785	214.62
653.99	208.62
654.194	212.62
654.398	197.62
654.602	206.62
654.806	198.62
655.01	207.62
655.214	198.62
655.418	195.62
655.622	216.62
655.826	216.62
656.03	218.62
656.234	228.62
656.438	237.62
656.642	230.62
656.846	212.62
657.049	208.62
657.253	204.62
657.457	176.62
657.661	185.62
657.865	167.62
658.068	155.62
658.272	160.62
658.476	151.62
658.68	142.62
658.883	144.62
659.087	144.62
659.291	124.62
659.494	139.62
659.698	139.62
659.901	144.62
660.105	139.62
660.309	128.62
660.512	131.62
660.716	122.62
660.919	113.62
661.123	97.62
661.326	98.62
661.53	100.62
661.733	105.62
661.936	102.62
662.14	104.62
662.343	103.62
662.546	110.62
662.75	97.62
662.953	99.62
663.156	100.62
663.36	81.62
663.563	81.62
663.766	74.62
663.969	79.62
664.173	87.62
664.376	77.62
664.579	91.62
664.782	82.62
664.985	76.62
665.188	78.62
665.391	90.62
665.594	79.62
665.797	82.62
666	82.62
666.203	80.62
666.406	80.62
666.609	75.62
666.812	90.62
667.015	95.62
667.218	72.62
667.421	84.62
667.624	78.62
667.827	80.62
668.03	90.62
668.232	91.62
668.435	74.62
668.638	71.62
668.841	84.62
669.043	75.62
669.246	75.62
669.449	91.62
669.651	79.62
669.854	64.62
670.057	78.62
670.259	78.62
670.462	87.62
670.665	87.62
670.867	81.62
671.07	87.62
671.272	81.62
671.475	80.62
671.677	83.62
671.88	83.62
672.082	78.62
672.284	71.62
672.487	87.62
672.689	88.62
672.892	82.62
