Data from WStandard_LampEnergy5.5LIBS07252019.E.O._I.C._HRD10591_16-09-16-920.txt Node
Date: Thu Jul 25 16:09:16 EDT 2019
User: cochatt
Spectrometer: HR+D1059
Trigger mode: 1
Integration Time (sec): 1.000000E-1
Scans to average: 1
Electric dark correction enabled: true
Nonlinearity correction enabled: false
Boxcar width: 0
XAxis mode: Wavelengths
Number of Pixels in Spectrum: 2048
>>>>>Begin Spectral Data<<<<<
223.165	-9.81
223.4	-9.81
223.635	-9.81
223.869	0.19
224.104	-17.81
224.338	-23.81
224.573	-17.81
224.808	-30.81
225.042	0.19
225.277	-16.81
225.511	13.19
225.746	12.19
225.98	10.19
226.215	15.19
226.449	10.19
226.683	20.19
226.918	23.19
227.152	12.19
227.387	37.19
227.621	28.19
227.856	30.19
228.09	50.19
228.324	42.19
228.559	60.19
228.793	143.19
229.027	341.19
229.262	374.19
229.496	363.19
229.73	404.19
229.964	427.19
230.199	428.19
230.433	467.19
230.667	474.19
230.901	498.19
231.136	466.19
231.37	444.19
231.604	444.19
231.838	436.19
232.072	446.19
232.306	417.19
232.541	461.19
232.775	522.19
233.009	581.19
233.243	562.19
233.477	514.19
233.711	532.19
233.945	531.19
234.179	526.19
234.413	554.19
234.647	618.19
234.881	569.19
235.115	518.19
235.349	551.19
235.583	516.19
235.817	553.19
236.051	512.19
236.285	530.19
236.519	566.19
236.753	634.19
236.987	667.19
237.221	627.19
237.455	743.19
237.689	694.19
237.922	642.19
238.156	614.19
238.39	648.19
238.624	674.19
238.858	719.19
239.091	723.19
239.325	752.19
239.559	888.19
239.793	903.19
240.027	1015.19
240.26	988.19
240.494	741.19
240.728	692.19
240.961	708.19
241.195	708.19
241.429	754.19
241.662	770.19
241.896	715.19
242.13	720.19
242.363	814.19
242.597	866.19
242.83	851.19
243.064	835.19
243.298	907.19
243.531	870.19
243.765	873.19
243.998	894.19
244.232	750.19
244.465	761.19
244.699	746.19
244.932	851.19
245.166	968.19
245.399	954.19
245.633	866.19
245.866	854.19
246.099	887.19
246.333	907.19
246.566	930.19
246.8	992.19
247.033	1098.19
247.266	1046.19
247.5	969.19
247.733	988.19
247.966	1045.19
248.2	1173.19
248.433	1098.19
248.666	1175.19
248.899	1245.19
249.133	1468.19
249.366	1652.19
249.599	1369.19
249.832	1166.19
250.066	1211.19
250.299	1219.19
250.532	1171.19
250.765	1048.19
250.998	1102.19
251.231	1171.19
251.465	1186.19
251.698	1122.19
251.931	1088.19
252.164	1143.19
252.397	1234.19
252.63	1172.19
252.863	1062.19
253.096	1025.19
253.329	1096.19
253.562	1116.19
253.795	1206.19
254.028	1176.19
254.261	1147.19
254.494	1111.19
254.727	1064.19
254.96	1077.19
255.193	1170.19
255.426	1318.19
255.659	1549.19
255.892	1605.19
256.124	1316.19
256.357	1263.19
256.59	1321.19
256.823	1363.19
257.056	1297.19
257.289	1602.19
257.521	1798.19
257.754	1613.19
257.987	1504.19
258.22	1674.19
258.452	1648.19
258.685	1350.19
258.918	1326.19
259.151	1308.19
259.383	1260.19
259.616	1108.19
259.849	1158.19
260.081	1326.19
260.314	1440.19
260.547	1620.19
260.779	1634.19
261.012	1521.19
261.244	1371.19
261.477	1310.19
261.71	1353.19
261.942	1355.19
262.175	1278.19
262.407	1404.19
262.64	1263.19
262.872	1227.19
263.105	1163.19
263.337	1212.19
263.57	1208.19
263.802	1236.19
264.035	1146.19
264.267	1108.19
264.499	1074.19
264.732	1182.19
264.964	1246.19
265.197	1273.19
265.429	1315.19
265.661	1486.19
265.894	1627.19
266.126	1715.19
266.358	1493.19
266.591	1577.19
266.823	1669.19
267.055	1567.19
267.287	1520.19
267.52	1528.19
267.752	1474.19
267.984	1477.19
268.216	1512.19
268.448	1575.19
268.681	1591.19
268.913	1447.19
269.145	1365.19
269.377	1312.19
269.609	1416.19
269.841	1630.19
270.073	1936.19
270.306	2147.19
270.538	2311.19
270.77	1947.19
271.002	1649.19
271.234	1599.19
271.466	1560.19
271.698	1690.19
271.93	2090.19
272.162	2089.19
272.394	1860.19
272.626	1820.19
272.858	1598.19
273.09	1376.19
273.322	1347.19
273.553	1298.19
273.785	1338.19
274.017	1380.19
274.249	1494.19
274.481	1499.19
274.713	1358.19
274.945	1360.19
275.176	1362.19
275.408	1304.19
275.64	1330.19
275.872	1320.19
276.104	1371.19
276.335	1567.19
276.567	1772.19
276.799	1795.19
277.031	1619.19
277.262	1492.19
277.494	1582.19
277.726	1738.19
277.957	1754.19
278.189	1550.19
278.421	1472.19
278.652	1433.19
278.884	1393.19
279.115	1406.19
279.347	1469.19
279.579	1405.19
279.81	1412.19
280.042	1520.19
280.273	1677.19
280.505	1668.19
280.736	1707.19
280.968	1626.19
281.199	1446.19
281.431	1364.19
281.662	1395.19
281.894	1412.19
282.125	1432.19
282.356	1497.19
282.588	1518.19
282.819	1484.19
283.051	1575.19
283.282	1684.19
283.513	1668.19
283.745	1435.19
283.976	1387.19
284.207	1378.19
284.439	1418.19
284.67	1401.19
284.901	1480.19
285.132	1500.19
285.364	1479.19
285.595	1478.19
285.826	1451.19
286.057	1438.19
286.288	1414.19
286.52	1433.19
286.751	1612.19
286.982	1632.19
287.213	1508.19
287.444	1409.19
287.675	1381.19
287.906	1480.19
288.138	1571.19
288.369	1556.19
288.6	1457.19
288.831	1360.19
289.062	1450.19
289.293	1482.19
289.524	1432.19
289.755	1534.19
289.986	1504.19
290.217	1362.19
290.448	1432.19
290.679	1468.19
290.91	1480.19
291.141	1530.19
291.371	1562.19
291.602	1528.19
291.833	1512.19
292.064	1544.19
292.295	1558.19
292.526	1545.19
292.757	1664.19
292.987	1574.19
293.218	1482.19
293.449	1540.19
293.68	1785.19
293.91	1966.19
294.141	1776.19
294.372	1684.19
294.603	1739.19
294.833	1851.19
295.064	1752.19
295.295	1569.19
295.525	1501.19
295.756	1457.19
295.987	1384.19
296.217	1406.19
296.448	1426.19
296.679	1447.19
296.909	1448.19
297.14	1406.19
297.37	1423.19
297.601	1542.19
297.831	1645.19
298.062	1653.19
298.292	1540.19
298.523	1460.19
298.753	1496.19
298.984	1466.19
299.214	1440.19
299.445	1539.19
299.675	1547.19
299.905	1549.19
300.136	1530.19
300.366	1503.19
300.597	1432.19
300.827	1442.19
301.057	1505.19
301.288	1573.19
301.518	1532.19
301.748	1578.19
301.979	1639.19
302.209	1699.19
302.439	1782.19
302.669	1867.19
302.9	1760.19
303.13	1576.19
303.36	1583.19
303.59	1594.19
303.82	1560.19
304.051	1550.19
304.281	1566.19
304.511	1565.19
304.741	1632.19
304.971	1794.19
305.201	1986.19
305.431	1838.19
305.661	1542.19
305.891	1414.19
306.121	1350.19
306.352	1448.19
306.582	1537.19
306.812	1640.19
307.042	1733.19
307.272	1731.19
307.502	1756.19
307.731	1886.19
307.961	2034.19
308.191	1906.19
308.421	1627.19
308.651	1538.19
308.881	1510.19
309.111	1520.19
309.341	1498.19
309.571	1504.19
309.8	1514.19
310.03	1496.19
310.26	1499.19
310.49	1475.19
310.72	1548.19
310.949	1607.19
311.179	1630.19
311.409	1622.19
311.639	1537.19
311.868	1543.19
312.098	1552.19
312.328	1528.19
312.557	1484.19
312.787	1576.19
313.017	1620.19
313.246	1576.19
313.476	1574.19
313.706	1603.19
313.935	1590.19
314.165	1610.19
314.394	1673.19
314.624	1751.19
314.853	1850.19
315.083	1902.19
315.312	1952.19
315.542	1828.19
315.771	1612.19
316.001	1604.19
316.23	1737.19
316.46	1731.19
316.689	1726.19
316.919	1612.19
317.148	1544.19
317.377	1551.19
317.607	1650.19
317.836	1884.19
318.065	1948.19
318.295	1859.19
318.524	1789.19
318.753	1727.19
318.983	1713.19
319.212	1695.19
319.441	1611.19
319.67	1635.19
319.9	1700.19
320.129	1755.19
320.358	1772.19
320.587	1819.19
320.816	1865.19
321.046	1849.19
321.275	1712.19
321.504	1722.19
321.733	1842.19
321.962	1847.19
322.191	1663.19
322.42	1647.19
322.649	1600.19
322.878	1668.19
323.108	1660.19
323.337	1717.19
323.566	1731.19
323.795	1715.19
324.024	1710.19
324.253	1680.19
324.482	1690.19
324.71	1664.19
324.939	1587.19
325.168	1577.19
325.397	1650.19
325.626	1700.19
325.855	1712.19
326.084	1645.19
326.313	1641.19
326.542	1656.19
326.77	1711.19
326.999	1752.19
327.228	1650.19
327.457	1618.19
327.686	1522.19
327.914	1622.19
328.143	1649.19
328.372	1646.19
328.6	1660.19
328.829	1608.19
329.058	1680.19
329.287	1599.19
329.515	1658.19
329.744	1673.19
329.972	1784.19
330.201	1815.19
330.43	1855.19
330.658	1774.19
330.887	1768.19
331.115	1740.19
331.344	1799.19
331.572	1725.19
331.801	1704.19
332.03	1740.19
332.258	1776.19
332.486	1774.19
332.715	1822.19
332.943	1802.19
333.172	1778.19
333.4	1775.19
333.629	1871.19
333.857	1917.19
334.085	2066.19
334.314	2339.19
334.542	2604.19
334.771	2336.19
334.999	2084.19
335.227	1976.19
335.455	1890.19
335.684	1862.19
335.912	1912.19
336.14	1963.19
336.369	1899.19
336.597	1809.19
336.825	1754.19
337.053	1829.19
337.281	1898.19
337.51	1969.19
337.738	2086.19
337.966	1982.19
338.194	1812.19
338.422	1723.19
338.65	1754.19
338.878	1804.19
339.106	1726.19
339.334	1722.19
339.562	1625.19
339.79	1701.19
340.018	1776.19
340.246	1863.19
340.474	1840.19
340.702	1803.19
340.93	1831.19
341.158	1838.19
341.386	1786.19
341.614	1764.19
341.842	1736.19
342.07	1744.19
342.298	1740.19
342.526	1713.19
342.754	1682.19
342.981	1712.19
343.209	1682.19
343.437	1694.19
343.665	1747.19
343.893	1766.19
344.12	1860.19
344.348	1878.19
344.576	1811.19
344.804	1756.19
345.031	1715.19
345.259	1744.19
345.487	1713.19
345.714	1631.19
345.942	1591.19
346.17	1621.19
346.397	1655.19
346.625	1651.19
346.853	1554.19
347.08	1552.19
347.308	1544.19
347.535	1578.19
347.763	1648.19
347.99	1654.19
348.218	1583.19
348.445	1619.19
348.673	1618.19
348.9	1655.19
349.128	1696.19
349.355	1737.19
349.583	1701.19
349.81	1625.19
350.037	1567.19
350.265	1508.19
350.492	1544.19
350.72	1562.19
350.947	1580.19
351.174	1671.19
351.402	1583.19
351.629	1512.19
351.856	1478.19
352.083	1500.19
352.311	1514.19
352.538	1536.19
352.765	1617.19
352.992	1625.19
353.22	1572.19
353.447	1534.19
353.674	1566.19
353.901	1634.19
354.128	1574.19
354.355	1542.19
354.583	1634.19
354.81	1650.19
355.037	1656.19
355.264	1657.19
355.491	1629.19
355.718	1588.19
355.945	1582.19
356.172	1574.19
356.399	1548.19
356.626	1561.19
356.853	1600.19
357.08	1726.19
357.307	1910.19
357.534	1904.19
357.761	1680.19
357.988	1568.19
358.215	1492.19
358.441	1523.19
358.668	1533.19
358.895	1524.19
359.122	1580.19
359.349	1782.19
359.576	1778.19
359.802	1603.19
360.029	1515.19
360.256	1536.19
360.483	1540.19
360.709	1580.19
360.936	1665.19
361.163	1670.19
361.39	1824.19
361.616	2007.19
361.843	1928.19
362.07	1868.19
362.296	1618.19
362.523	1586.19
362.749	1571.19
362.976	1624.19
363.203	1621.19
363.429	1607.19
363.656	1527.19
363.882	1583.19
364.109	1751.19
364.335	1890.19
364.562	1710.19
364.788	1662.19
365.015	1622.19
365.241	1552.19
365.468	1612.19
365.694	1675.19
365.92	1737.19
366.147	1644.19
366.373	1573.19
366.599	1527.19
366.826	1527.19
367.052	1545.19
367.278	1570.19
367.505	1606.19
367.731	1626.19
367.957	1623.19
368.184	1635.19
368.41	1743.19
368.636	1766.19
368.862	1794.19
369.089	1800.19
369.315	1731.19
369.541	1664.19
369.767	1655.19
369.993	1602.19
370.219	1570.19
370.445	1641.19
370.672	1721.19
370.898	1751.19
371.124	1793.19
371.35	1678.19
371.576	1703.19
371.802	1779.19
372.028	1703.19
372.254	1643.19
372.48	1574.19
372.706	1610.19
372.932	1642.19
373.158	1641.19
373.384	1657.19
373.61	1693.19
373.835	1799.19
374.061	1699.19
374.287	1636.19
374.513	1666.19
374.739	1738.19
374.965	1670.19
375.191	1728.19
375.416	1730.19
375.642	1738.19
375.868	1802.19
376.094	1856.19
376.319	1792.19
376.545	1666.19
376.771	1685.19
376.997	1790.19
377.222	1756.19
377.448	1694.19
377.674	1718.19
377.899	1727.19
378.125	1830.19
378.35	1857.19
378.576	1683.19
378.802	1598.19
379.027	1592.19
379.253	1671.19
379.478	1673.19
379.704	1644.19
379.929	1676.19
380.155	1662.19
380.38	1685.19
380.606	1652.19
380.831	1694.19
381.057	1785.19
381.282	1812.19
381.507	1734.19
381.733	1831.19
381.958	1934.19
382.184	1785.19
382.409	1737.19
382.634	1761.19
382.86	1773.19
383.085	1763.19
383.31	1784.19
383.535	1942.19
383.761	2039.19
383.986	1943.19
384.211	1882.19
384.436	1852.19
384.662	1945.19
384.887	2019.19
385.112	1895.19
385.337	1974.19
385.562	1914.19
385.787	1901.19
386.013	1972.19
386.238	1974.19
386.463	1960.19
386.688	2050.19
386.913	2201.19
387.138	2124.19
387.363	1998.19
387.588	1951.19
387.813	1956.19
388.038	1984.19
388.263	2034.19
388.488	1996.19
388.713	1831.19
388.938	1833.19
389.163	1844.19
389.387	1851.19
389.612	1882.19
389.837	1905.19
390.062	1940.19
390.287	1934.19
390.512	1950.19
390.736	1895.19
390.961	1862.19
391.186	1814.19
391.411	1850.19
391.636	1853.19
391.86	1948.19
392.085	1876.19
392.31	1892.19
392.534	1909.19
392.759	1944.19
392.984	1887.19
393.208	1955.19
393.433	1941.19
393.658	2063.19
393.882	2090.19
394.107	1947.19
394.331	1910.19
394.556	1930.19
394.78	1961.19
395.005	1950.19
395.229	2032.19
395.454	2160.19
395.678	2202.19
395.903	2096.19
396.127	2050.19
396.352	2046.19
396.576	2092.19
396.801	2064.19
397.025	2086.19
397.249	2079.19
397.474	2083.19
397.698	2055.19
397.922	2156.19
398.147	2187.19
398.371	2289.19
398.595	2300.19
398.82	2216.19
399.044	2180.19
399.268	2307.19
399.492	2475.19
399.717	2555.19
399.941	2606.19
400.165	2509.19
400.389	2426.19
400.613	2399.19
400.837	2644.19
401.062	3071.19
401.286	2647.19
401.51	2368.19
401.734	2490.19
401.958	2443.19
402.182	2253.19
402.406	2166.19
402.63	2162.19
402.854	2151.19
403.078	2232.19
403.302	2258.19
403.526	2328.19
403.75	2275.19
403.974	2266.19
404.198	2280.19
404.422	2304.19
404.645	2453.19
404.869	2405.19
405.093	2257.19
405.317	2262.19
405.541	2297.19
405.765	2283.19
405.988	2259.19
406.212	2323.19
406.436	2388.19
406.66	2427.19
406.883	2447.19
407.107	2767.19
407.331	2914.19
407.555	3158.19
407.778	2986.19
408.002	2511.19
408.226	2384.19
408.449	2421.19
408.673	2337.19
408.896	2398.19
409.12	2412.19
409.344	2277.19
409.567	2246.19
409.791	2275.19
410.014	2290.19
410.238	2444.19
410.461	2593.19
410.685	2357.19
410.908	2210.19
411.132	2264.19
411.355	2221.19
411.578	2215.19
411.802	2217.19
412.025	2257.19
412.249	2258.19
412.472	2190.19
412.695	2180.19
412.919	2170.19
413.142	2163.19
413.365	2182.19
413.589	2251.19
413.812	2356.19
414.035	2419.19
414.258	2224.19
414.482	2182.19
414.705	2204.19
414.928	2179.19
415.151	2120.19
415.374	2207.19
415.597	2219.19
415.821	2229.19
416.044	2286.19
416.267	2326.19
416.49	2145.19
416.713	2102.19
416.936	2109.19
417.159	2218.19
417.382	2251.19
417.605	2159.19
417.828	2182.19
418.051	2241.19
418.274	2176.19
418.497	2084.19
418.72	2089.19
418.943	2107.19
419.166	2273.19
419.389	2283.19
419.611	2226.19
419.834	2171.19
420.057	2217.19
420.28	2094.19
420.503	2070.19
420.726	2092.19
420.948	2160.19
421.171	2083.19
421.394	2130.19
421.617	2154.19
421.839	2164.19
422.062	2119.19
422.285	2056.19
422.507	2098.19
422.73	2034.19
422.953	2009.19
423.175	1996.19
423.398	2089.19
423.621	2082.19
423.843	2116.19
424.066	2101.19
424.288	2175.19
424.511	2267.19
424.733	2243.19
424.956	2015.19
425.178	2000.19
425.401	2013.19
425.623	2033.19
425.846	2008.19
426.068	2119.19
426.291	2160.19
426.513	2142.19
426.735	2139.19
426.958	2226.19
427.18	2399.19
427.402	2180.19
427.625	2217.19
427.847	2301.19
428.069	2119.19
428.292	2049.19
428.514	2021.19
428.736	2025.19
428.958	2071.19
429.181	2090.19
429.403	2275.19
429.625	2825.19
429.847	2505.19
430.069	2092.19
430.292	2316.19
430.514	2315.19
430.736	2187.19
430.958	2267.19
431.18	2188.19
431.402	2051.19
431.624	2018.19
431.846	2008.19
432.068	1998.19
432.29	2038.19
432.512	2063.19
432.734	2102.19
432.956	2108.19
433.178	2153.19
433.4	2148.19
433.622	2106.19
433.844	2082.19
434.066	2036.19
434.287	2006.19
434.509	2098.19
434.731	2202.19
434.953	2331.19
435.175	2272.19
435.397	2165.19
435.618	2125.19
435.84	2130.19
436.062	2055.19
436.284	2146.19
436.505	2128.19
436.727	2140.19
436.949	2097.19
437.17	2104.19
437.392	2054.19
437.614	2102.19
437.835	2025.19
438.057	2128.19
438.278	2232.19
438.5	2089.19
438.721	2001.19
438.943	2049.19
439.165	1986.19
439.386	1973.19
439.608	1980.19
439.829	2028.19
440.05	1984.19
440.272	1973.19
440.493	1948.19
440.715	2006.19
440.936	2134.19
441.158	2390.19
441.379	2284.19
441.6	2192.19
441.822	2148.19
442.043	2159.19
442.264	2159.19
442.486	2008.19
442.707	1970.19
442.928	2003.19
443.149	2086.19
443.371	2194.19
443.592	2272.19
443.813	2214.19
444.034	2220.19
444.255	2170.19
444.476	2334.19
444.698	2294.19
444.919	2315.19
445.14	2372.19
445.361	2334.19
445.582	2421.19
445.803	2256.19
446.024	2224.19
446.245	2313.19
446.466	2214.19
446.687	2134.19
446.908	2098.19
447.129	2020.19
447.35	2047.19
447.571	2110.19
447.792	1974.19
448.013	1982.19
448.234	2040.19
448.455	2102.19
448.675	2078.19
448.896	1953.19
449.117	1948.19
449.338	1992.19
449.559	1988.19
449.779	2168.19
450	2382.19
450.221	2545.19
450.442	2522.19
450.662	2176.19
450.883	1928.19
451.104	1912.19
451.324	1940.19
451.545	2009.19
451.766	1947.19
451.986	1897.19
452.207	1870.19
452.428	1794.19
452.648	1804.19
452.869	1835.19
453.089	1958.19
453.31	1968.19
453.53	2036.19
453.751	1946.19
453.971	1844.19
454.192	1868.19
454.412	2034.19
454.633	1911.19
454.853	1851.19
455.073	1787.19
455.294	1769.19
455.514	1745.19
455.734	1800.19
455.955	1794.19
456.175	1777.19
456.395	1791.19
456.616	1859.19
456.836	1899.19
457.056	1848.19
457.276	1853.19
457.497	1838.19
457.717	1770.19
457.937	1798.19
458.157	1798.19
458.377	1785.19
458.598	1809.19
458.818	1858.19
459.038	1930.19
459.258	2050.19
459.478	2064.19
459.698	1985.19
459.918	2019.19
460.138	2122.19
460.358	2142.19
460.578	2114.19
460.798	2257.19
461.018	2375.19
461.238	2272.19
461.458	2190.19
461.678	2178.19
461.898	2130.19
462.118	2083.19
462.338	2163.19
462.558	2206.19
462.777	2131.19
462.997	2268.19
463.217	2431.19
463.437	2399.19
463.657	2234.19
463.876	2176.19
464.096	2184.19
464.316	2157.19
464.536	2260.19
464.755	2250.19
464.975	2320.19
465.195	2212.19
465.414	2315.19
465.634	2296.19
465.854	2160.19
466.073	2293.19
466.293	2247.19
466.512	1968.19
466.732	1985.19
466.951	2074.19
467.171	2056.19
467.391	1950.19
467.61	1886.19
467.829	1953.19
468.049	2092.19
468.268	2320.19
468.488	2159.19
468.707	2054.19
468.927	2015.19
469.146	1966.19
469.365	1946.19
469.585	1982.19
469.804	1902.19
470.023	1931.19
470.243	1977.19
470.462	1978.19
470.681	1944.19
470.901	1985.19
471.12	1963.19
471.339	1955.19
471.558	1895.19
471.777	1863.19
471.997	1897.19
472.216	1948.19
472.435	1900.19
472.654	1912.19
472.873	2020.19
473.092	2115.19
473.311	1997.19
473.53	1852.19
473.749	1858.19
473.968	1966.19
474.187	2044.19
474.406	2170.19
474.625	2011.19
474.844	2010.19
475.063	1959.19
475.282	2014.19
475.501	2019.19
475.72	1998.19
475.939	2088.19
476.158	2038.19
476.377	1992.19
476.596	2024.19
476.814	2097.19
477.033	2058.19
477.252	2158.19
477.471	2185.19
477.69	2087.19
477.908	2074.19
478.127	2209.19
478.346	2403.19
478.564	2378.19
478.783	2329.19
479.002	2479.19
479.22	2364.19
479.439	2444.19
479.658	2777.19
479.876	2715.19
480.095	2402.19
480.313	2339.19
480.532	2191.19
480.751	2250.19
480.969	2284.19
481.188	2247.19
481.406	2209.19
481.624	2161.19
481.843	2211.19
482.061	2237.19
482.28	2292.19
482.498	2276.19
482.717	2278.19
482.935	2194.19
483.153	2219.19
483.372	2210.19
483.59	2156.19
483.808	2211.19
484.027	2226.19
484.245	2410.19
484.463	2724.19
484.681	3098.19
484.9	2478.19
485.118	2273.19
485.336	2261.19
485.554	2317.19
485.772	2426.19
485.99	2378.19
486.209	2400.19
486.427	2420.19
486.645	2375.19
486.863	2378.19
487.081	2351.19
487.299	2494.19
487.517	2423.19
487.735	2314.19
487.953	2305.19
488.171	2298.19
488.389	2210.19
488.607	2324.19
488.825	2520.19
489.043	2559.19
489.261	2332.19
489.479	2414.19
489.696	2494.19
489.914	2468.19
490.132	2396.19
490.35	2296.19
490.568	2398.19
490.786	2336.19
491.003	2282.19
491.221	2318.19
491.439	2430.19
491.657	2373.19
491.874	2383.19
492.092	2348.19
492.31	2434.19
492.527	2454.19
492.745	2338.19
492.963	2375.19
493.18	2398.19
493.398	2574.19
493.615	2728.19
493.833	2452.19
494.05	2414.19
494.268	2432.19
494.485	2465.19
494.703	2402.19
494.92	2373.19
495.138	2370.19
495.355	2393.19
495.573	2495.19
495.79	2612.19
496.008	2738.19
496.225	2514.19
496.442	2538.19
496.66	2611.19
496.877	2526.19
497.094	2631.19
497.312	2692.19
497.529	2580.19
497.746	2651.19
497.963	3097.19
498.181	3504.19
498.398	3216.19
498.615	3130.19
498.832	3112.19
499.049	3063.19
499.267	3078.19
499.484	3287.19
499.701	3523.19
499.918	3620.19
500.135	3850.19
500.352	4150.19
500.569	4070.19
500.786	4326.19
501.003	4040.19
501.22	3705.19
501.437	3623.19
501.654	3512.19
501.871	3368.19
502.088	3102.19
502.305	3069.19
502.522	2912.19
502.739	2739.19
502.956	2702.19
503.172	2675.19
503.389	2626.19
503.606	2535.19
503.823	2543.19
504.04	2595.19
504.256	2532.19
504.473	2564.19
504.69	2659.19
504.907	2539.19
505.123	2378.19
505.34	2462.19
505.557	3176.19
505.773	2756.19
505.99	2329.19
506.207	2246.19
506.423	2170.19
506.64	2136.19
506.856	2168.19
507.073	2479.19
507.289	2657.19
507.506	2557.19
507.722	2199.19
507.939	2070.19
508.155	2089.19
508.372	2130.19
508.588	2104.19
508.805	2020.19
509.021	2006.19
509.238	1976.19
509.454	1974.19
509.67	1977.19
509.887	1946.19
510.103	2001.19
510.319	2003.19
510.536	2068.19
510.752	2151.19
510.968	2130.19
511.184	2246.19
511.401	2259.19
511.617	1984.19
511.833	1922.19
512.049	1906.19
512.265	1933.19
512.481	1944.19
512.698	1982.19
512.914	2164.19
513.13	2043.19
513.346	1912.19
513.562	1863.19
513.778	1936.19
513.994	2009.19
514.21	2112.19
514.426	2089.19
514.642	2348.19
514.858	2184.19
515.074	2011.19
515.29	1946.19
515.506	1999.19
515.721	2013.19
515.937	2073.19
516.153	2295.19
516.369	2198.19
516.585	2155.19
516.801	1993.19
517.016	2000.19
517.232	2041.19
517.448	2094.19
517.664	2148.19
517.879	2104.19
518.095	2219.19
518.311	2161.19
518.527	2020.19
518.742	1963.19
518.958	1976.19
519.173	1940.19
519.389	1967.19
519.605	1979.19
519.82	1944.19
520.036	2041.19
520.251	1945.19
520.467	1971.19
520.682	2099.19
520.898	2175.19
521.113	1950.19
521.329	1913.19
521.544	2068.19
521.76	1990.19
521.975	1883.19
522.19	1875.19
522.406	1793.19
522.621	2220.19
522.836	2201.19
523.052	1827.19
523.267	1833.19
523.482	1823.19
523.698	1766.19
523.913	1723.19
524.128	1803.19
524.343	1906.19
524.559	1912.19
524.774	1790.19
524.989	1760.19
525.204	1790.19
525.419	1765.19
525.634	1714.19
525.849	1735.19
526.064	1739.19
526.28	1804.19
526.495	1718.19
526.71	1716.19
526.925	1764.19
527.14	1723.19
527.355	1674.19
527.57	1664.19
527.785	1756.19
527.999	1683.19
528.214	1662.19
528.429	1627.19
528.644	1632.19
528.859	1678.19
529.074	1687.19
529.289	1677.19
529.503	1688.19
529.718	1716.19
529.933	1683.19
530.148	1641.19
530.363	1654.19
530.577	1656.19
530.792	1667.19
531.007	1677.19
531.221	1674.19
531.436	1698.19
531.651	1746.19
531.865	1831.19
532.08	1734.19
532.295	1640.19
532.509	1614.19
532.724	1642.19
532.938	1702.19
533.153	1822.19
533.367	1730.19
533.582	1749.19
533.796	1621.19
534.011	1658.19
534.225	1699.19
534.44	1642.19
534.654	1609.19
534.868	1662.19
535.083	1676.19
535.297	1769.19
535.511	1686.19
535.726	1609.19
535.94	1643.19
536.154	1643.19
536.369	1593.19
536.583	1610.19
536.797	1578.19
537.011	1641.19
537.225	1613.19
537.44	1565.19
537.654	1658.19
537.868	1569.19
538.082	1506.19
538.296	1500.19
538.51	1549.19
538.724	1534.19
538.938	1512.19
539.153	1560.19
539.367	1548.19
539.581	1543.19
539.795	1615.19
540.009	1612.19
540.222	1612.19
540.436	1620.19
540.65	1739.19
540.864	1761.19
541.078	1625.19
541.292	1569.19
541.506	1558.19
541.72	1548.19
541.934	1573.19
542.147	1604.19
542.361	1566.19
542.575	1536.19
542.789	1495.19
543.002	1488.19
543.216	1492.19
543.43	1632.19
543.644	1627.19
543.857	1700.19
544.071	1633.19
544.285	1584.19
544.498	1544.19
544.712	1564.19
544.925	1606.19
545.139	1601.19
545.352	1546.19
545.566	1484.19
545.779	1459.19
545.993	1495.19
546.206	1507.19
546.42	1504.19
546.633	1428.19
546.847	1458.19
547.06	1492.19
547.274	1466.19
547.487	1465.19
547.7	1457.19
547.914	1488.19
548.127	1483.19
548.34	1523.19
548.554	1489.19
548.767	1476.19
548.98	1476.19
549.193	1486.19
549.407	1585.19
549.62	1552.19
549.833	1476.19
550.046	1472.19
550.259	1482.19
550.473	1447.19
550.686	1472.19
550.899	1426.19
551.112	1424.19
551.325	1404.19
551.538	1511.19
551.751	1700.19
551.964	1429.19
552.177	1399.19
552.39	1420.19
552.603	1444.19
552.816	1451.19
553.029	1512.19
553.242	1560.19
553.455	1458.19
553.667	1449.19
553.88	1474.19
554.093	1414.19
554.306	1405.19
554.519	1388.19
554.732	1331.19
554.944	1344.19
555.157	1394.19
555.37	1369.19
555.583	1388.19
555.795	1355.19
556.008	1318.19
556.221	1324.19
556.433	1267.19
556.646	1268.19
556.859	1265.19
557.071	1288.19
557.284	1255.19
557.496	1238.19
557.709	1221.19
557.921	1207.19
558.134	1226.19
558.346	1239.19
558.559	1197.19
558.771	1229.19
558.984	1206.19
559.196	1184.19
559.409	1169.19
559.621	1210.19
559.833	1212.19
560.046	1255.19
560.258	1220.19
560.47	1204.19
560.683	1199.19
560.895	1187.19
561.107	1200.19
561.32	1232.19
561.532	1223.19
561.744	1202.19
561.956	1187.19
562.168	1184.19
562.381	1143.19
562.593	1146.19
562.805	1165.19
563.017	1138.19
563.229	1169.19
563.441	1225.19
563.653	1148.19
563.865	1168.19
564.077	1162.19
564.289	1175.19
564.501	1184.19
564.713	1237.19
564.925	1238.19
565.137	1361.19
565.349	1268.19
565.561	1232.19
565.773	1237.19
565.985	1272.19
566.197	1337.19
566.408	1405.19
566.62	1441.19
566.832	1430.19
567.044	1418.19
567.255	1411.19
567.467	1431.19
567.679	1483.19
567.891	1566.19
568.102	1483.19
568.314	1441.19
568.526	1368.19
568.737	1300.19
568.949	1258.19
569.161	1202.19
569.372	1148.19
569.584	1142.19
569.795	1158.19
570.007	1121.19
570.218	1056.19
570.43	1070.19
570.641	1075.19
570.853	1083.19
571.064	1085.19
571.276	1063.19
571.487	1030.19
571.698	993.19
571.91	995.19
572.121	986.19
572.333	977.19
572.544	997.19
572.755	962.19
572.966	952.19
573.178	971.19
573.389	977.19
573.6	973.19
573.811	1070.19
574.023	960.19
574.234	934.19
574.445	910.19
574.656	890.19
574.867	891.19
575.078	907.19
575.289	939.19
575.501	904.19
575.712	891.19
575.923	879.19
576.134	926.19
576.345	893.19
576.556	901.19
576.767	834.19
576.978	863.19
577.188	832.19
577.399	851.19
577.61	838.19
577.821	852.19
578.032	818.19
578.243	839.19
578.454	831.19
578.665	844.19
578.875	811.19
579.086	785.19
579.297	796.19
579.508	858.19
579.718	833.19
579.929	826.19
580.14	807.19
580.35	771.19
580.561	824.19
580.772	880.19
580.982	822.19
581.193	803.19
581.403	806.19
581.614	790.19
581.825	760.19
582.035	776.19
582.246	748.19
582.456	795.19
582.667	787.19
582.877	773.19
583.087	754.19
583.298	760.19
583.508	776.19
583.719	762.19
583.929	739.19
584.139	768.19
584.35	722.19
584.56	734.19
584.77	744.19
584.981	747.19
585.191	778.19
585.401	774.19
585.611	766.19
585.821	756.19
586.032	746.19
586.242	712.19
586.452	714.19
586.662	732.19
586.872	744.19
587.082	726.19
587.292	751.19
587.502	760.19
587.713	750.19
587.923	732.19
588.133	730.19
588.343	735.19
588.553	725.19
588.762	719.19
588.972	740.19
589.182	737.19
589.392	740.19
589.602	726.19
589.812	714.19
590.022	711.19
590.232	713.19
590.441	722.19
590.651	713.19
590.861	693.19
591.071	719.19
591.281	702.19
591.49	712.19
591.7	711.19
591.91	716.19
592.119	719.19
592.329	722.19
592.539	726.19
592.748	751.19
592.958	735.19
593.167	751.19
593.377	760.19
593.587	770.19
593.796	778.19
594.006	782.19
594.215	779.19
594.424	740.19
594.634	728.19
594.843	723.19
595.053	750.19
595.262	731.19
595.472	722.19
595.681	713.19
595.89	700.19
596.1	694.19
596.309	705.19
596.518	678.19
596.727	675.19
596.937	670.19
597.146	636.19
597.355	638.19
597.564	642.19
597.774	637.19
597.983	611.19
598.192	612.19
598.401	619.19
598.61	626.19
598.819	600.19
599.028	605.19
599.237	626.19
599.446	606.19
599.655	600.19
599.864	620.19
600.073	585.19
600.282	594.19
600.491	595.19
600.7	591.19
600.909	573.19
601.118	591.19
601.327	583.19
601.536	566.19
601.745	595.19
601.953	573.19
602.162	577.19
602.371	584.19
602.58	594.19
602.789	583.19
602.997	609.19
603.206	594.19
603.415	567.19
603.623	580.19
603.832	570.19
604.041	575.19
604.249	537.19
604.458	564.19
604.666	575.19
604.875	562.19
605.084	575.19
605.292	565.19
605.501	557.19
605.709	544.19
605.918	553.19
606.126	543.19
606.334	528.19
606.543	544.19
606.751	563.19
606.96	556.19
607.168	550.19
607.376	527.19
607.585	530.19
607.793	534.19
608.001	543.19
608.21	514.19
608.418	543.19
608.626	542.19
608.834	529.19
609.043	532.19
609.251	514.19
609.459	525.19
609.667	536.19
609.875	514.19
610.083	546.19
610.291	531.19
610.499	553.19
610.707	543.19
610.916	539.19
611.124	494.19
611.332	531.19
611.54	544.19
611.748	520.19
611.955	538.19
612.163	490.19
612.371	514.19
612.579	505.19
612.787	521.19
612.995	511.19
613.203	502.19
613.411	536.19
613.618	503.19
613.826	523.19
614.034	510.19
614.242	512.19
614.449	494.19
614.657	510.19
614.865	504.19
615.072	512.19
615.28	515.19
615.488	497.19
615.695	524.19
615.903	515.19
616.111	498.19
616.318	500.19
616.526	511.19
616.733	514.19
616.941	482.19
617.148	491.19
617.356	493.19
617.563	471.19
617.771	518.19
617.978	487.19
618.185	503.19
618.393	479.19
618.6	491.19
618.807	471.19
619.015	495.19
619.222	472.19
619.429	495.19
619.637	476.19
619.844	449.19
620.051	472.19
620.258	466.19
620.466	459.19
620.673	464.19
620.88	450.19
621.087	440.19
621.294	442.19
621.501	438.19
621.708	472.19
621.915	453.19
622.122	471.19
622.329	442.19
622.536	446.19
622.743	474.19
622.95	442.19
623.157	447.19
623.364	432.19
623.571	419.19
623.778	456.19
623.985	442.19
624.192	435.19
624.399	441.19
624.606	425.19
624.812	422.19
625.019	439.19
625.226	419.19
625.433	422.19
625.639	427.19
625.846	419.19
626.053	406.19
626.259	405.19
626.466	390.19
626.673	409.19
626.879	393.19
627.086	403.19
627.293	408.19
627.499	420.19
627.706	412.19
627.912	418.19
628.119	401.19
628.325	408.19
628.532	410.19
628.738	396.19
628.945	395.19
629.151	386.19
629.357	409.19
629.564	379.19
629.77	393.19
629.976	379.19
630.183	391.19
630.389	388.19
630.595	382.19
630.802	381.19
631.008	360.19
631.214	371.19
631.42	374.19
631.627	380.19
631.833	363.19
632.039	361.19
632.245	382.19
632.451	362.19
632.657	362.19
632.863	380.19
633.069	354.19
633.275	380.19
633.481	362.19
633.688	342.19
633.893	369.19
634.099	366.19
634.305	354.19
634.511	354.19
634.717	336.19
634.923	345.19
635.129	357.19
635.335	336.19
635.541	344.19
635.747	356.19
635.952	355.19
636.158	352.19
636.364	335.19
636.57	331.19
636.775	339.19
636.981	332.19
637.187	338.19
637.392	335.19
637.598	348.19
637.804	356.19
638.009	334.19
638.215	319.19
638.421	326.19
638.626	331.19
638.832	341.19
639.037	321.19
639.243	330.19
639.448	330.19
639.654	347.19
639.859	335.19
640.065	339.19
640.27	326.19
640.475	316.19
640.681	333.19
640.886	334.19
641.091	312.19
641.297	336.19
641.502	331.19
641.707	339.19
641.913	315.19
642.118	332.19
642.323	310.19
642.528	313.19
642.733	312.19
642.939	312.19
643.144	307.19
643.349	333.19
643.554	325.19
643.759	315.19
643.964	313.19
644.169	323.19
644.374	312.19
644.579	314.19
644.784	318.19
644.989	294.19
645.194	291.19
645.399	295.19
645.604	308.19
645.809	303.19
646.014	308.19
646.219	300.19
646.423	314.19
646.628	302.19
646.833	314.19
647.038	320.19
647.243	309.19
647.447	321.19
647.652	306.19
647.857	304.19
648.062	316.19
648.266	320.19
648.471	316.19
648.676	316.19
648.88	313.19
649.085	307.19
649.289	299.19
649.494	311.19
649.698	307.19
649.903	291.19
650.107	288.19
650.312	303.19
650.516	291.19
650.721	290.19
650.925	300.19
651.13	292.19
651.334	264.19
651.539	264.19
651.743	268.19
651.947	279.19
652.152	270.19
652.356	258.19
652.56	259.19
652.764	268.19
652.969	245.19
653.173	245.19
653.377	251.19
653.581	246.19
653.785	231.19
653.99	233.19
654.194	235.19
654.398	246.19
654.602	251.19
654.806	239.19
655.01	249.19
655.214	242.19
655.418	245.19
655.622	243.19
655.826	256.19
656.03	249.19
656.234	246.19
656.438	280.19
656.642	272.19
656.846	244.19
657.049	233.19
657.253	216.19
657.457	210.19
657.661	192.19
657.865	189.19
658.068	168.19
658.272	154.19
658.476	164.19
658.68	151.19
658.883	144.19
659.087	149.19
659.291	147.19
659.494	144.19
659.698	129.19
659.901	128.19
660.105	138.19
660.309	119.19
660.512	108.19
660.716	120.19
660.919	124.19
661.123	120.19
661.326	94.19
661.53	115.19
661.733	101.19
661.936	91.19
662.14	94.19
662.343	86.19
662.546	86.19
662.75	92.19
662.953	86.19
663.156	83.19
663.36	83.19
663.563	89.19
663.766	74.19
663.969	89.19
664.173	76.19
664.376	75.19
664.579	80.19
664.782	76.19
664.985	75.19
665.188	76.19
665.391	82.19
665.594	88.19
665.797	80.19
666	65.19
666.203	79.19
666.406	78.19
666.609	72.19
666.812	76.19
667.015	84.19
667.218	79.19
667.421	84.19
667.624	80.19
667.827	78.19
668.03	82.19
668.232	77.19
668.435	71.19
668.638	90.19
668.841	95.19
669.043	90.19
669.246	72.19
669.449	84.19
669.651	84.19
669.854	70.19
670.057	86.19
670.259	80.19
670.462	81.19
670.665	79.19
670.867	79.19
671.07	79.19
671.272	63.19
671.475	74.19
671.677	72.19
671.88	82.19
672.082	77.19
672.284	82.19
672.487	69.19
672.689	82.19
672.892	80.19
