Data from WStandard_LampEnergy5.5LIBS07252019.E.O._I.C._HRD10591_16-08-47-920.txt Node
Date: Thu Jul 25 16:08:47 EDT 2019
User: cochatt
Spectrometer: HR+D1059
Trigger mode: 1
Integration Time (sec): 1.000000E-1
Scans to average: 1
Electric dark correction enabled: true
Nonlinearity correction enabled: false
Boxcar width: 0
XAxis mode: Wavelengths
Number of Pixels in Spectrum: 2048
>>>>>Begin Spectral Data<<<<<
223.165	-13.62
223.4	-13.62
223.635	-13.62
223.869	-8.62
224.104	-24.62
224.338	-3.62
224.573	-27.62
224.808	-17.62
225.042	-8.62
225.277	-4.62
225.511	2.38
225.746	12.38
225.98	10.38
226.215	14.38
226.449	5.38
226.683	6.38
226.918	30.38
227.152	27.38
227.387	42.38
227.621	48.38
227.856	61.38
228.09	60.38
228.324	55.38
228.559	38.38
228.793	132.38
229.027	341.38
229.262	357.38
229.496	372.38
229.73	386.38
229.964	416.38
230.199	466.38
230.433	436.38
230.667	510.38
230.901	526.38
231.136	474.38
231.37	437.38
231.604	440.38
231.838	466.38
232.072	490.38
232.306	416.38
232.541	438.38
232.775	536.38
233.009	622.38
233.243	582.38
233.477	543.38
233.711	540.38
233.945	558.38
234.179	522.38
234.413	571.38
234.647	616.38
234.881	597.38
235.115	557.38
235.349	546.38
235.583	560.38
235.817	546.38
236.051	523.38
236.285	546.38
236.519	589.38
236.753	634.38
236.987	644.38
237.221	644.38
237.455	733.38
237.689	718.38
237.922	650.38
238.156	629.38
238.39	635.38
238.624	690.38
238.858	720.38
239.091	754.38
239.325	802.38
239.559	902.38
239.793	916.38
240.027	1033.38
240.26	1038.38
240.494	755.38
240.728	691.38
240.961	732.38
241.195	720.38
241.429	806.38
241.662	778.38
241.896	740.38
242.13	749.38
242.363	845.38
242.597	881.38
242.83	867.38
243.064	866.38
243.298	952.38
243.531	893.38
243.765	924.38
243.998	910.38
244.232	804.38
244.465	744.38
244.699	788.38
244.932	892.38
245.166	998.38
245.399	973.38
245.633	855.38
245.866	866.38
246.099	922.38
246.333	952.38
246.566	941.38
246.8	1012.38
247.033	1129.38
247.266	1079.38
247.5	1044.38
247.733	1030.38
247.966	1100.38
248.2	1185.38
248.433	1181.38
248.666	1195.38
248.899	1273.38
249.133	1462.38
249.366	1720.38
249.599	1401.38
249.832	1192.38
250.066	1246.38
250.299	1266.38
250.532	1190.38
250.765	1058.38
250.998	1107.38
251.231	1177.38
251.465	1214.38
251.698	1129.38
251.931	1172.38
252.164	1190.38
252.397	1235.38
252.63	1198.38
252.863	1061.38
253.096	1063.38
253.329	1106.38
253.562	1158.38
253.795	1266.38
254.028	1236.38
254.261	1162.38
254.494	1140.38
254.727	1074.38
254.96	1105.38
255.193	1244.38
255.426	1372.38
255.659	1577.38
255.892	1658.38
256.124	1358.38
256.357	1260.38
256.59	1384.38
256.823	1397.38
257.056	1380.38
257.289	1682.38
257.521	1876.38
257.754	1686.38
257.987	1560.38
258.22	1738.38
258.452	1716.38
258.685	1370.38
258.918	1328.38
259.151	1369.38
259.383	1316.38
259.616	1165.38
259.849	1204.38
260.081	1338.38
260.314	1513.38
260.547	1645.38
260.779	1694.38
261.012	1556.38
261.244	1412.38
261.477	1327.38
261.71	1365.38
261.942	1381.38
262.175	1347.38
262.407	1418.38
262.64	1348.38
262.872	1276.38
263.105	1242.38
263.337	1279.38
263.57	1278.38
263.802	1293.38
264.035	1188.38
264.267	1141.38
264.499	1090.38
264.732	1239.38
264.964	1277.38
265.197	1322.38
265.429	1389.38
265.661	1535.38
265.894	1704.38
266.126	1752.38
266.358	1578.38
266.591	1610.38
266.823	1757.38
267.055	1580.38
267.287	1514.38
267.52	1522.38
267.752	1522.38
267.984	1517.38
268.216	1556.38
268.448	1637.38
268.681	1635.38
268.913	1469.38
269.145	1393.38
269.377	1366.38
269.609	1460.38
269.841	1741.38
270.073	1987.38
270.306	2226.38
270.538	2370.38
270.77	2010.38
271.002	1668.38
271.234	1614.38
271.466	1607.38
271.698	1739.38
271.93	2160.38
272.162	2185.38
272.394	1900.38
272.626	1861.38
272.858	1668.38
273.09	1413.38
273.322	1405.38
273.553	1383.38
273.785	1376.38
274.017	1440.38
274.249	1542.38
274.481	1522.38
274.713	1391.38
274.945	1372.38
275.176	1382.38
275.408	1384.38
275.64	1351.38
275.872	1295.38
276.104	1409.38
276.335	1600.38
276.567	1858.38
276.799	1871.38
277.031	1665.38
277.262	1578.38
277.494	1618.38
277.726	1813.38
277.957	1784.38
278.189	1658.38
278.421	1484.38
278.652	1447.38
278.884	1438.38
279.115	1499.38
279.347	1493.38
279.579	1424.38
279.81	1467.38
280.042	1607.38
280.273	1754.38
280.505	1743.38
280.736	1756.38
280.968	1729.38
281.199	1497.38
281.431	1419.38
281.662	1416.38
281.894	1416.38
282.125	1447.38
282.356	1496.38
282.588	1534.38
282.819	1507.38
283.051	1680.38
283.282	1793.38
283.513	1739.38
283.745	1458.38
283.976	1378.38
284.207	1414.38
284.439	1418.38
284.67	1476.38
284.901	1520.38
285.132	1560.38
285.364	1505.38
285.595	1536.38
285.826	1484.38
286.057	1466.38
286.288	1472.38
286.52	1518.38
286.751	1667.38
286.982	1725.38
287.213	1564.38
287.444	1442.38
287.675	1433.38
287.906	1522.38
288.138	1624.38
288.369	1604.38
288.6	1490.38
288.831	1432.38
289.062	1457.38
289.293	1487.38
289.524	1501.38
289.755	1550.38
289.986	1519.38
290.217	1383.38
290.448	1421.38
290.679	1510.38
290.91	1493.38
291.141	1526.38
291.371	1584.38
291.602	1593.38
291.833	1573.38
292.064	1627.38
292.295	1562.38
292.526	1641.38
292.757	1686.38
292.987	1602.38
293.218	1504.38
293.449	1628.38
293.68	1858.38
293.91	1948.38
294.141	1837.38
294.372	1721.38
294.603	1771.38
294.833	1894.38
295.064	1770.38
295.295	1602.38
295.525	1550.38
295.756	1464.38
295.987	1390.38
296.217	1422.38
296.448	1487.38
296.679	1504.38
296.909	1493.38
297.14	1446.38
297.37	1466.38
297.601	1567.38
297.831	1680.38
298.062	1717.38
298.292	1571.38
298.523	1492.38
298.753	1497.38
298.984	1535.38
299.214	1527.38
299.445	1539.38
299.675	1592.38
299.905	1597.38
300.136	1540.38
300.366	1446.38
300.597	1466.38
300.827	1449.38
301.057	1508.38
301.288	1604.38
301.518	1607.38
301.748	1632.38
301.979	1703.38
302.209	1718.38
302.439	1814.38
302.669	1946.38
302.9	1812.38
303.13	1598.38
303.36	1618.38
303.59	1638.38
303.82	1644.38
304.051	1625.38
304.281	1634.38
304.511	1625.38
304.741	1688.38
304.971	1830.38
305.201	2019.38
305.431	1892.38
305.661	1611.38
305.891	1409.38
306.121	1424.38
306.352	1477.38
306.582	1554.38
306.812	1631.38
307.042	1786.38
307.272	1790.38
307.502	1790.38
307.731	1955.38
307.961	2123.38
308.191	1997.38
308.421	1672.38
308.651	1572.38
308.881	1562.38
309.111	1590.38
309.341	1523.38
309.571	1554.38
309.8	1551.38
310.03	1547.38
310.26	1525.38
310.49	1506.38
310.72	1572.38
310.949	1643.38
311.179	1660.38
311.409	1658.38
311.639	1568.38
311.868	1551.38
312.098	1556.38
312.328	1569.38
312.557	1538.38
312.787	1574.38
313.017	1658.38
313.246	1622.38
313.476	1613.38
313.706	1703.38
313.935	1682.38
314.165	1672.38
314.394	1705.38
314.624	1824.38
314.853	1874.38
315.083	1939.38
315.312	2007.38
315.542	1885.38
315.771	1695.38
316.001	1659.38
316.23	1796.38
316.46	1781.38
316.689	1721.38
316.919	1657.38
317.148	1605.38
317.377	1602.38
317.607	1708.38
317.836	1926.38
318.065	1992.38
318.295	1931.38
318.524	1853.38
318.753	1769.38
318.983	1757.38
319.212	1744.38
319.441	1716.38
319.67	1665.38
319.9	1702.38
320.129	1746.38
320.358	1859.38
320.587	1916.38
320.816	1917.38
321.046	1862.38
321.275	1740.38
321.504	1749.38
321.733	1952.38
321.962	1870.38
322.191	1718.38
322.42	1699.38
322.649	1661.38
322.878	1682.38
323.108	1682.38
323.337	1780.38
323.566	1745.38
323.795	1708.38
324.024	1756.38
324.253	1681.38
324.482	1746.38
324.71	1670.38
324.939	1597.38
325.168	1636.38
325.397	1695.38
325.626	1800.38
325.855	1769.38
326.084	1684.38
326.313	1723.38
326.542	1724.38
326.77	1781.38
326.999	1819.38
327.228	1720.38
327.457	1594.38
327.686	1610.38
327.914	1664.38
328.143	1678.38
328.372	1690.38
328.6	1666.38
328.829	1664.38
329.058	1665.38
329.287	1696.38
329.515	1731.38
329.744	1757.38
329.972	1792.38
330.201	1908.38
330.43	1846.38
330.658	1807.38
330.887	1792.38
331.115	1792.38
331.344	1805.38
331.572	1790.38
331.801	1794.38
332.03	1751.38
332.258	1787.38
332.486	1843.38
332.715	1837.38
332.943	1842.38
333.172	1781.38
333.4	1831.38
333.629	1861.38
333.857	1968.38
334.085	2172.38
334.314	2360.38
334.542	2633.38
334.771	2465.38
334.999	2153.38
335.227	2044.38
335.455	1946.38
335.684	1886.38
335.912	1979.38
336.14	2044.38
336.369	1961.38
336.597	1893.38
336.825	1853.38
337.053	1854.38
337.281	1987.38
337.51	2048.38
337.738	2161.38
337.966	2067.38
338.194	1853.38
338.422	1812.38
338.65	1800.38
338.878	1818.38
339.106	1718.38
339.334	1664.38
339.562	1682.38
339.79	1728.38
340.018	1842.38
340.246	1875.38
340.474	1909.38
340.702	1837.38
340.93	1877.38
341.158	1787.38
341.386	1823.38
341.614	1790.38
341.842	1754.38
342.07	1742.38
342.298	1832.38
342.526	1786.38
342.754	1768.38
342.981	1729.38
343.209	1769.38
343.437	1715.38
343.665	1776.38
343.893	1816.38
344.12	1898.38
344.348	1940.38
344.576	1846.38
344.804	1785.38
345.031	1733.38
345.259	1786.38
345.487	1724.38
345.714	1650.38
345.942	1648.38
346.17	1648.38
346.397	1662.38
346.625	1708.38
346.853	1606.38
347.08	1592.38
347.308	1585.38
347.535	1639.38
347.763	1670.38
347.99	1674.38
348.218	1617.38
348.445	1600.38
348.673	1658.38
348.9	1692.38
349.128	1720.38
349.355	1820.38
349.583	1748.38
349.81	1669.38
350.037	1564.38
350.265	1526.38
350.492	1578.38
350.72	1564.38
350.947	1673.38
351.174	1696.38
351.402	1630.38
351.629	1545.38
351.856	1550.38
352.083	1543.38
352.311	1570.38
352.538	1610.38
352.765	1699.38
352.992	1706.38
353.22	1637.38
353.447	1589.38
353.674	1601.38
353.901	1639.38
354.128	1594.38
354.355	1575.38
354.583	1661.38
354.81	1691.38
355.037	1677.38
355.264	1696.38
355.491	1688.38
355.718	1673.38
355.945	1650.38
356.172	1589.38
356.399	1592.38
356.626	1579.38
356.853	1628.38
357.08	1734.38
357.307	1934.38
357.534	1941.38
357.761	1714.38
357.988	1621.38
358.215	1538.38
358.441	1551.38
358.668	1572.38
358.895	1542.38
359.122	1659.38
359.349	1803.38
359.576	1785.38
359.802	1659.38
360.029	1606.38
360.256	1569.38
360.483	1570.38
360.709	1623.38
360.936	1692.38
361.163	1772.38
361.39	1874.38
361.616	2029.38
361.843	1994.38
362.07	1917.38
362.296	1678.38
362.523	1633.38
362.749	1628.38
362.976	1645.38
363.203	1672.38
363.429	1592.38
363.656	1583.38
363.882	1600.38
364.109	1769.38
364.335	1933.38
364.562	1790.38
364.788	1694.38
365.015	1658.38
365.241	1607.38
365.468	1640.38
365.694	1682.38
365.92	1778.38
366.147	1709.38
366.373	1602.38
366.599	1626.38
366.826	1593.38
367.052	1602.38
367.278	1581.38
367.505	1590.38
367.731	1636.38
367.957	1669.38
368.184	1705.38
368.41	1807.38
368.636	1824.38
368.862	1786.38
369.089	1848.38
369.315	1824.38
369.541	1734.38
369.767	1699.38
369.993	1649.38
370.219	1648.38
370.445	1653.38
370.672	1731.38
370.898	1850.38
371.124	1813.38
371.35	1734.38
371.576	1763.38
371.802	1826.38
372.028	1752.38
372.254	1670.38
372.48	1656.38
372.706	1614.38
372.932	1645.38
373.158	1668.38
373.384	1651.38
373.61	1723.38
373.835	1804.38
374.061	1690.38
374.287	1707.38
374.513	1725.38
374.739	1764.38
374.965	1772.38
375.191	1733.38
375.416	1813.38
375.642	1765.38
375.868	1877.38
376.094	1922.38
376.319	1856.38
376.545	1718.38
376.771	1688.38
376.997	1818.38
377.222	1816.38
377.448	1742.38
377.674	1766.38
377.899	1760.38
378.125	1875.38
378.35	1845.38
378.576	1744.38
378.802	1640.38
379.027	1650.38
379.253	1664.38
379.478	1674.38
379.704	1703.38
379.929	1702.38
380.155	1685.38
380.38	1702.38
380.606	1754.38
380.831	1709.38
381.057	1838.38
381.282	1839.38
381.507	1756.38
381.733	1860.38
381.958	2008.38
382.184	1852.38
382.409	1749.38
382.634	1788.38
382.86	1747.38
383.085	1829.38
383.31	1867.38
383.535	1958.38
383.761	2089.38
383.986	2042.38
384.211	1904.38
384.436	1910.38
384.662	1956.38
384.887	2084.38
385.112	1996.38
385.337	1958.38
385.562	1942.38
385.787	1989.38
386.013	2033.38
386.238	2029.38
386.463	2007.38
386.688	2121.38
386.913	2228.38
387.138	2172.38
387.363	1985.38
387.588	2032.38
387.813	2018.38
388.038	1995.38
388.263	2093.38
388.488	2033.38
388.713	1874.38
388.938	1869.38
389.163	1904.38
389.387	1924.38
389.612	1916.38
389.837	1974.38
390.062	1973.38
390.287	1996.38
390.512	1938.38
390.736	1912.38
390.961	1908.38
391.186	1836.38
391.411	1860.38
391.636	1889.38
391.86	1975.38
392.085	1971.38
392.31	1949.38
392.534	1999.38
392.759	1999.38
392.984	1958.38
393.208	1954.38
393.433	2041.38
393.658	2061.38
393.882	2099.38
394.107	1976.38
394.331	1954.38
394.556	1934.38
394.78	2000.38
395.005	2086.38
395.229	2070.38
395.454	2274.38
395.678	2318.38
395.903	2196.38
396.127	2056.38
396.352	2052.38
396.576	2092.38
396.801	2107.38
397.025	2139.38
397.249	2135.38
397.474	2094.38
397.698	2112.38
397.922	2174.38
398.147	2249.38
398.371	2283.38
398.595	2382.38
398.82	2240.38
399.044	2303.38
399.268	2337.38
399.492	2538.38
399.717	2638.38
399.941	2682.38
400.165	2566.38
400.389	2492.38
400.613	2468.38
400.837	2708.38
401.062	3110.38
401.286	2633.38
401.51	2415.38
401.734	2548.38
401.958	2465.38
402.182	2308.38
402.406	2220.38
402.63	2176.38
402.854	2215.38
403.078	2227.38
403.302	2259.38
403.526	2328.38
403.75	2282.38
403.974	2328.38
404.198	2308.38
404.422	2372.38
404.645	2524.38
404.869	2482.38
405.093	2294.38
405.317	2264.38
405.541	2304.38
405.765	2366.38
405.988	2335.38
406.212	2367.38
406.436	2381.38
406.66	2526.38
406.883	2512.38
407.107	2790.38
407.331	3000.38
407.555	3312.38
407.778	3000.38
408.002	2510.38
408.226	2430.38
408.449	2441.38
408.673	2356.38
408.896	2366.38
409.12	2417.38
409.344	2370.38
409.567	2319.38
409.791	2386.38
410.014	2412.38
410.238	2478.38
410.461	2656.38
410.685	2403.38
410.908	2308.38
411.132	2344.38
411.355	2345.38
411.578	2277.38
411.802	2260.38
412.025	2318.38
412.249	2304.38
412.472	2224.38
412.695	2145.38
412.919	2230.38
413.142	2208.38
413.365	2182.38
413.589	2257.38
413.812	2370.38
414.035	2472.38
414.258	2264.38
414.482	2208.38
414.705	2230.38
414.928	2232.38
415.151	2171.38
415.374	2245.38
415.597	2242.38
415.821	2273.38
416.044	2326.38
416.267	2393.38
416.49	2182.38
416.713	2120.38
416.936	2179.38
417.159	2304.38
417.382	2281.38
417.605	2160.38
417.828	2282.38
418.051	2261.38
418.274	2189.38
418.497	2134.38
418.72	2142.38
418.943	2109.38
419.166	2292.38
419.389	2425.38
419.611	2255.38
419.834	2228.38
420.057	2208.38
420.28	2150.38
420.503	2141.38
420.726	2192.38
420.948	2187.38
421.171	2125.38
421.394	2187.38
421.617	2208.38
421.839	2214.38
422.062	2176.38
422.285	2113.38
422.507	2110.38
422.73	2059.38
422.953	2048.38
423.175	2057.38
423.398	2100.38
423.621	2088.38
423.843	2187.38
424.066	2216.38
424.288	2217.38
424.511	2249.38
424.733	2236.38
424.956	2008.38
425.178	2013.38
425.401	2069.38
425.623	2081.38
425.846	2051.38
426.068	2182.38
426.291	2212.38
426.513	2203.38
426.735	2167.38
426.958	2331.38
427.18	2452.38
427.402	2284.38
427.625	2274.38
427.847	2323.38
428.069	2182.38
428.292	2089.38
428.514	2004.38
428.736	2070.38
428.958	2059.38
429.181	2074.38
429.403	2284.38
429.625	2900.38
429.847	2571.38
430.069	2164.38
430.292	2343.38
430.514	2436.38
430.736	2242.38
430.958	2323.38
431.18	2246.38
431.402	2089.38
431.624	2030.38
431.846	2066.38
432.068	2008.38
432.29	2050.38
432.512	2139.38
432.734	2166.38
432.956	2130.38
433.178	2239.38
433.4	2269.38
433.622	2275.38
433.844	2137.38
434.066	2050.38
434.287	2042.38
434.509	2102.38
434.731	2231.38
434.953	2368.38
435.175	2336.38
435.397	2197.38
435.618	2196.38
435.84	2193.38
436.062	2130.38
436.284	2154.38
436.505	2242.38
436.727	2189.38
436.949	2145.38
437.17	2067.38
437.392	2054.38
437.614	2122.38
437.835	2054.38
438.057	2148.38
438.278	2292.38
438.5	2119.38
438.721	2029.38
438.943	2061.38
439.165	2093.38
439.386	2005.38
439.608	2037.38
439.829	2044.38
440.05	2062.38
440.272	2009.38
440.493	2009.38
440.715	2090.38
440.936	2203.38
441.158	2435.38
441.379	2321.38
441.6	2262.38
441.822	2254.38
442.043	2248.38
442.264	2198.38
442.486	2061.38
442.707	1996.38
442.928	2046.38
443.149	2132.38
443.371	2253.38
443.592	2334.38
443.813	2252.38
444.034	2243.38
444.255	2226.38
444.476	2314.38
444.698	2344.38
444.919	2306.38
445.14	2401.38
445.361	2392.38
445.582	2478.38
445.803	2338.38
446.024	2243.38
446.245	2329.38
446.466	2284.38
446.687	2152.38
446.908	2159.38
447.129	2066.38
447.35	2133.38
447.571	2137.38
447.792	2018.38
448.013	1961.38
448.234	2054.38
448.455	2152.38
448.675	2196.38
448.896	1998.38
449.117	1938.38
449.338	2041.38
449.559	2118.38
449.779	2214.38
450	2440.38
450.221	2602.38
450.442	2531.38
450.662	2229.38
450.883	1968.38
451.104	1904.38
451.324	1984.38
451.545	2074.38
451.766	2008.38
451.986	1892.38
452.207	1907.38
452.428	1870.38
452.648	1821.38
452.869	1898.38
453.089	2031.38
453.31	1994.38
453.53	2083.38
453.751	1992.38
453.971	1892.38
454.192	1992.38
454.412	2044.38
454.633	1999.38
454.853	1930.38
455.073	1794.38
455.294	1800.38
455.514	1802.38
455.734	1781.38
455.955	1864.38
456.175	1859.38
456.395	1868.38
456.616	1886.38
456.836	1960.38
457.056	1874.38
457.276	1915.38
457.497	1826.38
457.717	1793.38
457.937	1794.38
458.157	1876.38
458.377	1859.38
458.598	1835.38
458.818	1866.38
459.038	1984.38
459.258	2125.38
459.478	2108.38
459.698	2029.38
459.918	2081.38
460.138	2129.38
460.358	2225.38
460.578	2205.38
460.798	2326.38
461.018	2403.38
461.238	2283.38
461.458	2180.38
461.678	2216.38
461.898	2174.38
462.118	2104.38
462.338	2213.38
462.558	2202.38
462.777	2208.38
462.997	2308.38
463.217	2476.38
463.437	2450.38
463.657	2277.38
463.876	2219.38
464.096	2238.38
464.316	2162.38
464.536	2315.38
464.755	2291.38
464.975	2324.38
465.195	2242.38
465.414	2320.38
465.634	2337.38
465.854	2228.38
466.073	2287.38
466.293	2281.38
466.512	2021.38
466.732	2067.38
466.951	2098.38
467.171	2069.38
467.391	1999.38
467.61	1916.38
467.829	2026.38
468.049	2146.38
468.268	2361.38
468.488	2251.38
468.707	2129.38
468.927	2052.38
469.146	2003.38
469.365	2010.38
469.585	2009.38
469.804	2008.38
470.023	1989.38
470.243	2051.38
470.462	2027.38
470.681	1949.38
470.901	2052.38
471.12	1988.38
471.339	1994.38
471.558	1951.38
471.777	1948.38
471.997	1924.38
472.216	1966.38
472.435	1908.38
472.654	1924.38
472.873	2002.38
473.092	2144.38
473.311	2089.38
473.53	1943.38
473.749	1940.38
473.968	2017.38
474.187	2118.38
474.406	2171.38
474.625	2092.38
474.844	2034.38
475.063	2032.38
475.282	2118.38
475.501	2076.38
475.72	2004.38
475.939	2176.38
476.158	2084.38
476.377	2072.38
476.596	2073.38
476.814	2102.38
477.033	2117.38
477.252	2186.38
477.471	2248.38
477.69	2172.38
477.908	2125.38
478.127	2257.38
478.346	2461.38
478.564	2466.38
478.783	2370.38
479.002	2518.38
479.22	2432.38
479.439	2531.38
479.658	2821.38
479.876	2825.38
480.095	2428.38
480.313	2362.38
480.532	2243.38
480.751	2282.38
480.969	2301.38
481.188	2308.38
481.406	2266.38
481.624	2231.38
481.843	2215.38
482.061	2296.38
482.28	2329.38
482.498	2403.38
482.717	2352.38
482.935	2291.38
483.153	2226.38
483.372	2254.38
483.59	2230.38
483.808	2252.38
484.027	2285.38
484.245	2467.38
484.463	2771.38
484.681	3166.38
484.9	2511.38
485.118	2338.38
485.336	2290.38
485.554	2360.38
485.772	2498.38
485.99	2424.38
486.209	2474.38
486.427	2389.38
486.645	2447.38
486.863	2381.38
487.081	2432.38
487.299	2558.38
487.517	2448.38
487.735	2367.38
487.953	2398.38
488.171	2298.38
488.389	2320.38
488.607	2340.38
488.825	2601.38
489.043	2642.38
489.261	2402.38
489.479	2518.38
489.696	2544.38
489.914	2544.38
490.132	2405.38
490.35	2367.38
490.568	2501.38
490.786	2404.38
491.003	2295.38
491.221	2345.38
491.439	2442.38
491.657	2412.38
491.874	2442.38
492.092	2477.38
492.31	2465.38
492.527	2433.38
492.745	2402.38
492.963	2413.38
493.18	2473.38
493.398	2694.38
493.615	2707.38
493.833	2551.38
494.05	2435.38
494.268	2429.38
494.485	2496.38
494.703	2516.38
494.92	2432.38
495.138	2444.38
495.355	2468.38
495.573	2592.38
495.79	2713.38
496.008	2746.38
496.225	2600.38
496.442	2558.38
496.66	2606.38
496.877	2552.38
497.094	2688.38
497.312	2714.38
497.529	2646.38
497.746	2724.38
497.963	3204.38
498.181	3611.38
498.398	3246.38
498.615	3203.38
498.832	3145.38
499.049	3186.38
499.267	3140.38
499.484	3320.38
499.701	3617.38
499.918	3682.38
500.135	3925.38
500.352	4203.38
500.569	4141.38
500.786	4420.38
501.003	4117.38
501.22	3749.38
501.437	3700.38
501.654	3620.38
501.871	3513.38
502.088	3153.38
502.305	3132.38
502.522	3027.38
502.739	2764.38
502.956	2723.38
503.172	2721.38
503.389	2641.38
503.606	2606.38
503.823	2628.38
504.04	2596.38
504.256	2657.38
504.473	2577.38
504.69	2706.38
504.907	2616.38
505.123	2436.38
505.34	2512.38
505.557	3278.38
505.773	2810.38
505.99	2362.38
506.207	2230.38
506.423	2226.38
506.64	2177.38
506.856	2197.38
507.073	2513.38
507.289	2705.38
507.506	2625.38
507.722	2236.38
507.939	2110.38
508.155	2187.38
508.372	2171.38
508.588	2134.38
508.805	2052.38
509.021	2060.38
509.238	2009.38
509.454	2014.38
509.67	2034.38
509.887	1983.38
510.103	1954.38
510.319	2012.38
510.536	2133.38
510.752	2167.38
510.968	2158.38
511.184	2316.38
511.401	2307.38
511.617	2026.38
511.833	1992.38
512.049	1972.38
512.265	1977.38
512.481	1954.38
512.698	1989.38
512.914	2174.38
513.13	2054.38
513.346	1993.38
513.562	1905.38
513.778	1991.38
513.994	2096.38
514.21	2141.38
514.426	2168.38
514.642	2363.38
514.858	2244.38
515.074	2065.38
515.29	2023.38
515.506	2058.38
515.721	2081.38
515.937	2105.38
516.153	2401.38
516.369	2262.38
516.585	2157.38
516.801	2053.38
517.016	2056.38
517.232	2115.38
517.448	2177.38
517.664	2130.38
517.879	2149.38
518.095	2316.38
518.311	2203.38
518.527	2119.38
518.742	2048.38
518.958	2025.38
519.173	1988.38
519.389	2024.38
519.605	2035.38
519.82	2021.38
520.036	2039.38
520.251	1975.38
520.467	2009.38
520.682	2189.38
520.898	2233.38
521.113	2041.38
521.329	1933.38
521.544	2109.38
521.76	1982.38
521.975	1909.38
522.19	1874.38
522.406	1881.38
522.621	2222.38
522.836	2250.38
523.052	1859.38
523.267	1888.38
523.482	1898.38
523.698	1814.38
523.913	1726.38
524.128	1792.38
524.343	1912.38
524.559	1976.38
524.774	1838.38
524.989	1825.38
525.204	1811.38
525.419	1766.38
525.634	1754.38
525.849	1801.38
526.064	1832.38
526.28	1828.38
526.495	1757.38
526.71	1730.38
526.925	1779.38
527.14	1746.38
527.355	1719.38
527.57	1710.38
527.785	1763.38
527.999	1709.38
528.214	1679.38
528.429	1665.38
528.644	1680.38
528.859	1712.38
529.074	1695.38
529.289	1722.38
529.503	1756.38
529.718	1731.38
529.933	1713.38
530.148	1644.38
530.363	1650.38
530.577	1706.38
530.792	1742.38
531.007	1738.38
531.221	1698.38
531.436	1754.38
531.651	1801.38
531.865	1852.38
532.08	1767.38
532.295	1668.38
532.509	1613.38
532.724	1652.38
532.938	1702.38
533.153	1837.38
533.367	1739.38
533.582	1704.38
533.796	1698.38
534.011	1692.38
534.225	1726.38
534.44	1673.38
534.654	1675.38
534.868	1694.38
535.083	1722.38
535.297	1727.38
535.511	1648.38
535.726	1684.38
535.94	1666.38
536.154	1646.38
536.369	1641.38
536.583	1611.38
536.797	1620.38
537.011	1684.38
537.225	1646.38
537.44	1596.38
537.654	1644.38
537.868	1616.38
538.082	1550.38
538.296	1505.38
538.51	1530.38
538.724	1554.38
538.938	1553.38
539.153	1588.38
539.367	1598.38
539.581	1617.38
539.795	1701.38
540.009	1647.38
540.222	1581.38
540.436	1626.38
540.65	1766.38
540.864	1824.38
541.078	1681.38
541.292	1593.38
541.506	1592.38
541.72	1628.38
541.934	1588.38
542.147	1656.38
542.361	1603.38
542.575	1547.38
542.789	1535.38
543.002	1530.38
543.216	1589.38
543.43	1606.38
543.644	1705.38
543.857	1734.38
544.071	1656.38
544.285	1599.38
544.498	1600.38
544.712	1577.38
544.925	1633.38
545.139	1648.38
545.352	1561.38
545.566	1498.38
545.779	1496.38
545.993	1513.38
546.206	1520.38
546.42	1513.38
546.633	1467.38
546.847	1484.38
547.06	1522.38
547.274	1498.38
547.487	1491.38
547.7	1478.38
547.914	1493.38
548.127	1521.38
548.34	1558.38
548.554	1543.38
548.767	1498.38
548.98	1532.38
549.193	1480.38
549.407	1584.38
549.62	1609.38
549.833	1522.38
550.046	1539.38
550.259	1492.38
550.473	1457.38
550.686	1482.38
550.899	1467.38
551.112	1451.38
551.325	1439.38
551.538	1523.38
551.751	1786.38
551.964	1440.38
552.177	1414.38
552.39	1423.38
552.603	1439.38
552.816	1496.38
553.029	1553.38
553.242	1565.38
553.455	1496.38
553.667	1464.38
553.88	1483.38
554.093	1468.38
554.306	1416.38
554.519	1399.38
554.732	1370.38
554.944	1386.38
555.157	1413.38
555.37	1397.38
555.583	1392.38
555.795	1353.38
556.008	1329.38
556.221	1333.38
556.433	1298.38
556.646	1293.38
556.859	1280.38
557.071	1275.38
557.284	1268.38
557.496	1270.38
557.709	1241.38
557.921	1252.38
558.134	1266.38
558.346	1270.38
558.559	1250.38
558.771	1232.38
558.984	1234.38
559.196	1192.38
559.409	1204.38
559.621	1224.38
559.833	1199.38
560.046	1287.38
560.258	1227.38
560.47	1238.38
560.683	1238.38
560.895	1218.38
561.107	1233.38
561.32	1242.38
561.532	1270.38
561.744	1243.38
561.956	1228.38
562.168	1200.38
562.381	1188.38
562.593	1162.38
562.805	1166.38
563.017	1175.38
563.229	1179.38
563.441	1245.38
563.653	1221.38
563.865	1215.38
564.077	1170.38
564.289	1208.38
564.501	1249.38
564.713	1253.38
564.925	1308.38
565.137	1381.38
565.349	1275.38
565.561	1252.38
565.773	1285.38
565.985	1309.38
566.197	1344.38
566.408	1481.38
566.62	1490.38
566.832	1461.38
567.044	1468.38
567.255	1450.38
567.467	1460.38
567.679	1511.38
567.891	1563.38
568.102	1511.38
568.314	1460.38
568.526	1401.38
568.737	1321.38
568.949	1298.38
569.161	1225.38
569.372	1156.38
569.584	1156.38
569.795	1176.38
570.007	1133.38
570.218	1101.38
570.43	1089.38
570.641	1130.38
570.853	1103.38
571.064	1099.38
571.276	1054.38
571.487	1050.38
571.698	1050.38
571.91	1037.38
572.121	1003.38
572.333	999.38
572.544	987.38
572.755	970.38
572.966	976.38
573.178	971.38
573.389	968.38
573.6	1000.38
573.811	1085.38
574.023	976.38
574.234	976.38
574.445	942.38
574.656	898.38
574.867	904.38
575.078	930.38
575.289	942.38
575.501	920.38
575.712	894.38
575.923	909.38
576.134	915.38
576.345	900.38
576.556	914.38
576.767	867.38
576.978	881.38
577.188	889.38
577.399	880.38
577.61	882.38
577.821	842.38
578.032	824.38
578.243	835.38
578.454	854.38
578.665	829.38
578.875	844.38
579.086	834.38
579.297	809.38
579.508	880.38
579.718	860.38
579.929	809.38
580.14	828.38
580.35	798.38
580.561	817.38
580.772	914.38
580.982	842.38
581.193	816.38
581.403	812.38
581.614	772.38
581.825	788.38
582.035	760.38
582.246	793.38
582.456	813.38
582.667	789.38
582.877	794.38
583.087	783.38
583.298	777.38
583.508	776.38
583.719	787.38
583.929	820.38
584.139	790.38
584.35	734.38
584.56	774.38
584.77	774.38
584.981	774.38
585.191	766.38
585.401	814.38
585.611	782.38
585.821	777.38
586.032	737.38
586.242	739.38
586.452	737.38
586.662	775.38
586.872	744.38
587.082	734.38
587.292	769.38
587.502	801.38
587.713	774.38
587.923	765.38
588.133	743.38
588.343	756.38
588.553	733.38
588.762	738.38
588.972	738.38
589.182	758.38
589.392	712.38
589.602	736.38
589.812	750.38
590.022	723.38
590.232	732.38
590.441	746.38
590.651	742.38
590.861	733.38
591.071	710.38
591.281	712.38
591.49	733.38
591.7	739.38
591.91	729.38
592.119	740.38
592.329	739.38
592.539	760.38
592.748	740.38
592.958	756.38
593.167	766.38
593.377	787.38
593.587	781.38
593.796	780.38
594.006	790.38
594.215	772.38
594.424	777.38
594.634	748.38
594.843	754.38
595.053	774.38
595.262	713.38
595.472	727.38
595.681	713.38
595.89	726.38
596.1	691.38
596.309	714.38
596.518	697.38
596.727	681.38
596.937	674.38
597.146	633.38
597.355	647.38
597.564	669.38
597.774	646.38
597.983	624.38
598.192	622.38
598.401	617.38
598.61	627.38
598.819	633.38
599.028	626.38
599.237	618.38
599.446	604.38
599.655	616.38
599.864	611.38
600.073	610.38
600.282	612.38
600.491	588.38
600.7	613.38
600.909	612.38
601.118	604.38
601.327	611.38
601.536	603.38
601.745	602.38
601.953	601.38
602.162	587.38
602.371	606.38
602.58	573.38
602.789	608.38
602.997	595.38
603.206	569.38
603.415	590.38
603.623	585.38
603.832	566.38
604.041	586.38
604.249	574.38
604.458	590.38
604.666	599.38
604.875	552.38
605.084	612.38
605.292	602.38
605.501	570.38
605.709	567.38
605.918	545.38
606.126	562.38
606.334	523.38
606.543	556.38
606.751	562.38
606.96	563.38
607.168	553.38
607.376	532.38
607.585	523.38
607.793	533.38
608.001	562.38
608.21	560.38
608.418	530.38
608.626	542.38
608.834	536.38
609.043	537.38
609.251	551.38
609.459	535.38
609.667	553.38
609.875	536.38
610.083	533.38
610.291	568.38
610.499	548.38
610.707	550.38
610.916	523.38
611.124	534.38
611.332	534.38
611.54	534.38
611.748	530.38
611.955	518.38
612.163	527.38
612.371	486.38
612.579	521.38
612.787	518.38
612.995	524.38
613.203	526.38
613.411	514.38
613.618	507.38
613.826	540.38
614.034	516.38
614.242	521.38
614.449	514.38
614.657	514.38
614.865	522.38
615.072	493.38
615.28	509.38
615.488	500.38
615.695	516.38
615.903	496.38
616.111	499.38
616.318	524.38
616.526	511.38
616.733	501.38
616.941	498.38
617.148	471.38
617.356	473.38
617.563	490.38
617.771	487.38
617.978	473.38
618.185	517.38
618.393	493.38
618.6	485.38
618.807	496.38
619.015	471.38
619.222	493.38
619.429	470.38
619.637	467.38
619.844	484.38
620.051	477.38
620.258	479.38
620.466	468.38
620.673	456.38
620.88	445.38
621.087	460.38
621.294	467.38
621.501	444.38
621.708	459.38
621.915	466.38
622.122	462.38
622.329	447.38
622.536	459.38
622.743	470.38
622.95	433.38
623.157	442.38
623.364	448.38
623.571	453.38
623.778	452.38
623.985	462.38
624.192	448.38
624.399	440.38
624.606	454.38
624.812	444.38
625.019	434.38
625.226	444.38
625.433	442.38
625.639	429.38
625.846	441.38
626.053	408.38
626.259	435.38
626.466	419.38
626.673	396.38
626.879	382.38
627.086	422.38
627.293	405.38
627.499	409.38
627.706	421.38
627.912	425.38
628.119	420.38
628.325	422.38
628.532	399.38
628.738	381.38
628.945	411.38
629.151	398.38
629.357	422.38
629.564	405.38
629.77	381.38
629.976	397.38
630.183	388.38
630.389	401.38
630.595	390.38
630.802	391.38
631.008	392.38
631.214	383.38
631.42	379.38
631.627	369.38
631.833	373.38
632.039	372.38
632.245	363.38
632.451	368.38
632.657	361.38
632.863	367.38
633.069	359.38
633.275	358.38
633.481	356.38
633.688	358.38
633.893	354.38
634.099	383.38
634.305	357.38
634.511	358.38
634.717	345.38
634.923	346.38
635.129	355.38
635.335	348.38
635.541	348.38
635.747	348.38
635.952	358.38
636.158	368.38
636.364	350.38
636.57	357.38
636.775	350.38
636.981	354.38
637.187	363.38
637.392	369.38
637.598	354.38
637.804	350.38
638.009	357.38
638.215	350.38
638.421	339.38
638.626	340.38
638.832	320.38
639.037	324.38
639.243	320.38
639.448	339.38
639.654	358.38
639.859	328.38
640.065	344.38
640.27	334.38
640.475	317.38
640.681	341.38
640.886	304.38
641.091	339.38
641.297	306.38
641.502	325.38
641.707	315.38
641.913	328.38
642.118	326.38
642.323	332.38
642.528	313.38
642.733	287.38
642.939	308.38
643.144	306.38
643.349	298.38
643.554	315.38
643.759	313.38
643.964	327.38
644.169	307.38
644.374	316.38
644.579	305.38
644.784	312.38
644.989	303.38
645.194	318.38
645.399	314.38
645.604	291.38
645.809	318.38
646.014	317.38
646.219	318.38
646.423	313.38
646.628	314.38
646.833	322.38
647.038	320.38
647.243	306.38
647.447	305.38
647.652	312.38
647.857	322.38
648.062	314.38
648.266	321.38
648.471	322.38
648.676	308.38
648.88	318.38
649.085	307.38
649.289	321.38
649.494	297.38
649.698	307.38
649.903	322.38
650.107	302.38
650.312	304.38
650.516	301.38
650.721	289.38
650.925	266.38
651.13	264.38
651.334	278.38
651.539	278.38
651.743	267.38
651.947	265.38
652.152	254.38
652.356	264.38
652.56	272.38
652.764	277.38
652.969	249.38
653.173	260.38
653.377	240.38
653.581	265.38
653.785	248.38
653.99	245.38
654.194	246.38
654.398	254.38
654.602	241.38
654.806	234.38
655.01	234.38
655.214	256.38
655.418	250.38
655.622	243.38
655.826	243.38
656.03	258.38
656.234	278.38
656.438	272.38
656.642	243.38
656.846	246.38
657.049	232.38
657.253	211.38
657.457	204.38
657.661	192.38
657.865	198.38
658.068	198.38
658.272	179.38
658.476	164.38
658.68	159.38
658.883	148.38
659.087	138.38
659.291	143.38
659.494	125.38
659.698	123.38
659.901	132.38
660.105	126.38
660.309	123.38
660.512	120.38
660.716	91.38
660.919	109.38
661.123	100.38
661.326	105.38
661.53	102.38
661.733	107.38
661.936	90.38
662.14	94.38
662.343	97.38
662.546	97.38
662.75	90.38
662.953	91.38
663.156	99.38
663.36	114.38
663.563	77.38
663.766	74.38
663.969	96.38
664.173	91.38
664.376	81.38
664.579	91.38
664.782	98.38
664.985	103.38
665.188	91.38
665.391	98.38
665.594	92.38
665.797	66.38
666	78.38
666.203	77.38
666.406	64.38
666.609	78.38
666.812	82.38
667.015	71.38
667.218	79.38
667.421	77.38
667.624	97.38
667.827	85.38
668.03	83.38
668.232	73.38
668.435	75.38
668.638	70.38
668.841	89.38
669.043	77.38
669.246	78.38
669.449	83.38
669.651	82.38
669.854	76.38
670.057	77.38
670.259	87.38
670.462	88.38
670.665	79.38
670.867	92.38
671.07	83.38
671.272	73.38
671.475	91.38
671.677	86.38
671.88	85.38
672.082	88.38
672.284	76.38
672.487	72.38
672.689	72.38
672.892	94.38
