Data from WStandard_LampEnergy10_LIBS07252019.E.O._I.C._HRD10591_15-53-32-928.txt Node
Date: Thu Jul 25 15:53:32 EDT 2019
User: cochatt
Spectrometer: HR+D1059
Trigger mode: 1
Integration Time (sec): 1.000000E-1
Scans to average: 1
Electric dark correction enabled: true
Nonlinearity correction enabled: false
Boxcar width: 0
XAxis mode: Wavelengths
Number of Pixels in Spectrum: 2048
>>>>>Begin Spectral Data<<<<<
223.165	-6.88
223.4	-6.88
223.635	-6.88
223.869	-23.88
224.104	-13.88
224.338	-11.88
224.573	-18.88
224.808	-18.88
225.042	-16.88
225.277	-6.88
225.511	-4.88
225.746	3.12
225.98	3.12
226.215	19.12
226.449	20.12
226.683	31.12
226.918	29.12
227.152	17.12
227.387	26.12
227.621	48.12
227.856	51.12
228.09	49.12
228.324	44.12
228.559	59.12
228.793	65.12
229.027	133.12
229.262	126.12
229.496	131.12
229.73	153.12
229.964	169.12
230.199	168.12
230.433	176.12
230.667	192.12
230.901	199.12
231.136	177.12
231.37	170.12
231.604	163.12
231.838	172.12
232.072	185.12
232.306	191.12
232.541	196.12
232.775	201.12
233.009	207.12
233.243	208.12
233.477	214.12
233.711	204.12
233.945	191.12
234.179	204.12
234.413	197.12
234.647	205.12
234.881	202.12
235.115	209.12
235.349	202.12
235.583	208.12
235.817	206.12
236.051	193.12
236.285	195.12
236.519	210.12
236.753	248.12
236.987	237.12
237.221	229.12
237.455	236.12
237.689	239.12
237.922	220.12
238.156	217.12
238.39	222.12
238.624	230.12
238.858	244.12
239.091	255.12
239.325	250.12
239.559	289.12
239.793	290.12
240.027	307.12
240.26	293.12
240.494	262.12
240.728	251.12
240.961	243.12
241.195	230.12
241.429	262.12
241.662	261.12
241.896	243.12
242.13	259.12
242.363	272.12
242.597	303.12
242.83	268.12
243.064	263.12
243.298	318.12
243.531	278.12
243.765	281.12
243.998	277.12
244.232	250.12
244.465	253.12
244.699	269.12
244.932	279.12
245.166	306.12
245.399	280.12
245.633	272.12
245.866	282.12
246.099	277.12
246.333	292.12
246.566	315.12
246.8	336.12
247.033	339.12
247.266	313.12
247.5	306.12
247.733	315.12
247.966	326.12
248.2	356.12
248.433	368.12
248.666	371.12
248.899	401.12
249.133	429.12
249.366	465.12
249.599	412.12
249.832	381.12
250.066	384.12
250.299	350.12
250.532	352.12
250.765	343.12
250.998	326.12
251.231	344.12
251.465	352.12
251.698	371.12
251.931	367.12
252.164	365.12
252.397	374.12
252.63	370.12
252.863	322.12
253.096	337.12
253.329	356.12
253.562	360.12
253.795	380.12
254.028	365.12
254.261	341.12
254.494	333.12
254.727	348.12
254.96	355.12
255.193	389.12
255.426	421.12
255.659	452.12
255.892	446.12
256.124	396.12
256.357	392.12
256.59	400.12
256.823	402.12
257.056	419.12
257.289	472.12
257.521	501.12
257.754	476.12
257.987	452.12
258.22	492.12
258.452	448.12
258.685	398.12
258.918	392.12
259.151	412.12
259.383	379.12
259.616	356.12
259.849	375.12
260.081	415.12
260.314	456.12
260.547	481.12
260.779	461.12
261.012	453.12
261.244	408.12
261.477	403.12
261.71	415.12
261.942	425.12
262.175	382.12
262.407	416.12
262.64	408.12
262.872	373.12
263.105	359.12
263.337	401.12
263.57	367.12
263.802	376.12
264.035	379.12
264.267	345.12
264.499	355.12
264.732	369.12
264.964	397.12
265.197	432.12
265.429	439.12
265.661	461.12
265.894	503.12
266.126	487.12
266.358	457.12
266.591	478.12
266.823	503.12
267.055	458.12
267.287	458.12
267.52	453.12
267.752	458.12
267.984	472.12
268.216	452.12
268.448	477.12
268.681	452.12
268.913	426.12
269.145	409.12
269.377	403.12
269.609	452.12
269.841	515.12
270.073	585.12
270.306	639.12
270.538	643.12
270.77	552.12
271.002	487.12
271.234	472.12
271.466	485.12
271.698	547.12
271.93	614.12
272.162	599.12
272.394	556.12
272.626	521.12
272.858	459.12
273.09	425.12
273.322	431.12
273.553	404.12
273.785	410.12
274.017	424.12
274.249	453.12
274.481	421.12
274.713	416.12
274.945	410.12
275.176	407.12
275.408	410.12
275.64	413.12
275.872	425.12
276.104	457.12
276.335	482.12
276.567	528.12
276.799	544.12
277.031	472.12
277.262	481.12
277.494	488.12
277.726	515.12
277.957	511.12
278.189	477.12
278.421	447.12
278.652	439.12
278.884	449.12
279.115	452.12
279.347	454.12
279.579	455.12
279.81	462.12
280.042	484.12
280.273	542.12
280.505	523.12
280.736	525.12
280.968	473.12
281.199	449.12
281.431	429.12
281.662	439.12
281.894	451.12
282.125	439.12
282.356	448.12
282.588	479.12
282.819	475.12
283.051	490.12
283.282	514.12
283.513	517.12
283.745	465.12
283.976	425.12
284.207	429.12
284.439	443.12
284.67	437.12
284.901	456.12
285.132	453.12
285.364	451.12
285.595	434.12
285.826	467.12
286.057	461.12
286.288	428.12
286.52	479.12
286.751	519.12
286.982	524.12
287.213	483.12
287.444	430.12
287.675	438.12
287.906	464.12
288.138	490.12
288.369	486.12
288.6	449.12
288.831	433.12
289.062	437.12
289.293	435.12
289.524	480.12
289.755	482.12
289.986	458.12
290.217	449.12
290.448	429.12
290.679	476.12
290.91	489.12
291.141	493.12
291.371	488.12
291.602	508.12
291.833	496.12
292.064	525.12
292.295	492.12
292.526	497.12
292.757	501.12
292.987	496.12
293.218	497.12
293.449	519.12
293.68	581.12
293.91	591.12
294.141	595.12
294.372	565.12
294.603	562.12
294.833	571.12
295.064	540.12
295.295	499.12
295.525	478.12
295.756	449.12
295.987	442.12
296.217	463.12
296.448	462.12
296.679	477.12
296.909	482.12
297.14	454.12
297.37	509.12
297.601	530.12
297.831	540.12
298.062	530.12
298.292	491.12
298.523	474.12
298.753	482.12
298.984	484.12
299.214	499.12
299.445	489.12
299.675	499.12
299.905	524.12
300.136	485.12
300.366	463.12
300.597	461.12
300.827	495.12
301.057	505.12
301.288	513.12
301.518	510.12
301.748	528.12
301.979	564.12
302.209	559.12
302.439	575.12
302.669	580.12
302.9	570.12
303.13	508.12
303.36	511.12
303.59	537.12
303.82	505.12
304.051	528.12
304.281	531.12
304.511	561.12
304.741	586.12
304.971	613.12
305.201	645.12
305.431	577.12
305.661	491.12
305.891	443.12
306.121	479.12
306.352	490.12
306.582	523.12
306.812	539.12
307.042	582.12
307.272	560.12
307.502	580.12
307.731	616.12
307.961	633.12
308.191	610.12
308.421	529.12
308.651	501.12
308.881	502.12
309.111	514.12
309.341	509.12
309.571	499.12
309.8	507.12
310.03	482.12
310.26	494.12
310.49	511.12
310.72	528.12
310.949	543.12
311.179	536.12
311.409	534.12
311.639	482.12
311.868	508.12
312.098	515.12
312.328	503.12
312.557	500.12
312.787	515.12
313.017	523.12
313.246	525.12
313.476	527.12
313.706	525.12
313.935	549.12
314.165	537.12
314.394	563.12
314.624	606.12
314.853	624.12
315.083	621.12
315.312	635.12
315.542	589.12
315.771	559.12
316.001	564.12
316.23	588.12
316.46	577.12
316.689	548.12
316.919	530.12
317.148	529.12
317.377	555.12
317.607	608.12
317.836	639.12
318.065	666.12
318.295	633.12
318.524	603.12
318.753	583.12
318.983	586.12
319.212	541.12
319.441	547.12
319.67	558.12
319.9	588.12
320.129	605.12
320.358	635.12
320.587	616.12
320.816	618.12
321.046	612.12
321.275	584.12
321.504	610.12
321.733	628.12
321.962	609.12
322.191	569.12
322.42	561.12
322.649	551.12
322.878	560.12
323.108	538.12
323.337	601.12
323.566	584.12
323.795	597.12
324.024	587.12
324.253	551.12
324.482	585.12
324.71	563.12
324.939	545.12
325.168	552.12
325.397	575.12
325.626	596.12
325.855	579.12
326.084	580.12
326.313	583.12
326.542	591.12
326.77	603.12
326.999	588.12
327.228	557.12
327.457	525.12
327.686	548.12
327.914	561.12
328.143	569.12
328.372	577.12
328.6	582.12
328.829	572.12
329.058	551.12
329.287	549.12
329.515	570.12
329.744	600.12
329.972	634.12
330.201	634.12
330.43	611.12
330.658	599.12
330.887	590.12
331.115	618.12
331.344	617.12
331.572	609.12
331.801	589.12
332.03	597.12
332.258	616.12
332.486	611.12
332.715	611.12
332.943	625.12
333.172	602.12
333.4	583.12
333.629	614.12
333.857	669.12
334.085	761.12
334.314	805.12
334.542	869.12
334.771	797.12
334.999	716.12
335.227	650.12
335.455	639.12
335.684	633.12
335.912	693.12
336.14	681.12
336.369	657.12
336.597	640.12
336.825	619.12
337.053	620.12
337.281	688.12
337.51	693.12
337.738	697.12
337.966	673.12
338.194	636.12
338.422	613.12
338.65	603.12
338.878	583.12
339.106	569.12
339.334	601.12
339.562	582.12
339.79	600.12
340.018	615.12
340.246	623.12
340.474	634.12
340.702	605.12
340.93	628.12
341.158	607.12
341.386	614.12
341.614	610.12
341.842	597.12
342.07	618.12
342.298	627.12
342.526	604.12
342.754	604.12
342.981	586.12
343.209	592.12
343.437	605.12
343.665	627.12
343.893	627.12
344.12	645.12
344.348	646.12
344.576	633.12
344.804	629.12
345.031	621.12
345.259	617.12
345.487	592.12
345.714	563.12
345.942	583.12
346.17	565.12
346.397	552.12
346.625	565.12
346.853	565.12
347.08	534.12
347.308	556.12
347.535	573.12
347.763	572.12
347.99	571.12
348.218	543.12
348.445	578.12
348.673	586.12
348.9	586.12
349.128	614.12
349.355	611.12
349.583	579.12
349.81	596.12
350.037	532.12
350.265	535.12
350.492	533.12
350.72	551.12
350.947	583.12
351.174	589.12
351.402	566.12
351.629	537.12
351.856	529.12
352.083	535.12
352.311	552.12
352.538	554.12
352.765	578.12
352.992	594.12
353.22	569.12
353.447	578.12
353.674	555.12
353.901	584.12
354.128	548.12
354.355	537.12
354.583	584.12
354.81	593.12
355.037	589.12
355.264	591.12
355.491	591.12
355.718	589.12
355.945	545.12
356.172	565.12
356.399	543.12
356.626	563.12
356.853	595.12
357.08	639.12
357.307	684.12
357.534	668.12
357.761	582.12
357.988	568.12
358.215	538.12
358.441	552.12
358.668	546.12
358.895	574.12
359.122	579.12
359.349	643.12
359.576	595.12
359.802	593.12
360.029	559.12
360.256	548.12
360.483	568.12
360.709	583.12
360.936	631.12
361.163	629.12
361.39	697.12
361.616	709.12
361.843	697.12
362.07	659.12
362.296	601.12
362.523	548.12
362.749	559.12
362.976	594.12
363.203	588.12
363.429	586.12
363.656	549.12
363.882	604.12
364.109	662.12
364.335	688.12
364.562	628.12
364.788	584.12
365.015	572.12
365.241	569.12
365.468	603.12
365.694	623.12
365.92	639.12
366.147	588.12
366.373	551.12
366.599	572.12
366.826	583.12
367.052	559.12
367.278	586.12
367.505	600.12
367.731	615.12
367.957	629.12
368.184	657.12
368.41	668.12
368.636	662.12
368.862	685.12
369.089	666.12
369.315	647.12
369.541	634.12
369.767	607.12
369.993	588.12
370.219	615.12
370.445	607.12
370.672	650.12
370.898	683.12
371.124	648.12
371.35	647.12
371.576	656.12
371.802	653.12
372.028	649.12
372.254	639.12
372.48	602.12
372.706	607.12
372.932	589.12
373.158	635.12
373.384	661.12
373.61	647.12
373.835	643.12
374.061	642.12
374.287	637.12
374.513	626.12
374.739	633.12
374.965	647.12
375.191	651.12
375.416	671.12
375.642	691.12
375.868	709.12
376.094	721.12
376.319	672.12
376.545	652.12
376.771	670.12
376.997	707.12
377.222	701.12
377.448	665.12
377.674	674.12
377.899	705.12
378.125	723.12
378.35	683.12
378.576	649.12
378.802	647.12
379.027	645.12
379.253	657.12
379.478	665.12
379.704	652.12
379.929	652.12
380.155	662.12
380.38	659.12
380.606	647.12
380.831	670.12
381.057	712.12
381.282	711.12
381.507	690.12
381.733	760.12
381.958	757.12
382.184	695.12
382.409	682.12
382.634	687.12
382.86	663.12
383.085	704.12
383.31	714.12
383.535	767.12
383.761	803.12
383.986	763.12
384.211	741.12
384.436	741.12
384.662	785.12
384.887	792.12
385.112	723.12
385.337	731.12
385.562	737.12
385.787	744.12
386.013	764.12
386.238	779.12
386.463	761.12
386.688	853.12
386.913	841.12
387.138	857.12
387.363	804.12
387.588	777.12
387.813	759.12
388.038	769.12
388.263	828.12
388.488	769.12
388.713	729.12
388.938	721.12
389.163	743.12
389.387	783.12
389.612	727.12
389.837	743.12
390.062	770.12
390.287	729.12
390.512	756.12
390.736	740.12
390.961	749.12
391.186	759.12
391.411	777.12
391.636	772.12
391.86	777.12
392.085	780.12
392.31	751.12
392.534	773.12
392.759	780.12
392.984	785.12
393.208	781.12
393.433	803.12
393.658	821.12
393.882	825.12
394.107	784.12
394.331	790.12
394.556	770.12
394.78	779.12
395.005	833.12
395.229	876.12
395.454	897.12
395.678	879.12
395.903	816.12
396.127	801.12
396.352	842.12
396.576	837.12
396.801	872.12
397.025	857.12
397.249	848.12
397.474	847.12
397.698	822.12
397.922	844.12
398.147	921.12
398.371	903.12
398.595	926.12
398.82	895.12
399.044	907.12
399.268	930.12
399.492	966.12
399.717	987.12
399.941	1028.12
400.165	995.12
400.389	997.12
400.613	992.12
400.837	1141.12
401.062	1186.12
401.286	1059.12
401.51	993.12
401.734	992.12
401.958	964.12
402.182	881.12
402.406	908.12
402.63	869.12
402.854	896.12
403.078	927.12
403.302	934.12
403.526	940.12
403.75	940.12
403.974	945.12
404.198	953.12
404.422	989.12
404.645	1008.12
404.869	973.12
405.093	934.12
405.317	904.12
405.541	943.12
405.765	949.12
405.988	947.12
406.212	948.12
406.436	960.12
406.66	1040.12
406.883	1033.12
407.107	1185.12
407.331	1239.12
407.555	1293.12
407.778	1127.12
408.002	1008.12
408.226	974.12
408.449	985.12
408.673	961.12
408.896	943.12
409.12	972.12
409.344	952.12
409.567	936.12
409.791	941.12
410.014	967.12
410.238	1038.12
410.461	1041.12
410.685	964.12
410.908	943.12
411.132	957.12
411.355	964.12
411.578	970.12
411.802	954.12
412.025	973.12
412.249	927.12
412.472	935.12
412.695	940.12
412.919	897.12
413.142	943.12
413.365	928.12
413.589	995.12
413.812	1012.12
414.035	1008.12
414.258	950.12
414.482	953.12
414.705	946.12
414.928	921.12
415.151	924.12
415.374	940.12
415.597	920.12
415.821	947.12
416.044	959.12
416.267	997.12
416.49	923.12
416.713	917.12
416.936	961.12
417.159	990.12
417.382	987.12
417.605	890.12
417.828	946.12
418.051	955.12
418.274	970.12
418.497	976.12
418.72	965.12
418.943	911.12
419.166	970.12
419.389	996.12
419.611	985.12
419.834	964.12
420.057	969.12
420.28	916.12
420.503	969.12
420.726	969.12
420.948	917.12
421.171	935.12
421.394	952.12
421.617	1001.12
421.839	1021.12
422.062	1000.12
422.285	932.12
422.507	940.12
422.73	916.12
422.953	897.12
423.175	898.12
423.398	928.12
423.621	915.12
423.843	960.12
424.066	971.12
424.288	1031.12
424.511	1053.12
424.733	1039.12
424.956	936.12
425.178	920.12
425.401	956.12
425.623	960.12
425.846	937.12
426.068	962.12
426.291	970.12
426.513	947.12
426.735	989.12
426.958	1050.12
427.18	1072.12
427.402	1008.12
427.625	1034.12
427.847	1005.12
428.069	953.12
428.292	912.12
428.514	934.12
428.736	907.12
428.958	940.12
429.181	953.12
429.403	1067.12
429.625	1233.12
429.847	1063.12
430.069	967.12
430.292	1064.12
430.514	1054.12
430.736	999.12
430.958	972.12
431.18	937.12
431.402	892.12
431.624	872.12
431.846	825.12
432.068	743.12
432.29	754.12
432.512	801.12
432.734	868.12
432.956	945.12
433.178	973.12
433.4	987.12
433.622	948.12
433.844	940.12
434.066	844.12
434.287	800.12
434.509	779.12
434.731	863.12
434.953	897.12
435.175	937.12
435.397	929.12
435.618	896.12
435.84	853.12
436.062	865.12
436.284	888.12
436.505	927.12
436.727	956.12
436.949	911.12
437.17	934.12
437.392	930.12
437.614	898.12
437.835	837.12
438.057	837.12
438.278	849.12
438.5	871.12
438.721	917.12
438.943	929.12
439.165	940.12
439.386	947.12
439.608	978.12
439.829	961.12
440.05	989.12
440.272	967.12
440.493	959.12
440.715	999.12
440.936	1037.12
441.158	1082.12
441.379	1069.12
441.6	1071.12
441.822	1047.12
442.043	996.12
442.264	1025.12
442.486	961.12
442.707	970.12
442.928	962.12
443.149	1002.12
443.371	1009.12
443.592	1051.12
443.813	1046.12
444.034	1024.12
444.255	1046.12
444.476	1029.12
444.698	1060.12
444.919	1045.12
445.14	1157.12
445.361	1096.12
445.582	1064.12
445.803	1082.12
446.024	1055.12
446.245	1094.12
446.466	1078.12
446.687	1028.12
446.908	1107.12
447.129	1031.12
447.35	1037.12
447.571	995.12
447.792	959.12
448.013	976.12
448.234	970.12
448.455	1017.12
448.675	1003.12
448.896	935.12
449.117	897.12
449.338	933.12
449.559	979.12
449.779	1008.12
450	1049.12
450.221	1052.12
450.442	1058.12
450.662	951.12
450.883	898.12
451.104	893.12
451.324	886.12
451.545	905.12
451.766	861.12
451.986	815.12
452.207	833.12
452.428	816.12
452.648	816.12
452.869	810.12
453.089	810.12
453.31	788.12
453.53	756.12
453.751	755.12
453.971	697.12
454.192	761.12
454.412	780.12
454.633	793.12
454.853	809.12
455.073	774.12
455.294	783.12
455.514	774.12
455.734	787.12
455.955	790.12
456.175	753.12
456.395	739.12
456.616	772.12
456.836	757.12
457.056	746.12
457.276	739.12
457.497	721.12
457.717	714.12
457.937	704.12
458.157	695.12
458.377	717.12
458.598	692.12
458.818	697.12
459.038	698.12
459.258	717.12
459.478	705.12
459.698	713.12
459.918	737.12
460.138	790.12
460.358	857.12
460.578	854.12
460.798	872.12
461.018	873.12
461.238	896.12
461.458	880.12
461.678	853.12
461.898	840.12
462.118	839.12
462.338	852.12
462.558	856.12
462.777	860.12
462.997	872.12
463.217	911.12
463.437	875.12
463.657	842.12
463.876	822.12
464.096	813.12
464.316	854.12
464.536	876.12
464.755	896.12
464.975	883.12
465.195	870.12
465.414	901.12
465.634	899.12
465.854	876.12
466.073	968.12
466.293	947.12
466.512	895.12
466.732	855.12
466.951	915.12
467.171	913.12
467.391	896.12
467.61	895.12
467.829	891.12
468.049	1015.12
468.268	1032.12
468.488	969.12
468.707	948.12
468.927	925.12
469.146	904.12
469.365	911.12
469.585	945.12
469.804	966.12
470.023	936.12
470.243	959.12
470.462	925.12
470.681	952.12
470.901	959.12
471.12	951.12
471.339	938.12
471.558	940.12
471.777	909.12
471.997	921.12
472.216	883.12
472.435	806.12
472.654	779.12
472.873	776.12
473.092	853.12
473.311	827.12
473.53	833.12
473.749	859.12
473.968	851.12
474.187	836.12
474.406	879.12
474.625	877.12
474.844	893.12
475.063	877.12
475.282	868.12
475.501	840.12
475.72	842.12
475.939	919.12
476.158	898.12
476.377	887.12
476.596	841.12
476.814	827.12
477.033	813.12
477.252	852.12
477.471	932.12
477.69	924.12
477.908	957.12
478.127	993.12
478.346	1030.12
478.564	994.12
478.783	997.12
479.002	1030.12
479.22	1010.12
479.439	1031.12
479.658	1081.12
479.876	987.12
480.095	923.12
480.313	904.12
480.532	886.12
480.751	885.12
480.969	836.12
481.188	794.12
481.406	775.12
481.624	780.12
481.843	829.12
482.061	847.12
482.28	893.12
482.498	899.12
482.717	860.12
482.935	903.12
483.153	993.12
483.372	1023.12
483.59	1015.12
483.808	991.12
484.027	969.12
484.245	1014.12
484.463	1218.12
484.681	1325.12
484.9	1045.12
485.118	949.12
485.336	926.12
485.554	913.12
485.772	883.12
485.99	901.12
486.209	908.12
486.427	911.12
486.645	953.12
486.863	1043.12
487.081	1045.12
487.299	1019.12
487.517	991.12
487.735	1112.12
487.953	1215.12
488.171	1202.12
488.389	1165.12
488.607	1112.12
488.825	1179.12
489.043	1081.12
489.261	987.12
489.479	1043.12
489.696	1071.12
489.914	1064.12
490.132	1052.12
490.35	1105.12
490.568	1198.12
490.786	1223.12
491.003	1219.12
491.221	1255.12
491.439	1317.12
491.657	1317.12
491.874	1411.12
492.092	1489.12
492.31	1531.12
492.527	1511.12
492.745	1402.12
492.963	1336.12
493.18	1325.12
493.398	1381.12
493.615	1367.12
493.833	1299.12
494.05	1249.12
494.268	1252.12
494.485	1263.12
494.703	1243.12
494.92	1226.12
495.138	1239.12
495.355	1247.12
495.573	1267.12
495.79	1329.12
496.008	1306.12
496.225	1234.12
496.442	1279.12
496.66	1254.12
496.877	1252.12
497.094	1266.12
497.312	1234.12
497.529	1224.12
497.746	1212.12
497.963	1292.12
498.181	1331.12
498.398	1299.12
498.615	1209.12
498.832	1160.12
499.049	1166.12
499.267	1180.12
499.484	1305.12
499.701	1370.12
499.918	1396.12
500.135	1477.12
500.352	1574.12
500.569	1607.12
500.786	1748.12
501.003	1590.12
501.22	1464.12
501.437	1401.12
501.654	1436.12
501.871	1374.12
502.088	1253.12
502.305	1196.12
502.522	1154.12
502.739	1136.12
502.956	1058.12
503.172	1080.12
503.389	1030.12
503.606	1015.12
503.823	1018.12
504.04	1021.12
504.256	1008.12
504.473	1023.12
504.69	1046.12
504.907	1001.12
505.123	981.12
505.34	1101.12
505.557	1432.12
505.773	1143.12
505.99	952.12
506.207	929.12
506.423	919.12
506.64	914.12
506.856	899.12
507.073	1038.12
507.289	1099.12
507.506	1004.12
507.722	894.12
507.939	892.12
508.155	872.12
508.372	872.12
508.588	818.12
508.805	821.12
509.021	767.12
509.238	776.12
509.454	796.12
509.67	766.12
509.887	749.12
510.103	736.12
510.319	747.12
510.536	780.12
510.752	785.12
510.968	781.12
511.184	800.12
511.401	743.12
511.617	726.12
511.833	720.12
512.049	728.12
512.265	728.12
512.481	716.12
512.698	752.12
512.914	796.12
513.13	759.12
513.346	723.12
513.562	707.12
513.778	726.12
513.994	760.12
514.21	760.12
514.426	797.12
514.642	854.12
514.858	785.12
515.074	722.12
515.29	690.12
515.506	755.12
515.721	777.12
515.937	740.12
516.153	791.12
516.369	771.12
516.585	762.12
516.801	742.12
517.016	727.12
517.232	765.12
517.448	797.12
517.664	789.12
517.879	797.12
518.095	819.12
518.311	772.12
518.527	774.12
518.742	757.12
518.958	751.12
519.173	757.12
519.389	783.12
519.605	824.12
519.82	804.12
520.036	802.12
520.251	778.12
520.467	803.12
520.682	812.12
520.898	809.12
521.113	737.12
521.329	743.12
521.544	760.12
521.76	746.12
521.975	740.12
522.19	698.12
522.406	760.12
522.621	924.12
522.836	900.12
523.052	755.12
523.267	767.12
523.482	765.12
523.698	736.12
523.913	730.12
524.128	749.12
524.343	818.12
524.559	855.12
524.774	822.12
524.989	795.12
525.204	753.12
525.419	733.12
525.634	755.12
525.849	731.12
526.064	728.12
526.28	725.12
526.495	679.12
526.71	635.12
526.925	639.12
527.14	651.12
527.355	635.12
527.57	632.12
527.785	682.12
527.999	664.12
528.214	685.12
528.429	721.12
528.644	748.12
528.859	788.12
529.074	853.12
529.289	870.12
529.503	875.12
529.718	826.12
529.933	752.12
530.148	691.12
530.363	679.12
530.577	632.12
530.792	641.12
531.007	649.12
531.221	609.12
531.436	630.12
531.651	639.12
531.865	680.12
532.08	675.12
532.295	641.12
532.509	625.12
532.724	617.12
532.938	685.12
533.153	725.12
533.367	710.12
533.582	744.12
533.796	760.12
534.011	742.12
534.225	700.12
534.44	658.12
534.654	657.12
534.868	657.12
535.083	676.12
535.297	706.12
535.511	677.12
535.726	711.12
535.94	705.12
536.154	669.12
536.369	648.12
536.583	625.12
536.797	632.12
537.011	650.12
537.225	614.12
537.44	628.12
537.654	670.12
537.868	665.12
538.082	606.12
538.296	633.12
538.51	653.12
538.724	690.12
538.938	747.12
539.153	781.12
539.367	775.12
539.581	676.12
539.795	693.12
540.009	663.12
540.222	643.12
540.436	664.12
540.65	757.12
540.864	813.12
541.078	813.12
541.292	869.12
541.506	897.12
541.72	953.12
541.934	1064.12
542.147	1104.12
542.361	1007.12
542.575	927.12
542.789	859.12
543.002	772.12
543.216	779.12
543.43	780.12
543.644	819.12
543.857	884.12
544.071	917.12
544.285	969.12
544.498	947.12
544.712	930.12
544.925	965.12
545.139	963.12
545.352	939.12
545.566	939.12
545.779	939.12
545.993	975.12
546.206	962.12
546.42	960.12
546.633	968.12
546.847	965.12
547.06	978.12
547.274	974.12
547.487	997.12
547.7	1007.12
547.914	1003.12
548.127	976.12
548.34	977.12
548.554	954.12
548.767	929.12
548.98	941.12
549.193	924.12
549.407	978.12
549.62	972.12
549.833	908.12
550.046	938.12
550.259	936.12
550.473	895.12
550.686	901.12
550.899	862.12
551.112	831.12
551.325	838.12
551.538	826.12
551.751	871.12
551.964	713.12
552.177	733.12
552.39	824.12
552.603	835.12
552.816	880.12
553.029	897.12
553.242	934.12
553.455	948.12
553.667	904.12
553.88	888.12
554.093	871.12
554.306	855.12
554.519	827.12
554.732	832.12
554.944	858.12
555.157	835.12
555.37	800.12
555.583	827.12
555.795	808.12
556.008	727.12
556.221	744.12
556.433	753.12
556.646	759.12
556.859	743.12
557.071	768.12
557.284	738.12
557.496	759.12
557.709	747.12
557.921	781.12
558.134	759.12
558.346	747.12
558.559	730.12
558.771	719.12
558.984	713.12
559.196	691.12
559.409	673.12
559.621	685.12
559.833	673.12
560.046	692.12
560.258	693.12
560.47	685.12
560.683	685.12
560.895	704.12
561.107	687.12
561.32	713.12
561.532	665.12
561.744	684.12
561.956	679.12
562.168	660.12
562.381	659.12
562.593	650.12
562.805	647.12
563.017	639.12
563.229	642.12
563.441	668.12
563.653	621.12
563.865	627.12
564.077	623.12
564.289	616.12
564.501	619.12
564.713	655.12
564.925	676.12
565.137	662.12
565.349	633.12
565.561	629.12
565.773	612.12
565.985	634.12
566.197	665.12
566.408	675.12
566.62	658.12
566.832	688.12
567.044	695.12
567.255	661.12
567.467	673.12
567.679	679.12
567.891	660.12
568.102	620.12
568.314	601.12
568.526	533.12
568.737	534.12
568.949	520.12
569.161	497.12
569.372	475.12
569.584	449.12
569.795	471.12
570.007	463.12
570.218	447.12
570.43	439.12
570.641	452.12
570.853	457.12
571.064	505.12
571.276	472.12
571.487	494.12
571.698	493.12
571.91	459.12
572.121	448.12
572.333	447.12
572.544	450.12
572.755	425.12
572.966	412.12
573.178	425.12
573.389	406.12
573.6	398.12
573.811	443.12
574.023	410.12
574.234	408.12
574.445	392.12
574.656	376.12
574.867	397.12
575.078	391.12
575.289	420.12
575.501	376.12
575.712	387.12
575.923	410.12
576.134	397.12
576.345	389.12
576.556	407.12
576.767	418.12
576.978	400.12
577.188	393.12
577.399	379.12
577.61	377.12
577.821	373.12
578.032	364.12
578.243	383.12
578.454	375.12
578.665	356.12
578.875	351.12
579.086	341.12
579.297	308.12
579.508	346.12
579.718	354.12
579.929	338.12
580.14	370.12
580.35	337.12
580.561	356.12
580.772	379.12
580.982	376.12
581.193	370.12
581.403	354.12
581.614	352.12
581.825	356.12
582.035	358.12
582.246	363.12
582.456	326.12
582.667	345.12
582.877	346.12
583.087	355.12
583.298	348.12
583.508	331.12
583.719	328.12
583.929	345.12
584.139	321.12
584.35	343.12
584.56	331.12
584.77	327.12
584.981	319.12
585.191	337.12
585.401	361.12
585.611	339.12
585.821	336.12
586.032	317.12
586.242	307.12
586.452	312.12
586.662	337.12
586.872	323.12
587.082	308.12
587.292	325.12
587.502	340.12
587.713	339.12
587.923	334.12
588.133	312.12
588.343	327.12
588.553	327.12
588.762	323.12
588.972	312.12
589.182	333.12
589.392	327.12
589.602	321.12
589.812	298.12
590.022	323.12
590.232	305.12
590.441	315.12
590.651	315.12
590.861	311.12
591.071	312.12
591.281	303.12
591.49	301.12
591.7	310.12
591.91	287.12
592.119	331.12
592.329	311.12
592.539	336.12
592.748	337.12
592.958	326.12
593.167	331.12
593.377	320.12
593.587	309.12
593.796	339.12
594.006	325.12
594.215	343.12
594.424	360.12
594.634	347.12
594.843	352.12
595.053	375.12
595.262	355.12
595.472	326.12
595.681	333.12
595.89	318.12
596.1	330.12
596.309	312.12
596.518	327.12
596.727	355.12
596.937	339.12
597.146	317.12
597.355	332.12
597.564	303.12
597.774	306.12
597.983	293.12
598.192	298.12
598.401	300.12
598.61	302.12
598.819	307.12
599.028	316.12
599.237	299.12
599.446	289.12
599.655	295.12
599.864	293.12
600.073	292.12
600.282	298.12
600.491	305.12
600.7	295.12
600.909	303.12
601.118	317.12
601.327	325.12
601.536	337.12
601.745	344.12
601.953	352.12
602.162	348.12
602.371	364.12
602.58	343.12
602.789	341.12
602.997	359.12
603.206	344.12
603.415	357.12
603.623	332.12
603.832	348.12
604.041	332.12
604.249	319.12
604.458	323.12
604.666	314.12
604.875	300.12
605.084	328.12
605.292	339.12
605.501	357.12
605.709	362.12
605.918	367.12
606.126	357.12
606.334	364.12
606.543	353.12
606.751	375.12
606.96	376.12
607.168	389.12
607.376	340.12
607.585	355.12
607.793	369.12
608.001	367.12
608.21	361.12
608.418	375.12
608.626	371.12
608.834	367.12
609.043	382.12
609.251	373.12
609.459	397.12
609.667	364.12
609.875	383.12
610.083	387.12
610.291	367.12
610.499	379.12
610.707	355.12
610.916	365.12
611.124	365.12
611.332	370.12
611.54	377.12
611.748	387.12
611.955	361.12
612.163	364.12
612.371	360.12
612.579	354.12
612.787	345.12
612.995	373.12
613.203	379.12
613.411	372.12
613.618	349.12
613.826	349.12
614.034	358.12
614.242	359.12
614.449	354.12
614.657	367.12
614.865	383.12
615.072	372.12
615.28	376.12
615.488	346.12
615.695	379.12
615.903	361.12
616.111	355.12
616.318	367.12
616.526	367.12
616.733	365.12
616.941	346.12
617.148	377.12
617.356	351.12
617.563	355.12
617.771	320.12
617.978	333.12
618.185	330.12
618.393	337.12
618.6	349.12
618.807	362.12
619.015	363.12
619.222	337.12
619.429	339.12
619.637	311.12
619.844	297.12
620.051	319.12
620.258	325.12
620.466	347.12
620.673	329.12
620.88	343.12
621.087	325.12
621.294	322.12
621.501	279.12
621.708	296.12
621.915	331.12
622.122	335.12
622.329	324.12
622.536	336.12
622.743	323.12
622.95	313.12
623.157	323.12
623.364	319.12
623.571	341.12
623.778	328.12
623.985	324.12
624.192	303.12
624.399	330.12
624.606	335.12
624.812	310.12
625.019	294.12
625.226	302.12
625.433	302.12
625.639	288.12
625.846	274.12
626.053	242.12
626.259	253.12
626.466	254.12
626.673	241.12
626.879	232.12
627.086	255.12
627.293	268.12
627.499	299.12
627.706	313.12
627.912	306.12
628.119	307.12
628.325	331.12
628.532	304.12
628.738	288.12
628.945	320.12
629.151	292.12
629.357	275.12
629.564	296.12
629.77	290.12
629.976	282.12
630.183	280.12
630.389	287.12
630.595	276.12
630.802	280.12
631.008	281.12
631.214	289.12
631.42	284.12
631.627	270.12
631.833	256.12
632.039	280.12
632.245	271.12
632.451	276.12
632.657	290.12
632.863	261.12
633.069	263.12
633.275	260.12
633.481	266.12
633.688	259.12
633.893	252.12
634.099	265.12
634.305	264.12
634.511	245.12
634.717	243.12
634.923	241.12
635.129	227.12
635.335	246.12
635.541	234.12
635.747	252.12
635.952	248.12
636.158	253.12
636.364	253.12
636.57	276.12
636.775	268.12
636.981	263.12
637.187	287.12
637.392	268.12
637.598	260.12
637.804	257.12
638.009	266.12
638.215	266.12
638.421	258.12
638.626	264.12
638.832	261.12
639.037	251.12
639.243	236.12
639.448	251.12
639.654	234.12
639.859	253.12
640.065	257.12
640.27	259.12
640.475	250.12
640.681	242.12
640.886	249.12
641.091	243.12
641.297	274.12
641.502	251.12
641.707	250.12
641.913	246.12
642.118	259.12
642.323	258.12
642.528	233.12
642.733	237.12
642.939	236.12
643.144	254.12
643.349	235.12
643.554	236.12
643.759	248.12
643.964	255.12
644.169	235.12
644.374	244.12
644.579	243.12
644.784	241.12
644.989	234.12
645.194	261.12
645.399	234.12
645.604	238.12
645.809	239.12
646.014	229.12
646.219	240.12
646.423	234.12
646.628	252.12
646.833	247.12
647.038	239.12
647.243	249.12
647.447	241.12
647.652	241.12
647.857	239.12
648.062	240.12
648.266	243.12
648.471	244.12
648.676	247.12
648.88	246.12
649.085	260.12
649.289	246.12
649.494	245.12
649.698	232.12
649.903	248.12
650.107	236.12
650.312	240.12
650.516	255.12
650.721	240.12
650.925	252.12
651.13	221.12
651.334	222.12
651.539	218.12
651.743	203.12
651.947	216.12
652.152	213.12
652.356	226.12
652.56	217.12
652.764	219.12
652.969	227.12
653.173	221.12
653.377	201.12
653.581	204.12
653.785	204.12
653.99	218.12
654.194	193.12
654.398	201.12
654.602	215.12
654.806	217.12
655.01	197.12
655.214	212.12
655.418	205.12
655.622	231.12
655.826	209.12
656.03	206.12
656.234	216.12
656.438	229.12
656.642	225.12
656.846	220.12
657.049	195.12
657.253	204.12
657.457	189.12
657.661	196.12
657.865	159.12
658.068	175.12
658.272	164.12
658.476	161.12
658.68	141.12
658.883	148.12
659.087	142.12
659.291	138.12
659.494	147.12
659.698	140.12
659.901	133.12
660.105	121.12
660.309	135.12
660.512	111.12
660.716	125.12
660.919	118.12
661.123	106.12
661.326	89.12
661.53	113.12
661.733	101.12
661.936	118.12
662.14	107.12
662.343	94.12
662.546	96.12
662.75	112.12
662.953	96.12
663.156	101.12
663.36	98.12
663.563	94.12
663.766	87.12
663.969	104.12
664.173	82.12
664.376	77.12
664.579	84.12
664.782	87.12
664.985	87.12
665.188	78.12
665.391	82.12
665.594	75.12
665.797	93.12
666	91.12
666.203	99.12
666.406	77.12
666.609	83.12
666.812	64.12
667.015	83.12
667.218	84.12
667.421	82.12
667.624	84.12
667.827	70.12
668.03	84.12
668.232	69.12
668.435	80.12
668.638	73.12
668.841	88.12
669.043	95.12
669.246	67.12
669.449	77.12
669.651	73.12
669.854	97.12
670.057	86.12
670.259	83.12
670.462	86.12
670.665	81.12
670.867	81.12
671.07	79.12
671.272	92.12
671.475	81.12
671.677	63.12
671.88	76.12
672.082	84.12
672.284	81.12
672.487	94.12
672.689	67.12
672.892	66.12
