Data from WStandard_LampEnergy5.5LIBS07252019.E.O._I.C._HRD10591_16-07-08-919.txt Node
Date: Thu Jul 25 16:07:08 EDT 2019
User: cochatt
Spectrometer: HR+D1059
Trigger mode: 1
Integration Time (sec): 1.000000E-1
Scans to average: 1
Electric dark correction enabled: true
Nonlinearity correction enabled: false
Boxcar width: 0
XAxis mode: Wavelengths
Number of Pixels in Spectrum: 2048
>>>>>Begin Spectral Data<<<<<
223.165	-22.06
223.4	-22.06
223.635	-22.06
223.869	-30.06
224.104	-11.06
224.338	-16.06
224.573	-13.06
224.808	-10.06
225.042	-21.06
225.277	5.94
225.511	7.94
225.746	10.94
225.98	5.94
226.215	-2.06
226.449	13.94
226.683	24.94
226.918	32.94
227.152	22.94
227.387	35.94
227.621	47.94
227.856	46.94
228.09	58.94
228.324	61.94
228.559	50.94
228.793	151.94
229.027	371.94
229.262	373.94
229.496	387.94
229.73	425.94
229.964	465.94
230.199	478.94
230.433	511.94
230.667	534.94
230.901	573.94
231.136	491.94
231.37	476.94
231.604	481.94
231.838	483.94
232.072	499.94
232.306	477.94
232.541	487.94
232.775	592.94
233.009	676.94
233.243	625.94
233.477	553.94
233.711	593.94
233.945	591.94
234.179	578.94
234.413	613.94
234.647	669.94
234.881	637.94
235.115	586.94
235.349	592.94
235.583	595.94
235.817	580.94
236.051	570.94
236.285	562.94
236.519	609.94
236.753	663.94
236.987	695.94
237.221	718.94
237.455	771.94
237.689	734.94
237.922	721.94
238.156	686.94
238.39	690.94
238.624	743.94
238.858	791.94
239.091	809.94
239.325	870.94
239.559	985.94
239.793	1019.94
240.027	1108.94
240.26	1094.94
240.494	787.94
240.728	743.94
240.961	750.94
241.195	756.94
241.429	865.94
241.662	887.94
241.896	784.94
242.13	775.94
242.363	893.94
242.597	955.94
242.83	935.94
243.064	933.94
243.298	1029.94
243.531	1004.94
243.765	1000.94
243.998	993.94
244.232	846.94
244.465	807.94
244.699	815.94
244.932	958.94
245.166	1084.94
245.399	1044.94
245.633	949.94
245.866	924.94
246.099	997.94
246.333	1018.94
246.566	996.94
246.8	1118.94
247.033	1243.94
247.266	1146.94
247.5	1088.94
247.733	1098.94
247.966	1173.94
248.2	1313.94
248.433	1234.94
248.666	1281.94
248.899	1370.94
249.133	1617.94
249.366	1882.94
249.599	1504.94
249.832	1317.94
250.066	1365.94
250.299	1379.94
250.532	1285.94
250.765	1150.94
250.998	1198.94
251.231	1281.94
251.465	1312.94
251.698	1236.94
251.931	1245.94
252.164	1301.94
252.397	1300.94
252.63	1329.94
252.863	1164.94
253.096	1130.94
253.329	1226.94
253.562	1248.94
253.795	1341.94
254.028	1336.94
254.261	1230.94
254.494	1239.94
254.727	1150.94
254.96	1200.94
255.193	1323.94
255.426	1509.94
255.659	1709.94
255.892	1781.94
256.124	1479.94
256.357	1378.94
256.59	1519.94
256.823	1533.94
257.056	1478.94
257.289	1808.94
257.521	2069.94
257.754	1790.94
257.987	1658.94
258.22	1881.94
258.452	1852.94
258.685	1493.94
258.918	1451.94
259.151	1455.94
259.383	1396.94
259.616	1251.94
259.849	1307.94
260.081	1438.94
260.314	1642.94
260.547	1789.94
260.779	1833.94
261.012	1689.94
261.244	1513.94
261.477	1394.94
261.71	1483.94
261.942	1464.94
262.175	1412.94
262.407	1554.94
262.64	1455.94
262.872	1383.94
263.105	1291.94
263.337	1355.94
263.57	1370.94
263.802	1336.94
264.035	1303.94
264.267	1226.94
264.499	1201.94
264.732	1288.94
264.964	1337.94
265.197	1410.94
265.429	1506.94
265.661	1691.94
265.894	1804.94
266.126	1913.94
266.358	1669.94
266.591	1750.94
266.823	1921.94
267.055	1736.94
267.287	1662.94
267.52	1635.94
267.752	1641.94
267.984	1662.94
268.216	1713.94
268.448	1789.94
268.681	1758.94
268.913	1638.94
269.145	1487.94
269.377	1455.94
269.609	1561.94
269.841	1829.94
270.073	2193.94
270.306	2384.94
270.538	2591.94
270.77	2182.94
271.002	1821.94
271.234	1728.94
271.466	1687.94
271.698	1922.94
271.93	2360.94
272.162	2354.94
272.394	2109.94
272.626	2024.94
272.858	1762.94
273.09	1499.94
273.322	1489.94
273.553	1459.94
273.785	1463.94
274.017	1532.94
274.249	1617.94
274.481	1669.94
274.713	1535.94
274.945	1478.94
275.176	1465.94
275.408	1471.94
275.64	1461.94
275.872	1412.94
276.104	1510.94
276.335	1711.94
276.567	1986.94
276.799	2035.94
277.031	1806.94
277.262	1697.94
277.494	1755.94
277.726	1966.94
277.957	1921.94
278.189	1774.94
278.421	1624.94
278.652	1561.94
278.884	1533.94
279.115	1545.94
279.347	1589.94
279.579	1543.94
279.81	1526.94
280.042	1719.94
280.273	1850.94
280.505	1834.94
280.736	1922.94
280.968	1783.94
281.199	1588.94
281.431	1529.94
281.662	1509.94
281.894	1501.94
282.125	1543.94
282.356	1573.94
282.588	1622.94
282.819	1621.94
283.051	1726.94
283.282	1909.94
283.513	1844.94
283.745	1571.94
283.976	1500.94
284.207	1524.94
284.439	1560.94
284.67	1563.94
284.901	1574.94
285.132	1630.94
285.364	1619.94
285.595	1600.94
285.826	1574.94
286.057	1570.94
286.288	1560.94
286.52	1614.94
286.751	1777.94
286.982	1841.94
287.213	1683.94
287.444	1551.94
287.675	1525.94
287.906	1617.94
288.138	1711.94
288.369	1698.94
288.6	1567.94
288.831	1551.94
289.062	1546.94
289.293	1561.94
289.524	1568.94
289.755	1634.94
289.986	1630.94
290.217	1479.94
290.448	1484.94
290.679	1593.94
290.91	1585.94
291.141	1651.94
291.371	1726.94
291.602	1726.94
291.833	1679.94
292.064	1744.94
292.295	1653.94
292.526	1745.94
292.757	1808.94
292.987	1706.94
293.218	1597.94
293.449	1692.94
293.68	1995.94
293.91	2143.94
294.141	1950.94
294.372	1862.94
294.603	1911.94
294.833	1995.94
295.064	1873.94
295.295	1706.94
295.525	1647.94
295.756	1527.94
295.987	1469.94
296.217	1510.94
296.448	1545.94
296.679	1568.94
296.909	1584.94
297.14	1561.94
297.37	1557.94
297.601	1672.94
297.831	1794.94
298.062	1814.94
298.292	1652.94
298.523	1543.94
298.753	1564.94
298.984	1601.94
299.214	1628.94
299.445	1621.94
299.675	1702.94
299.905	1710.94
300.136	1657.94
300.366	1625.94
300.597	1545.94
300.827	1540.94
301.057	1610.94
301.288	1697.94
301.518	1699.94
301.748	1684.94
301.979	1815.94
302.209	1785.94
302.439	1973.94
302.669	2086.94
302.9	1915.94
303.13	1711.94
303.36	1705.94
303.59	1800.94
303.82	1731.94
304.051	1688.94
304.281	1703.94
304.511	1745.94
304.741	1805.94
304.971	1997.94
305.201	2201.94
305.431	2032.94
305.661	1671.94
305.891	1498.94
306.121	1480.94
306.352	1571.94
306.582	1651.94
306.812	1731.94
307.042	1891.94
307.272	1896.94
307.502	1967.94
307.731	2121.94
307.961	2297.94
308.191	2108.94
308.421	1775.94
308.651	1695.94
308.881	1642.94
309.111	1664.94
309.341	1626.94
309.571	1613.94
309.8	1640.94
310.03	1632.94
310.26	1622.94
310.49	1606.94
310.72	1688.94
310.949	1696.94
311.179	1739.94
311.409	1731.94
311.639	1695.94
311.868	1648.94
312.098	1686.94
312.328	1672.94
312.557	1642.94
312.787	1694.94
313.017	1733.94
313.246	1690.94
313.476	1722.94
313.706	1737.94
313.935	1758.94
314.165	1743.94
314.394	1789.94
314.624	1862.94
314.853	1999.94
315.083	2093.94
315.312	2159.94
315.542	2013.94
315.771	1746.94
316.001	1797.94
316.23	1880.94
316.46	1911.94
316.689	1847.94
316.919	1709.94
317.148	1661.94
317.377	1689.94
317.607	1816.94
317.836	2062.94
318.065	2160.94
318.295	2045.94
318.524	1976.94
318.753	1839.94
318.983	1849.94
319.212	1819.94
319.441	1771.94
319.67	1752.94
319.9	1796.94
320.129	1849.94
320.358	1999.94
320.587	2082.94
320.816	2027.94
321.046	1976.94
321.275	1849.94
321.504	1842.94
321.733	2022.94
321.962	2019.94
322.191	1829.94
322.42	1825.94
322.649	1783.94
322.878	1770.94
323.108	1839.94
323.337	1903.94
323.566	1916.94
323.795	1873.94
324.024	1851.94
324.253	1832.94
324.482	1865.94
324.71	1777.94
324.939	1667.94
325.168	1707.94
325.397	1784.94
325.626	1858.94
325.855	1866.94
326.084	1813.94
326.313	1828.94
326.542	1817.94
326.77	1897.94
326.999	1902.94
327.228	1804.94
327.457	1686.94
327.686	1703.94
327.914	1733.94
328.143	1786.94
328.372	1800.94
328.6	1779.94
328.829	1777.94
329.058	1742.94
329.287	1739.94
329.515	1815.94
329.744	1810.94
329.972	1928.94
330.201	1988.94
330.43	1961.94
330.658	1878.94
330.887	1904.94
331.115	1911.94
331.344	1905.94
331.572	1864.94
331.801	1886.94
332.03	1864.94
332.258	1920.94
332.486	1943.94
332.715	1939.94
332.943	1916.94
333.172	1857.94
333.4	1897.94
333.629	1973.94
333.857	2061.94
334.085	2255.94
334.314	2599.94
334.542	2865.94
334.771	2653.94
334.999	2311.94
335.227	2152.94
335.455	2029.94
335.684	2022.94
335.912	2073.94
336.14	2160.94
336.369	2057.94
336.597	1983.94
336.825	1954.94
337.053	1962.94
337.281	2102.94
337.51	2193.94
337.738	2314.94
337.966	2215.94
338.194	1990.94
338.422	1896.94
338.65	1855.94
338.878	1842.94
339.106	1811.94
339.334	1807.94
339.562	1747.94
339.79	1778.94
340.018	1920.94
340.246	2005.94
340.474	1991.94
340.702	1937.94
340.93	1971.94
341.158	1981.94
341.386	1912.94
341.614	1871.94
341.842	1888.94
342.07	1892.94
342.298	1915.94
342.526	1945.94
342.754	1832.94
342.981	1816.94
343.209	1833.94
343.437	1797.94
343.665	1839.94
343.893	1912.94
344.12	1998.94
344.348	2010.94
344.576	1941.94
344.804	1901.94
345.031	1846.94
345.259	1887.94
345.487	1822.94
345.714	1735.94
345.942	1690.94
346.17	1721.94
346.397	1761.94
346.625	1785.94
346.853	1699.94
347.08	1635.94
347.308	1685.94
347.535	1689.94
347.763	1798.94
347.99	1750.94
348.218	1681.94
348.445	1695.94
348.673	1755.94
348.9	1780.94
349.128	1841.94
349.355	1945.94
349.583	1837.94
349.81	1768.94
350.037	1635.94
350.265	1622.94
350.492	1675.94
350.72	1681.94
350.947	1741.94
351.174	1827.94
351.402	1696.94
351.629	1663.94
351.856	1639.94
352.083	1621.94
352.311	1607.94
352.538	1678.94
352.765	1757.94
352.992	1810.94
353.22	1736.94
353.447	1636.94
353.674	1685.94
353.901	1734.94
354.128	1638.94
354.355	1657.94
354.583	1741.94
354.81	1789.94
355.037	1818.94
355.264	1796.94
355.491	1682.94
355.718	1739.94
355.945	1719.94
356.172	1700.94
356.399	1622.94
356.626	1645.94
356.853	1711.94
357.08	1848.94
357.307	2070.94
357.534	2103.94
357.761	1790.94
357.988	1671.94
358.215	1607.94
358.441	1665.94
358.668	1621.94
358.895	1640.94
359.122	1759.94
359.349	1890.94
359.576	1962.94
359.802	1728.94
360.029	1661.94
360.256	1617.94
360.483	1649.94
360.709	1740.94
360.936	1772.94
361.163	1824.94
361.39	2010.94
361.616	2186.94
361.843	2143.94
362.07	1992.94
362.296	1713.94
362.523	1679.94
362.749	1697.94
362.976	1688.94
363.203	1775.94
363.429	1719.94
363.656	1618.94
363.882	1715.94
364.109	1866.94
364.335	2052.94
364.562	1870.94
364.788	1823.94
365.015	1714.94
365.241	1675.94
365.468	1693.94
365.694	1764.94
365.92	1853.94
366.147	1807.94
366.373	1645.94
366.599	1609.94
366.826	1657.94
367.052	1622.94
367.278	1677.94
367.505	1679.94
367.731	1747.94
367.957	1748.94
368.184	1805.94
368.41	1899.94
368.636	1940.94
368.862	1919.94
369.089	1936.94
369.315	1860.94
369.541	1807.94
369.767	1758.94
369.993	1709.94
370.219	1681.94
370.445	1749.94
370.672	1797.94
370.898	1921.94
371.124	1904.94
371.35	1764.94
371.576	1851.94
371.802	1944.94
372.028	1862.94
372.254	1795.94
372.48	1740.94
372.706	1695.94
372.932	1732.94
373.158	1717.94
373.384	1759.94
373.61	1776.94
373.835	1971.94
374.061	1796.94
374.287	1731.94
374.513	1735.94
374.739	1794.94
374.965	1782.94
375.191	1825.94
375.416	1867.94
375.642	1879.94
375.868	1939.94
376.094	1996.94
376.319	1929.94
376.545	1783.94
376.771	1821.94
376.997	1979.94
377.222	1893.94
377.448	1868.94
377.674	1886.94
377.899	1874.94
378.125	1983.94
378.35	2016.94
378.576	1793.94
378.802	1713.94
379.027	1737.94
379.253	1750.94
379.478	1815.94
379.704	1773.94
379.929	1735.94
380.155	1752.94
380.38	1810.94
380.606	1799.94
380.831	1787.94
381.057	1930.94
381.282	1917.94
381.507	1874.94
381.733	1979.94
381.958	2088.94
382.184	1891.94
382.409	1843.94
382.634	1869.94
382.86	1865.94
383.085	1885.94
383.31	1888.94
383.535	2046.94
383.761	2197.94
383.986	2095.94
384.211	1988.94
384.436	2001.94
384.662	2070.94
384.887	2165.94
385.112	2035.94
385.337	2064.94
385.562	2071.94
385.787	1972.94
386.013	2103.94
386.238	2093.94
386.463	2071.94
386.688	2200.94
386.913	2393.94
387.138	2317.94
387.363	2097.94
387.588	2134.94
387.813	2101.94
388.038	2138.94
388.263	2175.94
388.488	2138.94
388.713	1977.94
388.938	1950.94
389.163	1955.94
389.387	2046.94
389.612	2020.94
389.837	2091.94
390.062	2095.94
390.287	2105.94
390.512	1999.94
390.736	1996.94
390.961	1959.94
391.186	1916.94
391.411	1956.94
391.636	1970.94
391.86	2091.94
392.085	2034.94
392.31	1999.94
392.534	2054.94
392.759	2032.94
392.984	2083.94
393.208	2073.94
393.433	2115.94
393.658	2156.94
393.882	2213.94
394.107	2077.94
394.331	2007.94
394.556	1957.94
394.78	2056.94
395.005	2104.94
395.229	2213.94
395.454	2365.94
395.678	2368.94
395.903	2281.94
396.127	2131.94
396.352	2145.94
396.576	2201.94
396.801	2258.94
397.025	2243.94
397.249	2273.94
397.474	2181.94
397.698	2192.94
397.922	2279.94
398.147	2325.94
398.371	2470.94
398.595	2448.94
398.82	2324.94
399.044	2379.94
399.268	2449.94
399.492	2685.94
399.717	2776.94
399.941	2764.94
400.165	2713.94
400.389	2645.94
400.613	2579.94
400.837	2832.94
401.062	3261.94
401.286	2866.94
401.51	2517.94
401.734	2673.94
401.958	2656.94
402.182	2409.94
402.406	2319.94
402.63	2314.94
402.854	2260.94
403.078	2385.94
403.302	2375.94
403.526	2415.94
403.75	2418.94
403.974	2463.94
404.198	2409.94
404.422	2515.94
404.645	2649.94
404.869	2656.94
405.093	2398.94
405.317	2311.94
405.541	2437.94
405.765	2416.94
405.988	2428.94
406.212	2497.94
406.436	2534.94
406.66	2558.94
406.883	2648.94
407.107	2937.94
407.331	3231.94
407.555	3425.94
407.778	3212.94
408.002	2667.94
408.226	2545.94
408.449	2541.94
408.673	2487.94
408.896	2456.94
409.12	2559.94
409.344	2489.94
409.567	2368.94
409.791	2421.94
410.014	2465.94
410.238	2571.94
410.461	2811.94
410.685	2527.94
410.908	2355.94
411.132	2384.94
411.355	2434.94
411.578	2349.94
411.802	2347.94
412.025	2484.94
412.249	2371.94
412.472	2334.94
412.695	2282.94
412.919	2336.94
413.142	2253.94
413.365	2325.94
413.589	2389.94
413.812	2437.94
414.035	2575.94
414.258	2369.94
414.482	2325.94
414.705	2385.94
414.928	2263.94
415.151	2314.94
415.374	2340.94
415.597	2405.94
415.821	2389.94
416.044	2518.94
416.267	2438.94
416.49	2197.94
416.713	2225.94
416.936	2343.94
417.159	2401.94
417.382	2398.94
417.605	2232.94
417.828	2355.94
418.051	2378.94
418.274	2315.94
418.497	2226.94
418.72	2203.94
418.943	2228.94
419.166	2392.94
419.389	2493.94
419.611	2373.94
419.834	2272.94
420.057	2326.94
420.28	2306.94
420.503	2187.94
420.726	2295.94
420.948	2303.94
421.171	2184.94
421.394	2248.94
421.617	2326.94
421.839	2302.94
422.062	2278.94
422.285	2233.94
422.507	2187.94
422.73	2152.94
422.953	2111.94
423.175	2090.94
423.398	2205.94
423.621	2208.94
423.843	2239.94
424.066	2254.94
424.288	2373.94
424.511	2403.94
424.733	2351.94
424.956	2159.94
425.178	2110.94
425.401	2179.94
425.623	2214.94
425.846	2141.94
426.068	2277.94
426.291	2344.94
426.513	2323.94
426.735	2231.94
426.958	2444.94
427.18	2592.94
427.402	2297.94
427.625	2437.94
427.847	2461.94
428.069	2245.94
428.292	2223.94
428.514	2132.94
428.736	2136.94
428.958	2169.94
429.181	2184.94
429.403	2442.94
429.625	3056.94
429.847	2637.94
430.069	2241.94
430.292	2413.94
430.514	2566.94
430.736	2362.94
430.958	2455.94
431.18	2355.94
431.402	2147.94
431.624	2133.94
431.846	2115.94
432.068	2136.94
432.29	2159.94
432.512	2199.94
432.734	2226.94
432.956	2258.94
433.178	2342.94
433.4	2377.94
433.622	2314.94
433.844	2225.94
434.066	2152.94
434.287	2143.94
434.509	2230.94
434.731	2295.94
434.953	2507.94
435.175	2442.94
435.397	2260.94
435.618	2315.94
435.84	2289.94
436.062	2230.94
436.284	2213.94
436.505	2320.94
436.727	2357.94
436.949	2245.94
437.17	2149.94
437.392	2191.94
437.614	2201.94
437.835	2095.94
438.057	2295.94
438.278	2368.94
438.5	2233.94
438.721	2133.94
438.943	2149.94
439.165	2157.94
439.386	2124.94
439.608	2122.94
439.829	2135.94
440.05	2175.94
440.272	2119.94
440.493	2087.94
440.715	2146.94
440.936	2287.94
441.158	2553.94
441.379	2497.94
441.6	2383.94
441.822	2351.94
442.043	2313.94
442.264	2278.94
442.486	2146.94
442.707	2106.94
442.928	2151.94
443.149	2212.94
443.371	2390.94
443.592	2473.94
443.813	2388.94
444.034	2337.94
444.255	2348.94
444.476	2403.94
444.698	2461.94
444.919	2409.94
445.14	2464.94
445.361	2450.94
445.582	2634.94
445.803	2524.94
446.024	2367.94
446.245	2483.94
446.466	2383.94
446.687	2259.94
446.908	2216.94
447.129	2172.94
447.35	2212.94
447.571	2222.94
447.792	2126.94
448.013	2126.94
448.234	2141.94
448.455	2280.94
448.675	2301.94
448.896	2084.94
449.117	2048.94
449.338	2133.94
449.559	2237.94
449.779	2291.94
450	2574.94
450.221	2763.94
450.442	2691.94
450.662	2382.94
450.883	2101.94
451.104	1983.94
451.324	2122.94
451.545	2170.94
451.766	2099.94
451.986	2051.94
452.207	1992.94
452.428	1937.94
452.648	1901.94
452.869	1944.94
453.089	2093.94
453.31	2130.94
453.53	2195.94
453.751	2122.94
453.971	1969.94
454.192	2025.94
454.412	2169.94
454.633	2106.94
454.853	2017.94
455.073	1869.94
455.294	1891.94
455.514	1919.94
455.734	1939.94
455.955	1959.94
456.175	1928.94
456.395	1957.94
456.616	1999.94
456.836	2026.94
457.056	1997.94
457.276	1972.94
457.497	1915.94
457.717	1865.94
457.937	1873.94
458.157	1950.94
458.377	1927.94
458.598	1914.94
458.818	1947.94
459.038	2047.94
459.258	2169.94
459.478	2237.94
459.698	2105.94
459.918	2174.94
460.138	2274.94
460.358	2341.94
460.578	2293.94
460.798	2455.94
461.018	2528.94
461.238	2427.94
461.458	2286.94
461.678	2327.94
461.898	2304.94
462.118	2161.94
462.338	2298.94
462.558	2314.94
462.777	2279.94
462.997	2373.94
463.217	2559.94
463.437	2535.94
463.657	2367.94
463.876	2300.94
464.096	2288.94
464.316	2316.94
464.536	2381.94
464.755	2409.94
464.975	2467.94
465.195	2369.94
465.414	2458.94
465.634	2423.94
465.854	2332.94
466.073	2475.94
466.293	2414.94
466.512	2130.94
466.732	2106.94
466.951	2167.94
467.171	2193.94
467.391	2091.94
467.61	2051.94
467.829	2089.94
468.049	2255.94
468.268	2560.94
468.488	2370.94
468.707	2192.94
468.927	2175.94
469.146	2139.94
469.365	2075.94
469.585	2158.94
469.804	2131.94
470.023	2086.94
470.243	2139.94
470.462	2105.94
470.681	2034.94
470.901	2121.94
471.12	2093.94
471.339	2080.94
471.558	1983.94
471.777	2012.94
471.997	2030.94
472.216	2089.94
472.435	2051.94
472.654	2036.94
472.873	2140.94
473.092	2283.94
473.311	2180.94
473.53	2026.94
473.749	2035.94
473.968	2086.94
474.187	2203.94
474.406	2290.94
474.625	2193.94
474.844	2101.94
475.063	2090.94
475.282	2218.94
475.501	2131.94
475.72	2137.94
475.939	2275.94
476.158	2207.94
476.377	2141.94
476.596	2166.94
476.814	2202.94
477.033	2203.94
477.252	2301.94
477.471	2405.94
477.69	2210.94
477.908	2248.94
478.127	2323.94
478.346	2542.94
478.564	2613.94
478.783	2510.94
479.002	2608.94
479.22	2549.94
479.439	2661.94
479.658	2999.94
479.876	3012.94
480.095	2606.94
480.313	2462.94
480.532	2333.94
480.751	2346.94
480.969	2439.94
481.188	2408.94
481.406	2402.94
481.624	2294.94
481.843	2351.94
482.061	2405.94
482.28	2455.94
482.498	2504.94
482.717	2462.94
482.935	2350.94
483.153	2348.94
483.372	2334.94
483.59	2315.94
483.808	2383.94
484.027	2429.94
484.245	2561.94
484.463	2907.94
484.681	3473.94
484.9	2592.94
485.118	2406.94
485.336	2391.94
485.554	2513.94
485.772	2615.94
485.99	2559.94
486.209	2606.94
486.427	2545.94
486.645	2516.94
486.863	2520.94
487.081	2570.94
487.299	2666.94
487.517	2586.94
487.735	2421.94
487.953	2423.94
488.171	2451.94
488.389	2437.94
488.607	2413.94
488.825	2711.94
489.043	2782.94
489.261	2464.94
489.479	2601.94
489.696	2656.94
489.914	2620.94
490.132	2533.94
490.35	2491.94
490.568	2622.94
490.786	2491.94
491.003	2431.94
491.221	2460.94
491.439	2601.94
491.657	2594.94
491.874	2555.94
492.092	2560.94
492.31	2567.94
492.527	2541.94
492.745	2495.94
492.963	2543.94
493.18	2639.94
493.398	2781.94
493.615	2885.94
493.833	2654.94
494.05	2577.94
494.268	2544.94
494.485	2658.94
494.703	2587.94
494.92	2507.94
495.138	2494.94
495.355	2575.94
495.573	2669.94
495.79	2835.94
496.008	2940.94
496.225	2685.94
496.442	2673.94
496.66	2764.94
496.877	2701.94
497.094	2822.94
497.312	2875.94
497.529	2776.94
497.746	2862.94
497.963	3320.94
498.181	3861.94
498.398	3466.94
498.615	3365.94
498.832	3338.94
499.049	3273.94
499.267	3261.94
499.484	3481.94
499.701	3841.94
499.918	3834.94
500.135	4105.94
500.352	4372.94
500.569	4328.94
500.786	4608.94
501.003	4326.94
501.22	3917.94
501.437	3770.94
501.654	3670.94
501.871	3720.94
502.088	3263.94
502.305	3231.94
502.522	3141.94
502.739	2858.94
502.956	2876.94
503.172	2829.94
503.389	2735.94
503.606	2692.94
503.823	2706.94
504.04	2734.94
504.256	2733.94
504.473	2719.94
504.69	2824.94
504.907	2707.94
505.123	2583.94
505.34	2711.94
505.557	3541.94
505.773	2998.94
505.99	2507.94
506.207	2345.94
506.423	2351.94
506.64	2286.94
506.856	2328.94
507.073	2706.94
507.289	2841.94
507.506	2756.94
507.722	2405.94
507.939	2253.94
508.155	2253.94
508.372	2225.94
508.588	2205.94
508.805	2144.94
509.021	2103.94
509.238	2123.94
509.454	2078.94
509.67	2137.94
509.887	2080.94
510.103	2106.94
510.319	2127.94
510.536	2231.94
510.752	2337.94
510.968	2286.94
511.184	2416.94
511.401	2408.94
511.617	2105.94
511.833	2060.94
512.049	2056.94
512.265	2059.94
512.481	2015.94
512.698	2130.94
512.914	2240.94
513.13	2188.94
513.346	2061.94
513.562	2030.94
513.778	2054.94
513.994	2190.94
514.21	2196.94
514.426	2273.94
514.642	2523.94
514.858	2351.94
515.074	2159.94
515.29	2074.94
515.506	2110.94
515.721	2183.94
515.937	2218.94
516.153	2511.94
516.369	2423.94
516.585	2281.94
516.801	2152.94
517.016	2119.94
517.232	2182.94
517.448	2227.94
517.664	2254.94
517.879	2271.94
518.095	2434.94
518.311	2316.94
518.527	2161.94
518.742	2145.94
518.958	2052.94
519.173	2063.94
519.389	2111.94
519.605	2105.94
519.82	2144.94
520.036	2166.94
520.251	2073.94
520.467	2090.94
520.682	2258.94
520.898	2393.94
521.113	2131.94
521.329	2049.94
521.544	2192.94
521.76	2113.94
521.975	2007.94
522.19	2004.94
522.406	1969.94
522.621	2391.94
522.836	2424.94
523.052	1953.94
523.267	1983.94
523.482	1987.94
523.698	1902.94
523.913	1820.94
524.128	1888.94
524.343	1987.94
524.559	2078.94
524.774	1905.94
524.989	1878.94
525.204	1882.94
525.419	1862.94
525.634	1858.94
525.849	1881.94
526.064	1873.94
526.28	1894.94
526.495	1837.94
526.71	1833.94
526.925	1847.94
527.14	1812.94
527.355	1823.94
527.57	1775.94
527.785	1849.94
527.999	1855.94
528.214	1735.94
528.429	1729.94
528.644	1737.94
528.859	1779.94
529.074	1773.94
529.289	1790.94
529.503	1822.94
529.718	1828.94
529.933	1797.94
530.148	1697.94
530.363	1690.94
530.577	1774.94
530.792	1806.94
531.007	1849.94
531.221	1763.94
531.436	1783.94
531.651	1865.94
531.865	1977.94
532.08	1886.94
532.295	1758.94
532.509	1746.94
532.724	1731.94
532.938	1837.94
533.153	1926.94
533.367	1886.94
533.582	1809.94
533.796	1723.94
534.011	1789.94
534.225	1809.94
534.44	1759.94
534.654	1757.94
534.868	1741.94
535.083	1819.94
535.297	1862.94
535.511	1768.94
535.726	1775.94
535.94	1757.94
536.154	1762.94
536.369	1722.94
536.583	1712.94
536.797	1647.94
537.011	1753.94
537.225	1704.94
537.44	1646.94
537.654	1737.94
537.868	1665.94
538.082	1601.94
538.296	1623.94
538.51	1607.94
538.724	1623.94
538.938	1615.94
539.153	1674.94
539.367	1672.94
539.581	1654.94
539.795	1788.94
540.009	1705.94
540.222	1713.94
540.436	1707.94
540.65	1855.94
540.864	1901.94
541.078	1781.94
541.292	1646.94
541.506	1641.94
541.72	1658.94
541.934	1691.94
542.147	1724.94
542.361	1674.94
542.575	1610.94
542.789	1570.94
543.002	1551.94
543.216	1569.94
543.43	1697.94
543.644	1766.94
543.857	1837.94
544.071	1699.94
544.285	1709.94
544.498	1629.94
544.712	1651.94
544.925	1655.94
545.139	1749.94
545.352	1642.94
545.566	1593.94
545.779	1572.94
545.993	1614.94
546.206	1629.94
546.42	1586.94
546.633	1517.94
546.847	1505.94
547.06	1546.94
547.274	1554.94
547.487	1541.94
547.7	1546.94
547.914	1585.94
548.127	1625.94
548.34	1611.94
548.554	1615.94
548.767	1551.94
548.98	1569.94
549.193	1585.94
549.407	1660.94
549.62	1683.94
549.833	1596.94
550.046	1587.94
550.259	1546.94
550.473	1578.94
550.686	1546.94
550.899	1488.94
551.112	1507.94
551.325	1490.94
551.538	1587.94
551.751	1888.94
551.964	1542.94
552.177	1475.94
552.39	1529.94
552.603	1536.94
552.816	1537.94
553.029	1611.94
553.242	1694.94
553.455	1570.94
553.667	1544.94
553.88	1521.94
554.093	1520.94
554.306	1513.94
554.519	1457.94
554.732	1437.94
554.944	1463.94
555.157	1538.94
555.37	1449.94
555.583	1466.94
555.795	1397.94
556.008	1395.94
556.221	1367.94
556.433	1375.94
556.646	1347.94
556.859	1305.94
557.071	1335.94
557.284	1320.94
557.496	1341.94
557.709	1297.94
557.921	1287.94
558.134	1299.94
558.346	1309.94
558.559	1270.94
558.771	1269.94
558.984	1256.94
559.196	1247.94
559.409	1267.94
559.621	1280.94
559.833	1265.94
560.046	1317.94
560.258	1283.94
560.47	1279.94
560.683	1300.94
560.895	1240.94
561.107	1274.94
561.32	1307.94
561.532	1341.94
561.744	1271.94
561.956	1286.94
562.168	1282.94
562.381	1219.94
562.593	1201.94
562.805	1276.94
563.017	1235.94
563.229	1225.94
563.441	1293.94
563.653	1268.94
563.865	1250.94
564.077	1230.94
564.289	1257.94
564.501	1291.94
564.713	1291.94
564.925	1349.94
565.137	1457.94
565.349	1281.94
565.561	1311.94
565.773	1369.94
565.985	1349.94
566.197	1414.94
566.408	1566.94
566.62	1543.94
566.832	1511.94
567.044	1499.94
567.255	1529.94
567.467	1526.94
567.679	1581.94
567.891	1615.94
568.102	1568.94
568.314	1503.94
568.526	1437.94
568.737	1389.94
568.949	1328.94
569.161	1294.94
569.372	1230.94
569.584	1223.94
569.795	1203.94
570.007	1198.94
570.218	1151.94
570.43	1130.94
570.641	1158.94
570.853	1170.94
571.064	1159.94
571.276	1123.94
571.487	1113.94
571.698	1090.94
571.91	1079.94
572.121	1035.94
572.333	1039.94
572.544	1023.94
572.755	1014.94
572.966	988.94
573.178	1021.94
573.389	1013.94
573.6	1045.94
573.811	1139.94
574.023	1049.94
574.234	967.94
574.445	977.94
574.656	965.94
574.867	949.94
575.078	949.94
575.289	958.94
575.501	951.94
575.712	929.94
575.923	940.94
576.134	941.94
576.345	927.94
576.556	933.94
576.767	925.94
576.978	885.94
577.188	865.94
577.399	895.94
577.61	898.94
577.821	875.94
578.032	866.94
578.243	856.94
578.454	888.94
578.665	874.94
578.875	841.94
579.086	832.94
579.297	868.94
579.508	883.94
579.718	901.94
579.929	869.94
580.14	830.94
580.35	823.94
580.561	857.94
580.772	938.94
580.982	885.94
581.193	810.94
581.403	824.94
581.614	809.94
581.825	814.94
582.035	795.94
582.246	799.94
582.456	834.94
582.667	837.94
582.877	824.94
583.087	803.94
583.298	771.94
583.508	808.94
583.719	794.94
583.929	806.94
584.139	794.94
584.35	793.94
584.56	759.94
584.77	794.94
584.981	789.94
585.191	793.94
585.401	801.94
585.611	818.94
585.821	769.94
586.032	792.94
586.242	762.94
586.452	770.94
586.662	816.94
586.872	786.94
587.082	766.94
587.292	789.94
587.502	798.94
587.713	815.94
587.923	771.94
588.133	749.94
588.343	793.94
588.553	770.94
588.762	752.94
588.972	769.94
589.182	773.94
589.392	787.94
589.602	791.94
589.812	764.94
590.022	723.94
590.232	728.94
590.441	771.94
590.651	757.94
590.861	786.94
591.071	749.94
591.281	738.94
591.49	746.94
591.7	746.94
591.91	734.94
592.119	742.94
592.329	776.94
592.539	804.94
592.748	756.94
592.958	786.94
593.167	799.94
593.377	811.94
593.587	806.94
593.796	807.94
594.006	802.94
594.215	826.94
594.424	786.94
594.634	807.94
594.843	783.94
595.053	773.94
595.262	759.94
595.472	768.94
595.681	749.94
595.89	738.94
596.1	705.94
596.309	731.94
596.518	687.94
596.727	709.94
596.937	683.94
597.146	645.94
597.355	671.94
597.564	649.94
597.774	682.94
597.983	658.94
598.192	637.94
598.401	659.94
598.61	649.94
598.819	661.94
599.028	646.94
599.237	661.94
599.446	618.94
599.655	624.94
599.864	645.94
600.073	622.94
600.282	603.94
600.491	633.94
600.7	611.94
600.909	610.94
601.118	637.94
601.327	641.94
601.536	611.94
601.745	612.94
601.953	603.94
602.162	599.94
602.371	630.94
602.58	606.94
602.789	616.94
602.997	614.94
603.206	587.94
603.415	608.94
603.623	597.94
603.832	592.94
604.041	591.94
604.249	585.94
604.458	591.94
604.666	625.94
604.875	577.94
605.084	598.94
605.292	603.94
605.501	569.94
605.709	569.94
605.918	575.94
606.126	580.94
606.334	565.94
606.543	578.94
606.751	574.94
606.96	570.94
607.168	573.94
607.376	550.94
607.585	558.94
607.793	552.94
608.001	567.94
608.21	587.94
608.418	574.94
608.626	565.94
608.834	565.94
609.043	535.94
609.251	562.94
609.459	549.94
609.667	559.94
609.875	577.94
610.083	575.94
610.291	583.94
610.499	566.94
610.707	551.94
610.916	553.94
611.124	555.94
611.332	557.94
611.54	505.94
611.748	544.94
611.955	545.94
612.163	520.94
612.371	532.94
612.579	529.94
612.787	535.94
612.995	558.94
613.203	533.94
613.411	536.94
613.618	540.94
613.826	547.94
614.034	522.94
614.242	543.94
614.449	516.94
614.657	553.94
614.865	512.94
615.072	537.94
615.28	515.94
615.488	533.94
615.695	563.94
615.903	549.94
616.111	525.94
616.318	523.94
616.526	529.94
616.733	510.94
616.941	535.94
617.148	513.94
617.356	498.94
617.563	518.94
617.771	516.94
617.978	517.94
618.185	517.94
618.393	527.94
618.6	510.94
618.807	511.94
619.015	490.94
619.222	528.94
619.429	507.94
619.637	501.94
619.844	480.94
620.051	493.94
620.258	470.94
620.466	507.94
620.673	505.94
620.88	445.94
621.087	458.94
621.294	455.94
621.501	465.94
621.708	479.94
621.915	493.94
622.122	485.94
622.329	496.94
622.536	475.94
622.743	454.94
622.95	456.94
623.157	454.94
623.364	481.94
623.571	450.94
623.778	455.94
623.985	469.94
624.192	461.94
624.399	437.94
624.606	451.94
624.812	434.94
625.019	428.94
625.226	445.94
625.433	454.94
625.639	459.94
625.846	424.94
626.053	426.94
626.259	439.94
626.466	424.94
626.673	408.94
626.879	405.94
627.086	423.94
627.293	420.94
627.499	422.94
627.706	421.94
627.912	440.94
628.119	422.94
628.325	420.94
628.532	429.94
628.738	415.94
628.945	435.94
629.151	426.94
629.357	403.94
629.564	429.94
629.77	397.94
629.976	400.94
630.183	415.94
630.389	400.94
630.595	395.94
630.802	384.94
631.008	382.94
631.214	391.94
631.42	385.94
631.627	361.94
631.833	399.94
632.039	407.94
632.245	370.94
632.451	379.94
632.657	374.94
632.863	375.94
633.069	398.94
633.275	389.94
633.481	393.94
633.688	382.94
633.893	358.94
634.099	368.94
634.305	360.94
634.511	379.94
634.717	358.94
634.923	355.94
635.129	350.94
635.335	359.94
635.541	361.94
635.747	369.94
635.952	362.94
636.158	354.94
636.364	368.94
636.57	361.94
636.775	387.94
636.981	362.94
637.187	360.94
637.392	363.94
637.598	355.94
637.804	358.94
638.009	353.94
638.215	355.94
638.421	357.94
638.626	360.94
638.832	343.94
639.037	339.94
639.243	346.94
639.448	338.94
639.654	335.94
639.859	343.94
640.065	324.94
640.27	332.94
640.475	339.94
640.681	341.94
640.886	348.94
641.091	327.94
641.297	330.94
641.502	308.94
641.707	351.94
641.913	331.94
642.118	316.94
642.323	336.94
642.528	309.94
642.733	327.94
642.939	325.94
643.144	314.94
643.349	329.94
643.554	323.94
643.759	331.94
643.964	337.94
644.169	325.94
644.374	330.94
644.579	329.94
644.784	334.94
644.989	314.94
645.194	321.94
645.399	309.94
645.604	299.94
645.809	305.94
646.014	327.94
646.219	309.94
646.423	336.94
646.628	327.94
646.833	317.94
647.038	318.94
647.243	330.94
647.447	317.94
647.652	325.94
647.857	330.94
648.062	322.94
648.266	319.94
648.471	334.94
648.676	331.94
648.88	329.94
649.085	327.94
649.289	307.94
649.494	322.94
649.698	310.94
649.903	311.94
650.107	286.94
650.312	303.94
650.516	294.94
650.721	291.94
650.925	276.94
651.13	292.94
651.334	278.94
651.539	278.94
651.743	277.94
651.947	290.94
652.152	277.94
652.356	261.94
652.56	282.94
652.764	267.94
652.969	255.94
653.173	253.94
653.377	247.94
653.581	240.94
653.785	264.94
653.99	245.94
654.194	255.94
654.398	254.94
654.602	256.94
654.806	235.94
655.01	249.94
655.214	263.94
655.418	237.94
655.622	241.94
655.826	241.94
656.03	240.94
656.234	274.94
656.438	272.94
656.642	275.94
656.846	253.94
657.049	245.94
657.253	214.94
657.457	213.94
657.661	210.94
657.865	193.94
658.068	170.94
658.272	175.94
658.476	164.94
658.68	161.94
658.883	149.94
659.087	157.94
659.291	142.94
659.494	131.94
659.698	145.94
659.901	127.94
660.105	127.94
660.309	125.94
660.512	124.94
660.716	115.94
660.919	109.94
661.123	115.94
661.326	118.94
661.53	110.94
661.733	102.94
661.936	89.94
662.14	97.94
662.343	90.94
662.546	100.94
662.75	95.94
662.953	85.94
663.156	99.94
663.36	91.94
663.563	82.94
663.766	76.94
663.969	72.94
664.173	89.94
664.376	81.94
664.579	84.94
664.782	64.94
664.985	91.94
665.188	73.94
665.391	88.94
665.594	86.94
665.797	72.94
666	86.94
666.203	60.94
666.406	83.94
666.609	78.94
666.812	83.94
667.015	71.94
667.218	88.94
667.421	90.94
667.624	82.94
667.827	111.94
668.03	66.94
668.232	86.94
668.435	80.94
668.638	86.94
668.841	84.94
669.043	87.94
669.246	75.94
669.449	90.94
669.651	81.94
669.854	75.94
670.057	81.94
670.259	68.94
670.462	75.94
670.665	94.94
670.867	83.94
671.07	87.94
671.272	77.94
671.475	93.94
671.677	92.94
671.88	75.94
672.082	77.94
672.284	83.94
672.487	87.94
672.689	82.94
672.892	91.94
