Data from WStandard_LampEnergy10_LIBS07252019.E.O._I.C._HRD10591_15-54-34-928.txt Node
Date: Thu Jul 25 15:54:34 EDT 2019
User: cochatt
Spectrometer: HR+D1059
Trigger mode: 1
Integration Time (sec): 1.000000E-1
Scans to average: 1
Electric dark correction enabled: true
Nonlinearity correction enabled: false
Boxcar width: 0
XAxis mode: Wavelengths
Number of Pixels in Spectrum: 2048
>>>>>Begin Spectral Data<<<<<
223.165	-21.44
223.4	-21.44
223.635	-21.44
223.869	-25.44
224.104	-23.44
224.338	-15.44
224.573	-13.44
224.808	-12.44
225.042	-3.44
225.277	-4.44
225.511	3.56
225.746	4.56
225.98	1.56
226.215	15.56
226.449	12.56
226.683	19.56
226.918	16.56
227.152	45.56
227.387	22.56
227.621	49.56
227.856	35.56
228.09	42.56
228.324	28.56
228.559	49.56
228.793	83.56
229.027	134.56
229.262	142.56
229.496	150.56
229.73	154.56
229.964	165.56
230.199	167.56
230.433	179.56
230.667	177.56
230.901	175.56
231.136	188.56
231.37	181.56
231.604	177.56
231.838	162.56
232.072	168.56
232.306	160.56
232.541	182.56
232.775	202.56
233.009	211.56
233.243	209.56
233.477	184.56
233.711	208.56
233.945	202.56
234.179	200.56
234.413	200.56
234.647	198.56
234.881	194.56
235.115	192.56
235.349	194.56
235.583	205.56
235.817	192.56
236.051	180.56
236.285	181.56
236.519	213.56
236.753	234.56
236.987	212.56
237.221	224.56
237.455	220.56
237.689	229.56
237.922	223.56
238.156	211.56
238.39	219.56
238.624	229.56
238.858	249.56
239.091	258.56
239.325	254.56
239.559	278.56
239.793	275.56
240.027	297.56
240.26	300.56
240.494	258.56
240.728	247.56
240.961	240.56
241.195	241.56
241.429	244.56
241.662	262.56
241.896	245.56
242.13	239.56
242.363	266.56
242.597	262.56
242.83	270.56
243.064	278.56
243.298	308.56
243.531	288.56
243.765	284.56
243.998	285.56
244.232	255.56
244.465	252.56
244.699	256.56
244.932	292.56
245.166	299.56
245.399	289.56
245.633	274.56
245.866	291.56
246.099	274.56
246.333	294.56
246.566	308.56
246.8	296.56
247.033	345.56
247.266	323.56
247.5	313.56
247.733	320.56
247.966	333.56
248.2	344.56
248.433	340.56
248.666	367.56
248.899	405.56
249.133	430.56
249.366	458.56
249.599	377.56
249.832	355.56
250.066	365.56
250.299	379.56
250.532	334.56
250.765	309.56
250.998	326.56
251.231	326.56
251.465	327.56
251.698	328.56
251.931	370.56
252.164	355.56
252.397	365.56
252.63	345.56
252.863	341.56
253.096	332.56
253.329	329.56
253.562	352.56
253.795	362.56
254.028	364.56
254.261	336.56
254.494	345.56
254.727	331.56
254.96	337.56
255.193	389.56
255.426	410.56
255.659	439.56
255.892	447.56
256.124	387.56
256.357	377.56
256.59	391.56
256.823	397.56
257.056	427.56
257.289	490.56
257.521	501.56
257.754	474.56
257.987	458.56
258.22	483.56
258.452	456.56
258.685	397.56
258.918	398.56
259.151	395.56
259.383	381.56
259.616	343.56
259.849	375.56
260.081	431.56
260.314	443.56
260.547	468.56
260.779	456.56
261.012	453.56
261.244	401.56
261.477	382.56
261.71	386.56
261.942	399.56
262.175	383.56
262.407	376.56
262.64	403.56
262.872	352.56
263.105	379.56
263.337	364.56
263.57	350.56
263.802	370.56
264.035	361.56
264.267	351.56
264.499	340.56
264.732	363.56
264.964	385.56
265.197	396.56
265.429	445.56
265.661	453.56
265.894	476.56
266.126	497.56
266.358	465.56
266.591	466.56
266.823	495.56
267.055	457.56
267.287	456.56
267.52	440.56
267.752	451.56
267.984	444.56
268.216	445.56
268.448	487.56
268.681	437.56
268.913	435.56
269.145	408.56
269.377	415.56
269.609	447.56
269.841	512.56
270.073	571.56
270.306	634.56
270.538	599.56
270.77	552.56
271.002	467.56
271.234	473.56
271.466	466.56
271.698	543.56
271.93	599.56
272.162	597.56
272.394	555.56
272.626	497.56
272.858	482.56
273.09	401.56
273.322	430.56
273.553	391.56
273.785	384.56
274.017	431.56
274.249	449.56
274.481	442.56
274.713	405.56
274.945	405.56
275.176	405.56
275.408	412.56
275.64	416.56
275.872	415.56
276.104	445.56
276.335	490.56
276.567	534.56
276.799	531.56
277.031	481.56
277.262	457.56
277.494	484.56
277.726	521.56
277.957	508.56
278.189	465.56
278.421	443.56
278.652	427.56
278.884	435.56
279.115	427.56
279.347	437.56
279.579	436.56
279.81	427.56
280.042	477.56
280.273	517.56
280.505	497.56
280.736	474.56
280.968	482.56
281.199	429.56
281.431	396.56
281.662	422.56
281.894	426.56
282.125	441.56
282.356	463.56
282.588	469.56
282.819	488.56
283.051	467.56
283.282	495.56
283.513	476.56
283.745	428.56
283.976	413.56
284.207	440.56
284.439	417.56
284.67	454.56
284.901	451.56
285.132	461.56
285.364	449.56
285.595	476.56
285.826	458.56
286.057	446.56
286.288	459.56
286.52	482.56
286.751	499.56
286.982	488.56
287.213	453.56
287.444	427.56
287.675	443.56
287.906	457.56
288.138	473.56
288.369	470.56
288.6	455.56
288.831	466.56
289.062	432.56
289.293	453.56
289.524	446.56
289.755	452.56
289.986	442.56
290.217	427.56
290.448	443.56
290.679	454.56
290.91	455.56
291.141	466.56
291.371	474.56
291.602	497.56
291.833	476.56
292.064	517.56
292.295	476.56
292.526	503.56
292.757	490.56
292.987	491.56
293.218	505.56
293.449	540.56
293.68	569.56
293.91	578.56
294.141	567.56
294.372	530.56
294.603	557.56
294.833	572.56
295.064	532.56
295.295	504.56
295.525	453.56
295.756	454.56
295.987	432.56
296.217	453.56
296.448	455.56
296.679	449.56
296.909	455.56
297.14	458.56
297.37	472.56
297.601	511.56
297.831	544.56
298.062	516.56
298.292	472.56
298.523	465.56
298.753	462.56
298.984	479.56
299.214	466.56
299.445	503.56
299.675	487.56
299.905	502.56
300.136	492.56
300.366	487.56
300.597	460.56
300.827	457.56
301.057	499.56
301.288	501.56
301.518	512.56
301.748	547.56
301.979	570.56
302.209	577.56
302.439	572.56
302.669	583.56
302.9	555.56
303.13	522.56
303.36	516.56
303.59	516.56
303.82	516.56
304.051	498.56
304.281	544.56
304.511	552.56
304.741	576.56
304.971	617.56
305.201	616.56
305.431	567.56
305.661	495.56
305.891	462.56
306.121	473.56
306.352	475.56
306.582	517.56
306.812	562.56
307.042	547.56
307.272	569.56
307.502	564.56
307.731	620.56
307.961	653.56
308.191	583.56
308.421	518.56
308.651	479.56
308.881	489.56
309.111	483.56
309.341	463.56
309.571	487.56
309.8	506.56
310.03	500.56
310.26	494.56
310.49	505.56
310.72	502.56
310.949	527.56
311.179	529.56
311.409	501.56
311.639	500.56
311.868	498.56
312.098	509.56
312.328	498.56
312.557	485.56
312.787	497.56
313.017	519.56
313.246	516.56
313.476	491.56
313.706	538.56
313.935	520.56
314.165	543.56
314.394	553.56
314.624	576.56
314.853	623.56
315.083	625.56
315.312	626.56
315.542	587.56
315.771	522.56
316.001	560.56
316.23	570.56
316.46	556.56
316.689	553.56
316.919	519.56
317.148	529.56
317.377	536.56
317.607	579.56
317.836	638.56
318.065	647.56
318.295	612.56
318.524	581.56
318.753	554.56
318.983	551.56
319.212	559.56
319.441	572.56
319.67	552.56
319.9	555.56
320.129	595.56
320.358	591.56
320.587	608.56
320.816	612.56
321.046	603.56
321.275	586.56
321.504	567.56
321.733	616.56
321.962	610.56
322.191	553.56
322.42	543.56
322.649	554.56
322.878	563.56
323.108	560.56
323.337	568.56
323.566	575.56
323.795	575.56
324.024	577.56
324.253	557.56
324.482	560.56
324.71	549.56
324.939	523.56
325.168	563.56
325.397	568.56
325.626	561.56
325.855	551.56
326.084	567.56
326.313	580.56
326.542	565.56
326.77	588.56
326.999	577.56
327.228	533.56
327.457	558.56
327.686	543.56
327.914	559.56
328.143	572.56
328.372	535.56
328.6	547.56
328.829	535.56
329.058	531.56
329.287	554.56
329.515	584.56
329.744	592.56
329.972	612.56
330.201	602.56
330.43	631.56
330.658	585.56
330.887	591.56
331.115	605.56
331.344	594.56
331.572	608.56
331.801	595.56
332.03	608.56
332.258	614.56
332.486	605.56
332.715	595.56
332.943	593.56
333.172	599.56
333.4	609.56
333.629	619.56
333.857	668.56
334.085	737.56
334.314	801.56
334.542	815.56
334.771	753.56
334.999	699.56
335.227	637.56
335.455	635.56
335.684	641.56
335.912	657.56
336.14	659.56
336.369	598.56
336.597	607.56
336.825	601.56
337.053	626.56
337.281	673.56
337.51	677.56
337.738	669.56
337.966	628.56
338.194	581.56
338.422	565.56
338.65	566.56
338.878	585.56
339.106	577.56
339.334	542.56
339.562	549.56
339.79	593.56
340.018	612.56
340.246	651.56
340.474	612.56
340.702	593.56
340.93	610.56
341.158	616.56
341.386	596.56
341.614	621.56
341.842	595.56
342.07	602.56
342.298	595.56
342.526	586.56
342.754	582.56
342.981	598.56
343.209	585.56
343.437	600.56
343.665	604.56
343.893	616.56
344.12	625.56
344.348	643.56
344.576	612.56
344.804	597.56
345.031	579.56
345.259	571.56
345.487	562.56
345.714	565.56
345.942	550.56
346.17	553.56
346.397	573.56
346.625	569.56
346.853	548.56
347.08	513.56
347.308	521.56
347.535	564.56
347.763	591.56
347.99	558.56
348.218	560.56
348.445	570.56
348.673	583.56
348.9	599.56
349.128	616.56
349.355	587.56
349.583	592.56
349.81	579.56
350.037	501.56
350.265	507.56
350.492	534.56
350.72	557.56
350.947	580.56
351.174	588.56
351.402	545.56
351.629	527.56
351.856	508.56
352.083	525.56
352.311	511.56
352.538	549.56
352.765	559.56
352.992	595.56
353.22	565.56
353.447	553.56
353.674	556.56
353.901	552.56
354.128	545.56
354.355	562.56
354.583	571.56
354.81	592.56
355.037	582.56
355.264	588.56
355.491	563.56
355.718	567.56
355.945	561.56
356.172	563.56
356.399	546.56
356.626	552.56
356.853	573.56
357.08	634.56
357.307	651.56
357.534	653.56
357.761	600.56
357.988	556.56
358.215	553.56
358.441	530.56
358.668	527.56
358.895	543.56
359.122	608.56
359.349	627.56
359.576	627.56
359.802	544.56
360.029	567.56
360.256	531.56
360.483	560.56
360.709	586.56
360.936	595.56
361.163	611.56
361.39	682.56
361.616	711.56
361.843	713.56
362.07	633.56
362.296	596.56
362.523	569.56
362.749	582.56
362.976	596.56
363.203	593.56
363.429	547.56
363.656	542.56
363.882	585.56
364.109	652.56
364.335	680.56
364.562	616.56
364.788	595.56
365.015	564.56
365.241	549.56
365.468	582.56
365.694	585.56
365.92	610.56
366.147	583.56
366.373	585.56
366.599	540.56
366.826	558.56
367.052	573.56
367.278	573.56
367.505	574.56
367.731	591.56
367.957	593.56
368.184	613.56
368.41	677.56
368.636	664.56
368.862	663.56
369.089	670.56
369.315	651.56
369.541	610.56
369.767	571.56
369.993	586.56
370.219	558.56
370.445	629.56
370.672	653.56
370.898	673.56
371.124	639.56
371.35	612.56
371.576	655.56
371.802	674.56
372.028	627.56
372.254	612.56
372.48	604.56
372.706	581.56
372.932	571.56
373.158	602.56
373.384	616.56
373.61	635.56
373.835	649.56
374.061	627.56
374.287	620.56
374.513	613.56
374.739	647.56
374.965	635.56
375.191	635.56
375.416	630.56
375.642	652.56
375.868	689.56
376.094	706.56
376.319	673.56
376.545	644.56
376.771	668.56
376.997	705.56
377.222	675.56
377.448	644.56
377.674	664.56
377.899	669.56
378.125	699.56
378.35	691.56
378.576	627.56
378.802	635.56
379.027	628.56
379.253	631.56
379.478	611.56
379.704	637.56
379.929	623.56
380.155	645.56
380.38	647.56
380.606	635.56
380.831	651.56
381.057	705.56
381.282	691.56
381.507	699.56
381.733	759.56
381.958	743.56
382.184	671.56
382.409	663.56
382.634	676.56
382.86	679.56
383.085	687.56
383.31	739.56
383.535	769.56
383.761	799.56
383.986	737.56
384.211	721.56
384.436	730.56
384.662	766.56
384.887	781.56
385.112	745.56
385.337	754.56
385.562	727.56
385.787	731.56
386.013	743.56
386.238	755.56
386.463	749.56
386.688	813.56
386.913	856.56
387.138	799.56
387.363	774.56
387.588	758.56
387.813	774.56
388.038	786.56
388.263	806.56
388.488	752.56
388.713	717.56
388.938	704.56
389.163	733.56
389.387	755.56
389.612	715.56
389.837	749.56
390.062	775.56
390.287	771.56
390.512	751.56
390.736	744.56
390.961	737.56
391.186	706.56
391.411	740.56
391.636	735.56
391.86	725.56
392.085	768.56
392.31	733.56
392.534	740.56
392.759	748.56
392.984	756.56
393.208	787.56
393.433	780.56
393.658	810.56
393.882	812.56
394.107	770.56
394.331	770.56
394.556	757.56
394.78	767.56
395.005	821.56
395.229	823.56
395.454	861.56
395.678	844.56
395.903	829.56
396.127	799.56
396.352	812.56
396.576	843.56
396.801	856.56
397.025	833.56
397.249	829.56
397.474	799.56
397.698	835.56
397.922	869.56
398.147	884.56
398.371	913.56
398.595	903.56
398.82	879.56
399.044	888.56
399.268	920.56
399.492	964.56
399.717	964.56
399.941	982.56
400.165	963.56
400.389	959.56
400.613	984.56
400.837	1139.56
401.062	1179.56
401.286	1005.56
401.51	980.56
401.734	984.56
401.958	923.56
402.182	908.56
402.406	884.56
402.63	851.56
402.854	881.56
403.078	886.56
403.302	904.56
403.526	922.56
403.75	931.56
403.974	948.56
404.198	925.56
404.422	971.56
404.645	984.56
404.869	959.56
405.093	904.56
405.317	895.56
405.541	905.56
405.765	906.56
405.988	937.56
406.212	959.56
406.436	927.56
406.66	988.56
406.883	1027.56
407.107	1117.56
407.331	1216.56
407.555	1247.56
407.778	1113.56
408.002	984.56
408.226	965.56
408.449	960.56
408.673	942.56
408.896	957.56
409.12	944.56
409.344	948.56
409.567	918.56
409.791	939.56
410.014	949.56
410.238	1008.56
410.461	1038.56
410.685	937.56
410.908	941.56
411.132	939.56
411.355	915.56
411.578	913.56
411.802	940.56
412.025	959.56
412.249	936.56
412.472	877.56
412.695	906.56
412.919	895.56
413.142	911.56
413.365	899.56
413.589	922.56
413.812	981.56
414.035	983.56
414.258	941.56
414.482	896.56
414.705	921.56
414.928	891.56
415.151	888.56
415.374	892.56
415.597	911.56
415.821	939.56
416.044	952.56
416.267	931.56
416.49	893.56
416.713	908.56
416.936	953.56
417.159	994.56
417.382	953.56
417.605	935.56
417.828	947.56
418.051	930.56
418.274	938.56
418.497	917.56
418.72	921.56
418.943	897.56
419.166	966.56
419.389	1009.56
419.611	940.56
419.834	925.56
420.057	943.56
420.28	915.56
420.503	942.56
420.726	945.56
420.948	949.56
421.171	921.56
421.394	959.56
421.617	973.56
421.839	969.56
422.062	967.56
422.285	957.56
422.507	941.56
422.73	883.56
422.953	880.56
423.175	873.56
423.398	907.56
423.621	926.56
423.843	926.56
424.066	978.56
424.288	1019.56
424.511	1055.56
424.733	955.56
424.956	892.56
425.178	922.56
425.401	933.56
425.623	944.56
425.846	937.56
426.068	963.56
426.291	965.56
426.513	946.56
426.735	950.56
426.958	1044.56
427.18	1039.56
427.402	1023.56
427.625	1015.56
427.847	978.56
428.069	918.56
428.292	915.56
428.514	921.56
428.736	899.56
428.958	922.56
429.181	962.56
429.403	1042.56
429.625	1232.56
429.847	1025.56
430.069	945.56
430.292	1051.56
430.514	1042.56
430.736	991.56
430.958	948.56
431.18	899.56
431.402	898.56
431.624	846.56
431.846	811.56
432.068	723.56
432.29	722.56
432.512	798.56
432.734	888.56
432.956	928.56
433.178	969.56
433.4	978.56
433.622	964.56
433.844	919.56
434.066	842.56
434.287	807.56
434.509	781.56
434.731	800.56
434.953	921.56
435.175	921.56
435.397	907.56
435.618	879.56
435.84	815.56
436.062	818.56
436.284	920.56
436.505	931.56
436.727	905.56
436.949	903.56
437.17	928.56
437.392	887.56
437.614	834.56
437.835	805.56
438.057	829.56
438.278	853.56
438.5	862.56
438.721	892.56
438.943	923.56
439.165	935.56
439.386	908.56
439.608	941.56
439.829	969.56
440.05	966.56
440.272	935.56
440.493	949.56
440.715	945.56
440.936	1002.56
441.158	1053.56
441.379	1057.56
441.6	1039.56
441.822	1010.56
442.043	1001.56
442.264	975.56
442.486	950.56
442.707	945.56
442.928	935.56
443.149	986.56
443.371	982.56
443.592	1018.56
443.813	1014.56
444.034	1011.56
444.255	1013.56
444.476	1024.56
444.698	1022.56
444.919	1059.56
445.14	1169.56
445.361	1083.56
445.582	1085.56
445.803	1064.56
446.024	1032.56
446.245	1068.56
446.466	1058.56
446.687	1056.56
446.908	1057.56
447.129	1034.56
447.35	1013.56
447.571	968.56
447.792	933.56
448.013	960.56
448.234	927.56
448.455	983.56
448.675	954.56
448.896	913.56
449.117	919.56
449.338	928.56
449.559	962.56
449.779	959.56
450	994.56
450.221	1041.56
450.442	1023.56
450.662	970.56
450.883	897.56
451.104	879.56
451.324	866.56
451.545	893.56
451.766	857.56
451.986	844.56
452.207	827.56
452.428	800.56
452.648	791.56
452.869	791.56
453.089	779.56
453.31	758.56
453.53	757.56
453.751	746.56
453.971	713.56
454.192	735.56
454.412	783.56
454.633	778.56
454.853	790.56
455.073	746.56
455.294	768.56
455.514	758.56
455.734	756.56
455.955	780.56
456.175	755.56
456.395	717.56
456.616	758.56
456.836	740.56
457.056	723.56
457.276	714.56
457.497	726.56
457.717	680.56
457.937	678.56
458.157	704.56
458.377	709.56
458.598	673.56
458.818	676.56
459.038	714.56
459.258	704.56
459.478	713.56
459.698	675.56
459.918	734.56
460.138	819.56
460.358	807.56
460.578	809.56
460.798	864.56
461.018	885.56
461.238	838.56
461.458	861.56
461.678	827.56
461.898	823.56
462.118	810.56
462.338	859.56
462.558	866.56
462.777	833.56
462.997	879.56
463.217	866.56
463.437	870.56
463.657	847.56
463.876	823.56
464.096	835.56
464.316	827.56
464.536	871.56
464.755	884.56
464.975	874.56
465.195	846.56
465.414	872.56
465.634	882.56
465.854	881.56
466.073	946.56
466.293	938.56
466.512	875.56
466.732	891.56
466.951	889.56
467.171	886.56
467.391	864.56
467.61	877.56
467.829	903.56
468.049	988.56
468.268	1040.56
468.488	940.56
468.707	936.56
468.927	954.56
469.146	905.56
469.365	898.56
469.585	935.56
469.804	905.56
470.023	937.56
470.243	931.56
470.462	916.56
470.681	922.56
470.901	919.56
471.12	905.56
471.339	951.56
471.558	915.56
471.777	870.56
471.997	913.56
472.216	826.56
472.435	784.56
472.654	777.56
472.873	796.56
473.092	866.56
473.311	811.56
473.53	801.56
473.749	823.56
473.968	859.56
474.187	841.56
474.406	857.56
474.625	864.56
474.844	865.56
475.063	884.56
475.282	859.56
475.501	841.56
475.72	845.56
475.939	882.56
476.158	889.56
476.377	868.56
476.596	841.56
476.814	854.56
477.033	797.56
477.252	836.56
477.471	886.56
477.69	919.56
477.908	935.56
478.127	992.56
478.346	995.56
478.564	983.56
478.783	1019.56
479.002	998.56
479.22	986.56
479.439	1022.56
479.658	1049.56
479.876	976.56
480.095	884.56
480.313	889.56
480.532	894.56
480.751	881.56
480.969	831.56
481.188	799.56
481.406	781.56
481.624	790.56
481.843	800.56
482.061	823.56
482.28	864.56
482.498	891.56
482.717	855.56
482.935	856.56
483.153	972.56
483.372	1015.56
483.59	1023.56
483.808	975.56
484.027	932.56
484.245	1010.56
484.463	1221.56
484.681	1283.56
484.9	1035.56
485.118	985.56
485.336	933.56
485.554	915.56
485.772	900.56
485.99	885.56
486.209	893.56
486.427	896.56
486.645	960.56
486.863	979.56
487.081	1015.56
487.299	1020.56
487.517	1019.56
487.735	1127.56
487.953	1183.56
488.171	1178.56
488.389	1110.56
488.607	1077.56
488.825	1110.56
489.043	1056.56
489.261	1004.56
489.479	1036.56
489.696	1048.56
489.914	1092.56
490.132	1028.56
490.35	1106.56
490.568	1158.56
490.786	1170.56
491.003	1164.56
491.221	1225.56
491.439	1297.56
491.657	1322.56
491.874	1370.56
492.092	1465.56
492.31	1473.56
492.527	1453.56
492.745	1366.56
492.963	1305.56
493.18	1313.56
493.398	1395.56
493.615	1348.56
493.833	1252.56
494.05	1255.56
494.268	1234.56
494.485	1251.56
494.703	1215.56
494.92	1235.56
495.138	1195.56
495.355	1223.56
495.573	1305.56
495.79	1283.56
496.008	1267.56
496.225	1219.56
496.442	1206.56
496.66	1247.56
496.877	1217.56
497.094	1256.56
497.312	1206.56
497.529	1186.56
497.746	1186.56
497.963	1280.56
498.181	1311.56
498.398	1237.56
498.615	1213.56
498.832	1137.56
499.049	1164.56
499.267	1206.56
499.484	1219.56
499.701	1353.56
499.918	1388.56
500.135	1485.56
500.352	1576.56
500.569	1596.56
500.786	1699.56
501.003	1537.56
501.22	1420.56
501.437	1393.56
501.654	1413.56
501.871	1355.56
502.088	1169.56
502.305	1199.56
502.522	1138.56
502.739	1087.56
502.956	1084.56
503.172	1044.56
503.389	1030.56
503.606	1003.56
503.823	972.56
504.04	986.56
504.256	995.56
504.473	1008.56
504.69	1032.56
504.907	963.56
505.123	956.56
505.34	1082.56
505.557	1354.56
505.773	1126.56
505.99	957.56
506.207	905.56
506.423	879.56
506.64	885.56
506.856	916.56
507.073	1000.56
507.289	1099.56
507.506	1027.56
507.722	887.56
507.939	860.56
508.155	870.56
508.372	840.56
508.588	820.56
508.805	767.56
509.021	761.56
509.238	746.56
509.454	744.56
509.67	759.56
509.887	732.56
510.103	751.56
510.319	724.56
510.536	761.56
510.752	779.56
510.968	732.56
511.184	743.56
511.401	765.56
511.617	711.56
511.833	679.56
512.049	702.56
512.265	705.56
512.481	700.56
512.698	743.56
512.914	777.56
513.13	749.56
513.346	699.56
513.562	667.56
513.778	697.56
513.994	735.56
514.21	741.56
514.426	741.56
514.642	802.56
514.858	771.56
515.074	691.56
515.29	705.56
515.506	729.56
515.721	727.56
515.937	740.56
516.153	795.56
516.369	779.56
516.585	744.56
516.801	720.56
517.016	731.56
517.232	754.56
517.448	777.56
517.664	771.56
517.879	818.56
518.095	788.56
518.311	773.56
518.527	778.56
518.742	757.56
518.958	762.56
519.173	746.56
519.389	763.56
519.605	779.56
519.82	811.56
520.036	786.56
520.251	769.56
520.467	758.56
520.682	817.56
520.898	791.56
521.113	722.56
521.329	715.56
521.544	758.56
521.76	732.56
521.975	697.56
522.19	705.56
522.406	708.56
522.621	928.56
522.836	857.56
523.052	751.56
523.267	751.56
523.482	740.56
523.698	727.56
523.913	752.56
524.128	755.56
524.343	793.56
524.559	819.56
524.774	769.56
524.989	761.56
525.204	766.56
525.419	715.56
525.634	723.56
525.849	744.56
526.064	754.56
526.28	717.56
526.495	675.56
526.71	632.56
526.925	636.56
527.14	615.56
527.355	620.56
527.57	630.56
527.785	673.56
527.999	656.56
528.214	657.56
528.429	701.56
528.644	728.56
528.859	775.56
529.074	807.56
529.289	873.56
529.503	887.56
529.718	817.56
529.933	716.56
530.148	683.56
530.363	636.56
530.577	639.56
530.792	623.56
531.007	636.56
531.221	607.56
531.436	636.56
531.651	651.56
531.865	678.56
532.08	643.56
532.295	607.56
532.509	594.56
532.724	620.56
532.938	656.56
533.153	706.56
533.367	722.56
533.582	753.56
533.796	721.56
534.011	703.56
534.225	667.56
534.44	657.56
534.654	631.56
534.868	636.56
535.083	687.56
535.297	701.56
535.511	693.56
535.726	684.56
535.94	670.56
536.154	645.56
536.369	610.56
536.583	612.56
536.797	603.56
537.011	591.56
537.225	591.56
537.44	587.56
537.654	627.56
537.868	628.56
538.082	615.56
538.296	607.56
538.51	649.56
538.724	663.56
538.938	714.56
539.153	756.56
539.367	717.56
539.581	682.56
539.795	667.56
540.009	625.56
540.222	649.56
540.436	660.56
540.65	735.56
540.864	790.56
541.078	820.56
541.292	847.56
541.506	870.56
541.72	929.56
541.934	1041.56
542.147	1058.56
542.361	1016.56
542.575	890.56
542.789	869.56
543.002	748.56
543.216	743.56
543.43	749.56
543.644	829.56
543.857	894.56
544.071	914.56
544.285	916.56
544.498	903.56
544.712	943.56
544.925	957.56
545.139	967.56
545.352	947.56
545.566	917.56
545.779	920.56
545.993	912.56
546.206	938.56
546.42	974.56
546.633	936.56
546.847	925.56
547.06	939.56
547.274	951.56
547.487	1013.56
547.7	1005.56
547.914	981.56
548.127	947.56
548.34	972.56
548.554	943.56
548.767	919.56
548.98	925.56
549.193	909.56
549.407	949.56
549.62	935.56
549.833	911.56
550.046	915.56
550.259	894.56
550.473	869.56
550.686	898.56
550.899	856.56
551.112	851.56
551.325	824.56
551.538	839.56
551.751	855.56
551.964	710.56
552.177	723.56
552.39	767.56
552.603	849.56
552.816	875.56
553.029	889.56
553.242	917.56
553.455	904.56
553.667	888.56
553.88	877.56
554.093	879.56
554.306	867.56
554.519	848.56
554.732	817.56
554.944	811.56
555.157	812.56
555.37	794.56
555.583	804.56
555.795	788.56
556.008	761.56
556.221	716.56
556.433	730.56
556.646	716.56
556.859	728.56
557.071	712.56
557.284	762.56
557.496	761.56
557.709	764.56
557.921	731.56
558.134	698.56
558.346	751.56
558.559	710.56
558.771	700.56
558.984	684.56
559.196	654.56
559.409	682.56
559.621	657.56
559.833	653.56
560.046	673.56
560.258	659.56
560.47	679.56
560.683	681.56
560.895	653.56
561.107	660.56
561.32	681.56
561.532	666.56
561.744	667.56
561.956	720.56
562.168	652.56
562.381	639.56
562.593	626.56
562.805	645.56
563.017	633.56
563.229	631.56
563.441	650.56
563.653	623.56
563.865	635.56
564.077	608.56
564.289	603.56
564.501	621.56
564.713	637.56
564.925	632.56
565.137	671.56
565.349	620.56
565.561	599.56
565.773	617.56
565.985	635.56
566.197	640.56
566.408	674.56
566.62	679.56
566.832	671.56
567.044	652.56
567.255	649.56
567.467	629.56
567.679	654.56
567.891	634.56
568.102	594.56
568.314	596.56
568.526	547.56
568.737	531.56
568.949	475.56
569.161	474.56
569.372	455.56
569.584	455.56
569.795	457.56
570.007	451.56
570.218	451.56
570.43	439.56
570.641	442.56
570.853	465.56
571.064	491.56
571.276	493.56
571.487	482.56
571.698	465.56
571.91	469.56
572.121	468.56
572.333	428.56
572.544	437.56
572.755	404.56
572.966	407.56
573.178	389.56
573.389	387.56
573.6	407.56
573.811	437.56
574.023	408.56
574.234	387.56
574.445	382.56
574.656	368.56
574.867	386.56
575.078	411.56
575.289	393.56
575.501	395.56
575.712	403.56
575.923	383.56
576.134	398.56
576.345	398.56
576.556	411.56
576.767	384.56
576.978	403.56
577.188	374.56
577.399	379.56
577.61	373.56
577.821	383.56
578.032	375.56
578.243	383.56
578.454	362.56
578.665	363.56
578.875	359.56
579.086	341.56
579.297	328.56
579.508	353.56
579.718	347.56
579.929	341.56
580.14	347.56
580.35	339.56
580.561	371.56
580.772	398.56
580.982	363.56
581.193	357.56
581.403	367.56
581.614	360.56
581.825	329.56
582.035	344.56
582.246	352.56
582.456	356.56
582.667	347.56
582.877	338.56
583.087	346.56
583.298	329.56
583.508	339.56
583.719	331.56
583.929	313.56
584.139	331.56
584.35	314.56
584.56	313.56
584.77	338.56
584.981	326.56
585.191	321.56
585.401	337.56
585.611	328.56
585.821	323.56
586.032	297.56
586.242	307.56
586.452	303.56
586.662	317.56
586.872	307.56
587.082	324.56
587.292	317.56
587.502	336.56
587.713	306.56
587.923	313.56
588.133	317.56
588.343	292.56
588.553	321.56
588.762	318.56
588.972	315.56
589.182	305.56
589.392	317.56
589.602	331.56
589.812	300.56
590.022	321.56
590.232	291.56
590.441	327.56
590.651	319.56
590.861	317.56
591.071	303.56
591.281	292.56
591.49	315.56
591.7	289.56
591.91	301.56
592.119	308.56
592.329	303.56
592.539	315.56
592.748	336.56
592.958	322.56
593.167	328.56
593.377	315.56
593.587	325.56
593.796	317.56
594.006	330.56
594.215	339.56
594.424	325.56
594.634	326.56
594.843	347.56
595.053	364.56
595.262	347.56
595.472	328.56
595.681	327.56
595.89	309.56
596.1	299.56
596.309	327.56
596.518	329.56
596.727	333.56
596.937	331.56
597.146	304.56
597.355	307.56
597.564	315.56
597.774	294.56
597.983	311.56
598.192	283.56
598.401	283.56
598.61	267.56
598.819	296.56
599.028	287.56
599.237	309.56
599.446	292.56
599.655	279.56
599.864	298.56
600.073	283.56
600.282	301.56
600.491	298.56
600.7	295.56
600.909	290.56
601.118	320.56
601.327	345.56
601.536	328.56
601.745	347.56
601.953	336.56
602.162	356.56
602.371	358.56
602.58	362.56
602.789	372.56
602.997	353.56
603.206	362.56
603.415	353.56
603.623	349.56
603.832	331.56
604.041	338.56
604.249	307.56
604.458	299.56
604.666	307.56
604.875	287.56
605.084	311.56
605.292	328.56
605.501	341.56
605.709	375.56
605.918	379.56
606.126	369.56
606.334	374.56
606.543	338.56
606.751	359.56
606.96	348.56
607.168	368.56
607.376	364.56
607.585	351.56
607.793	363.56
608.001	359.56
608.21	372.56
608.418	347.56
608.626	357.56
608.834	357.56
609.043	359.56
609.251	352.56
609.459	367.56
609.667	367.56
609.875	366.56
610.083	356.56
610.291	369.56
610.499	359.56
610.707	354.56
610.916	369.56
611.124	373.56
611.332	340.56
611.54	363.56
611.748	374.56
611.955	348.56
612.163	349.56
612.371	364.56
612.579	360.56
612.787	370.56
612.995	370.56
613.203	359.56
613.411	356.56
613.618	372.56
613.826	346.56
614.034	343.56
614.242	368.56
614.449	367.56
614.657	357.56
614.865	355.56
615.072	367.56
615.28	354.56
615.488	333.56
615.695	377.56
615.903	368.56
616.111	339.56
616.318	337.56
616.526	352.56
616.733	354.56
616.941	333.56
617.148	355.56
617.356	361.56
617.563	348.56
617.771	338.56
617.978	329.56
618.185	320.56
618.393	353.56
618.6	350.56
618.807	354.56
619.015	353.56
619.222	329.56
619.429	340.56
619.637	316.56
619.844	310.56
620.051	319.56
620.258	332.56
620.466	319.56
620.673	335.56
620.88	332.56
621.087	312.56
621.294	307.56
621.501	298.56
621.708	286.56
621.915	329.56
622.122	337.56
622.329	321.56
622.536	318.56
622.743	309.56
622.95	317.56
623.157	324.56
623.364	318.56
623.571	316.56
623.778	317.56
623.985	329.56
624.192	325.56
624.399	325.56
624.606	323.56
624.812	308.56
625.019	287.56
625.226	296.56
625.433	295.56
625.639	291.56
625.846	253.56
626.053	254.56
626.259	246.56
626.466	234.56
626.673	237.56
626.879	227.56
627.086	253.56
627.293	269.56
627.499	276.56
627.706	298.56
627.912	289.56
628.119	295.56
628.325	306.56
628.532	296.56
628.738	303.56
628.945	287.56
629.151	300.56
629.357	283.56
629.564	272.56
629.77	273.56
629.976	273.56
630.183	266.56
630.389	253.56
630.595	280.56
630.802	290.56
631.008	299.56
631.214	267.56
631.42	261.56
631.627	260.56
631.833	264.56
632.039	265.56
632.245	267.56
632.451	265.56
632.657	273.56
632.863	284.56
633.069	265.56
633.275	260.56
633.481	265.56
633.688	249.56
633.893	240.56
634.099	266.56
634.305	242.56
634.511	248.56
634.717	234.56
634.923	252.56
635.129	236.56
635.335	220.56
635.541	246.56
635.747	235.56
635.952	254.56
636.158	250.56
636.364	265.56
636.57	263.56
636.775	273.56
636.981	250.56
637.187	273.56
637.392	258.56
637.598	265.56
637.804	259.56
638.009	251.56
638.215	258.56
638.421	247.56
638.626	251.56
638.832	261.56
639.037	248.56
639.243	246.56
639.448	258.56
639.654	240.56
639.859	234.56
640.065	248.56
640.27	244.56
640.475	232.56
640.681	265.56
640.886	233.56
641.091	257.56
641.297	261.56
641.502	260.56
641.707	259.56
641.913	257.56
642.118	250.56
642.323	257.56
642.528	248.56
642.733	262.56
642.939	240.56
643.144	246.56
643.349	235.56
643.554	245.56
643.759	234.56
643.964	235.56
644.169	230.56
644.374	231.56
644.579	234.56
644.784	245.56
644.989	246.56
645.194	242.56
645.399	259.56
645.604	243.56
645.809	242.56
646.014	221.56
646.219	232.56
646.423	240.56
646.628	257.56
646.833	240.56
647.038	239.56
647.243	243.56
647.447	239.56
647.652	228.56
647.857	231.56
648.062	236.56
648.266	225.56
648.471	245.56
648.676	247.56
648.88	248.56
649.085	255.56
649.289	252.56
649.494	231.56
649.698	215.56
649.903	216.56
650.107	246.56
650.312	243.56
650.516	228.56
650.721	215.56
650.925	237.56
651.13	225.56
651.334	215.56
651.539	226.56
651.743	233.56
651.947	226.56
652.152	210.56
652.356	230.56
652.56	221.56
652.764	227.56
652.969	199.56
653.173	210.56
653.377	213.56
653.581	226.56
653.785	209.56
653.99	212.56
654.194	208.56
654.398	201.56
654.602	206.56
654.806	204.56
655.01	200.56
655.214	197.56
655.418	190.56
655.622	197.56
655.826	217.56
656.03	211.56
656.234	218.56
656.438	232.56
656.642	229.56
656.846	230.56
657.049	205.56
657.253	193.56
657.457	195.56
657.661	177.56
657.865	170.56
658.068	156.56
658.272	149.56
658.476	140.56
658.68	141.56
658.883	152.56
659.087	131.56
659.291	139.56
659.494	130.56
659.698	131.56
659.901	120.56
660.105	124.56
660.309	131.56
660.512	129.56
660.716	138.56
660.919	124.56
661.123	124.56
661.326	123.56
661.53	111.56
661.733	94.56
661.936	111.56
662.14	95.56
662.343	96.56
662.546	108.56
662.75	93.56
662.953	79.56
663.156	92.56
663.36	92.56
663.563	85.56
663.766	79.56
663.969	96.56
664.173	57.56
664.376	87.56
664.579	83.56
664.782	82.56
664.985	96.56
665.188	85.56
665.391	73.56
665.594	78.56
665.797	81.56
666	78.56
666.203	85.56
666.406	90.56
666.609	81.56
666.812	72.56
667.015	81.56
667.218	83.56
667.421	88.56
667.624	96.56
667.827	79.56
668.03	72.56
668.232	81.56
668.435	83.56
668.638	83.56
668.841	92.56
669.043	73.56
669.246	87.56
669.449	83.56
669.651	79.56
669.854	78.56
670.057	91.56
670.259	77.56
670.462	88.56
670.665	88.56
670.867	75.56
671.07	82.56
671.272	76.56
671.475	81.56
671.677	80.56
671.88	75.56
672.082	81.56
672.284	94.56
672.487	92.56
672.689	84.56
672.892	77.56
