Data from WStandard_LampEnergy10_LIBS07252019.E.O._I.C._HRD10591_15-54-09-928.txt Node
Date: Thu Jul 25 15:54:09 EDT 2019
User: cochatt
Spectrometer: HR+D1059
Trigger mode: 1
Integration Time (sec): 1.000000E-1
Scans to average: 1
Electric dark correction enabled: true
Nonlinearity correction enabled: false
Boxcar width: 0
XAxis mode: Wavelengths
Number of Pixels in Spectrum: 2048
>>>>>Begin Spectral Data<<<<<
223.165	-26.75
223.4	-26.75
223.635	-26.75
223.869	-15.75
224.104	-14.75
224.338	-24.75
224.573	-20.75
224.808	-18.75
225.042	0.25
225.277	-13.75
225.511	-7.75
225.746	2.25
225.98	7.25
226.215	22.25
226.449	25.25
226.683	33.25
226.918	20.25
227.152	32.25
227.387	33.25
227.621	35.25
227.856	33.25
228.09	51.25
228.324	39.25
228.559	31.25
228.793	80.25
229.027	132.25
229.262	140.25
229.496	137.25
229.73	158.25
229.964	165.25
230.199	157.25
230.433	171.25
230.667	175.25
230.901	180.25
231.136	167.25
231.37	177.25
231.604	167.25
231.838	170.25
232.072	171.25
232.306	162.25
232.541	194.25
232.775	207.25
233.009	211.25
233.243	182.25
233.477	193.25
233.711	198.25
233.945	203.25
234.179	206.25
234.413	207.25
234.647	225.25
234.881	212.25
235.115	192.25
235.349	191.25
235.583	218.25
235.817	196.25
236.051	196.25
236.285	192.25
236.519	198.25
236.753	224.25
236.987	215.25
237.221	228.25
237.455	226.25
237.689	234.25
237.922	217.25
238.156	196.25
238.39	222.25
238.624	224.25
238.858	245.25
239.091	230.25
239.325	265.25
239.559	293.25
239.793	302.25
240.027	315.25
240.26	294.25
240.494	250.25
240.728	229.25
240.961	241.25
241.195	244.25
241.429	255.25
241.662	243.25
241.896	263.25
242.13	260.25
242.363	276.25
242.597	291.25
242.83	275.25
243.064	264.25
243.298	292.25
243.531	281.25
243.765	291.25
243.998	279.25
244.232	264.25
244.465	246.25
244.699	246.25
244.932	278.25
245.166	292.25
245.399	287.25
245.633	275.25
245.866	288.25
246.099	294.25
246.333	297.25
246.566	296.25
246.8	304.25
247.033	327.25
247.266	329.25
247.5	306.25
247.733	319.25
247.966	334.25
248.2	353.25
248.433	368.25
248.666	365.25
248.899	401.25
249.133	440.25
249.366	466.25
249.599	407.25
249.832	379.25
250.066	360.25
250.299	360.25
250.532	361.25
250.765	336.25
250.998	337.25
251.231	352.25
251.465	356.25
251.698	317.25
251.931	349.25
252.164	347.25
252.397	364.25
252.63	370.25
252.863	346.25
253.096	340.25
253.329	353.25
253.562	343.25
253.795	350.25
254.028	385.25
254.261	349.25
254.494	353.25
254.727	339.25
254.96	335.25
255.193	403.25
255.426	456.25
255.659	456.25
255.892	467.25
256.124	392.25
256.357	387.25
256.59	388.25
256.823	419.25
257.056	444.25
257.289	462.25
257.521	522.25
257.754	478.25
257.987	451.25
258.22	482.25
258.452	475.25
258.685	372.25
258.918	403.25
259.151	381.25
259.383	367.25
259.616	339.25
259.849	375.25
260.081	406.25
260.314	445.25
260.547	479.25
260.779	475.25
261.012	452.25
261.244	398.25
261.477	389.25
261.71	403.25
261.942	409.25
262.175	392.25
262.407	407.25
262.64	382.25
262.872	383.25
263.105	376.25
263.337	370.25
263.57	382.25
263.802	387.25
264.035	356.25
264.267	354.25
264.499	349.25
264.732	374.25
264.964	382.25
265.197	402.25
265.429	449.25
265.661	462.25
265.894	521.25
266.126	503.25
266.358	445.25
266.591	459.25
266.823	484.25
267.055	467.25
267.287	457.25
267.52	451.25
267.752	458.25
267.984	457.25
268.216	470.25
268.448	455.25
268.681	445.25
268.913	428.25
269.145	388.25
269.377	417.25
269.609	480.25
269.841	524.25
270.073	601.25
270.306	646.25
270.538	625.25
270.77	543.25
271.002	511.25
271.234	471.25
271.466	513.25
271.698	551.25
271.93	626.25
272.162	597.25
272.394	563.25
272.626	519.25
272.858	479.25
273.09	397.25
273.322	403.25
273.553	400.25
273.785	405.25
274.017	434.25
274.249	467.25
274.481	457.25
274.713	431.25
274.945	399.25
275.176	404.25
275.408	412.25
275.64	420.25
275.872	404.25
276.104	453.25
276.335	492.25
276.567	529.25
276.799	512.25
277.031	510.25
277.262	496.25
277.494	491.25
277.726	548.25
277.957	510.25
278.189	492.25
278.421	448.25
278.652	441.25
278.884	433.25
279.115	440.25
279.347	448.25
279.579	421.25
279.81	433.25
280.042	477.25
280.273	506.25
280.505	515.25
280.736	513.25
280.968	485.25
281.199	438.25
281.431	409.25
281.662	441.25
281.894	437.25
282.125	424.25
282.356	442.25
282.588	469.25
282.819	453.25
283.051	496.25
283.282	514.25
283.513	511.25
283.745	445.25
283.976	432.25
284.207	433.25
284.439	446.25
284.67	449.25
284.901	450.25
285.132	465.25
285.364	447.25
285.595	462.25
285.826	451.25
286.057	470.25
286.288	437.25
286.52	453.25
286.751	510.25
286.982	508.25
287.213	473.25
287.444	445.25
287.675	447.25
287.906	459.25
288.138	488.25
288.369	468.25
288.6	465.25
288.831	437.25
289.062	436.25
289.293	455.25
289.524	459.25
289.755	481.25
289.986	458.25
290.217	440.25
290.448	449.25
290.679	444.25
290.91	470.25
291.141	488.25
291.371	507.25
291.602	479.25
291.833	504.25
292.064	491.25
292.295	471.25
292.526	514.25
292.757	507.25
292.987	489.25
293.218	495.25
293.449	530.25
293.68	592.25
293.91	591.25
294.141	574.25
294.372	552.25
294.603	573.25
294.833	586.25
295.064	525.25
295.295	488.25
295.525	495.25
295.756	452.25
295.987	469.25
296.217	436.25
296.448	468.25
296.679	444.25
296.909	437.25
297.14	472.25
297.37	475.25
297.601	497.25
297.831	531.25
298.062	519.25
298.292	470.25
298.523	457.25
298.753	474.25
298.984	473.25
299.214	496.25
299.445	511.25
299.675	510.25
299.905	499.25
300.136	477.25
300.366	481.25
300.597	457.25
300.827	467.25
301.057	496.25
301.288	538.25
301.518	533.25
301.748	543.25
301.979	549.25
302.209	557.25
302.439	597.25
302.669	591.25
302.9	565.25
303.13	510.25
303.36	517.25
303.59	529.25
303.82	518.25
304.051	525.25
304.281	545.25
304.511	529.25
304.741	578.25
304.971	622.25
305.201	617.25
305.431	579.25
305.661	495.25
305.891	456.25
306.121	461.25
306.352	472.25
306.582	541.25
306.812	563.25
307.042	578.25
307.272	605.25
307.502	614.25
307.731	629.25
307.961	619.25
308.191	588.25
308.421	544.25
308.651	522.25
308.881	517.25
309.111	487.25
309.341	503.25
309.571	501.25
309.8	510.25
310.03	473.25
310.26	519.25
310.49	491.25
310.72	518.25
310.949	534.25
311.179	528.25
311.409	525.25
311.639	519.25
311.868	517.25
312.098	513.25
312.328	533.25
312.557	507.25
312.787	520.25
313.017	528.25
313.246	528.25
313.476	528.25
313.706	545.25
313.935	525.25
314.165	535.25
314.394	565.25
314.624	587.25
314.853	632.25
315.083	623.25
315.312	633.25
315.542	599.25
315.771	542.25
316.001	562.25
316.23	563.25
316.46	561.25
316.689	553.25
316.919	520.25
317.148	545.25
317.377	559.25
317.607	580.25
317.836	651.25
318.065	667.25
318.295	625.25
318.524	600.25
318.753	575.25
318.983	587.25
319.212	571.25
319.441	561.25
319.67	563.25
319.9	564.25
320.129	597.25
320.358	615.25
320.587	637.25
320.816	617.25
321.046	613.25
321.275	596.25
321.504	599.25
321.733	653.25
321.962	624.25
322.191	580.25
322.42	537.25
322.649	544.25
322.878	571.25
323.108	557.25
323.337	576.25
323.566	595.25
323.795	571.25
324.024	579.25
324.253	577.25
324.482	533.25
324.71	563.25
324.939	543.25
325.168	585.25
325.397	576.25
325.626	588.25
325.855	581.25
326.084	529.25
326.313	561.25
326.542	594.25
326.77	589.25
326.999	570.25
327.228	563.25
327.457	544.25
327.686	545.25
327.914	568.25
328.143	581.25
328.372	586.25
328.6	594.25
328.829	549.25
329.058	578.25
329.287	558.25
329.515	542.25
329.744	595.25
329.972	601.25
330.201	605.25
330.43	608.25
330.658	590.25
330.887	614.25
331.115	593.25
331.344	623.25
331.572	602.25
331.801	589.25
332.03	585.25
332.258	599.25
332.486	611.25
332.715	593.25
332.943	597.25
333.172	598.25
333.4	622.25
333.629	631.25
333.857	703.25
334.085	759.25
334.314	840.25
334.542	849.25
334.771	750.25
334.999	691.25
335.227	650.25
335.455	672.25
335.684	642.25
335.912	639.25
336.14	648.25
336.369	635.25
336.597	598.25
336.825	604.25
337.053	631.25
337.281	672.25
337.51	688.25
337.738	688.25
337.966	669.25
338.194	588.25
338.422	584.25
338.65	592.25
338.878	598.25
339.106	558.25
339.334	586.25
339.562	575.25
339.79	599.25
340.018	627.25
340.246	653.25
340.474	629.25
340.702	621.25
340.93	640.25
341.158	603.25
341.386	605.25
341.614	614.25
341.842	619.25
342.07	596.25
342.298	617.25
342.526	597.25
342.754	587.25
342.981	595.25
343.209	598.25
343.437	601.25
343.665	594.25
343.893	613.25
344.12	647.25
344.348	632.25
344.576	603.25
344.804	598.25
345.031	613.25
345.259	620.25
345.487	579.25
345.714	559.25
345.942	573.25
346.17	557.25
346.397	581.25
346.625	577.25
346.853	553.25
347.08	536.25
347.308	549.25
347.535	560.25
347.763	571.25
347.99	555.25
348.218	561.25
348.445	571.25
348.673	580.25
348.9	595.25
349.128	629.25
349.355	619.25
349.583	600.25
349.81	551.25
350.037	503.25
350.265	536.25
350.492	537.25
350.72	544.25
350.947	577.25
351.174	577.25
351.402	559.25
351.629	533.25
351.856	520.25
352.083	537.25
352.311	546.25
352.538	563.25
352.765	568.25
352.992	569.25
353.22	561.25
353.447	535.25
353.674	576.25
353.901	561.25
354.128	566.25
354.355	571.25
354.583	589.25
354.81	596.25
355.037	596.25
355.264	571.25
355.491	576.25
355.718	578.25
355.945	571.25
356.172	535.25
356.399	567.25
356.626	568.25
356.853	580.25
357.08	639.25
357.307	674.25
357.534	635.25
357.761	595.25
357.988	571.25
358.215	551.25
358.441	537.25
358.668	548.25
358.895	572.25
359.122	603.25
359.349	650.25
359.576	626.25
359.802	547.25
360.029	553.25
360.256	544.25
360.483	575.25
360.709	566.25
360.936	594.25
361.163	645.25
361.39	677.25
361.616	748.25
361.843	712.25
362.07	654.25
362.296	560.25
362.523	567.25
362.749	568.25
362.976	599.25
363.203	592.25
363.429	572.25
363.656	564.25
363.882	608.25
364.109	673.25
364.335	692.25
364.562	639.25
364.788	603.25
365.015	583.25
365.241	562.25
365.468	567.25
365.694	609.25
365.92	611.25
366.147	604.25
366.373	576.25
366.599	551.25
366.826	565.25
367.052	543.25
367.278	572.25
367.505	587.25
367.731	613.25
367.957	615.25
368.184	647.25
368.41	687.25
368.636	680.25
368.862	661.25
369.089	661.25
369.315	644.25
369.541	612.25
369.767	592.25
369.993	574.25
370.219	602.25
370.445	613.25
370.672	652.25
370.898	691.25
371.124	658.25
371.35	646.25
371.576	676.25
371.802	664.25
372.028	643.25
372.254	626.25
372.48	628.25
372.706	583.25
372.932	615.25
373.158	631.25
373.384	611.25
373.61	643.25
373.835	669.25
374.061	637.25
374.287	620.25
374.513	627.25
374.739	642.25
374.965	650.25
375.191	665.25
375.416	669.25
375.642	684.25
375.868	743.25
376.094	704.25
376.319	668.25
376.545	633.25
376.771	669.25
376.997	701.25
377.222	686.25
377.448	657.25
377.674	667.25
377.899	664.25
378.125	692.25
378.35	689.25
378.576	663.25
378.802	621.25
379.027	626.25
379.253	625.25
379.478	657.25
379.704	661.25
379.929	654.25
380.155	641.25
380.38	649.25
380.606	660.25
380.831	651.25
381.057	711.25
381.282	701.25
381.507	697.25
381.733	735.25
381.958	767.25
382.184	694.25
382.409	683.25
382.634	701.25
382.86	672.25
383.085	687.25
383.31	750.25
383.535	763.25
383.761	807.25
383.986	763.25
384.211	723.25
384.436	730.25
384.662	765.25
384.887	767.25
385.112	749.25
385.337	717.25
385.562	745.25
385.787	791.25
386.013	769.25
386.238	764.25
386.463	750.25
386.688	830.25
386.913	864.25
387.138	832.25
387.363	794.25
387.588	781.25
387.813	776.25
388.038	805.25
388.263	788.25
388.488	789.25
388.713	721.25
388.938	738.25
389.163	718.25
389.387	762.25
389.612	733.25
389.837	766.25
390.062	769.25
390.287	764.25
390.512	765.25
390.736	749.25
390.961	722.25
391.186	719.25
391.411	720.25
391.636	750.25
391.86	752.25
392.085	770.25
392.31	735.25
392.534	761.25
392.759	760.25
392.984	763.25
393.208	799.25
393.433	789.25
393.658	820.25
393.882	809.25
394.107	773.25
394.331	781.25
394.556	781.25
394.78	797.25
395.005	820.25
395.229	848.25
395.454	877.25
395.678	868.25
395.903	823.25
396.127	825.25
396.352	806.25
396.576	866.25
396.801	865.25
397.025	856.25
397.249	844.25
397.474	835.25
397.698	843.25
397.922	875.25
398.147	908.25
398.371	927.25
398.595	927.25
398.82	841.25
399.044	903.25
399.268	945.25
399.492	986.25
399.717	1008.25
399.941	1024.25
400.165	969.25
400.389	974.25
400.613	1015.25
400.837	1149.25
401.062	1216.25
401.286	1039.25
401.51	982.25
401.734	1001.25
401.958	954.25
402.182	901.25
402.406	884.25
402.63	872.25
402.854	872.25
403.078	909.25
403.302	913.25
403.526	934.25
403.75	924.25
403.974	924.25
404.198	944.25
404.422	984.25
404.645	1033.25
404.869	1009.25
405.093	955.25
405.317	923.25
405.541	901.25
405.765	937.25
405.988	948.25
406.212	993.25
406.436	986.25
406.66	988.25
406.883	1050.25
407.107	1136.25
407.331	1204.25
407.555	1284.25
407.778	1133.25
408.002	962.25
408.226	974.25
408.449	950.25
408.673	948.25
408.896	961.25
409.12	962.25
409.344	955.25
409.567	954.25
409.791	962.25
410.014	980.25
410.238	1030.25
410.461	1062.25
410.685	960.25
410.908	961.25
411.132	962.25
411.355	962.25
411.578	928.25
411.802	917.25
412.025	915.25
412.249	923.25
412.472	934.25
412.695	925.25
412.919	917.25
413.142	914.25
413.365	927.25
413.589	951.25
413.812	1001.25
414.035	1007.25
414.258	963.25
414.482	933.25
414.705	925.25
414.928	949.25
415.151	951.25
415.374	929.25
415.597	943.25
415.821	955.25
416.044	948.25
416.267	962.25
416.49	911.25
416.713	935.25
416.936	932.25
417.159	990.25
417.382	971.25
417.605	907.25
417.828	956.25
418.051	966.25
418.274	943.25
418.497	950.25
418.72	945.25
418.943	918.25
419.166	1003.25
419.389	988.25
419.611	958.25
419.834	945.25
420.057	936.25
420.28	930.25
420.503	981.25
420.726	961.25
420.948	937.25
421.171	945.25
421.394	944.25
421.617	985.25
421.839	1001.25
422.062	990.25
422.285	931.25
422.507	925.25
422.73	917.25
422.953	890.25
423.175	887.25
423.398	925.25
423.621	941.25
423.843	973.25
424.066	990.25
424.288	1040.25
424.511	1052.25
424.733	1024.25
424.956	932.25
425.178	926.25
425.401	929.25
425.623	980.25
425.846	957.25
426.068	983.25
426.291	1006.25
426.513	947.25
426.735	969.25
426.958	1073.25
427.18	1091.25
427.402	1003.25
427.625	1058.25
427.847	997.25
428.069	958.25
428.292	897.25
428.514	884.25
428.736	902.25
428.958	929.25
429.181	932.25
429.403	1078.25
429.625	1224.25
429.847	1040.25
430.069	939.25
430.292	1041.25
430.514	1054.25
430.736	992.25
430.958	982.25
431.18	921.25
431.402	880.25
431.624	841.25
431.846	775.25
432.068	739.25
432.29	735.25
432.512	829.25
432.734	891.25
432.956	961.25
433.178	973.25
433.4	985.25
433.622	984.25
433.844	917.25
434.066	887.25
434.287	807.25
434.509	783.25
434.731	840.25
434.953	948.25
435.175	941.25
435.397	917.25
435.618	904.25
435.84	848.25
436.062	852.25
436.284	900.25
436.505	929.25
436.727	961.25
436.949	919.25
437.17	926.25
437.392	891.25
437.614	867.25
437.835	803.25
438.057	821.25
438.278	872.25
438.5	895.25
438.721	883.25
438.943	913.25
439.165	957.25
439.386	928.25
439.608	947.25
439.829	943.25
440.05	977.25
440.272	970.25
440.493	940.25
440.715	966.25
440.936	1047.25
441.158	1083.25
441.379	1056.25
441.6	1029.25
441.822	1043.25
442.043	1019.25
442.264	1028.25
442.486	987.25
442.707	957.25
442.928	962.25
443.149	997.25
443.371	1016.25
443.592	1029.25
443.813	1035.25
444.034	1037.25
444.255	1040.25
444.476	1032.25
444.698	1052.25
444.919	1061.25
445.14	1156.25
445.361	1098.25
445.582	1066.25
445.803	1045.25
446.024	1051.25
446.245	1071.25
446.466	1076.25
446.687	1038.25
446.908	1041.25
447.129	1021.25
447.35	985.25
447.571	1025.25
447.792	959.25
448.013	979.25
448.234	964.25
448.455	990.25
448.675	1032.25
448.896	928.25
449.117	925.25
449.338	934.25
449.559	943.25
449.779	1011.25
450	1010.25
450.221	1059.25
450.442	1038.25
450.662	960.25
450.883	883.25
451.104	891.25
451.324	893.25
451.545	887.25
451.766	869.25
451.986	847.25
452.207	838.25
452.428	804.25
452.648	800.25
452.869	801.25
453.089	816.25
453.31	781.25
453.53	786.25
453.751	732.25
453.971	733.25
454.192	726.25
454.412	811.25
454.633	800.25
454.853	774.25
455.073	795.25
455.294	813.25
455.514	779.25
455.734	753.25
455.955	761.25
456.175	742.25
456.395	733.25
456.616	751.25
456.836	751.25
457.056	752.25
457.276	742.25
457.497	723.25
457.717	701.25
457.937	707.25
458.157	720.25
458.377	689.25
458.598	693.25
458.818	686.25
459.038	720.25
459.258	697.25
459.478	725.25
459.698	739.25
459.918	767.25
460.138	801.25
460.358	845.25
460.578	848.25
460.798	863.25
461.018	904.25
461.238	869.25
461.458	878.25
461.678	875.25
461.898	836.25
462.118	843.25
462.338	867.25
462.558	888.25
462.777	850.25
462.997	886.25
463.217	920.25
463.437	895.25
463.657	856.25
463.876	835.25
464.096	845.25
464.316	816.25
464.536	885.25
464.755	897.25
464.975	882.25
465.195	859.25
465.414	895.25
465.634	881.25
465.854	885.25
466.073	980.25
466.293	947.25
466.512	860.25
466.732	887.25
466.951	933.25
467.171	907.25
467.391	899.25
467.61	903.25
467.829	898.25
468.049	989.25
468.268	1059.25
468.488	986.25
468.707	938.25
468.927	898.25
469.146	885.25
469.365	916.25
469.585	934.25
469.804	935.25
470.023	925.25
470.243	943.25
470.462	948.25
470.681	939.25
470.901	976.25
471.12	951.25
471.339	954.25
471.558	951.25
471.777	907.25
471.997	901.25
472.216	850.25
472.435	802.25
472.654	780.25
472.873	815.25
473.092	835.25
473.311	856.25
473.53	865.25
473.749	857.25
473.968	855.25
474.187	856.25
474.406	831.25
474.625	872.25
474.844	867.25
475.063	883.25
475.282	893.25
475.501	799.25
475.72	871.25
475.939	937.25
476.158	905.25
476.377	875.25
476.596	853.25
476.814	830.25
477.033	811.25
477.252	857.25
477.471	911.25
477.69	919.25
477.908	937.25
478.127	975.25
478.346	1037.25
478.564	1022.25
478.783	1029.25
479.002	1064.25
479.22	1043.25
479.439	1048.25
479.658	1089.25
479.876	995.25
480.095	923.25
480.313	909.25
480.532	892.25
480.751	895.25
480.969	849.25
481.188	819.25
481.406	806.25
481.624	745.25
481.843	808.25
482.061	839.25
482.28	865.25
482.498	901.25
482.717	849.25
482.935	919.25
483.153	988.25
483.372	1032.25
483.59	1055.25
483.808	1005.25
484.027	955.25
484.245	999.25
484.463	1233.25
484.681	1318.25
484.9	1051.25
485.118	985.25
485.336	925.25
485.554	911.25
485.772	893.25
485.99	897.25
486.209	909.25
486.427	895.25
486.645	952.25
486.863	1013.25
487.081	1049.25
487.299	1024.25
487.517	1053.25
487.735	1121.25
487.953	1197.25
488.171	1187.25
488.389	1145.25
488.607	1111.25
488.825	1161.25
489.043	1077.25
489.261	980.25
489.479	1075.25
489.696	1081.25
489.914	1031.25
490.132	1053.25
490.35	1068.25
490.568	1172.25
490.786	1213.25
491.003	1228.25
491.221	1281.25
491.439	1313.25
491.657	1331.25
491.874	1341.25
492.092	1450.25
492.31	1525.25
492.527	1461.25
492.745	1345.25
492.963	1311.25
493.18	1341.25
493.398	1360.25
493.615	1334.25
493.833	1300.25
494.05	1245.25
494.268	1252.25
494.485	1286.25
494.703	1239.25
494.92	1255.25
495.138	1239.25
495.355	1260.25
495.573	1269.25
495.79	1337.25
496.008	1297.25
496.225	1242.25
496.442	1289.25
496.66	1234.25
496.877	1238.25
497.094	1252.25
497.312	1239.25
497.529	1182.25
497.746	1165.25
497.963	1299.25
498.181	1325.25
498.398	1259.25
498.615	1223.25
498.832	1172.25
499.049	1184.25
499.267	1189.25
499.484	1280.25
499.701	1354.25
499.918	1413.25
500.135	1475.25
500.352	1615.25
500.569	1607.25
500.786	1697.25
501.003	1585.25
501.22	1464.25
501.437	1417.25
501.654	1424.25
501.871	1392.25
502.088	1227.25
502.305	1205.25
502.522	1159.25
502.739	1110.25
502.956	1085.25
503.172	1113.25
503.389	1021.25
503.606	1010.25
503.823	1010.25
504.04	1003.25
504.256	1021.25
504.473	1062.25
504.69	1074.25
504.907	1008.25
505.123	975.25
505.34	1095.25
505.557	1383.25
505.773	1136.25
505.99	969.25
506.207	915.25
506.423	912.25
506.64	908.25
506.856	912.25
507.073	1040.25
507.289	1107.25
507.506	1025.25
507.722	893.25
507.939	870.25
508.155	847.25
508.372	861.25
508.588	835.25
508.805	809.25
509.021	793.25
509.238	780.25
509.454	773.25
509.67	780.25
509.887	757.25
510.103	759.25
510.319	736.25
510.536	761.25
510.752	774.25
510.968	787.25
511.184	813.25
511.401	769.25
511.617	708.25
511.833	716.25
512.049	720.25
512.265	694.25
512.481	742.25
512.698	746.25
512.914	774.25
513.13	747.25
513.346	736.25
513.562	716.25
513.778	712.25
513.994	756.25
514.21	747.25
514.426	748.25
514.642	812.25
514.858	775.25
515.074	715.25
515.29	717.25
515.506	740.25
515.721	775.25
515.937	791.25
516.153	820.25
516.369	771.25
516.585	769.25
516.801	733.25
517.016	748.25
517.232	785.25
517.448	770.25
517.664	789.25
517.879	813.25
518.095	845.25
518.311	789.25
518.527	799.25
518.742	766.25
518.958	752.25
519.173	756.25
519.389	800.25
519.605	796.25
519.82	816.25
520.036	802.25
520.251	765.25
520.467	788.25
520.682	820.25
520.898	833.25
521.113	731.25
521.329	727.25
521.544	763.25
521.76	726.25
521.975	735.25
522.19	720.25
522.406	755.25
522.621	947.25
522.836	861.25
523.052	753.25
523.267	749.25
523.482	771.25
523.698	735.25
523.913	747.25
524.128	781.25
524.343	827.25
524.559	838.25
524.774	784.25
524.989	784.25
525.204	767.25
525.419	725.25
525.634	735.25
525.849	737.25
526.064	740.25
526.28	743.25
526.495	653.25
526.71	659.25
526.925	638.25
527.14	633.25
527.355	616.25
527.57	653.25
527.785	676.25
527.999	663.25
528.214	673.25
528.429	732.25
528.644	731.25
528.859	803.25
529.074	851.25
529.289	880.25
529.503	863.25
529.718	815.25
529.933	730.25
530.148	691.25
530.363	666.25
530.577	648.25
530.792	652.25
531.007	632.25
531.221	631.25
531.436	647.25
531.651	638.25
531.865	673.25
532.08	674.25
532.295	632.25
532.509	623.25
532.724	625.25
532.938	663.25
533.153	733.25
533.367	724.25
533.582	717.25
533.796	764.25
534.011	722.25
534.225	685.25
534.44	633.25
534.654	652.25
534.868	652.25
535.083	702.25
535.297	690.25
535.511	702.25
535.726	688.25
535.94	690.25
536.154	656.25
536.369	631.25
536.583	626.25
536.797	603.25
537.011	634.25
537.225	623.25
537.44	588.25
537.654	648.25
537.868	638.25
538.082	615.25
538.296	626.25
538.51	647.25
538.724	692.25
538.938	720.25
539.153	771.25
539.367	741.25
539.581	710.25
539.795	701.25
540.009	647.25
540.222	649.25
540.436	677.25
540.65	746.25
540.864	793.25
541.078	830.25
541.292	869.25
541.506	902.25
541.72	963.25
541.934	1043.25
542.147	1085.25
542.361	1016.25
542.575	919.25
542.789	851.25
543.002	769.25
543.216	735.25
543.43	751.25
543.644	830.25
543.857	905.25
544.071	929.25
544.285	956.25
544.498	924.25
544.712	947.25
544.925	957.25
545.139	958.25
545.352	968.25
545.566	923.25
545.779	930.25
545.993	946.25
546.206	960.25
546.42	957.25
546.633	948.25
546.847	950.25
547.06	960.25
547.274	998.25
547.487	1016.25
547.7	1024.25
547.914	973.25
548.127	973.25
548.34	962.25
548.554	977.25
548.767	956.25
548.98	935.25
549.193	951.25
549.407	956.25
549.62	972.25
549.833	901.25
550.046	902.25
550.259	925.25
550.473	923.25
550.686	893.25
550.899	903.25
551.112	846.25
551.325	823.25
551.538	868.25
551.751	881.25
551.964	717.25
552.177	726.25
552.39	801.25
552.603	854.25
552.816	860.25
553.029	913.25
553.242	941.25
553.455	909.25
553.667	900.25
553.88	917.25
554.093	883.25
554.306	868.25
554.519	836.25
554.732	837.25
554.944	831.25
555.157	838.25
555.37	829.25
555.583	816.25
555.795	799.25
556.008	747.25
556.221	701.25
556.433	721.25
556.646	766.25
556.859	722.25
557.071	740.25
557.284	766.25
557.496	787.25
557.709	773.25
557.921	772.25
558.134	727.25
558.346	757.25
558.559	724.25
558.771	721.25
558.984	695.25
559.196	702.25
559.409	680.25
559.621	663.25
559.833	668.25
560.046	692.25
560.258	681.25
560.47	685.25
560.683	670.25
560.895	701.25
561.107	669.25
561.32	711.25
561.532	700.25
561.744	694.25
561.956	688.25
562.168	644.25
562.381	663.25
562.593	639.25
562.805	655.25
563.017	640.25
563.229	653.25
563.441	676.25
563.653	627.25
563.865	631.25
564.077	602.25
564.289	615.25
564.501	620.25
564.713	638.25
564.925	639.25
565.137	694.25
565.349	605.25
565.561	626.25
565.773	625.25
565.985	636.25
566.197	661.25
566.408	669.25
566.62	691.25
566.832	707.25
567.044	681.25
567.255	678.25
567.467	660.25
567.679	641.25
567.891	679.25
568.102	605.25
568.314	574.25
568.526	565.25
568.737	530.25
568.949	500.25
569.161	497.25
569.372	464.25
569.584	461.25
569.795	463.25
570.007	446.25
570.218	440.25
570.43	452.25
570.641	457.25
570.853	487.25
571.064	485.25
571.276	487.25
571.487	495.25
571.698	471.25
571.91	463.25
572.121	464.25
572.333	445.25
572.544	437.25
572.755	421.25
572.966	393.25
573.178	398.25
573.389	411.25
573.6	397.25
573.811	443.25
574.023	407.25
574.234	382.25
574.445	400.25
574.656	389.25
574.867	387.25
575.078	387.25
575.289	412.25
575.501	403.25
575.712	415.25
575.923	406.25
576.134	427.25
576.345	403.25
576.556	415.25
576.767	407.25
576.978	381.25
577.188	398.25
577.399	391.25
577.61	373.25
577.821	370.25
578.032	388.25
578.243	354.25
578.454	373.25
578.665	354.25
578.875	349.25
579.086	348.25
579.297	327.25
579.508	351.25
579.718	347.25
579.929	341.25
580.14	336.25
580.35	327.25
580.561	345.25
580.772	407.25
580.982	364.25
581.193	353.25
581.403	368.25
581.614	355.25
581.825	339.25
582.035	342.25
582.246	339.25
582.456	343.25
582.667	349.25
582.877	359.25
583.087	339.25
583.298	335.25
583.508	338.25
583.719	340.25
583.929	344.25
584.139	324.25
584.35	324.25
584.56	312.25
584.77	302.25
584.981	343.25
585.191	329.25
585.401	327.25
585.611	328.25
585.821	320.25
586.032	327.25
586.242	293.25
586.452	318.25
586.662	333.25
586.872	322.25
587.082	309.25
587.292	348.25
587.502	321.25
587.713	327.25
587.923	335.25
588.133	309.25
588.343	331.25
588.553	306.25
588.762	317.25
588.972	324.25
589.182	337.25
589.392	322.25
589.602	322.25
589.812	320.25
590.022	315.25
590.232	310.25
590.441	305.25
590.651	312.25
590.861	290.25
591.071	290.25
591.281	313.25
591.49	300.25
591.7	310.25
591.91	315.25
592.119	317.25
592.329	303.25
592.539	333.25
592.748	313.25
592.958	329.25
593.167	317.25
593.377	313.25
593.587	339.25
593.796	341.25
594.006	336.25
594.215	307.25
594.424	326.25
594.634	321.25
594.843	356.25
595.053	374.25
595.262	324.25
595.472	345.25
595.681	305.25
595.89	310.25
596.1	301.25
596.309	326.25
596.518	321.25
596.727	329.25
596.937	340.25
597.146	310.25
597.355	294.25
597.564	307.25
597.774	297.25
597.983	292.25
598.192	302.25
598.401	284.25
598.61	295.25
598.819	288.25
599.028	305.25
599.237	324.25
599.446	313.25
599.655	285.25
599.864	287.25
600.073	277.25
600.282	284.25
600.491	291.25
600.7	282.25
600.909	301.25
601.118	294.25
601.327	337.25
601.536	348.25
601.745	345.25
601.953	335.25
602.162	340.25
602.371	341.25
602.58	360.25
602.789	369.25
602.997	351.25
603.206	339.25
603.415	352.25
603.623	334.25
603.832	358.25
604.041	336.25
604.249	314.25
604.458	300.25
604.666	294.25
604.875	307.25
605.084	342.25
605.292	357.25
605.501	359.25
605.709	361.25
605.918	362.25
606.126	369.25
606.334	367.25
606.543	369.25
606.751	367.25
606.96	371.25
607.168	368.25
607.376	373.25
607.585	355.25
607.793	349.25
608.001	371.25
608.21	351.25
608.418	363.25
608.626	387.25
608.834	358.25
609.043	364.25
609.251	354.25
609.459	359.25
609.667	361.25
609.875	373.25
610.083	371.25
610.291	367.25
610.499	374.25
610.707	368.25
610.916	373.25
611.124	363.25
611.332	364.25
611.54	384.25
611.748	359.25
611.955	369.25
612.163	359.25
612.371	371.25
612.579	378.25
612.787	371.25
612.995	361.25
613.203	355.25
613.411	340.25
613.618	338.25
613.826	369.25
614.034	341.25
614.242	360.25
614.449	341.25
614.657	371.25
614.865	359.25
615.072	357.25
615.28	367.25
615.488	369.25
615.695	367.25
615.903	380.25
616.111	364.25
616.318	354.25
616.526	370.25
616.733	371.25
616.941	361.25
617.148	367.25
617.356	329.25
617.563	351.25
617.771	344.25
617.978	327.25
618.185	352.25
618.393	347.25
618.6	336.25
618.807	339.25
619.015	367.25
619.222	340.25
619.429	328.25
619.637	304.25
619.844	318.25
620.051	318.25
620.258	320.25
620.466	340.25
620.673	345.25
620.88	304.25
621.087	305.25
621.294	319.25
621.501	325.25
621.708	317.25
621.915	324.25
622.122	310.25
622.329	343.25
622.536	344.25
622.743	326.25
622.95	334.25
623.157	318.25
623.364	296.25
623.571	333.25
623.778	336.25
623.985	312.25
624.192	325.25
624.399	316.25
624.606	307.25
624.812	305.25
625.019	277.25
625.226	288.25
625.433	286.25
625.639	300.25
625.846	263.25
626.053	269.25
626.259	242.25
626.466	230.25
626.673	238.25
626.879	257.25
627.086	244.25
627.293	260.25
627.499	286.25
627.706	294.25
627.912	307.25
628.119	305.25
628.325	299.25
628.532	286.25
628.738	299.25
628.945	303.25
629.151	291.25
629.357	277.25
629.564	270.25
629.77	287.25
629.976	282.25
630.183	265.25
630.389	265.25
630.595	294.25
630.802	288.25
631.008	278.25
631.214	281.25
631.42	279.25
631.627	263.25
631.833	252.25
632.039	262.25
632.245	254.25
632.451	261.25
632.657	254.25
632.863	271.25
633.069	272.25
633.275	256.25
633.481	261.25
633.688	254.25
633.893	252.25
634.099	245.25
634.305	255.25
634.511	274.25
634.717	217.25
634.923	239.25
635.129	235.25
635.335	236.25
635.541	228.25
635.747	243.25
635.952	259.25
636.158	261.25
636.364	263.25
636.57	270.25
636.775	246.25
636.981	265.25
637.187	270.25
637.392	271.25
637.598	262.25
637.804	261.25
638.009	265.25
638.215	265.25
638.421	272.25
638.626	251.25
638.832	256.25
639.037	250.25
639.243	245.25
639.448	245.25
639.654	241.25
639.859	235.25
640.065	254.25
640.27	251.25
640.475	256.25
640.681	263.25
640.886	247.25
641.091	247.25
641.297	269.25
641.502	257.25
641.707	258.25
641.913	246.25
642.118	245.25
642.323	252.25
642.528	253.25
642.733	259.25
642.939	236.25
643.144	244.25
643.349	239.25
643.554	236.25
643.759	240.25
643.964	239.25
644.169	222.25
644.374	219.25
644.579	238.25
644.784	232.25
644.989	224.25
645.194	226.25
645.399	244.25
645.604	236.25
645.809	235.25
646.014	249.25
646.219	248.25
646.423	229.25
646.628	253.25
646.833	223.25
647.038	235.25
647.243	239.25
647.447	233.25
647.652	229.25
647.857	238.25
648.062	255.25
648.266	242.25
648.471	251.25
648.676	243.25
648.88	236.25
649.085	261.25
649.289	245.25
649.494	239.25
649.698	255.25
649.903	236.25
650.107	251.25
650.312	237.25
650.516	218.25
650.721	237.25
650.925	218.25
651.13	218.25
651.334	214.25
651.539	221.25
651.743	215.25
651.947	222.25
652.152	244.25
652.356	223.25
652.56	209.25
652.764	219.25
652.969	224.25
653.173	204.25
653.377	207.25
653.581	203.25
653.785	192.25
653.99	206.25
654.194	198.25
654.398	210.25
654.602	189.25
654.806	192.25
655.01	196.25
655.214	214.25
655.418	206.25
655.622	200.25
655.826	211.25
656.03	210.25
656.234	231.25
656.438	225.25
656.642	244.25
656.846	205.25
657.049	219.25
657.253	192.25
657.457	184.25
657.661	166.25
657.865	169.25
658.068	173.25
658.272	160.25
658.476	149.25
658.68	148.25
658.883	142.25
659.087	145.25
659.291	125.25
659.494	140.25
659.698	119.25
659.901	125.25
660.105	116.25
660.309	119.25
660.512	127.25
660.716	128.25
660.919	118.25
661.123	109.25
661.326	115.25
661.53	116.25
661.733	89.25
661.936	97.25
662.14	98.25
662.343	98.25
662.546	97.25
662.75	100.25
662.953	113.25
663.156	94.25
663.36	88.25
663.563	77.25
663.766	81.25
663.969	81.25
664.173	90.25
664.376	88.25
664.579	77.25
664.782	69.25
664.985	80.25
665.188	81.25
665.391	79.25
665.594	76.25
665.797	76.25
666	99.25
666.203	59.25
666.406	72.25
666.609	84.25
666.812	81.25
667.015	96.25
667.218	83.25
667.421	84.25
667.624	93.25
667.827	109.25
668.03	69.25
668.232	85.25
668.435	68.25
668.638	67.25
668.841	87.25
669.043	79.25
669.246	69.25
669.449	80.25
669.651	85.25
669.854	92.25
670.057	80.25
670.259	73.25
670.462	74.25
670.665	69.25
670.867	79.25
671.07	87.25
671.272	87.25
671.475	73.25
671.677	95.25
671.88	84.25
672.082	80.25
672.284	83.25
672.487	91.25
672.689	87.25
672.892	66.25
