Data from WStandard_LampEnergy8_LIBS07252019.E.O._I.C._HRD10591_15-58-37-929.txt Node
Date: Thu Jul 25 15:58:37 EDT 2019
User: cochatt
Spectrometer: HR+D1059
Trigger mode: 1
Integration Time (sec): 1.000000E-1
Scans to average: 1
Electric dark correction enabled: true
Nonlinearity correction enabled: false
Boxcar width: 0
XAxis mode: Wavelengths
Number of Pixels in Spectrum: 2048
>>>>>Begin Spectral Data<<<<<
223.165	-19.25
223.4	-19.25
223.635	-19.25
223.869	-25.25
224.104	-12.25
224.338	-7.25
224.573	-14.25
224.808	-11.25
225.042	-3.25
225.277	3.75
225.511	-6.25
225.746	7.75
225.98	-1.25
226.215	9.75
226.449	13.75
226.683	17.75
226.918	21.75
227.152	25.75
227.387	29.75
227.621	27.75
227.856	45.75
228.09	54.75
228.324	51.75
228.559	66.75
228.793	107.75
229.027	205.75
229.262	215.75
229.496	214.75
229.73	223.75
229.964	263.75
230.199	270.75
230.433	262.75
230.667	284.75
230.901	296.75
231.136	261.75
231.37	275.75
231.604	271.75
231.838	276.75
232.072	289.75
232.306	276.75
232.541	278.75
232.775	310.75
233.009	339.75
233.243	335.75
233.477	300.75
233.711	307.75
233.945	309.75
234.179	309.75
234.413	313.75
234.647	355.75
234.881	312.75
235.115	303.75
235.349	310.75
235.583	295.75
235.817	311.75
236.051	286.75
236.285	314.75
236.519	353.75
236.753	352.75
236.987	370.75
237.221	373.75
237.455	373.75
237.689	380.75
237.922	360.75
238.156	335.75
238.39	349.75
238.624	385.75
238.858	401.75
239.091	420.75
239.325	424.75
239.559	479.75
239.793	506.75
240.027	554.75
240.26	491.75
240.494	410.75
240.728	384.75
240.961	381.75
241.195	390.75
241.429	415.75
241.662	441.75
241.896	395.75
242.13	389.75
242.363	434.75
242.597	460.75
242.83	460.75
243.064	469.75
243.298	502.75
243.531	477.75
243.765	469.75
243.998	477.75
244.232	418.75
244.465	409.75
244.699	414.75
244.932	464.75
245.166	524.75
245.399	491.75
245.633	455.75
245.866	470.75
246.099	490.75
246.333	479.75
246.566	517.75
246.8	542.75
247.033	617.75
247.266	573.75
247.5	555.75
247.733	537.75
247.966	592.75
248.2	653.75
248.433	587.75
248.666	632.75
248.899	662.75
249.133	768.75
249.366	812.75
249.599	716.75
249.832	621.75
250.066	631.75
250.299	648.75
250.532	581.75
250.765	535.75
250.998	584.75
251.231	600.75
251.465	649.75
251.698	595.75
251.931	597.75
252.164	609.75
252.397	640.75
252.63	620.75
252.863	544.75
253.096	586.75
253.329	595.75
253.562	629.75
253.795	630.75
254.028	616.75
254.261	605.75
254.494	573.75
254.727	565.75
254.96	583.75
255.193	658.75
255.426	727.75
255.659	795.75
255.892	798.75
256.124	682.75
256.357	664.75
256.59	705.75
256.823	704.75
257.056	734.75
257.289	846.75
257.521	898.75
257.754	821.75
257.987	807.75
258.22	867.75
258.452	835.75
258.685	703.75
258.918	687.75
259.151	666.75
259.383	660.75
259.616	592.75
259.849	632.75
260.081	717.75
260.314	810.75
260.547	846.75
260.779	841.75
261.012	780.75
261.244	719.75
261.477	693.75
261.71	719.75
261.942	716.75
262.175	685.75
262.407	688.75
262.64	693.75
262.872	641.75
263.105	635.75
263.337	643.75
263.57	646.75
263.802	638.75
264.035	619.75
264.267	579.75
264.499	600.75
264.732	618.75
264.964	664.75
265.197	677.75
265.429	724.75
265.661	788.75
265.894	861.75
266.126	897.75
266.358	793.75
266.591	838.75
266.823	895.75
267.055	831.75
267.287	795.75
267.52	777.75
267.752	741.75
267.984	771.75
268.216	830.75
268.448	838.75
268.681	790.75
268.913	746.75
269.145	705.75
269.377	684.75
269.609	785.75
269.841	876.75
270.073	1059.75
270.306	1087.75
270.538	1130.75
270.77	966.75
271.002	823.75
271.234	842.75
271.466	854.75
271.698	934.75
271.93	1057.75
272.162	1062.75
272.394	974.75
272.626	925.75
272.858	827.75
273.09	746.75
273.322	711.75
273.553	705.75
273.785	681.75
274.017	739.75
274.249	767.75
274.481	782.75
274.713	724.75
274.945	740.75
275.176	729.75
275.408	709.75
275.64	693.75
275.872	717.75
276.104	765.75
276.335	885.75
276.567	943.75
276.799	933.75
277.031	846.75
277.262	812.75
277.494	847.75
277.726	915.75
277.957	897.75
278.189	829.75
278.421	741.75
278.652	723.75
278.884	753.75
279.115	739.75
279.347	749.75
279.579	745.75
279.81	770.75
280.042	840.75
280.273	886.75
280.505	883.75
280.736	911.75
280.968	827.75
281.199	765.75
281.431	735.75
281.662	723.75
281.894	758.75
282.125	724.75
282.356	777.75
282.588	806.75
282.819	789.75
283.051	845.75
283.282	909.75
283.513	867.75
283.745	775.75
283.976	732.75
284.207	743.75
284.439	773.75
284.67	759.75
284.901	782.75
285.132	802.75
285.364	806.75
285.595	782.75
285.826	774.75
286.057	759.75
286.288	751.75
286.52	822.75
286.751	847.75
286.982	864.75
287.213	800.75
287.444	745.75
287.675	725.75
287.906	810.75
288.138	845.75
288.369	805.75
288.6	746.75
288.831	749.75
289.062	741.75
289.293	770.75
289.524	771.75
289.755	839.75
289.986	797.75
290.217	742.75
290.448	761.75
290.679	813.75
290.91	811.75
291.141	829.75
291.371	834.75
291.602	839.75
291.833	834.75
292.064	845.75
292.295	835.75
292.526	865.75
292.757	894.75
292.987	835.75
293.218	802.75
293.449	871.75
293.68	986.75
293.91	1025.75
294.141	965.75
294.372	924.75
294.603	941.75
294.833	983.75
295.064	926.75
295.295	827.75
295.525	812.75
295.756	771.75
295.987	770.75
296.217	765.75
296.448	781.75
296.679	792.75
296.909	760.75
297.14	789.75
297.37	798.75
297.601	874.75
297.831	914.75
298.062	903.75
298.292	811.75
298.523	798.75
298.753	811.75
298.984	833.75
299.214	808.75
299.445	826.75
299.675	857.75
299.905	835.75
300.136	812.75
300.366	814.75
300.597	759.75
300.827	809.75
301.057	854.75
301.288	868.75
301.518	845.75
301.748	877.75
301.979	933.75
302.209	953.75
302.439	989.75
302.669	1020.75
302.9	953.75
303.13	843.75
303.36	865.75
303.59	874.75
303.82	846.75
304.051	860.75
304.281	889.75
304.511	909.75
304.741	956.75
304.971	1014.75
305.201	1080.75
305.431	982.75
305.661	813.75
305.891	772.75
306.121	779.75
306.352	813.75
306.582	853.75
306.812	885.75
307.042	957.75
307.272	997.75
307.502	1031.75
307.731	1103.75
307.961	1133.75
308.191	1028.75
308.421	893.75
308.651	858.75
308.881	833.75
309.111	855.75
309.341	846.75
309.571	846.75
309.8	846.75
310.03	860.75
310.26	846.75
310.49	833.75
310.72	880.75
310.949	902.75
311.179	888.75
311.409	885.75
311.639	827.75
311.868	838.75
312.098	843.75
312.328	848.75
312.557	858.75
312.787	887.75
313.017	864.75
313.246	888.75
313.476	868.75
313.706	892.75
313.935	887.75
314.165	919.75
314.394	964.75
314.624	998.75
314.853	1041.75
315.083	1086.75
315.312	1081.75
315.542	997.75
315.771	913.75
316.001	947.75
316.23	980.75
316.46	967.75
316.689	957.75
316.919	912.75
317.148	874.75
317.377	898.75
317.607	991.75
317.836	1072.75
318.065	1119.75
318.295	1049.75
318.524	1002.75
318.753	968.75
318.983	977.75
319.212	924.75
319.441	915.75
319.67	919.75
319.9	954.75
320.129	1003.75
320.358	1031.75
320.587	1084.75
320.816	1035.75
321.046	999.75
321.275	997.75
321.504	1046.75
321.733	1054.75
321.962	1012.75
322.191	974.75
322.42	959.75
322.649	940.75
322.878	937.75
323.108	937.75
323.337	967.75
323.566	988.75
323.795	976.75
324.024	987.75
324.253	947.75
324.482	953.75
324.71	914.75
324.939	881.75
325.168	922.75
325.397	984.75
325.626	967.75
325.855	949.75
326.084	944.75
326.313	956.75
326.542	998.75
326.77	974.75
326.999	1006.75
327.228	965.75
327.457	902.75
327.686	886.75
327.914	925.75
328.143	962.75
328.372	935.75
328.6	927.75
328.829	911.75
329.058	897.75
329.287	929.75
329.515	982.75
329.744	967.75
329.972	1003.75
330.201	1068.75
330.43	1027.75
330.658	979.75
330.887	1009.75
331.115	993.75
331.344	995.75
331.572	995.75
331.801	973.75
332.03	992.75
332.258	994.75
332.486	990.75
332.715	1020.75
332.943	1019.75
333.172	962.75
333.4	1027.75
333.629	1067.75
333.857	1126.75
334.085	1223.75
334.314	1411.75
334.542	1461.75
334.771	1337.75
334.999	1201.75
335.227	1099.75
335.455	1073.75
335.684	1082.75
335.912	1058.75
336.14	1129.75
336.369	1077.75
336.597	984.75
336.825	1002.75
337.053	1047.75
337.281	1143.75
337.51	1165.75
337.738	1182.75
337.966	1113.75
338.194	1023.75
338.422	1021.75
338.65	984.75
338.878	971.75
339.106	957.75
339.334	942.75
339.562	923.75
339.79	962.75
340.018	1087.75
340.246	1080.75
340.474	1061.75
340.702	1034.75
340.93	1066.75
341.158	1025.75
341.386	997.75
341.614	995.75
341.842	997.75
342.07	997.75
342.298	1017.75
342.526	999.75
342.754	984.75
342.981	995.75
343.209	974.75
343.437	987.75
343.665	978.75
343.893	1034.75
344.12	1073.75
344.348	1084.75
344.576	1037.75
344.804	1009.75
345.031	977.75
345.259	1010.75
345.487	942.75
345.714	952.75
345.942	895.75
346.17	915.75
346.397	963.75
346.625	947.75
346.853	902.75
347.08	885.75
347.308	899.75
347.535	923.75
347.763	979.75
347.99	941.75
348.218	894.75
348.445	919.75
348.673	964.75
348.9	939.75
349.128	1020.75
349.355	1031.75
349.583	1000.75
349.81	933.75
350.037	877.75
350.265	871.75
350.492	874.75
350.72	920.75
350.947	998.75
351.174	945.75
351.402	942.75
351.629	885.75
351.856	863.75
352.083	880.75
352.311	891.75
352.538	906.75
352.765	970.75
352.992	1004.75
353.22	937.75
353.447	915.75
353.674	903.75
353.901	959.75
354.128	915.75
354.355	921.75
354.583	987.75
354.81	979.75
355.037	982.75
355.264	971.75
355.491	930.75
355.718	929.75
355.945	922.75
356.172	922.75
356.399	912.75
356.626	907.75
356.853	957.75
357.08	1037.75
357.307	1129.75
357.534	1071.75
357.761	938.75
357.988	915.75
358.215	911.75
358.441	904.75
358.668	897.75
358.895	921.75
359.122	989.75
359.349	1070.75
359.576	1035.75
359.802	937.75
360.029	909.75
360.256	891.75
360.483	913.75
360.709	935.75
360.936	999.75
361.163	1021.75
361.39	1118.75
361.616	1179.75
361.843	1149.75
362.07	1051.75
362.296	939.75
362.523	906.75
362.749	945.75
362.976	931.75
363.203	947.75
363.429	925.75
363.656	889.75
363.882	967.75
364.109	1088.75
364.335	1130.75
364.562	1045.75
364.788	968.75
365.015	933.75
365.241	902.75
365.468	944.75
365.694	1009.75
365.92	1009.75
366.147	959.75
366.373	925.75
366.599	901.75
366.826	917.75
367.052	935.75
367.278	938.75
367.505	960.75
367.731	996.75
367.957	978.75
368.184	1031.75
368.41	1051.75
368.636	1100.75
368.862	1060.75
369.089	1079.75
369.315	1013.75
369.541	1021.75
369.767	961.75
369.993	922.75
370.219	947.75
370.445	961.75
370.672	1027.75
370.898	1068.75
371.124	1038.75
371.35	1000.75
371.576	1070.75
371.802	1080.75
372.028	1011.75
372.254	965.75
372.48	949.75
372.706	956.75
372.932	951.75
373.158	962.75
373.384	977.75
373.61	1013.75
373.835	1063.75
374.061	1027.75
374.287	998.75
374.513	983.75
374.739	1009.75
374.965	999.75
375.191	1017.75
375.416	1018.75
375.642	1049.75
375.868	1148.75
376.094	1145.75
376.319	1056.75
376.545	995.75
376.771	1058.75
376.997	1098.75
377.222	1075.75
377.448	1039.75
377.674	1094.75
377.899	1065.75
378.125	1123.75
378.35	1088.75
378.576	1005.75
378.802	967.75
379.027	994.75
379.253	996.75
379.478	1001.75
379.704	974.75
379.929	981.75
380.155	1000.75
380.38	1028.75
380.606	1031.75
380.831	1015.75
381.057	1096.75
381.282	1065.75
381.507	1079.75
381.733	1124.75
381.958	1133.75
382.184	1054.75
382.409	1066.75
382.634	1040.75
382.86	1018.75
383.085	1075.75
383.31	1120.75
383.535	1188.75
383.761	1251.75
383.986	1216.75
384.211	1149.75
384.436	1113.75
384.662	1181.75
384.887	1217.75
385.112	1128.75
385.337	1166.75
385.562	1160.75
385.787	1158.75
386.013	1197.75
386.238	1203.75
386.463	1181.75
386.688	1285.75
386.913	1319.75
387.138	1259.75
387.363	1194.75
387.588	1178.75
387.813	1163.75
388.038	1212.75
388.263	1235.75
388.488	1160.75
388.713	1129.75
388.938	1100.75
389.163	1109.75
389.387	1114.75
389.612	1126.75
389.837	1185.75
390.062	1095.75
390.287	1157.75
390.512	1128.75
390.736	1121.75
390.961	1081.75
391.186	1088.75
391.411	1121.75
391.636	1117.75
391.86	1139.75
392.085	1121.75
392.31	1123.75
392.534	1108.75
392.759	1159.75
392.984	1119.75
393.208	1182.75
393.433	1217.75
393.658	1236.75
393.882	1223.75
394.107	1179.75
394.331	1127.75
394.556	1135.75
394.78	1183.75
395.005	1228.75
395.229	1278.75
395.454	1313.75
395.678	1331.75
395.903	1254.75
396.127	1235.75
396.352	1236.75
396.576	1255.75
396.801	1246.75
397.025	1254.75
397.249	1259.75
397.474	1210.75
397.698	1250.75
397.922	1285.75
398.147	1335.75
398.371	1361.75
398.595	1377.75
398.82	1324.75
399.044	1347.75
399.268	1389.75
399.492	1446.75
399.717	1491.75
399.941	1529.75
400.165	1486.75
400.389	1435.75
400.613	1497.75
400.837	1704.75
401.062	1817.75
401.286	1525.75
401.51	1457.75
401.734	1506.75
401.958	1423.75
402.182	1333.75
402.406	1301.75
402.63	1278.75
402.854	1303.75
403.078	1299.75
403.302	1347.75
403.526	1348.75
403.75	1388.75
403.974	1369.75
404.198	1371.75
404.422	1473.75
404.645	1481.75
404.869	1438.75
405.093	1317.75
405.317	1309.75
405.541	1363.75
405.765	1401.75
405.988	1354.75
406.212	1405.75
406.436	1391.75
406.66	1439.75
406.883	1496.75
407.107	1670.75
407.331	1805.75
407.555	1890.75
407.778	1706.75
408.002	1467.75
408.226	1441.75
408.449	1443.75
408.673	1365.75
408.896	1377.75
409.12	1419.75
409.344	1379.75
409.567	1333.75
409.791	1359.75
410.014	1394.75
410.238	1521.75
410.461	1549.75
410.685	1404.75
410.908	1357.75
411.132	1409.75
411.355	1374.75
411.578	1337.75
411.802	1347.75
412.025	1356.75
412.249	1363.75
412.472	1290.75
412.695	1317.75
412.919	1329.75
413.142	1313.75
413.365	1339.75
413.589	1335.75
413.812	1439.75
414.035	1459.75
414.258	1324.75
414.482	1319.75
414.705	1345.75
414.928	1301.75
415.151	1317.75
415.374	1357.75
415.597	1378.75
415.821	1358.75
416.044	1372.75
416.267	1335.75
416.49	1283.75
416.713	1265.75
416.936	1323.75
417.159	1401.75
417.382	1365.75
417.605	1318.75
417.828	1342.75
418.051	1345.75
418.274	1315.75
418.497	1298.75
418.72	1295.75
418.943	1287.75
419.166	1356.75
419.389	1382.75
419.611	1314.75
419.834	1286.75
420.057	1333.75
420.28	1299.75
420.503	1309.75
420.726	1367.75
420.948	1337.75
421.171	1286.75
421.394	1292.75
421.617	1340.75
421.839	1334.75
422.062	1333.75
422.285	1292.75
422.507	1294.75
422.73	1215.75
422.953	1208.75
423.175	1253.75
423.398	1291.75
423.621	1294.75
423.843	1312.75
424.066	1346.75
424.288	1377.75
424.511	1414.75
424.733	1353.75
424.956	1250.75
425.178	1262.75
425.401	1237.75
425.623	1300.75
425.846	1269.75
426.068	1375.75
426.291	1339.75
426.513	1357.75
426.735	1316.75
426.958	1447.75
427.18	1499.75
427.402	1398.75
427.625	1438.75
427.847	1416.75
428.069	1302.75
428.292	1292.75
428.514	1265.75
428.736	1278.75
428.958	1261.75
429.181	1307.75
429.403	1507.75
429.625	1807.75
429.847	1462.75
430.069	1338.75
430.292	1448.75
430.514	1487.75
430.736	1393.75
430.958	1409.75
431.18	1326.75
431.402	1229.75
431.624	1181.75
431.846	1191.75
432.068	1141.75
432.29	1173.75
432.512	1182.75
432.734	1273.75
432.956	1307.75
433.178	1324.75
433.4	1349.75
433.622	1320.75
433.844	1242.75
434.066	1229.75
434.287	1206.75
434.509	1228.75
434.731	1277.75
434.953	1410.75
435.175	1359.75
435.397	1315.75
435.618	1297.75
435.84	1277.75
436.062	1232.75
436.284	1261.75
436.505	1299.75
436.727	1316.75
436.949	1297.75
437.17	1269.75
437.392	1213.75
437.614	1244.75
437.835	1209.75
438.057	1248.75
438.278	1301.75
438.5	1242.75
438.721	1243.75
438.943	1278.75
439.165	1249.75
439.386	1241.75
439.608	1292.75
439.829	1270.75
440.05	1249.75
440.272	1282.75
440.493	1250.75
440.715	1299.75
440.936	1384.75
441.158	1443.75
441.379	1394.75
441.6	1404.75
441.822	1363.75
442.043	1345.75
442.264	1333.75
442.486	1263.75
442.707	1291.75
442.928	1263.75
443.149	1291.75
443.371	1344.75
443.592	1401.75
443.813	1386.75
444.034	1393.75
444.255	1406.75
444.476	1405.75
444.698	1407.75
444.919	1413.75
445.14	1539.75
445.361	1477.75
445.582	1448.75
445.803	1434.75
446.024	1400.75
446.245	1430.75
446.466	1400.75
446.687	1371.75
446.908	1374.75
447.129	1317.75
447.35	1335.75
447.571	1330.75
447.792	1253.75
448.013	1268.75
448.234	1283.75
448.455	1314.75
448.675	1313.75
448.896	1236.75
449.117	1227.75
449.338	1233.75
449.559	1286.75
449.779	1325.75
450	1409.75
450.221	1485.75
450.442	1446.75
450.662	1293.75
450.883	1195.75
451.104	1186.75
451.324	1205.75
451.545	1269.75
451.766	1215.75
451.986	1156.75
452.207	1093.75
452.428	1131.75
452.648	1091.75
452.869	1147.75
453.089	1153.75
453.31	1156.75
453.53	1180.75
453.751	1143.75
453.971	1084.75
454.192	1108.75
454.412	1139.75
454.633	1155.75
454.853	1125.75
455.073	1061.75
455.294	1070.75
455.514	1086.75
455.734	1102.75
455.955	1084.75
456.175	1102.75
456.395	1082.75
456.616	1102.75
456.836	1139.75
457.056	1087.75
457.276	1114.75
457.497	1053.75
457.717	997.75
457.937	1038.75
458.157	1083.75
458.377	1073.75
458.598	1024.75
458.818	1028.75
459.038	1150.75
459.258	1177.75
459.478	1189.75
459.698	1143.75
459.918	1138.75
460.138	1256.75
460.358	1241.75
460.578	1256.75
460.798	1271.75
461.018	1377.75
461.238	1310.75
461.458	1277.75
461.678	1258.75
461.898	1221.75
462.118	1198.75
462.338	1285.75
462.558	1309.75
462.777	1265.75
462.997	1319.75
463.217	1403.75
463.437	1345.75
463.657	1297.75
463.876	1245.75
464.096	1253.75
464.316	1287.75
464.536	1309.75
464.755	1347.75
464.975	1311.75
465.195	1268.75
465.414	1294.75
465.634	1331.75
465.854	1311.75
466.073	1429.75
466.293	1409.75
466.512	1248.75
466.732	1189.75
466.951	1283.75
467.171	1260.75
467.391	1187.75
467.61	1181.75
467.829	1239.75
468.049	1358.75
468.268	1477.75
468.488	1327.75
468.707	1326.75
468.927	1266.75
469.146	1201.75
469.365	1256.75
469.585	1236.75
469.804	1217.75
470.023	1238.75
470.243	1233.75
470.462	1260.75
470.681	1243.75
470.901	1263.75
471.12	1222.75
471.339	1217.75
471.558	1171.75
471.777	1209.75
471.997	1202.75
472.216	1207.75
472.435	1150.75
472.654	1147.75
472.873	1198.75
473.092	1259.75
473.311	1187.75
473.53	1184.75
473.749	1148.75
473.968	1209.75
474.187	1227.75
474.406	1271.75
474.625	1244.75
474.844	1242.75
475.063	1245.75
475.282	1228.75
475.501	1209.75
475.72	1276.75
475.939	1291.75
476.158	1249.75
476.377	1224.75
476.596	1230.75
476.814	1218.75
477.033	1222.75
477.252	1304.75
477.471	1321.75
477.69	1314.75
477.908	1336.75
478.127	1355.75
478.346	1445.75
478.564	1414.75
478.783	1431.75
479.002	1473.75
479.22	1420.75
479.439	1476.75
479.658	1583.75
479.876	1527.75
480.095	1402.75
480.313	1384.75
480.532	1312.75
480.751	1321.75
480.969	1332.75
481.188	1295.75
481.406	1267.75
481.624	1237.75
481.843	1273.75
482.061	1333.75
482.28	1329.75
482.498	1347.75
482.717	1335.75
482.935	1330.75
483.153	1371.75
483.372	1405.75
483.59	1386.75
483.808	1377.75
484.027	1377.75
484.245	1486.75
484.463	1786.75
484.681	1917.75
484.9	1496.75
485.118	1400.75
485.336	1342.75
485.554	1407.75
485.772	1399.75
485.99	1386.75
486.209	1431.75
486.427	1385.75
486.645	1394.75
486.863	1443.75
487.081	1483.75
487.299	1455.75
487.517	1464.75
487.735	1463.75
487.953	1513.75
488.171	1474.75
488.389	1469.75
488.607	1472.75
488.825	1642.75
489.043	1564.75
489.261	1378.75
489.479	1474.75
489.696	1489.75
489.914	1460.75
490.132	1474.75
490.35	1462.75
490.568	1541.75
490.786	1515.75
491.003	1485.75
491.221	1556.75
491.439	1609.75
491.657	1587.75
491.874	1661.75
492.092	1676.75
492.31	1689.75
492.527	1684.75
492.745	1620.75
492.963	1580.75
493.18	1629.75
493.398	1702.75
493.615	1727.75
493.833	1597.75
494.05	1587.75
494.268	1550.75
494.485	1587.75
494.703	1566.75
494.92	1593.75
495.138	1561.75
495.355	1582.75
495.573	1623.75
495.79	1683.75
496.008	1714.75
496.225	1626.75
496.442	1639.75
496.66	1656.75
496.877	1590.75
497.094	1658.75
497.312	1642.75
497.529	1606.75
497.746	1675.75
497.963	1871.75
498.181	1966.75
498.398	1925.75
498.615	1862.75
498.832	1819.75
499.049	1797.75
499.267	1813.75
499.484	1932.75
499.701	2051.75
499.918	2091.75
500.135	2228.75
500.352	2353.75
500.569	2354.75
500.786	2538.75
501.003	2295.75
501.22	2108.75
501.437	2065.75
501.654	2088.75
501.871	2035.75
502.088	1793.75
502.305	1780.75
502.522	1716.75
502.739	1634.75
502.956	1595.75
503.172	1569.75
503.389	1494.75
503.606	1471.75
503.823	1490.75
504.04	1493.75
504.256	1502.75
504.473	1510.75
504.69	1552.75
504.907	1429.75
505.123	1445.75
505.34	1553.75
505.557	2009.75
505.773	1672.75
505.99	1427.75
506.207	1317.75
506.423	1346.75
506.64	1246.75
506.856	1329.75
507.073	1549.75
507.289	1608.75
507.506	1537.75
507.722	1308.75
507.939	1235.75
508.155	1255.75
508.372	1256.75
508.588	1222.75
508.805	1169.75
509.021	1197.75
509.238	1141.75
509.454	1156.75
509.67	1171.75
509.887	1158.75
510.103	1150.75
510.319	1165.75
510.536	1236.75
510.752	1255.75
510.968	1239.75
511.184	1309.75
511.401	1246.75
511.617	1129.75
511.833	1107.75
512.049	1087.75
512.265	1123.75
512.481	1100.75
512.698	1173.75
512.914	1205.75
513.13	1186.75
513.346	1126.75
513.562	1127.75
513.778	1155.75
513.994	1206.75
514.21	1193.75
514.426	1229.75
514.642	1341.75
514.858	1246.75
515.074	1162.75
515.29	1165.75
515.506	1167.75
515.721	1196.75
515.937	1246.75
516.153	1324.75
516.369	1256.75
516.585	1190.75
516.801	1161.75
517.016	1173.75
517.232	1171.75
517.448	1217.75
517.664	1226.75
517.879	1222.75
518.095	1304.75
518.311	1220.75
518.527	1201.75
518.742	1177.75
518.958	1140.75
519.173	1127.75
519.389	1209.75
519.605	1189.75
519.82	1203.75
520.036	1191.75
520.251	1150.75
520.467	1171.75
520.682	1249.75
520.898	1293.75
521.113	1142.75
521.329	1149.75
521.544	1211.75
521.76	1167.75
521.975	1128.75
522.19	1098.75
522.406	1125.75
522.621	1401.75
522.836	1327.75
523.052	1120.75
523.267	1089.75
523.482	1117.75
523.698	1102.75
523.913	1068.75
524.128	1081.75
524.343	1143.75
524.559	1198.75
524.774	1119.75
524.989	1136.75
525.204	1090.75
525.419	1070.75
525.634	1105.75
525.849	1062.75
526.064	1049.75
526.28	1064.75
526.495	1030.75
526.71	1021.75
526.925	1000.75
527.14	992.75
527.355	966.75
527.57	1001.75
527.785	1052.75
527.999	1004.75
528.214	993.75
528.429	994.75
528.644	1034.75
528.859	1078.75
529.074	1091.75
529.289	1142.75
529.503	1118.75
529.718	1124.75
529.933	1032.75
530.148	988.75
530.363	1005.75
530.577	986.75
530.792	1017.75
531.007	1013.75
531.221	982.75
531.436	989.75
531.651	1037.75
531.865	1074.75
532.08	1029.75
532.295	953.75
532.509	949.75
532.724	960.75
532.938	995.75
533.153	1100.75
533.367	1065.75
533.582	1060.75
533.796	1024.75
534.011	1035.75
534.225	1019.75
534.44	993.75
534.654	991.75
534.868	1021.75
535.083	1039.75
535.297	1060.75
535.511	1008.75
535.726	1000.75
535.94	998.75
536.154	970.75
536.369	973.75
536.583	939.75
536.797	949.75
537.011	953.75
537.225	952.75
537.44	935.75
537.654	979.75
537.868	931.75
538.082	931.75
538.296	895.75
538.51	947.75
538.724	937.75
538.938	949.75
539.153	1017.75
539.367	1000.75
539.581	980.75
539.795	993.75
540.009	965.75
540.222	957.75
540.436	1002.75
540.65	1087.75
540.864	1121.75
541.078	1072.75
541.292	1052.75
541.506	1095.75
541.72	1111.75
541.934	1168.75
542.147	1185.75
542.361	1139.75
542.575	1077.75
542.789	1047.75
543.002	977.75
543.216	990.75
543.43	1022.75
543.644	1111.75
543.857	1140.75
544.071	1100.75
544.285	1125.75
544.498	1093.75
544.712	1110.75
544.925	1064.75
545.139	1134.75
545.352	1106.75
545.566	1060.75
545.779	1080.75
545.993	1121.75
546.206	1118.75
546.42	1097.75
546.633	1064.75
546.847	1069.75
547.06	1079.75
547.274	1068.75
547.487	1089.75
547.7	1091.75
547.914	1118.75
548.127	1102.75
548.34	1096.75
548.554	1093.75
548.767	1066.75
548.98	1077.75
549.193	1071.75
549.407	1106.75
549.62	1137.75
549.833	1059.75
550.046	1048.75
550.259	1067.75
550.473	1042.75
550.686	1078.75
550.899	1005.75
551.112	984.75
551.325	1001.75
551.538	1063.75
551.751	1161.75
551.964	921.75
552.177	935.75
552.39	963.75
552.603	1035.75
552.816	1026.75
553.029	1076.75
553.242	1085.75
553.455	1078.75
553.667	1034.75
553.88	1056.75
554.093	1034.75
554.306	1000.75
554.519	962.75
554.732	966.75
554.944	966.75
555.157	1000.75
555.37	974.75
555.583	968.75
555.795	930.75
556.008	895.75
556.221	898.75
556.433	890.75
556.646	903.75
556.859	900.75
557.071	874.75
557.284	868.75
557.496	867.75
557.709	878.75
557.921	865.75
558.134	879.75
558.346	866.75
558.559	893.75
558.771	897.75
558.984	824.75
559.196	795.75
559.409	818.75
559.621	813.75
559.833	804.75
560.046	848.75
560.258	848.75
560.47	814.75
560.683	804.75
560.895	819.75
561.107	830.75
561.32	821.75
561.532	830.75
561.744	825.75
561.956	840.75
562.168	786.75
562.381	782.75
562.593	787.75
562.805	798.75
563.017	773.75
563.229	796.75
563.441	823.75
563.653	783.75
563.865	794.75
564.077	797.75
564.289	806.75
564.501	801.75
564.713	825.75
564.925	828.75
565.137	897.75
565.349	801.75
565.561	821.75
565.773	798.75
565.985	842.75
566.197	882.75
566.408	891.75
566.62	909.75
566.832	908.75
567.044	887.75
567.255	890.75
567.467	906.75
567.679	936.75
567.891	920.75
568.102	912.75
568.314	886.75
568.526	826.75
568.737	775.75
568.949	735.75
569.161	700.75
569.372	679.75
569.584	684.75
569.795	684.75
570.007	698.75
570.218	666.75
570.43	644.75
570.641	676.75
570.853	668.75
571.064	689.75
571.276	675.75
571.487	666.75
571.698	659.75
571.91	626.75
572.121	644.75
572.333	643.75
572.544	604.75
572.755	587.75
572.966	582.75
573.178	585.75
573.389	592.75
573.6	580.75
573.811	663.75
574.023	591.75
574.234	608.75
574.445	563.75
574.656	576.75
574.867	566.75
575.078	569.75
575.289	581.75
575.501	565.75
575.712	570.75
575.923	557.75
576.134	595.75
576.345	563.75
576.556	568.75
576.767	523.75
576.978	539.75
577.188	504.75
577.399	518.75
577.61	527.75
577.821	507.75
578.032	539.75
578.243	542.75
578.454	523.75
578.665	503.75
578.875	521.75
579.086	503.75
579.297	528.75
579.508	536.75
579.718	525.75
579.929	507.75
580.14	499.75
580.35	497.75
580.561	524.75
580.772	559.75
580.982	524.75
581.193	503.75
581.403	498.75
581.614	464.75
581.825	469.75
582.035	463.75
582.246	514.75
582.456	511.75
582.667	484.75
582.877	463.75
583.087	480.75
583.298	477.75
583.508	475.75
583.719	473.75
583.929	474.75
584.139	476.75
584.35	462.75
584.56	448.75
584.77	474.75
584.981	460.75
585.191	475.75
585.401	468.75
585.611	474.75
585.821	478.75
586.032	454.75
586.242	449.75
586.452	452.75
586.662	463.75
586.872	459.75
587.082	447.75
587.292	447.75
587.502	462.75
587.713	473.75
587.923	461.75
588.133	446.75
588.343	450.75
588.553	464.75
588.762	436.75
588.972	440.75
589.182	458.75
589.392	462.75
589.602	468.75
589.812	453.75
590.022	449.75
590.232	446.75
590.441	479.75
590.651	462.75
590.861	454.75
591.071	434.75
591.281	437.75
591.49	446.75
591.7	452.75
591.91	449.75
592.119	458.75
592.329	449.75
592.539	492.75
592.748	461.75
592.958	468.75
593.167	481.75
593.377	486.75
593.587	486.75
593.796	480.75
594.006	489.75
594.215	470.75
594.424	479.75
594.634	463.75
594.843	471.75
595.053	494.75
595.262	481.75
595.472	466.75
595.681	457.75
595.89	439.75
596.1	435.75
596.309	449.75
596.518	439.75
596.727	450.75
596.937	428.75
597.146	399.75
597.355	420.75
597.564	437.75
597.774	414.75
597.983	411.75
598.192	382.75
598.401	408.75
598.61	396.75
598.819	381.75
599.028	419.75
599.237	402.75
599.446	399.75
599.655	398.75
599.864	394.75
600.073	394.75
600.282	399.75
600.491	381.75
600.7	363.75
600.909	391.75
601.118	409.75
601.327	411.75
601.536	422.75
601.745	407.75
601.953	433.75
602.162	413.75
602.371	419.75
602.58	424.75
602.789	418.75
602.997	427.75
603.206	399.75
603.415	396.75
603.623	432.75
603.832	409.75
604.041	413.75
604.249	391.75
604.458	393.75
604.666	394.75
604.875	396.75
605.084	402.75
605.292	406.75
605.501	412.75
605.709	405.75
605.918	419.75
606.126	429.75
606.334	415.75
606.543	416.75
606.751	411.75
606.96	404.75
607.168	389.75
607.376	405.75
607.585	405.75
607.793	390.75
608.001	415.75
608.21	399.75
608.418	405.75
608.626	397.75
608.834	412.75
609.043	407.75
609.251	428.75
609.459	392.75
609.667	418.75
609.875	410.75
610.083	430.75
610.291	418.75
610.499	421.75
610.707	419.75
610.916	391.75
611.124	406.75
611.332	399.75
611.54	413.75
611.748	413.75
611.955	411.75
612.163	397.75
612.371	381.75
612.579	398.75
612.787	366.75
612.995	387.75
613.203	391.75
613.411	370.75
613.618	387.75
613.826	388.75
614.034	392.75
614.242	394.75
614.449	394.75
614.657	419.75
614.865	402.75
615.072	393.75
615.28	397.75
615.488	381.75
615.695	410.75
615.903	401.75
616.111	381.75
616.318	393.75
616.526	404.75
616.733	390.75
616.941	374.75
617.148	391.75
617.356	374.75
617.563	379.75
617.771	375.75
617.978	371.75
618.185	375.75
618.393	391.75
618.6	376.75
618.807	390.75
619.015	396.75
619.222	372.75
619.429	382.75
619.637	368.75
619.844	351.75
620.051	352.75
620.258	373.75
620.466	355.75
620.673	362.75
620.88	324.75
621.087	357.75
621.294	344.75
621.501	341.75
621.708	337.75
621.915	344.75
622.122	356.75
622.329	369.75
622.536	339.75
622.743	365.75
622.95	369.75
623.157	368.75
623.364	356.75
623.571	355.75
623.778	355.75
623.985	372.75
624.192	356.75
624.399	353.75
624.606	343.75
624.812	332.75
625.019	321.75
625.226	329.75
625.433	309.75
625.639	334.75
625.846	305.75
626.053	285.75
626.259	305.75
626.466	291.75
626.673	289.75
626.879	287.75
627.086	311.75
627.293	324.75
627.499	318.75
627.706	318.75
627.912	309.75
628.119	326.75
628.325	338.75
628.532	322.75
628.738	324.75
628.945	325.75
629.151	321.75
629.357	325.75
629.564	325.75
629.77	314.75
629.976	296.75
630.183	313.75
630.389	309.75
630.595	312.75
630.802	314.75
631.008	301.75
631.214	285.75
631.42	310.75
631.627	299.75
631.833	295.75
632.039	305.75
632.245	302.75
632.451	302.75
632.657	299.75
632.863	300.75
633.069	297.75
633.275	274.75
633.481	281.75
633.688	265.75
633.893	277.75
634.099	278.75
634.305	281.75
634.511	281.75
634.717	284.75
634.923	273.75
635.129	249.75
635.335	262.75
635.541	267.75
635.747	281.75
635.952	278.75
636.158	280.75
636.364	297.75
636.57	291.75
636.775	289.75
636.981	260.75
637.187	281.75
637.392	284.75
637.598	276.75
637.804	279.75
638.009	274.75
638.215	285.75
638.421	279.75
638.626	276.75
638.832	285.75
639.037	280.75
639.243	274.75
639.448	265.75
639.654	285.75
639.859	261.75
640.065	241.75
640.27	282.75
640.475	264.75
640.681	283.75
640.886	282.75
641.091	267.75
641.297	263.75
641.502	261.75
641.707	255.75
641.913	268.75
642.118	267.75
642.323	286.75
642.528	283.75
642.733	284.75
642.939	281.75
643.144	267.75
643.349	264.75
643.554	280.75
643.759	272.75
643.964	262.75
644.169	273.75
644.374	259.75
644.579	275.75
644.784	266.75
644.989	265.75
645.194	260.75
645.399	261.75
645.604	244.75
645.809	262.75
646.014	273.75
646.219	250.75
646.423	250.75
646.628	257.75
646.833	247.75
647.038	258.75
647.243	264.75
647.447	254.75
647.652	250.75
647.857	268.75
648.062	255.75
648.266	252.75
648.471	262.75
648.676	244.75
648.88	269.75
649.085	267.75
649.289	255.75
649.494	259.75
649.698	251.75
649.903	261.75
650.107	248.75
650.312	256.75
650.516	241.75
650.721	257.75
650.925	265.75
651.13	253.75
651.334	244.75
651.539	249.75
651.743	245.75
651.947	237.75
652.152	248.75
652.356	239.75
652.56	238.75
652.764	233.75
652.969	233.75
653.173	233.75
653.377	220.75
653.581	222.75
653.785	201.75
653.99	228.75
654.194	225.75
654.398	229.75
654.602	198.75
654.806	234.75
655.01	220.75
655.214	205.75
655.418	217.75
655.622	221.75
655.826	224.75
656.03	249.75
656.234	243.75
656.438	246.75
656.642	263.75
656.846	254.75
657.049	254.75
657.253	213.75
657.457	204.75
657.661	198.75
657.865	189.75
658.068	185.75
658.272	173.75
658.476	158.75
658.68	156.75
658.883	159.75
659.087	145.75
659.291	138.75
659.494	149.75
659.698	129.75
659.901	125.75
660.105	148.75
660.309	137.75
660.512	113.75
660.716	109.75
660.919	111.75
661.123	122.75
661.326	110.75
661.53	123.75
661.733	118.75
661.936	118.75
662.14	102.75
662.343	89.75
662.546	94.75
662.75	103.75
662.953	105.75
663.156	88.75
663.36	77.75
663.563	78.75
663.766	78.75
663.969	90.75
664.173	83.75
664.376	89.75
664.579	93.75
664.782	84.75
664.985	80.75
665.188	77.75
665.391	79.75
665.594	92.75
665.797	83.75
666	89.75
666.203	101.75
666.406	79.75
666.609	93.75
666.812	83.75
667.015	79.75
667.218	78.75
667.421	90.75
667.624	94.75
667.827	95.75
668.03	83.75
668.232	77.75
668.435	77.75
668.638	84.75
668.841	80.75
669.043	90.75
669.246	91.75
669.449	96.75
669.651	82.75
669.854	74.75
670.057	90.75
670.259	67.75
670.462	80.75
670.665	77.75
670.867	97.75
671.07	82.75
671.272	85.75
671.475	82.75
671.677	70.75
671.88	82.75
672.082	80.75
672.284	84.75
672.487	83.75
672.689	79.75
672.892	86.75
