Data from WStandard_LampEnergy10_LIBS07252019.E.O._I.C._HRD10591_15-53-46-928.txt Node
Date: Thu Jul 25 15:53:46 EDT 2019
User: cochatt
Spectrometer: HR+D1059
Trigger mode: 1
Integration Time (sec): 1.000000E-1
Scans to average: 1
Electric dark correction enabled: true
Nonlinearity correction enabled: false
Boxcar width: 0
XAxis mode: Wavelengths
Number of Pixels in Spectrum: 2048
>>>>>Begin Spectral Data<<<<<
223.165	-10.69
223.4	-10.69
223.635	-10.69
223.869	-23.69
224.104	-31.69
224.338	-16.69
224.573	-15.69
224.808	-17.69
225.042	-9.69
225.277	-2.69
225.511	-0.69
225.746	-1.69
225.98	-0.69
226.215	20.31
226.449	9.31
226.683	30.31
226.918	36.31
227.152	35.31
227.387	33.31
227.621	56.31
227.856	50.31
228.09	45.31
228.324	47.31
228.559	58.31
228.793	85.31
229.027	147.31
229.262	170.31
229.496	152.31
229.73	161.31
229.964	175.31
230.199	172.31
230.433	184.31
230.667	198.31
230.901	195.31
231.136	175.31
231.37	185.31
231.604	194.31
231.838	193.31
232.072	187.31
232.306	174.31
232.541	196.31
232.775	212.31
233.009	220.31
233.243	215.31
233.477	197.31
233.711	214.31
233.945	213.31
234.179	198.31
234.413	222.31
234.647	221.31
234.881	201.31
235.115	202.31
235.349	191.31
235.583	204.31
235.817	196.31
236.051	189.31
236.285	200.31
236.519	217.31
236.753	224.31
236.987	247.31
237.221	239.31
237.455	236.31
237.689	236.31
237.922	229.31
238.156	222.31
238.39	231.31
238.624	230.31
238.858	239.31
239.091	267.31
239.325	269.31
239.559	295.31
239.793	312.31
240.027	329.31
240.26	317.31
240.494	248.31
240.728	239.31
240.961	231.31
241.195	251.31
241.429	262.31
241.662	270.31
241.896	257.31
242.13	246.31
242.363	283.31
242.597	300.31
242.83	275.31
243.064	287.31
243.298	296.31
243.531	293.31
243.765	276.31
243.998	279.31
244.232	256.31
244.465	271.31
244.699	266.31
244.932	310.31
245.166	327.31
245.399	288.31
245.633	291.31
245.866	296.31
246.099	302.31
246.333	294.31
246.566	305.31
246.8	320.31
247.033	338.31
247.266	327.31
247.5	321.31
247.733	329.31
247.966	344.31
248.2	368.31
248.433	374.31
248.666	367.31
248.899	413.31
249.133	445.31
249.366	473.31
249.599	414.31
249.832	384.31
250.066	386.31
250.299	390.31
250.532	357.31
250.765	319.31
250.998	351.31
251.231	349.31
251.465	364.31
251.698	350.31
251.931	362.31
252.164	366.31
252.397	360.31
252.63	357.31
252.863	321.31
253.096	339.31
253.329	358.31
253.562	373.31
253.795	383.31
254.028	359.31
254.261	344.31
254.494	352.31
254.727	342.31
254.96	358.31
255.193	377.31
255.426	426.31
255.659	458.31
255.892	455.31
256.124	402.31
256.357	398.31
256.59	410.31
256.823	422.31
257.056	428.31
257.289	487.31
257.521	521.31
257.754	480.31
257.987	460.31
258.22	480.31
258.452	477.31
258.685	410.31
258.918	393.31
259.151	383.31
259.383	397.31
259.616	361.31
259.849	366.31
260.081	410.31
260.314	459.31
260.547	498.31
260.779	459.31
261.012	451.31
261.244	406.31
261.477	414.31
261.71	402.31
261.942	418.31
262.175	402.31
262.407	429.31
262.64	411.31
262.872	375.31
263.105	351.31
263.337	370.31
263.57	391.31
263.802	368.31
264.035	346.31
264.267	346.31
264.499	362.31
264.732	373.31
264.964	399.31
265.197	425.31
265.429	431.31
265.661	479.31
265.894	520.31
266.126	491.31
266.358	462.31
266.591	475.31
266.823	489.31
267.055	460.31
267.287	445.31
267.52	454.31
267.752	450.31
267.984	447.31
268.216	465.31
268.448	473.31
268.681	471.31
268.913	427.31
269.145	409.31
269.377	413.31
269.609	452.31
269.841	523.31
270.073	588.31
270.306	636.31
270.538	628.31
270.77	540.31
271.002	497.31
271.234	487.31
271.466	498.31
271.698	556.31
271.93	623.31
272.162	608.31
272.394	532.31
272.626	532.31
272.858	481.31
273.09	431.31
273.322	430.31
273.553	434.31
273.785	432.31
274.017	439.31
274.249	457.31
274.481	469.31
274.713	440.31
274.945	438.31
275.176	429.31
275.408	432.31
275.64	417.31
275.872	424.31
276.104	443.31
276.335	509.31
276.567	569.31
276.799	541.31
277.031	485.31
277.262	485.31
277.494	511.31
277.726	530.31
277.957	535.31
278.189	493.31
278.421	471.31
278.652	449.31
278.884	416.31
279.115	448.31
279.347	447.31
279.579	437.31
279.81	450.31
280.042	483.31
280.273	529.31
280.505	531.31
280.736	535.31
280.968	478.31
281.199	445.31
281.431	441.31
281.662	448.31
281.894	447.31
282.125	460.31
282.356	457.31
282.588	446.31
282.819	462.31
283.051	508.31
283.282	549.31
283.513	493.31
283.745	452.31
283.976	446.31
284.207	442.31
284.439	461.31
284.67	441.31
284.901	438.31
285.132	471.31
285.364	477.31
285.595	442.31
285.826	446.31
286.057	471.31
286.288	471.31
286.52	486.31
286.751	511.31
286.982	517.31
287.213	463.31
287.444	436.31
287.675	468.31
287.906	459.31
288.138	514.31
288.369	465.31
288.6	449.31
288.831	435.31
289.062	443.31
289.293	468.31
289.524	475.31
289.755	475.31
289.986	478.31
290.217	447.31
290.448	441.31
290.679	474.31
290.91	468.31
291.141	497.31
291.371	509.31
291.602	504.31
291.833	504.31
292.064	498.31
292.295	518.31
292.526	515.31
292.757	519.31
292.987	481.31
293.218	464.31
293.449	558.31
293.68	596.31
293.91	583.31
294.141	562.31
294.372	525.31
294.603	571.31
294.833	578.31
295.064	563.31
295.295	515.31
295.525	493.31
295.756	466.31
295.987	446.31
296.217	455.31
296.448	467.31
296.679	473.31
296.909	451.31
297.14	477.31
297.37	486.31
297.601	506.31
297.831	549.31
298.062	516.31
298.292	487.31
298.523	477.31
298.753	507.31
298.984	486.31
299.214	468.31
299.445	523.31
299.675	537.31
299.905	522.31
300.136	482.31
300.366	470.31
300.597	464.31
300.827	499.31
301.057	505.31
301.288	520.31
301.518	523.31
301.748	523.31
301.979	549.31
302.209	567.31
302.439	582.31
302.669	609.31
302.9	552.31
303.13	525.31
303.36	527.31
303.59	530.31
303.82	508.31
304.051	526.31
304.281	530.31
304.511	558.31
304.741	577.31
304.971	612.31
305.201	635.31
305.431	590.31
305.661	485.31
305.891	453.31
306.121	463.31
306.352	496.31
306.582	502.31
306.812	542.31
307.042	594.31
307.272	586.31
307.502	613.31
307.731	639.31
307.961	650.31
308.191	583.31
308.421	523.31
308.651	495.31
308.881	490.31
309.111	510.31
309.341	500.31
309.571	511.31
309.8	502.31
310.03	476.31
310.26	490.31
310.49	500.31
310.72	531.31
310.949	532.31
311.179	541.31
311.409	537.31
311.639	512.31
311.868	510.31
312.098	515.31
312.328	485.31
312.557	494.31
312.787	524.31
313.017	530.31
313.246	558.31
313.476	543.31
313.706	553.31
313.935	520.31
314.165	551.31
314.394	571.31
314.624	590.31
314.853	629.31
315.083	657.31
315.312	621.31
315.542	595.31
315.771	549.31
316.001	554.31
316.23	579.31
316.46	589.31
316.689	559.31
316.919	530.31
317.148	523.31
317.377	548.31
317.607	603.31
317.836	645.31
318.065	651.31
318.295	629.31
318.524	583.31
318.753	585.31
318.983	559.31
319.212	565.31
319.441	554.31
319.67	563.31
319.9	583.31
320.129	630.31
320.358	649.31
320.587	640.31
320.816	622.31
321.046	607.31
321.275	595.31
321.504	609.31
321.733	645.31
321.962	608.31
322.191	574.31
322.42	554.31
322.649	559.31
322.878	548.31
323.108	567.31
323.337	623.31
323.566	595.31
323.795	576.31
324.024	583.31
324.253	565.31
324.482	582.31
324.71	570.31
324.939	568.31
325.168	568.31
325.397	586.31
325.626	605.31
325.855	594.31
326.084	587.31
326.313	579.31
326.542	567.31
326.77	580.31
326.999	605.31
327.228	553.31
327.457	541.31
327.686	555.31
327.914	589.31
328.143	585.31
328.372	565.31
328.6	562.31
328.829	553.31
329.058	561.31
329.287	559.31
329.515	557.31
329.744	593.31
329.972	617.31
330.201	637.31
330.43	633.31
330.658	576.31
330.887	614.31
331.115	601.31
331.344	608.31
331.572	601.31
331.801	613.31
332.03	585.31
332.258	601.31
332.486	618.31
332.715	615.31
332.943	595.31
333.172	587.31
333.4	593.31
333.629	631.31
333.857	677.31
334.085	769.31
334.314	848.31
334.542	850.31
334.771	795.31
334.999	698.31
335.227	676.31
335.455	636.31
335.684	667.31
335.912	666.31
336.14	675.31
336.369	639.31
336.597	619.31
336.825	601.31
337.053	651.31
337.281	691.31
337.51	687.31
337.738	717.31
337.966	690.31
338.194	623.31
338.422	620.31
338.65	619.31
338.878	581.31
339.106	586.31
339.334	582.31
339.562	572.31
339.79	606.31
340.018	629.31
340.246	647.31
340.474	644.31
340.702	611.31
340.93	633.31
341.158	630.31
341.386	635.31
341.614	614.31
341.842	615.31
342.07	614.31
342.298	626.31
342.526	601.31
342.754	582.31
342.981	610.31
343.209	603.31
343.437	596.31
343.665	599.31
343.893	617.31
344.12	643.31
344.348	642.31
344.576	632.31
344.804	607.31
345.031	615.31
345.259	618.31
345.487	567.31
345.714	547.31
345.942	559.31
346.17	581.31
346.397	574.31
346.625	577.31
346.853	566.31
347.08	547.31
347.308	559.31
347.535	573.31
347.763	633.31
347.99	568.31
348.218	557.31
348.445	588.31
348.673	577.31
348.9	603.31
349.128	602.31
349.355	653.31
349.583	599.31
349.81	551.31
350.037	555.31
350.265	545.31
350.492	548.31
350.72	561.31
350.947	602.31
351.174	597.31
351.402	557.31
351.629	551.31
351.856	546.31
352.083	538.31
352.311	553.31
352.538	566.31
352.765	592.31
352.992	584.31
353.22	580.31
353.447	571.31
353.674	577.31
353.901	586.31
354.128	589.31
354.355	560.31
354.583	605.31
354.81	590.31
355.037	577.31
355.264	583.31
355.491	586.31
355.718	593.31
355.945	564.31
356.172	554.31
356.399	563.31
356.626	557.31
356.853	607.31
357.08	667.31
357.307	681.31
357.534	652.31
357.761	567.31
357.988	545.31
358.215	555.31
358.441	567.31
358.668	571.31
358.895	586.31
359.122	617.31
359.349	647.31
359.576	620.31
359.802	590.31
360.029	566.31
360.256	544.31
360.483	567.31
360.709	583.31
360.936	606.31
361.163	641.31
361.39	704.31
361.616	714.31
361.843	694.31
362.07	648.31
362.296	613.31
362.523	576.31
362.749	569.31
362.976	619.31
363.203	602.31
363.429	574.31
363.656	562.31
363.882	612.31
364.109	663.31
364.335	689.31
364.562	646.31
364.788	613.31
365.015	604.31
365.241	569.31
365.468	590.31
365.694	629.31
365.92	622.31
366.147	571.31
366.373	564.31
366.599	584.31
366.826	586.31
367.052	561.31
367.278	601.31
367.505	590.31
367.731	615.31
367.957	605.31
368.184	644.31
368.41	670.31
368.636	689.31
368.862	690.31
369.089	686.31
369.315	647.31
369.541	631.31
369.767	640.31
369.993	597.31
370.219	590.31
370.445	627.31
370.672	680.31
370.898	668.31
371.124	655.31
371.35	647.31
371.576	657.31
371.802	646.31
372.028	633.31
372.254	638.31
372.48	612.31
372.706	610.31
372.932	635.31
373.158	613.31
373.384	632.31
373.61	651.31
373.835	676.31
374.061	667.31
374.287	635.31
374.513	626.31
374.739	638.31
374.965	641.31
375.191	657.31
375.416	655.31
375.642	671.31
375.868	730.31
376.094	729.31
376.319	667.31
376.545	659.31
376.771	697.31
376.997	720.31
377.222	668.31
377.448	697.31
377.674	703.31
377.899	702.31
378.125	721.31
378.35	707.31
378.576	653.31
378.802	623.31
379.027	643.31
379.253	642.31
379.478	657.31
379.704	646.31
379.929	668.31
380.155	646.31
380.38	655.31
380.606	652.31
380.831	689.31
381.057	719.31
381.282	732.31
381.507	719.31
381.733	735.31
381.958	745.31
382.184	682.31
382.409	683.31
382.634	690.31
382.86	689.31
383.085	689.31
383.31	710.31
383.535	807.31
383.761	835.31
383.986	784.31
384.211	740.31
384.436	739.31
384.662	794.31
384.887	795.31
385.112	733.31
385.337	737.31
385.562	716.31
385.787	751.31
386.013	769.31
386.238	757.31
386.463	761.31
386.688	840.31
386.913	864.31
387.138	838.31
387.363	778.31
387.588	785.31
387.813	769.31
388.038	815.31
388.263	764.31
388.488	737.31
388.713	743.31
388.938	717.31
389.163	757.31
389.387	730.31
389.612	740.31
389.837	777.31
390.062	781.31
390.287	759.31
390.512	770.31
390.736	752.31
390.961	763.31
391.186	757.31
391.411	742.31
391.636	769.31
391.86	769.31
392.085	774.31
392.31	761.31
392.534	762.31
392.759	767.31
392.984	752.31
393.208	764.31
393.433	795.31
393.658	851.31
393.882	821.31
394.107	774.31
394.331	791.31
394.556	796.31
394.78	802.31
395.005	839.31
395.229	868.31
395.454	934.31
395.678	873.31
395.903	830.31
396.127	832.31
396.352	828.31
396.576	847.31
396.801	834.31
397.025	872.31
397.249	844.31
397.474	837.31
397.698	838.31
397.922	882.31
398.147	921.31
398.371	912.31
398.595	895.31
398.82	871.31
399.044	913.31
399.268	929.31
399.492	989.31
399.717	977.31
399.941	1011.31
400.165	972.31
400.389	979.31
400.613	1000.31
400.837	1145.31
401.062	1184.31
401.286	1053.31
401.51	995.31
401.734	985.31
401.958	973.31
402.182	894.31
402.406	916.31
402.63	896.31
402.854	910.31
403.078	918.31
403.302	929.31
403.526	924.31
403.75	951.31
403.974	953.31
404.198	926.31
404.422	997.31
404.645	1005.31
404.869	986.31
405.093	933.31
405.317	917.31
405.541	930.31
405.765	944.31
405.988	957.31
406.212	995.31
406.436	986.31
406.66	1043.31
406.883	1051.31
407.107	1133.31
407.331	1212.31
407.555	1317.31
407.778	1132.31
408.002	985.31
408.226	996.31
408.449	972.31
408.673	958.31
408.896	951.31
409.12	983.31
409.344	986.31
409.567	936.31
409.791	960.31
410.014	1010.31
410.238	1024.31
410.461	1078.31
410.685	935.31
410.908	937.31
411.132	961.31
411.355	936.31
411.578	935.31
411.802	953.31
412.025	965.31
412.249	949.31
412.472	950.31
412.695	948.31
412.919	933.31
413.142	927.31
413.365	933.31
413.589	963.31
413.812	987.31
414.035	1002.31
414.258	942.31
414.482	949.31
414.705	945.31
414.928	954.31
415.151	913.31
415.374	947.31
415.597	969.31
415.821	957.31
416.044	956.31
416.267	939.31
416.49	929.31
416.713	920.31
416.936	970.31
417.159	1013.31
417.382	1028.31
417.605	951.31
417.828	929.31
418.051	939.31
418.274	979.31
418.497	938.31
418.72	955.31
418.943	949.31
419.166	992.31
419.389	1004.31
419.611	942.31
419.834	936.31
420.057	953.31
420.28	951.31
420.503	965.31
420.726	973.31
420.948	970.31
421.171	925.31
421.394	952.31
421.617	1005.31
421.839	993.31
422.062	970.31
422.285	927.31
422.507	948.31
422.73	907.31
422.953	903.31
423.175	887.31
423.398	916.31
423.621	934.31
423.843	928.31
424.066	990.31
424.288	1027.31
424.511	1042.31
424.733	1022.31
424.956	957.31
425.178	929.31
425.401	933.31
425.623	959.31
425.846	947.31
426.068	982.31
426.291	975.31
426.513	988.31
426.735	988.31
426.958	1063.31
427.18	1060.31
427.402	996.31
427.625	1009.31
427.847	965.31
428.069	930.31
428.292	914.31
428.514	921.31
428.736	915.31
428.958	918.31
429.181	965.31
429.403	1059.31
429.625	1221.31
429.847	1079.31
430.069	1000.31
430.292	1050.31
430.514	1034.31
430.736	1002.31
430.958	1002.31
431.18	939.31
431.402	898.31
431.624	866.31
431.846	817.31
432.068	761.31
432.29	761.31
432.512	818.31
432.734	887.31
432.956	937.31
433.178	980.31
433.4	945.31
433.622	953.31
433.844	929.31
434.066	856.31
434.287	815.31
434.509	809.31
434.731	835.31
434.953	927.31
435.175	963.31
435.397	927.31
435.618	898.31
435.84	872.31
436.062	849.31
436.284	914.31
436.505	957.31
436.727	985.31
436.949	951.31
437.17	934.31
437.392	894.31
437.614	853.31
437.835	833.31
438.057	831.31
438.278	864.31
438.5	895.31
438.721	923.31
438.943	951.31
439.165	950.31
439.386	944.31
439.608	935.31
439.829	958.31
440.05	979.31
440.272	982.31
440.493	973.31
440.715	983.31
440.936	1006.31
441.158	1078.31
441.379	1096.31
441.6	1057.31
441.822	1044.31
442.043	1027.31
442.264	1006.31
442.486	983.31
442.707	946.31
442.928	971.31
443.149	995.31
443.371	1022.31
443.592	1037.31
443.813	1054.31
444.034	1052.31
444.255	1035.31
444.476	1035.31
444.698	1054.31
444.919	1077.31
445.14	1143.31
445.361	1130.31
445.582	1087.31
445.803	1079.31
446.024	1047.31
446.245	1077.31
446.466	1054.31
446.687	1060.31
446.908	1057.31
447.129	995.31
447.35	1002.31
447.571	1022.31
447.792	983.31
448.013	975.31
448.234	966.31
448.455	986.31
448.675	996.31
448.896	955.31
449.117	922.31
449.338	939.31
449.559	962.31
449.779	1000.31
450	1035.31
450.221	1072.31
450.442	1020.31
450.662	979.31
450.883	885.31
451.104	905.31
451.324	903.31
451.545	908.31
451.766	874.31
451.986	867.31
452.207	848.31
452.428	799.31
452.648	807.31
452.869	781.31
453.089	813.31
453.31	793.31
453.53	793.31
453.751	747.31
453.971	721.31
454.192	724.31
454.412	803.31
454.633	808.31
454.853	773.31
455.073	782.31
455.294	778.31
455.514	785.31
455.734	773.31
455.955	759.31
456.175	771.31
456.395	749.31
456.616	775.31
456.836	754.31
457.056	729.31
457.276	743.31
457.497	706.31
457.717	710.31
457.937	713.31
458.157	726.31
458.377	718.31
458.598	713.31
458.818	693.31
459.038	722.31
459.258	748.31
459.478	738.31
459.698	737.31
459.918	760.31
460.138	787.31
460.358	829.31
460.578	842.31
460.798	873.31
461.018	902.31
461.238	873.31
461.458	903.31
461.678	864.31
461.898	845.31
462.118	834.31
462.338	866.31
462.558	879.31
462.777	839.31
462.997	897.31
463.217	912.31
463.437	878.31
463.657	867.31
463.876	852.31
464.096	830.31
464.316	840.31
464.536	898.31
464.755	899.31
464.975	900.31
465.195	861.31
465.414	892.31
465.634	891.31
465.854	911.31
466.073	1010.31
466.293	969.31
466.512	878.31
466.732	874.31
466.951	916.31
467.171	909.31
467.391	871.31
467.61	880.31
467.829	921.31
468.049	993.31
468.268	1062.31
468.488	987.31
468.707	955.31
468.927	931.31
469.146	902.31
469.365	930.31
469.585	974.31
469.804	950.31
470.023	926.31
470.243	961.31
470.462	930.31
470.681	935.31
470.901	929.31
471.12	925.31
471.339	936.31
471.558	940.31
471.777	897.31
471.997	915.31
472.216	846.31
472.435	803.31
472.654	783.31
472.873	788.31
473.092	855.31
473.311	823.31
473.53	832.31
473.749	823.31
473.968	866.31
474.187	880.31
474.406	853.31
474.625	868.31
474.844	874.31
475.063	882.31
475.282	865.31
475.501	833.31
475.72	847.31
475.939	893.31
476.158	903.31
476.377	864.31
476.596	839.31
476.814	857.31
477.033	817.31
477.252	863.31
477.471	898.31
477.69	933.31
477.908	936.31
478.127	991.31
478.346	987.31
478.564	1012.31
478.783	1029.31
479.002	1052.31
479.22	1048.31
479.439	1041.31
479.658	1048.31
479.876	977.31
480.095	910.31
480.313	902.31
480.532	896.31
480.751	866.31
480.969	841.31
481.188	809.31
481.406	802.31
481.624	787.31
481.843	786.31
482.061	836.31
482.28	895.31
482.498	915.31
482.717	888.31
482.935	921.31
483.153	1029.31
483.372	1034.31
483.59	1047.31
483.808	990.31
484.027	959.31
484.245	998.31
484.463	1201.31
484.681	1309.31
484.9	1051.31
485.118	983.31
485.336	937.31
485.554	913.31
485.772	910.31
485.99	875.31
486.209	893.31
486.427	899.31
486.645	950.31
486.863	997.31
487.081	1069.31
487.299	1033.31
487.517	1040.31
487.735	1100.31
487.953	1222.31
488.171	1185.31
488.389	1147.31
488.607	1112.31
488.825	1143.31
489.043	1074.31
489.261	1013.31
489.479	1074.31
489.696	1043.31
489.914	1038.31
490.132	1055.31
490.35	1128.31
490.568	1200.31
490.786	1188.31
491.003	1213.31
491.221	1275.31
491.439	1303.31
491.657	1355.31
491.874	1409.31
492.092	1473.31
492.31	1511.31
492.527	1434.31
492.745	1335.31
492.963	1349.31
493.18	1385.31
493.398	1381.31
493.615	1343.31
493.833	1274.31
494.05	1262.31
494.268	1271.31
494.485	1246.31
494.703	1284.31
494.92	1225.31
495.138	1276.31
495.355	1254.31
495.573	1277.31
495.79	1309.31
496.008	1286.31
496.225	1259.31
496.442	1247.31
496.66	1245.31
496.877	1213.31
497.094	1286.31
497.312	1254.31
497.529	1172.31
497.746	1171.31
497.963	1259.31
498.181	1297.31
498.398	1251.31
498.615	1223.31
498.832	1168.31
499.049	1169.31
499.267	1209.31
499.484	1252.31
499.701	1353.31
499.918	1391.31
500.135	1514.31
500.352	1589.31
500.569	1585.31
500.786	1733.31
501.003	1583.31
501.22	1455.31
501.437	1421.31
501.654	1428.31
501.871	1377.31
502.088	1243.31
502.305	1234.31
502.522	1175.31
502.739	1100.31
502.956	1069.31
503.172	1095.31
503.389	1015.31
503.606	1004.31
503.823	1017.31
504.04	1018.31
504.256	1032.31
504.473	994.31
504.69	1012.31
504.907	1018.31
505.123	986.31
505.34	1063.31
505.557	1400.31
505.773	1133.31
505.99	989.31
506.207	919.31
506.423	894.31
506.64	934.31
506.856	938.31
507.073	1024.31
507.289	1110.31
507.506	1017.31
507.722	888.31
507.939	856.31
508.155	878.31
508.372	842.31
508.588	814.31
508.805	826.31
509.021	805.31
509.238	801.31
509.454	758.31
509.67	801.31
509.887	759.31
510.103	749.31
510.319	752.31
510.536	774.31
510.752	794.31
510.968	765.31
511.184	818.31
511.401	773.31
511.617	706.31
511.833	698.31
512.049	721.31
512.265	732.31
512.481	730.31
512.698	761.31
512.914	771.31
513.13	756.31
513.346	738.31
513.562	716.31
513.778	722.31
513.994	729.31
514.21	738.31
514.426	787.31
514.642	822.31
514.858	780.31
515.074	732.31
515.29	734.31
515.506	765.31
515.721	738.31
515.937	773.31
516.153	800.31
516.369	800.31
516.585	752.31
516.801	728.31
517.016	743.31
517.232	793.31
517.448	785.31
517.664	796.31
517.879	801.31
518.095	824.31
518.311	808.31
518.527	782.31
518.742	759.31
518.958	743.31
519.173	749.31
519.389	789.31
519.605	783.31
519.82	809.31
520.036	806.31
520.251	811.31
520.467	788.31
520.682	849.31
520.898	828.31
521.113	739.31
521.329	742.31
521.544	761.31
521.76	760.31
521.975	727.31
522.19	713.31
522.406	746.31
522.621	930.31
522.836	892.31
523.052	764.31
523.267	750.31
523.482	768.31
523.698	747.31
523.913	761.31
524.128	775.31
524.343	812.31
524.559	841.31
524.774	780.31
524.989	765.31
525.204	762.31
525.419	734.31
525.634	751.31
525.849	745.31
526.064	716.31
526.28	703.31
526.495	701.31
526.71	664.31
526.925	645.31
527.14	669.31
527.355	646.31
527.57	677.31
527.785	667.31
527.999	687.31
528.214	694.31
528.429	720.31
528.644	762.31
528.859	811.31
529.074	848.31
529.289	896.31
529.503	872.31
529.718	798.31
529.933	739.31
530.148	675.31
530.363	659.31
530.577	651.31
530.792	638.31
531.007	650.31
531.221	640.31
531.436	672.31
531.651	686.31
531.865	677.31
532.08	671.31
532.295	637.31
532.509	648.31
532.724	641.31
532.938	667.31
533.153	704.31
533.367	733.31
533.582	734.31
533.796	742.31
534.011	720.31
534.225	678.31
534.44	641.31
534.654	640.31
534.868	687.31
535.083	720.31
535.297	729.31
535.511	682.31
535.726	697.31
535.94	660.31
536.154	662.31
536.369	636.31
536.583	608.31
536.797	615.31
537.011	631.31
537.225	586.31
537.44	603.31
537.654	670.31
537.868	621.31
538.082	639.31
538.296	645.31
538.51	635.31
538.724	698.31
538.938	713.31
539.153	741.31
539.367	752.31
539.581	723.31
539.795	689.31
540.009	642.31
540.222	649.31
540.436	671.31
540.65	747.31
540.864	802.31
541.078	837.31
541.292	819.31
541.506	885.31
541.72	946.31
541.934	1049.31
542.147	1106.31
542.361	1035.31
542.575	921.31
542.789	836.31
543.002	779.31
543.216	758.31
543.43	766.31
543.644	806.31
543.857	896.31
544.071	939.31
544.285	927.31
544.498	933.31
544.712	936.31
544.925	964.31
545.139	950.31
545.352	953.31
545.566	927.31
545.779	933.31
545.993	956.31
546.206	975.31
546.42	1004.31
546.633	966.31
546.847	946.31
547.06	958.31
547.274	967.31
547.487	996.31
547.7	1022.31
547.914	998.31
548.127	954.31
548.34	970.31
548.554	955.31
548.767	986.31
548.98	950.31
549.193	927.31
549.407	978.31
549.62	968.31
549.833	937.31
550.046	921.31
550.259	923.31
550.473	945.31
550.686	916.31
550.899	878.31
551.112	838.31
551.325	847.31
551.538	852.31
551.751	887.31
551.964	734.31
552.177	720.31
552.39	814.31
552.603	856.31
552.816	871.31
553.029	902.31
553.242	921.31
553.455	931.31
553.667	919.31
553.88	890.31
554.093	873.31
554.306	853.31
554.519	836.31
554.732	821.31
554.944	830.31
555.157	818.31
555.37	819.31
555.583	821.31
555.795	812.31
556.008	744.31
556.221	741.31
556.433	722.31
556.646	732.31
556.859	739.31
557.071	747.31
557.284	736.31
557.496	749.31
557.709	771.31
557.921	762.31
558.134	746.31
558.346	752.31
558.559	733.31
558.771	723.31
558.984	733.31
559.196	689.31
559.409	691.31
559.621	682.31
559.833	681.31
560.046	687.31
560.258	684.31
560.47	674.31
560.683	681.31
560.895	694.31
561.107	679.31
561.32	678.31
561.532	667.31
561.744	689.31
561.956	708.31
562.168	671.31
562.381	661.31
562.593	661.31
562.805	638.31
563.017	663.31
563.229	654.31
563.441	651.31
563.653	631.31
563.865	648.31
564.077	621.31
564.289	619.31
564.501	642.31
564.713	633.31
564.925	641.31
565.137	679.31
565.349	643.31
565.561	608.31
565.773	641.31
565.985	629.31
566.197	662.31
566.408	687.31
566.62	683.31
566.832	697.31
567.044	675.31
567.255	669.31
567.467	656.31
567.679	683.31
567.891	659.31
568.102	648.31
568.314	582.31
568.526	545.31
568.737	528.31
568.949	481.31
569.161	480.31
569.372	452.31
569.584	471.31
569.795	468.31
570.007	459.31
570.218	448.31
570.43	455.31
570.641	483.31
570.853	473.31
571.064	494.31
571.276	477.31
571.487	482.31
571.698	470.31
571.91	471.31
572.121	456.31
572.333	445.31
572.544	432.31
572.755	407.31
572.966	420.31
573.178	402.31
573.389	412.31
573.6	408.31
573.811	453.31
574.023	417.31
574.234	416.31
574.445	394.31
574.656	381.31
574.867	400.31
575.078	414.31
575.289	389.31
575.501	416.31
575.712	393.31
575.923	423.31
576.134	412.31
576.345	400.31
576.556	407.31
576.767	415.31
576.978	395.31
577.188	389.31
577.399	389.31
577.61	382.31
577.821	384.31
578.032	378.31
578.243	361.31
578.454	388.31
578.665	375.31
578.875	340.31
579.086	343.31
579.297	351.31
579.508	349.31
579.718	352.31
579.929	366.31
580.14	351.31
580.35	339.31
580.561	350.31
580.772	397.31
580.982	380.31
581.193	345.31
581.403	357.31
581.614	336.31
581.825	335.31
582.035	370.31
582.246	364.31
582.456	366.31
582.667	351.31
582.877	345.31
583.087	329.31
583.298	335.31
583.508	351.31
583.719	329.31
583.929	348.31
584.139	335.31
584.35	332.31
584.56	343.31
584.77	354.31
584.981	322.31
585.191	355.31
585.401	338.31
585.611	339.31
585.821	341.31
586.032	335.31
586.242	311.31
586.452	321.31
586.662	344.31
586.872	341.31
587.082	312.31
587.292	345.31
587.502	331.31
587.713	343.31
587.923	341.31
588.133	319.31
588.343	342.31
588.553	323.31
588.762	320.31
588.972	317.31
589.182	311.31
589.392	306.31
589.602	319.31
589.812	296.31
590.022	329.31
590.232	324.31
590.441	334.31
590.651	310.31
590.861	297.31
591.071	291.31
591.281	305.31
591.49	321.31
591.7	329.31
591.91	314.31
592.119	311.31
592.329	332.31
592.539	329.31
592.748	336.31
592.958	354.31
593.167	333.31
593.377	338.31
593.587	330.31
593.796	332.31
594.006	347.31
594.215	329.31
594.424	348.31
594.634	325.31
594.843	357.31
595.053	364.31
595.262	350.31
595.472	315.31
595.681	327.31
595.89	327.31
596.1	334.31
596.309	334.31
596.518	338.31
596.727	343.31
596.937	343.31
597.146	323.31
597.355	319.31
597.564	326.31
597.774	311.31
597.983	313.31
598.192	302.31
598.401	284.31
598.61	292.31
598.819	290.31
599.028	303.31
599.237	302.31
599.446	301.31
599.655	304.31
599.864	309.31
600.073	287.31
600.282	297.31
600.491	298.31
600.7	295.31
600.909	325.31
601.118	319.31
601.327	347.31
601.536	347.31
601.745	349.31
601.953	361.31
602.162	357.31
602.371	364.31
602.58	360.31
602.789	353.31
602.997	343.31
603.206	354.31
603.415	360.31
603.623	353.31
603.832	359.31
604.041	342.31
604.249	343.31
604.458	303.31
604.666	298.31
604.875	307.31
605.084	334.31
605.292	339.31
605.501	357.31
605.709	375.31
605.918	347.31
606.126	362.31
606.334	394.31
606.543	377.31
606.751	390.31
606.96	366.31
607.168	374.31
607.376	350.31
607.585	350.31
607.793	361.31
608.001	364.31
608.21	366.31
608.418	376.31
608.626	366.31
608.834	351.31
609.043	365.31
609.251	361.31
609.459	374.31
609.667	387.31
609.875	366.31
610.083	389.31
610.291	371.31
610.499	358.31
610.707	377.31
610.916	385.31
611.124	381.31
611.332	369.31
611.54	366.31
611.748	381.31
611.955	369.31
612.163	383.31
612.371	354.31
612.579	379.31
612.787	367.31
612.995	357.31
613.203	378.31
613.411	383.31
613.618	379.31
613.826	386.31
614.034	362.31
614.242	364.31
614.449	346.31
614.657	370.31
614.865	373.31
615.072	354.31
615.28	385.31
615.488	374.31
615.695	377.31
615.903	378.31
616.111	362.31
616.318	350.31
616.526	368.31
616.733	346.31
616.941	359.31
617.148	361.31
617.356	366.31
617.563	344.31
617.771	330.31
617.978	327.31
618.185	340.31
618.393	358.31
618.6	360.31
618.807	345.31
619.015	345.31
619.222	338.31
619.429	349.31
619.637	320.31
619.844	317.31
620.051	311.31
620.258	337.31
620.466	344.31
620.673	334.31
620.88	329.31
621.087	318.31
621.294	320.31
621.501	304.31
621.708	320.31
621.915	338.31
622.122	326.31
622.329	323.31
622.536	334.31
622.743	330.31
622.95	345.31
623.157	304.31
623.364	327.31
623.571	347.31
623.778	339.31
623.985	327.31
624.192	329.31
624.399	338.31
624.606	326.31
624.812	314.31
625.019	322.31
625.226	310.31
625.433	293.31
625.639	291.31
625.846	251.31
626.053	279.31
626.259	271.31
626.466	234.31
626.673	259.31
626.879	240.31
627.086	261.31
627.293	295.31
627.499	303.31
627.706	304.31
627.912	315.31
628.119	311.31
628.325	301.31
628.532	294.31
628.738	297.31
628.945	296.31
629.151	298.31
629.357	303.31
629.564	294.31
629.77	282.31
629.976	302.31
630.183	279.31
630.389	260.31
630.595	297.31
630.802	281.31
631.008	298.31
631.214	291.31
631.42	288.31
631.627	261.31
631.833	247.31
632.039	249.31
632.245	281.31
632.451	274.31
632.657	294.31
632.863	251.31
633.069	270.31
633.275	283.31
633.481	264.31
633.688	278.31
633.893	261.31
634.099	267.31
634.305	246.31
634.511	274.31
634.717	255.31
634.923	257.31
635.129	252.31
635.335	262.31
635.541	261.31
635.747	251.31
635.952	255.31
636.158	264.31
636.364	285.31
636.57	265.31
636.775	269.31
636.981	273.31
637.187	279.31
637.392	265.31
637.598	290.31
637.804	265.31
638.009	274.31
638.215	269.31
638.421	268.31
638.626	281.31
638.832	274.31
639.037	255.31
639.243	250.31
639.448	245.31
639.654	246.31
639.859	255.31
640.065	255.31
640.27	239.31
640.475	235.31
640.681	265.31
640.886	263.31
641.091	265.31
641.297	263.31
641.502	265.31
641.707	265.31
641.913	262.31
642.118	252.31
642.323	267.31
642.528	264.31
642.733	242.31
642.939	234.31
643.144	232.31
643.349	233.31
643.554	257.31
643.759	245.31
643.964	247.31
644.169	257.31
644.374	235.31
644.579	246.31
644.784	245.31
644.989	240.31
645.194	261.31
645.399	261.31
645.604	273.31
645.809	264.31
646.014	258.31
646.219	234.31
646.423	216.31
646.628	241.31
646.833	251.31
647.038	235.31
647.243	256.31
647.447	233.31
647.652	248.31
647.857	245.31
648.062	248.31
648.266	229.31
648.471	231.31
648.676	248.31
648.88	253.31
649.085	236.31
649.289	253.31
649.494	259.31
649.698	231.31
649.903	245.31
650.107	261.31
650.312	242.31
650.516	241.31
650.721	223.31
650.925	230.31
651.13	228.31
651.334	241.31
651.539	225.31
651.743	224.31
651.947	227.31
652.152	225.31
652.356	233.31
652.56	214.31
652.764	230.31
652.969	238.31
653.173	240.31
653.377	227.31
653.581	223.31
653.785	223.31
653.99	215.31
654.194	207.31
654.398	213.31
654.602	205.31
654.806	214.31
655.01	201.31
655.214	210.31
655.418	205.31
655.622	227.31
655.826	226.31
656.03	211.31
656.234	221.31
656.438	245.31
656.642	229.31
656.846	220.31
657.049	211.31
657.253	199.31
657.457	202.31
657.661	195.31
657.865	173.31
658.068	169.31
658.272	161.31
658.476	166.31
658.68	173.31
658.883	147.31
659.087	151.31
659.291	137.31
659.494	138.31
659.698	133.31
659.901	119.31
660.105	141.31
660.309	123.31
660.512	112.31
660.716	127.31
660.919	126.31
661.123	138.31
661.326	105.31
661.53	119.31
661.733	125.31
661.936	107.31
662.14	98.31
662.343	98.31
662.546	114.31
662.75	118.31
662.953	103.31
663.156	106.31
663.36	87.31
663.563	88.31
663.766	106.31
663.969	101.31
664.173	84.31
664.376	85.31
664.579	84.31
664.782	85.31
664.985	96.31
665.188	96.31
665.391	83.31
665.594	97.31
665.797	96.31
666	94.31
666.203	95.31
666.406	90.31
666.609	79.31
666.812	83.31
667.015	88.31
667.218	96.31
667.421	104.31
667.624	76.31
667.827	92.31
668.03	75.31
668.232	77.31
668.435	85.31
668.638	96.31
668.841	86.31
669.043	76.31
669.246	89.31
669.449	84.31
669.651	98.31
669.854	80.31
670.057	99.31
670.259	86.31
670.462	73.31
670.665	93.31
670.867	77.31
671.07	84.31
671.272	85.31
671.475	78.31
671.677	77.31
671.88	98.31
672.082	79.31
672.284	83.31
672.487	92.31
672.689	85.31
672.892	74.31
