Data from WStandard_LampEnergy5.5LIBS07252019.E.O._I.C._HRD10591_16-07-05-920.txt Node
Date: Thu Jul 25 16:07:05 EDT 2019
User: cochatt
Spectrometer: HR+D1059
Trigger mode: 1
Integration Time (sec): 1.000000E-1
Scans to average: 1
Electric dark correction enabled: true
Nonlinearity correction enabled: false
Boxcar width: 0
XAxis mode: Wavelengths
Number of Pixels in Spectrum: 2048
>>>>>Begin Spectral Data<<<<<
223.165	-21.12
223.4	-21.12
223.635	-21.12
223.869	-20.12
224.104	-26.12
224.338	-12.12
224.573	-18.12
224.808	-8.12
225.042	1.88
225.277	-2.12
225.511	-14.12
225.746	-2.12
225.98	4.88
226.215	18.88
226.449	13.88
226.683	29.88
226.918	28.88
227.152	25.88
227.387	16.88
227.621	43.88
227.856	41.88
228.09	35.88
228.324	51.88
228.559	58.88
228.793	153.88
229.027	385.88
229.262	388.88
229.496	402.88
229.73	415.88
229.964	440.88
230.199	483.88
230.433	503.88
230.667	501.88
230.901	576.88
231.136	490.88
231.37	487.88
231.604	479.88
231.838	477.88
232.072	480.88
232.306	451.88
232.541	481.88
232.775	580.88
233.009	614.88
233.243	606.88
233.477	541.88
233.711	559.88
233.945	615.88
234.179	569.88
234.413	627.88
234.647	673.88
234.881	625.88
235.115	598.88
235.349	581.88
235.583	614.88
235.817	583.88
236.051	546.88
236.285	551.88
236.519	626.88
236.753	675.88
236.987	724.88
237.221	692.88
237.455	790.88
237.689	728.88
237.922	702.88
238.156	675.88
238.39	668.88
238.624	774.88
238.858	792.88
239.091	830.88
239.325	828.88
239.559	951.88
239.793	987.88
240.027	1107.88
240.26	1103.88
240.494	809.88
240.728	769.88
240.961	755.88
241.195	763.88
241.429	858.88
241.662	853.88
241.896	760.88
242.13	797.88
242.363	890.88
242.597	958.88
242.83	922.88
243.064	930.88
243.298	963.88
243.531	958.88
243.765	956.88
243.998	965.88
244.232	841.88
244.465	812.88
244.699	817.88
244.932	910.88
245.166	1063.88
245.399	988.88
245.633	913.88
245.866	903.88
246.099	994.88
246.333	1007.88
246.566	995.88
246.8	1075.88
247.033	1203.88
247.266	1107.88
247.5	1075.88
247.733	1092.88
247.966	1157.88
248.2	1313.88
248.433	1234.88
248.666	1311.88
248.899	1387.88
249.133	1586.88
249.366	1834.88
249.599	1481.88
249.832	1300.88
250.066	1319.88
250.299	1369.88
250.532	1253.88
250.765	1164.88
250.998	1202.88
251.231	1243.88
251.465	1327.88
251.698	1210.88
251.931	1193.88
252.164	1261.88
252.397	1330.88
252.63	1272.88
252.863	1151.88
253.096	1146.88
253.329	1212.88
253.562	1257.88
253.795	1337.88
254.028	1347.88
254.261	1234.88
254.494	1219.88
254.727	1159.88
254.96	1210.88
255.193	1292.88
255.426	1473.88
255.659	1655.88
255.892	1768.88
256.124	1446.88
256.357	1379.88
256.59	1459.88
256.823	1483.88
257.056	1471.88
257.289	1800.88
257.521	1957.88
257.754	1758.88
257.987	1654.88
258.22	1829.88
258.452	1773.88
258.685	1459.88
258.918	1399.88
259.151	1452.88
259.383	1407.88
259.616	1216.88
259.849	1274.88
260.081	1431.88
260.314	1579.88
260.547	1794.88
260.779	1795.88
261.012	1677.88
261.244	1439.88
261.477	1419.88
261.71	1474.88
261.942	1481.88
262.175	1431.88
262.407	1515.88
262.64	1432.88
262.872	1332.88
263.105	1300.88
263.337	1325.88
263.57	1327.88
263.802	1349.88
264.035	1261.88
264.267	1224.88
264.499	1146.88
264.732	1283.88
264.964	1337.88
265.197	1418.88
265.429	1475.88
265.661	1651.88
265.894	1812.88
266.126	1863.88
266.358	1650.88
266.591	1739.88
266.823	1838.88
267.055	1680.88
267.287	1653.88
267.52	1633.88
267.752	1606.88
267.984	1626.88
268.216	1667.88
268.448	1711.88
268.681	1704.88
268.913	1610.88
269.145	1482.88
269.377	1428.88
269.609	1582.88
269.841	1804.88
270.073	2126.88
270.306	2381.88
270.538	2569.88
270.77	2147.88
271.002	1761.88
271.234	1698.88
271.466	1681.88
271.698	1866.88
271.93	2327.88
272.162	2283.88
272.394	2066.88
272.626	2019.88
272.858	1723.88
273.09	1495.88
273.322	1490.88
273.553	1434.88
273.785	1456.88
274.017	1487.88
274.249	1623.88
274.481	1602.88
274.713	1478.88
274.945	1452.88
275.176	1475.88
275.408	1463.88
275.64	1416.88
275.872	1404.88
276.104	1456.88
276.335	1731.88
276.567	1978.88
276.799	1994.88
277.031	1809.88
277.262	1650.88
277.494	1673.88
277.726	1914.88
277.957	1949.88
278.189	1711.88
278.421	1587.88
278.652	1563.88
278.884	1541.88
279.115	1541.88
279.347	1552.88
279.579	1505.88
279.81	1509.88
280.042	1680.88
280.273	1884.88
280.505	1845.88
280.736	1929.88
280.968	1821.88
281.199	1579.88
281.431	1516.88
281.662	1504.88
281.894	1531.88
282.125	1541.88
282.356	1607.88
282.588	1615.88
282.819	1621.88
283.051	1715.88
283.282	1877.88
283.513	1820.88
283.745	1539.88
283.976	1475.88
284.207	1468.88
284.439	1494.88
284.67	1516.88
284.901	1594.88
285.132	1623.88
285.364	1595.88
285.595	1637.88
285.826	1599.88
286.057	1519.88
286.288	1516.88
286.52	1557.88
286.751	1748.88
286.982	1784.88
287.213	1665.88
287.444	1539.88
287.675	1496.88
287.906	1575.88
288.138	1699.88
288.369	1646.88
288.6	1555.88
288.831	1500.88
289.062	1500.88
289.293	1564.88
289.524	1531.88
289.755	1584.88
289.986	1613.88
290.217	1485.88
290.448	1527.88
290.679	1566.88
290.91	1559.88
291.141	1628.88
291.371	1694.88
291.602	1626.88
291.833	1669.88
292.064	1752.88
292.295	1678.88
292.526	1740.88
292.757	1768.88
292.987	1741.88
293.218	1642.88
293.449	1697.88
293.68	1953.88
293.91	2134.88
294.141	1971.88
294.372	1817.88
294.603	1872.88
294.833	2011.88
295.064	1930.88
295.295	1706.88
295.525	1642.88
295.756	1512.88
295.987	1455.88
296.217	1506.88
296.448	1563.88
296.679	1569.88
296.909	1571.88
297.14	1547.88
297.37	1576.88
297.601	1644.88
297.831	1810.88
298.062	1792.88
298.292	1618.88
298.523	1559.88
298.753	1577.88
298.984	1591.88
299.214	1611.88
299.445	1624.88
299.675	1711.88
299.905	1668.88
300.136	1615.88
300.366	1573.88
300.597	1526.88
300.827	1551.88
301.057	1610.88
301.288	1699.88
301.518	1633.88
301.748	1694.88
301.979	1783.88
302.209	1780.88
302.439	1928.88
302.669	2020.88
302.9	1894.88
303.13	1649.88
303.36	1705.88
303.59	1717.88
303.82	1711.88
304.051	1666.88
304.281	1699.88
304.511	1661.88
304.741	1785.88
304.971	1997.88
305.201	2147.88
305.431	1975.88
305.661	1653.88
305.891	1481.88
306.121	1501.88
306.352	1551.88
306.582	1628.88
306.812	1751.88
307.042	1891.88
307.272	1910.88
307.502	1929.88
307.731	2096.88
307.961	2199.88
308.191	2074.88
308.421	1755.88
308.651	1643.88
308.881	1626.88
309.111	1666.88
309.341	1593.88
309.571	1623.88
309.8	1649.88
310.03	1603.88
310.26	1582.88
310.49	1571.88
310.72	1624.88
310.949	1705.88
311.179	1722.88
311.409	1735.88
311.639	1659.88
311.868	1633.88
312.098	1678.88
312.328	1677.88
312.557	1607.88
312.787	1653.88
313.017	1707.88
313.246	1719.88
313.476	1716.88
313.706	1715.88
313.935	1735.88
314.165	1699.88
314.394	1751.88
314.624	1866.88
314.853	1997.88
315.083	2051.88
315.312	2109.88
315.542	2007.88
315.771	1730.88
316.001	1765.88
316.23	1867.88
316.46	1900.88
316.689	1819.88
316.919	1778.88
317.148	1681.88
317.377	1666.88
317.607	1777.88
317.836	2037.88
318.065	2099.88
318.295	2031.88
318.524	1913.88
318.753	1878.88
318.983	1852.88
319.212	1789.88
319.441	1782.88
319.67	1723.88
319.9	1772.88
320.129	1891.88
320.358	1988.88
320.587	2023.88
320.816	2021.88
321.046	1928.88
321.275	1779.88
321.504	1861.88
321.733	1992.88
321.962	2003.88
322.191	1813.88
322.42	1817.88
322.649	1772.88
322.878	1732.88
323.108	1786.88
323.337	1825.88
323.566	1849.88
323.795	1859.88
324.024	1884.88
324.253	1800.88
324.482	1804.88
324.71	1771.88
324.939	1681.88
325.168	1709.88
325.397	1799.88
325.626	1846.88
325.855	1864.88
326.084	1762.88
326.313	1793.88
326.542	1810.88
326.77	1898.88
326.999	1877.88
327.228	1811.88
327.457	1688.88
327.686	1655.88
327.914	1771.88
328.143	1786.88
328.372	1757.88
328.6	1747.88
328.829	1761.88
329.058	1720.88
329.287	1731.88
329.515	1822.88
329.744	1829.88
329.972	1906.88
330.201	1983.88
330.43	1944.88
330.658	1872.88
330.887	1909.88
331.115	1891.88
331.344	1891.88
331.572	1829.88
331.801	1831.88
332.03	1885.88
332.258	1879.88
332.486	1901.88
332.715	1953.88
332.943	1965.88
333.172	1853.88
333.4	1911.88
333.629	1919.88
333.857	2081.88
334.085	2275.88
334.314	2529.88
334.542	2808.88
334.771	2648.88
334.999	2242.88
335.227	2113.88
335.455	2008.88
335.684	1983.88
335.912	2068.88
336.14	2121.88
336.369	2032.88
336.597	1912.88
336.825	1903.88
337.053	1979.88
337.281	2058.88
337.51	2163.88
337.738	2236.88
337.966	2193.88
338.194	1961.88
338.422	1899.88
338.65	1854.88
338.878	1856.88
339.106	1784.88
339.334	1835.88
339.562	1775.88
339.79	1746.88
340.018	1913.88
340.246	2011.88
340.474	2042.88
340.702	1916.88
340.93	1939.88
341.158	1903.88
341.386	1851.88
341.614	1873.88
341.842	1870.88
342.07	1866.88
342.298	1892.88
342.526	1885.88
342.754	1809.88
342.981	1845.88
343.209	1863.88
343.437	1825.88
343.665	1844.88
343.893	1888.88
344.12	2000.88
344.348	1993.88
344.576	1939.88
344.804	1846.88
345.031	1873.88
345.259	1893.88
345.487	1805.88
345.714	1743.88
345.942	1693.88
346.17	1699.88
346.397	1762.88
346.625	1770.88
346.853	1649.88
347.08	1652.88
347.308	1647.88
347.535	1735.88
347.763	1791.88
347.99	1734.88
348.218	1626.88
348.445	1695.88
348.673	1708.88
348.9	1752.88
349.128	1779.88
349.355	1921.88
349.583	1859.88
349.81	1767.88
350.037	1636.88
350.265	1609.88
350.492	1657.88
350.72	1675.88
350.947	1716.88
351.174	1779.88
351.402	1687.88
351.629	1615.88
351.856	1633.88
352.083	1546.88
352.311	1612.88
352.538	1648.88
352.765	1721.88
352.992	1741.88
353.22	1719.88
353.447	1652.88
353.674	1679.88
353.901	1747.88
354.128	1674.88
354.355	1652.88
354.583	1731.88
354.81	1792.88
355.037	1740.88
355.264	1754.88
355.491	1709.88
355.718	1736.88
355.945	1734.88
356.172	1695.88
356.399	1642.88
356.626	1639.88
356.853	1681.88
357.08	1869.88
357.307	2022.88
357.534	2082.88
357.761	1781.88
357.988	1642.88
358.215	1599.88
358.441	1594.88
358.668	1628.88
358.895	1632.88
359.122	1705.88
359.349	1913.88
359.576	1916.88
359.802	1736.88
360.029	1649.88
360.256	1626.88
360.483	1648.88
360.709	1703.88
360.936	1799.88
361.163	1778.88
361.39	1975.88
361.616	2113.88
361.843	2065.88
362.07	1961.88
362.296	1735.88
362.523	1699.88
362.749	1675.88
362.976	1688.88
363.203	1770.88
363.429	1668.88
363.656	1623.88
363.882	1673.88
364.109	1860.88
364.335	2050.88
364.562	1851.88
364.788	1824.88
365.015	1720.88
365.241	1651.88
365.468	1743.88
365.694	1747.88
365.92	1836.88
366.147	1777.88
366.373	1677.88
366.599	1620.88
366.826	1656.88
367.052	1663.88
367.278	1702.88
367.505	1673.88
367.731	1693.88
367.957	1707.88
368.184	1777.88
368.41	1919.88
368.636	1896.88
368.862	1887.88
369.089	1922.88
369.315	1863.88
369.541	1768.88
369.767	1738.88
369.993	1656.88
370.219	1675.88
370.445	1712.88
370.672	1835.88
370.898	1901.88
371.124	1894.88
371.35	1788.88
371.576	1813.88
371.802	1907.88
372.028	1821.88
372.254	1763.88
372.48	1720.88
372.706	1688.88
372.932	1706.88
373.158	1700.88
373.384	1726.88
373.61	1791.88
373.835	1942.88
374.061	1782.88
374.287	1776.88
374.513	1789.88
374.739	1784.88
374.965	1763.88
375.191	1830.88
375.416	1806.88
375.642	1810.88
375.868	1919.88
376.094	1994.88
376.319	1914.88
376.545	1743.88
376.771	1804.88
376.997	1899.88
377.222	1925.88
377.448	1850.88
377.674	1839.88
377.899	1869.88
378.125	1948.88
378.35	1963.88
378.576	1756.88
378.802	1695.88
379.027	1713.88
379.253	1721.88
379.478	1742.88
379.704	1702.88
379.929	1739.88
380.155	1798.88
380.38	1795.88
380.606	1840.88
380.831	1756.88
381.057	1863.88
381.282	1903.88
381.507	1799.88
381.733	1915.88
381.958	2088.88
382.184	1912.88
382.409	1802.88
382.634	1836.88
382.86	1827.88
383.085	1822.88
383.31	1880.88
383.535	1996.88
383.761	2159.88
383.986	2070.88
384.211	1994.88
384.436	1973.88
384.662	2029.88
384.887	2146.88
385.112	2027.88
385.337	2023.88
385.562	2035.88
385.787	2030.88
386.013	2057.88
386.238	2078.88
386.463	2029.88
386.688	2175.88
386.913	2340.88
387.138	2236.88
387.363	2065.88
387.588	2125.88
387.813	2084.88
388.038	2098.88
388.263	2166.88
388.488	2136.88
388.713	1947.88
388.938	1889.88
389.163	1967.88
389.387	2002.88
389.612	1994.88
389.837	2013.88
390.062	2068.88
390.287	2006.88
390.512	2004.88
390.736	2006.88
390.961	1962.88
391.186	1899.88
391.411	1960.88
391.636	1999.88
391.86	2011.88
392.085	2000.88
392.31	1947.88
392.534	2019.88
392.759	2058.88
392.984	2031.88
393.208	2064.88
393.433	2084.88
393.658	2148.88
393.882	2232.88
394.107	2023.88
394.331	1997.88
394.556	1947.88
394.78	2049.88
395.005	2106.88
395.229	2171.88
395.454	2331.88
395.678	2382.88
395.903	2257.88
396.127	2148.88
396.352	2161.88
396.576	2215.88
396.801	2264.88
397.025	2264.88
397.249	2244.88
397.474	2171.88
397.698	2159.88
397.922	2229.88
398.147	2317.88
398.371	2448.88
398.595	2451.88
398.82	2314.88
399.044	2355.88
399.268	2481.88
399.492	2588.88
399.717	2712.88
399.941	2759.88
400.165	2691.88
400.389	2579.88
400.613	2568.88
400.837	2786.88
401.062	3272.88
401.286	2768.88
401.51	2514.88
401.734	2658.88
401.958	2596.88
402.182	2368.88
402.406	2341.88
402.63	2248.88
402.854	2261.88
403.078	2291.88
403.302	2388.88
403.526	2390.88
403.75	2387.88
403.974	2417.88
404.198	2408.88
404.422	2474.88
404.645	2631.88
404.869	2560.88
405.093	2357.88
405.317	2345.88
405.541	2455.88
405.765	2442.88
405.988	2396.88
406.212	2454.88
406.436	2490.88
406.66	2565.88
406.883	2569.88
407.107	2894.88
407.331	3120.88
407.555	3403.88
407.778	3171.88
408.002	2597.88
408.226	2540.88
408.449	2519.88
408.673	2459.88
408.896	2477.88
409.12	2555.88
409.344	2423.88
409.567	2362.88
409.791	2387.88
410.014	2451.88
410.238	2552.88
410.461	2713.88
410.685	2497.88
410.908	2342.88
411.132	2407.88
411.355	2368.88
411.578	2346.88
411.802	2349.88
412.025	2400.88
412.249	2337.88
412.472	2277.88
412.695	2245.88
412.919	2281.88
413.142	2274.88
413.365	2312.88
413.589	2354.88
413.812	2408.88
414.035	2551.88
414.258	2367.88
414.482	2292.88
414.705	2307.88
414.928	2268.88
415.151	2316.88
415.374	2280.88
415.597	2346.88
415.821	2347.88
416.044	2439.88
416.267	2461.88
416.49	2189.88
416.713	2204.88
416.936	2268.88
417.159	2381.88
417.382	2355.88
417.605	2248.88
417.828	2337.88
418.051	2336.88
418.274	2288.88
418.497	2224.88
418.72	2237.88
418.943	2181.88
419.166	2331.88
419.389	2483.88
419.611	2310.88
419.834	2253.88
420.057	2314.88
420.28	2245.88
420.503	2182.88
420.726	2260.88
420.948	2268.88
421.171	2202.88
421.394	2192.88
421.617	2331.88
421.839	2250.88
422.062	2254.88
422.285	2191.88
422.507	2178.88
422.73	2165.88
422.953	2108.88
423.175	2135.88
423.398	2189.88
423.621	2205.88
423.843	2237.88
424.066	2262.88
424.288	2327.88
424.511	2332.88
424.733	2335.88
424.956	2097.88
425.178	2096.88
425.401	2145.88
425.623	2159.88
425.846	2143.88
426.068	2226.88
426.291	2284.88
426.513	2300.88
426.735	2256.88
426.958	2373.88
427.18	2572.88
427.402	2337.88
427.625	2371.88
427.847	2479.88
428.069	2251.88
428.292	2166.88
428.514	2091.88
428.736	2086.88
428.958	2136.88
429.181	2145.88
429.403	2401.88
429.625	3010.88
429.847	2673.88
430.069	2239.88
430.292	2419.88
430.514	2547.88
430.736	2311.88
430.958	2415.88
431.18	2275.88
431.402	2183.88
431.624	2130.88
431.846	2103.88
432.068	2061.88
432.29	2122.88
432.512	2143.88
432.734	2244.88
432.956	2220.88
433.178	2305.88
433.4	2293.88
433.622	2316.88
433.844	2189.88
434.066	2138.88
434.287	2123.88
434.509	2182.88
434.731	2297.88
434.953	2471.88
435.175	2431.88
435.397	2231.88
435.618	2263.88
435.84	2261.88
436.062	2218.88
436.284	2227.88
436.505	2223.88
436.727	2318.88
436.949	2224.88
437.17	2203.88
437.392	2184.88
437.614	2162.88
437.835	2134.88
438.057	2234.88
438.278	2371.88
438.5	2184.88
438.721	2100.88
438.943	2166.88
439.165	2149.88
439.386	2101.88
439.608	2164.88
439.829	2124.88
440.05	2107.88
440.272	2087.88
440.493	2051.88
440.715	2170.88
440.936	2275.88
441.158	2517.88
441.379	2443.88
441.6	2389.88
441.822	2343.88
442.043	2290.88
442.264	2223.88
442.486	2086.88
442.707	2126.88
442.928	2102.88
443.149	2241.88
443.371	2400.88
443.592	2449.88
443.813	2359.88
444.034	2378.88
444.255	2332.88
444.476	2421.88
444.698	2418.88
444.919	2405.88
445.14	2505.88
445.361	2509.88
445.582	2561.88
445.803	2494.88
446.024	2353.88
446.245	2479.88
446.466	2355.88
446.687	2217.88
446.908	2263.88
447.129	2157.88
447.35	2182.88
447.571	2222.88
447.792	2146.88
448.013	2090.88
448.234	2133.88
448.455	2195.88
448.675	2257.88
448.896	2045.88
449.117	2013.88
449.338	2097.88
449.559	2171.88
449.779	2314.88
450	2517.88
450.221	2723.88
450.442	2683.88
450.662	2365.88
450.883	2099.88
451.104	1996.88
451.324	2067.88
451.545	2117.88
451.766	2102.88
451.986	2021.88
452.207	1993.88
452.428	1942.88
452.648	1879.88
452.869	1942.88
453.089	2095.88
453.31	2110.88
453.53	2129.88
453.751	2090.88
453.971	1941.88
454.192	1958.88
454.412	2176.88
454.633	2060.88
454.853	1987.88
455.073	1905.88
455.294	1870.88
455.514	1845.88
455.734	1913.88
455.955	1916.88
456.175	1924.88
456.395	1930.88
456.616	1984.88
456.836	1994.88
457.056	1953.88
457.276	1971.88
457.497	1921.88
457.717	1852.88
457.937	1827.88
458.157	1937.88
458.377	1937.88
458.598	1911.88
458.818	1905.88
459.038	2039.88
459.258	2171.88
459.478	2196.88
459.698	2117.88
459.918	2138.88
460.138	2236.88
460.358	2258.88
460.578	2295.88
460.798	2399.88
461.018	2509.88
461.238	2405.88
461.458	2293.88
461.678	2323.88
461.898	2231.88
462.118	2148.88
462.338	2311.88
462.558	2301.88
462.777	2251.88
462.997	2384.88
463.217	2541.88
463.437	2539.88
463.657	2361.88
463.876	2294.88
464.096	2248.88
464.316	2297.88
464.536	2391.88
464.755	2374.88
464.975	2400.88
465.195	2330.88
465.414	2457.88
465.634	2420.88
465.854	2312.88
466.073	2393.88
466.293	2385.88
466.512	2136.88
466.732	2089.88
466.951	2174.88
467.171	2180.88
467.391	2101.88
467.61	2015.88
467.829	2101.88
468.049	2194.88
468.268	2555.88
468.488	2298.88
468.707	2183.88
468.927	2157.88
469.146	2147.88
469.365	2075.88
469.585	2080.88
469.804	2051.88
470.023	2057.88
470.243	2145.88
470.462	2086.88
470.681	2048.88
470.901	2097.88
471.12	2119.88
471.339	2083.88
471.558	2008.88
471.777	2037.88
471.997	2076.88
472.216	2047.88
472.435	1996.88
472.654	2003.88
472.873	2107.88
473.092	2260.88
473.311	2125.88
473.53	1998.88
473.749	1969.88
473.968	2078.88
474.187	2187.88
474.406	2289.88
474.625	2156.88
474.844	2081.88
475.063	2120.88
475.282	2196.88
475.501	2189.88
475.72	2124.88
475.939	2268.88
476.158	2203.88
476.377	2109.88
476.596	2139.88
476.814	2195.88
477.033	2228.88
477.252	2290.88
477.471	2361.88
477.69	2205.88
477.908	2195.88
478.127	2351.88
478.346	2547.88
478.564	2567.88
478.783	2482.88
479.002	2583.88
479.22	2501.88
479.439	2618.88
479.658	2948.88
479.876	2935.88
480.095	2534.88
480.313	2432.88
480.532	2368.88
480.751	2393.88
480.969	2445.88
481.188	2367.88
481.406	2364.88
481.624	2279.88
481.843	2342.88
482.061	2412.88
482.28	2424.88
482.498	2482.88
482.717	2428.88
482.935	2299.88
483.153	2337.88
483.372	2315.88
483.59	2270.88
483.808	2344.88
484.027	2397.88
484.245	2549.88
484.463	2897.88
484.681	3414.88
484.9	2606.88
485.118	2439.88
485.336	2353.88
485.554	2455.88
485.772	2616.88
485.99	2481.88
486.209	2527.88
486.427	2519.88
486.645	2507.88
486.863	2464.88
487.081	2489.88
487.299	2618.88
487.517	2562.88
487.735	2469.88
487.953	2396.88
488.171	2402.88
488.389	2386.88
488.607	2483.88
488.825	2691.88
489.043	2691.88
489.261	2431.88
489.479	2582.88
489.696	2609.88
489.914	2639.88
490.132	2524.88
490.35	2445.88
490.568	2602.88
490.786	2498.88
491.003	2393.88
491.221	2454.88
491.439	2573.88
491.657	2545.88
491.874	2530.88
492.092	2581.88
492.31	2583.88
492.527	2519.88
492.745	2536.88
492.963	2540.88
493.18	2602.88
493.398	2796.88
493.615	2841.88
493.833	2586.88
494.05	2541.88
494.268	2534.88
494.485	2614.88
494.703	2582.88
494.92	2506.88
495.138	2511.88
495.355	2517.88
495.573	2633.88
495.79	2823.88
496.008	2860.88
496.225	2660.88
496.442	2626.88
496.66	2757.88
496.877	2638.88
497.094	2796.88
497.312	2793.88
497.529	2794.88
497.746	2854.88
497.963	3315.88
498.181	3709.88
498.398	3417.88
498.615	3361.88
498.832	3295.88
499.049	3242.88
499.267	3266.88
499.484	3452.88
499.701	3773.88
499.918	3792.88
500.135	4000.88
500.352	4356.88
500.569	4289.88
500.786	4569.88
501.003	4304.88
501.22	3831.88
501.437	3797.88
501.654	3714.88
501.871	3698.88
502.088	3213.88
502.305	3161.88
502.522	3151.88
502.739	2938.88
502.956	2855.88
503.172	2831.88
503.389	2743.88
503.606	2666.88
503.823	2714.88
504.04	2651.88
504.256	2674.88
504.473	2689.88
504.69	2789.88
504.907	2618.88
505.123	2520.88
505.34	2628.88
505.557	3497.88
505.773	3020.88
505.99	2464.88
506.207	2319.88
506.423	2241.88
506.64	2282.88
506.856	2303.88
507.073	2573.88
507.289	2818.88
507.506	2672.88
507.722	2363.88
507.939	2168.88
508.155	2227.88
508.372	2255.88
508.588	2167.88
508.805	2114.88
509.021	2082.88
509.238	2122.88
509.454	2085.88
509.67	2113.88
509.887	2029.88
510.103	2071.88
510.319	2095.88
510.536	2195.88
510.752	2269.88
510.968	2269.88
511.184	2419.88
511.401	2361.88
511.617	2081.88
511.833	2015.88
512.049	2025.88
512.265	2022.88
512.481	2002.88
512.698	2058.88
512.914	2199.88
513.13	2173.88
513.346	2043.88
513.562	2025.88
513.778	1998.88
513.994	2165.88
514.21	2216.88
514.426	2231.88
514.642	2461.88
514.858	2360.88
515.074	2103.88
515.29	2038.88
515.506	2096.88
515.721	2169.88
515.937	2191.88
516.153	2450.88
516.369	2348.88
516.585	2219.88
516.801	2162.88
517.016	2113.88
517.232	2193.88
517.448	2232.88
517.664	2264.88
517.879	2253.88
518.095	2371.88
518.311	2264.88
518.527	2152.88
518.742	2108.88
518.958	2040.88
519.173	2055.88
519.389	2068.88
519.605	2135.88
519.82	2058.88
520.036	2166.88
520.251	2041.88
520.467	2082.88
520.682	2220.88
520.898	2354.88
521.113	2097.88
521.329	2019.88
521.544	2211.88
521.76	2112.88
521.975	2035.88
522.19	1943.88
522.406	1931.88
522.621	2384.88
522.836	2405.88
523.052	1941.88
523.267	1936.88
523.482	1946.88
523.698	1875.88
523.913	1831.88
524.128	1876.88
524.343	2001.88
524.559	2020.88
524.774	1896.88
524.989	1893.88
525.204	1807.88
525.419	1797.88
525.634	1840.88
525.849	1886.88
526.064	1880.88
526.28	1903.88
526.495	1789.88
526.71	1813.88
526.925	1775.88
527.14	1772.88
527.355	1754.88
527.57	1732.88
527.785	1838.88
527.999	1768.88
528.214	1759.88
528.429	1728.88
528.644	1739.88
528.859	1752.88
529.074	1779.88
529.289	1754.88
529.503	1774.88
529.718	1833.88
529.933	1785.88
530.148	1709.88
530.363	1675.88
530.577	1724.88
530.792	1800.88
531.007	1808.88
531.221	1777.88
531.436	1798.88
531.651	1863.88
531.865	1901.88
532.08	1879.88
532.295	1752.88
532.509	1693.88
532.724	1716.88
532.938	1813.88
533.153	1906.88
533.367	1801.88
533.582	1779.88
533.796	1729.88
534.011	1754.88
534.225	1787.88
534.44	1728.88
534.654	1734.88
534.868	1712.88
535.083	1790.88
535.297	1806.88
535.511	1741.88
535.726	1706.88
535.94	1694.88
536.154	1716.88
536.369	1676.88
536.583	1689.88
536.797	1666.88
537.011	1757.88
537.225	1684.88
537.44	1636.88
537.654	1703.88
537.868	1659.88
538.082	1593.88
538.296	1597.88
538.51	1585.88
538.724	1591.88
538.938	1568.88
539.153	1657.88
539.367	1658.88
539.581	1697.88
539.795	1740.88
540.009	1719.88
540.222	1669.88
540.436	1679.88
540.65	1851.88
540.864	1887.88
541.078	1748.88
541.292	1661.88
541.506	1642.88
541.72	1658.88
541.934	1683.88
542.147	1717.88
542.361	1682.88
542.575	1584.88
542.789	1567.88
543.002	1520.88
543.216	1602.88
543.43	1667.88
543.644	1723.88
543.857	1806.88
544.071	1723.88
544.285	1663.88
544.498	1621.88
544.712	1656.88
544.925	1647.88
545.139	1685.88
545.352	1607.88
545.566	1577.88
545.779	1560.88
545.993	1565.88
546.206	1639.88
546.42	1571.88
546.633	1522.88
546.847	1522.88
547.06	1562.88
547.274	1535.88
547.487	1547.88
547.7	1556.88
547.914	1573.88
548.127	1607.88
548.34	1613.88
548.554	1630.88
548.767	1577.88
548.98	1574.88
549.193	1568.88
549.407	1618.88
549.62	1637.88
549.833	1531.88
550.046	1539.88
550.259	1585.88
550.473	1547.88
550.686	1539.88
550.899	1507.88
551.112	1475.88
551.325	1455.88
551.538	1591.88
551.751	1841.88
551.964	1496.88
552.177	1467.88
552.39	1503.88
552.603	1500.88
552.816	1519.88
553.029	1614.88
553.242	1631.88
553.455	1567.88
553.667	1548.88
553.88	1502.88
554.093	1509.88
554.306	1454.88
554.519	1441.88
554.732	1435.88
554.944	1471.88
555.157	1489.88
555.37	1440.88
555.583	1456.88
555.795	1442.88
556.008	1376.88
556.221	1356.88
556.433	1303.88
556.646	1325.88
556.859	1319.88
557.071	1301.88
557.284	1322.88
557.496	1343.88
557.709	1289.88
557.921	1268.88
558.134	1305.88
558.346	1298.88
558.559	1297.88
558.771	1329.88
558.984	1240.88
559.196	1232.88
559.409	1234.88
559.621	1255.88
559.833	1248.88
560.046	1333.88
560.258	1273.88
560.47	1253.88
560.683	1273.88
560.895	1279.88
561.107	1276.88
561.32	1289.88
561.532	1325.88
561.744	1267.88
561.956	1263.88
562.168	1202.88
562.381	1213.88
562.593	1218.88
562.805	1231.88
563.017	1203.88
563.229	1220.88
563.441	1259.88
563.653	1265.88
563.865	1228.88
564.077	1239.88
564.289	1244.88
564.501	1239.88
564.713	1273.88
564.925	1355.88
565.137	1448.88
565.349	1321.88
565.561	1303.88
565.773	1330.88
565.985	1335.88
566.197	1408.88
566.408	1485.88
566.62	1515.88
566.832	1512.88
567.044	1520.88
567.255	1474.88
567.467	1513.88
567.679	1556.88
567.891	1567.88
568.102	1539.88
568.314	1491.88
568.526	1425.88
568.737	1382.88
568.949	1318.88
569.161	1269.88
569.372	1227.88
569.584	1199.88
569.795	1216.88
570.007	1204.88
570.218	1122.88
570.43	1132.88
570.641	1140.88
570.853	1140.88
571.064	1133.88
571.276	1125.88
571.487	1108.88
571.698	1076.88
571.91	1046.88
572.121	1033.88
572.333	1017.88
572.544	1060.88
572.755	988.88
572.966	980.88
573.178	991.88
573.389	1003.88
573.6	1039.88
573.811	1128.88
574.023	1040.88
574.234	1010.88
574.445	950.88
574.656	951.88
574.867	953.88
575.078	960.88
575.289	911.88
575.501	953.88
575.712	952.88
575.923	950.88
576.134	934.88
576.345	940.88
576.556	910.88
576.767	911.88
576.978	895.88
577.188	889.88
577.399	854.88
577.61	871.88
577.821	870.88
578.032	866.88
578.243	871.88
578.454	870.88
578.665	861.88
578.875	841.88
579.086	838.88
579.297	803.88
579.508	867.88
579.718	866.88
579.929	839.88
580.14	821.88
580.35	859.88
580.561	834.88
580.772	932.88
580.982	877.88
581.193	828.88
581.403	815.88
581.614	787.88
581.825	799.88
582.035	809.88
582.246	817.88
582.456	836.88
582.667	830.88
582.877	802.88
583.087	782.88
583.298	779.88
583.508	795.88
583.719	810.88
583.929	826.88
584.139	793.88
584.35	781.88
584.56	773.88
584.77	798.88
584.981	796.88
585.191	819.88
585.401	811.88
585.611	777.88
585.821	787.88
586.032	791.88
586.242	759.88
586.452	752.88
586.662	798.88
586.872	766.88
587.082	761.88
587.292	793.88
587.502	814.88
587.713	803.88
587.923	781.88
588.133	756.88
588.343	770.88
588.553	749.88
588.762	767.88
588.972	748.88
589.182	791.88
589.392	767.88
589.602	781.88
589.812	788.88
590.022	745.88
590.232	732.88
590.441	754.88
590.651	768.88
590.861	741.88
591.071	720.88
591.281	736.88
591.49	749.88
591.7	730.88
591.91	739.88
592.119	760.88
592.329	753.88
592.539	781.88
592.748	766.88
592.958	778.88
593.167	777.88
593.377	812.88
593.587	793.88
593.796	788.88
594.006	789.88
594.215	797.88
594.424	743.88
594.634	783.88
594.843	806.88
595.053	794.88
595.262	731.88
595.472	741.88
595.681	732.88
595.89	739.88
596.1	695.88
596.309	725.88
596.518	696.88
596.727	703.88
596.937	704.88
597.146	658.88
597.355	689.88
597.564	651.88
597.774	651.88
597.983	643.88
598.192	643.88
598.401	634.88
598.61	641.88
598.819	636.88
599.028	652.88
599.237	650.88
599.446	627.88
599.655	615.88
599.864	637.88
600.073	623.88
600.282	614.88
600.491	615.88
600.7	636.88
600.909	612.88
601.118	610.88
601.327	625.88
601.536	623.88
601.745	596.88
601.953	604.88
602.162	614.88
602.371	633.88
602.58	620.88
602.789	589.88
602.997	613.88
603.206	602.88
603.415	575.88
603.623	593.88
603.832	600.88
604.041	594.88
604.249	555.88
604.458	573.88
604.666	587.88
604.875	582.88
605.084	589.88
605.292	595.88
605.501	583.88
605.709	594.88
605.918	568.88
606.126	562.88
606.334	574.88
606.543	552.88
606.751	584.88
606.96	562.88
607.168	547.88
607.376	544.88
607.585	571.88
607.793	547.88
608.001	560.88
608.21	552.88
608.418	551.88
608.626	560.88
608.834	545.88
609.043	569.88
609.251	546.88
609.459	563.88
609.667	574.88
609.875	562.88
610.083	583.88
610.291	583.88
610.499	586.88
610.707	559.88
610.916	563.88
611.124	551.88
611.332	543.88
611.54	519.88
611.748	542.88
611.955	549.88
612.163	502.88
612.371	525.88
612.579	511.88
612.787	526.88
612.995	554.88
613.203	545.88
613.411	537.88
613.618	540.88
613.826	552.88
614.034	537.88
614.242	544.88
614.449	530.88
614.657	529.88
614.865	523.88
615.072	530.88
615.28	519.88
615.488	539.88
615.695	576.88
615.903	533.88
616.111	541.88
616.318	527.88
616.526	543.88
616.733	532.88
616.941	517.88
617.148	493.88
617.356	506.88
617.563	501.88
617.771	514.88
617.978	492.88
618.185	490.88
618.393	511.88
618.6	525.88
618.807	529.88
619.015	506.88
619.222	499.88
619.429	483.88
619.637	493.88
619.844	506.88
620.051	481.88
620.258	488.88
620.466	461.88
620.673	488.88
620.88	448.88
621.087	449.88
621.294	455.88
621.501	468.88
621.708	497.88
621.915	467.88
622.122	470.88
622.329	484.88
622.536	468.88
622.743	455.88
622.95	448.88
623.157	447.88
623.364	456.88
623.571	468.88
623.778	447.88
623.985	464.88
624.192	463.88
624.399	439.88
624.606	447.88
624.812	449.88
625.019	441.88
625.226	448.88
625.433	456.88
625.639	436.88
625.846	433.88
626.053	449.88
626.259	420.88
626.466	429.88
626.673	415.88
626.879	425.88
627.086	423.88
627.293	423.88
627.499	418.88
627.706	443.88
627.912	424.88
628.119	396.88
628.325	419.88
628.532	436.88
628.738	414.88
628.945	421.88
629.151	414.88
629.357	425.88
629.564	416.88
629.77	420.88
629.976	417.88
630.183	410.88
630.389	413.88
630.595	401.88
630.802	396.88
631.008	401.88
631.214	379.88
631.42	387.88
631.627	390.88
631.833	380.88
632.039	357.88
632.245	394.88
632.451	377.88
632.657	377.88
632.863	383.88
633.069	375.88
633.275	383.88
633.481	364.88
633.688	357.88
633.893	361.88
634.099	343.88
634.305	363.88
634.511	348.88
634.717	373.88
634.923	354.88
635.129	350.88
635.335	369.88
635.541	364.88
635.747	361.88
635.952	347.88
636.158	363.88
636.364	367.88
636.57	359.88
636.775	363.88
636.981	373.88
637.187	349.88
637.392	356.88
637.598	337.88
637.804	367.88
638.009	362.88
638.215	354.88
638.421	353.88
638.626	348.88
638.832	338.88
639.037	334.88
639.243	349.88
639.448	335.88
639.654	361.88
639.859	348.88
640.065	352.88
640.27	356.88
640.475	349.88
640.681	333.88
640.886	331.88
641.091	336.88
641.297	340.88
641.502	317.88
641.707	326.88
641.913	330.88
642.118	339.88
642.323	338.88
642.528	336.88
642.733	315.88
642.939	323.88
643.144	317.88
643.349	337.88
643.554	328.88
643.759	317.88
643.964	310.88
644.169	322.88
644.374	311.88
644.579	321.88
644.784	315.88
644.989	328.88
645.194	327.88
645.399	332.88
645.604	322.88
645.809	313.88
646.014	301.88
646.219	310.88
646.423	312.88
646.628	340.88
646.833	327.88
647.038	327.88
647.243	313.88
647.447	320.88
647.652	322.88
647.857	321.88
648.062	320.88
648.266	319.88
648.471	331.88
648.676	326.88
648.88	332.88
649.085	319.88
649.289	318.88
649.494	313.88
649.698	301.88
649.903	315.88
650.107	315.88
650.312	315.88
650.516	292.88
650.721	301.88
650.925	284.88
651.13	291.88
651.334	268.88
651.539	283.88
651.743	276.88
651.947	277.88
652.152	296.88
652.356	277.88
652.56	244.88
652.764	263.88
652.969	277.88
653.173	247.88
653.377	255.88
653.581	248.88
653.785	252.88
653.99	255.88
654.194	249.88
654.398	229.88
654.602	224.88
654.806	261.88
655.01	232.88
655.214	245.88
655.418	233.88
655.622	248.88
655.826	271.88
656.03	259.88
656.234	283.88
656.438	259.88
656.642	255.88
656.846	259.88
657.049	222.88
657.253	225.88
657.457	199.88
657.661	205.88
657.865	175.88
658.068	180.88
658.272	161.88
658.476	162.88
658.68	176.88
658.883	164.88
659.087	159.88
659.291	135.88
659.494	131.88
659.698	123.88
659.901	121.88
660.105	130.88
660.309	124.88
660.512	122.88
660.716	125.88
660.919	119.88
661.123	117.88
661.326	101.88
661.53	119.88
661.733	101.88
661.936	97.88
662.14	100.88
662.343	89.88
662.546	91.88
662.75	85.88
662.953	96.88
663.156	98.88
663.36	89.88
663.563	82.88
663.766	69.88
663.969	89.88
664.173	91.88
664.376	85.88
664.579	91.88
664.782	85.88
664.985	87.88
665.188	85.88
665.391	78.88
665.594	77.88
665.797	82.88
666	70.88
666.203	81.88
666.406	81.88
666.609	90.88
666.812	92.88
667.015	89.88
667.218	87.88
667.421	83.88
667.624	86.88
667.827	82.88
668.03	90.88
668.232	81.88
668.435	77.88
668.638	83.88
668.841	89.88
669.043	91.88
669.246	76.88
669.449	79.88
669.651	85.88
669.854	94.88
670.057	77.88
670.259	75.88
670.462	73.88
670.665	59.88
670.867	80.88
671.07	84.88
671.272	83.88
671.475	101.88
671.677	87.88
671.88	81.88
672.082	100.88
672.284	73.88
672.487	75.88
672.689	89.88
672.892	97.88
