Data from WStandard_LampEnergy5.5LIBS07252019.E.O._I.C._HRD10591_16-06-41-919.txt Node
Date: Thu Jul 25 16:06:41 EDT 2019
User: cochatt
Spectrometer: HR+D1059
Trigger mode: 1
Integration Time (sec): 1.000000E-1
Scans to average: 1
Electric dark correction enabled: true
Nonlinearity correction enabled: false
Boxcar width: 0
XAxis mode: Wavelengths
Number of Pixels in Spectrum: 2048
>>>>>Begin Spectral Data<<<<<
223.165	-25.06
223.4	-25.06
223.635	-25.06
223.869	-8.06
224.104	-15.06
224.338	-15.06
224.573	-0.06
224.808	-12.06
225.042	-11.06
225.277	-3.06
225.511	-4.06
225.746	6.94
225.98	5.94
226.215	-10.06
226.449	14.94
226.683	20.94
226.918	17.94
227.152	36.94
227.387	40.94
227.621	36.94
227.856	56.94
228.09	43.94
228.324	31.94
228.559	54.94
228.793	125.94
229.027	344.94
229.262	349.94
229.496	380.94
229.73	386.94
229.964	443.94
230.199	443.94
230.433	468.94
230.667	504.94
230.901	525.94
231.136	448.94
231.37	447.94
231.604	457.94
231.838	488.94
232.072	489.94
232.306	413.94
232.541	463.94
232.775	560.94
233.009	587.94
233.243	587.94
233.477	525.94
233.711	517.94
233.945	559.94
234.179	556.94
234.413	573.94
234.647	639.94
234.881	580.94
235.115	534.94
235.349	549.94
235.583	567.94
235.817	543.94
236.051	527.94
236.285	576.94
236.519	598.94
236.753	640.94
236.987	658.94
237.221	662.94
237.455	748.94
237.689	715.94
237.922	691.94
238.156	649.94
238.39	658.94
238.624	705.94
238.858	740.94
239.091	752.94
239.325	788.94
239.559	906.94
239.793	957.94
240.027	1042.94
240.26	1027.94
240.494	766.94
240.728	715.94
240.961	687.94
241.195	705.94
241.429	816.94
241.662	793.94
241.896	745.94
242.13	764.94
242.363	841.94
242.597	917.94
242.83	863.94
243.064	878.94
243.298	923.94
243.531	928.94
243.765	877.94
243.998	913.94
244.232	803.94
244.465	773.94
244.699	773.94
244.932	914.94
245.166	1049.94
245.399	970.94
245.633	921.94
245.866	864.94
246.099	934.94
246.333	955.94
246.566	943.94
246.8	1038.94
247.033	1179.94
247.266	1084.94
247.5	1057.94
247.733	1027.94
247.966	1075.94
248.2	1234.94
248.433	1170.94
248.666	1213.94
248.899	1320.94
249.133	1508.94
249.366	1742.94
249.599	1428.94
249.832	1222.94
250.066	1261.94
250.299	1271.94
250.532	1190.94
250.765	1075.94
250.998	1139.94
251.231	1174.94
251.465	1280.94
251.698	1179.94
251.931	1183.94
252.164	1219.94
252.397	1251.94
252.63	1245.94
252.863	1088.94
253.096	1067.94
253.329	1131.94
253.562	1176.94
253.795	1262.94
254.028	1261.94
254.261	1171.94
254.494	1183.94
254.727	1077.94
254.96	1111.94
255.193	1213.94
255.426	1401.94
255.659	1627.94
255.892	1679.94
256.124	1320.94
256.357	1298.94
256.59	1413.94
256.823	1417.94
257.056	1361.94
257.289	1704.94
257.521	1869.94
257.754	1691.94
257.987	1570.94
258.22	1793.94
258.452	1751.94
258.685	1387.94
258.918	1362.94
259.151	1367.94
259.383	1312.94
259.616	1146.94
259.849	1198.94
260.081	1382.94
260.314	1531.94
260.547	1689.94
260.779	1688.94
261.012	1599.94
261.244	1399.94
261.477	1370.94
261.71	1399.94
261.942	1387.94
262.175	1336.94
262.407	1494.94
262.64	1375.94
262.872	1277.94
263.105	1175.94
263.337	1236.94
263.57	1284.94
263.802	1297.94
264.035	1222.94
264.267	1143.94
264.499	1087.94
264.732	1197.94
264.964	1285.94
265.197	1329.94
265.429	1395.94
265.661	1560.94
265.894	1729.94
266.126	1767.94
266.358	1607.94
266.591	1646.94
266.823	1777.94
267.055	1586.94
267.287	1570.94
267.52	1535.94
267.752	1559.94
267.984	1521.94
268.216	1567.94
268.448	1651.94
268.681	1642.94
268.913	1492.94
269.145	1412.94
269.377	1364.94
269.609	1481.94
269.841	1715.94
270.073	2000.94
270.306	2241.94
270.538	2441.94
270.77	1999.94
271.002	1695.94
271.234	1648.94
271.466	1582.94
271.698	1802.94
271.93	2191.94
272.162	2207.94
272.394	1951.94
272.626	1891.94
272.858	1643.94
273.09	1419.94
273.322	1397.94
273.553	1344.94
273.785	1366.94
274.017	1397.94
274.249	1537.94
274.481	1520.94
274.713	1435.94
274.945	1382.94
275.176	1407.94
275.408	1362.94
275.64	1378.94
275.872	1333.94
276.104	1423.94
276.335	1608.94
276.567	1840.94
276.799	1878.94
277.031	1663.94
277.262	1537.94
277.494	1632.94
277.726	1860.94
277.957	1850.94
278.189	1702.94
278.421	1477.94
278.652	1477.94
278.884	1485.94
279.115	1449.94
279.347	1459.94
279.579	1449.94
279.81	1409.94
280.042	1579.94
280.273	1785.94
280.505	1763.94
280.736	1802.94
280.968	1674.94
281.199	1489.94
281.431	1424.94
281.662	1427.94
281.894	1407.94
282.125	1465.94
282.356	1497.94
282.588	1481.94
282.819	1523.94
283.051	1591.94
283.282	1774.94
283.513	1718.94
283.745	1485.94
283.976	1384.94
284.207	1401.94
284.439	1473.94
284.67	1443.94
284.901	1496.94
285.132	1545.94
285.364	1512.94
285.595	1481.94
285.826	1515.94
286.057	1484.94
286.288	1460.94
286.52	1509.94
286.751	1640.94
286.982	1727.94
287.213	1539.94
287.444	1439.94
287.675	1429.94
287.906	1489.94
288.138	1611.94
288.369	1556.94
288.6	1480.94
288.831	1439.94
289.062	1453.94
289.293	1468.94
289.524	1473.94
289.755	1531.94
289.986	1550.94
290.217	1379.94
290.448	1395.94
290.679	1497.94
290.91	1495.94
291.141	1501.94
291.371	1614.94
291.602	1569.94
291.833	1571.94
292.064	1579.94
292.295	1607.94
292.526	1635.94
292.757	1709.94
292.987	1604.94
293.218	1480.94
293.449	1623.94
293.68	1869.94
293.91	2005.94
294.141	1833.94
294.372	1664.94
294.603	1731.94
294.833	1824.94
295.064	1767.94
295.295	1599.94
295.525	1599.94
295.756	1471.94
295.987	1365.94
296.217	1393.94
296.448	1427.94
296.679	1459.94
296.909	1451.94
297.14	1468.94
297.37	1466.94
297.601	1512.94
297.831	1673.94
298.062	1675.94
298.292	1546.94
298.523	1485.94
298.753	1504.94
298.984	1492.94
299.214	1507.94
299.445	1511.94
299.675	1573.94
299.905	1587.94
300.136	1535.94
300.366	1497.94
300.597	1455.94
300.827	1460.94
301.057	1498.94
301.288	1582.94
301.518	1593.94
301.748	1593.94
301.979	1656.94
302.209	1680.94
302.439	1838.94
302.669	1940.94
302.9	1829.94
303.13	1617.94
303.36	1599.94
303.59	1669.94
303.82	1633.94
304.051	1584.94
304.281	1614.94
304.511	1575.94
304.741	1683.94
304.971	1895.94
305.201	2057.94
305.431	1910.94
305.661	1585.94
305.891	1413.94
306.121	1409.94
306.352	1481.94
306.582	1583.94
306.812	1643.94
307.042	1788.94
307.272	1761.94
307.502	1791.94
307.731	1940.94
307.961	2139.94
308.191	1979.94
308.421	1674.94
308.651	1587.94
308.881	1540.94
309.111	1515.94
309.341	1523.94
309.571	1511.94
309.8	1547.94
310.03	1509.94
310.26	1531.94
310.49	1509.94
310.72	1569.94
310.949	1602.94
311.179	1658.94
311.409	1657.94
311.639	1565.94
311.868	1574.94
312.098	1577.94
312.328	1557.94
312.557	1539.94
312.787	1548.94
313.017	1602.94
313.246	1597.94
313.476	1613.94
313.706	1633.94
313.935	1617.94
314.165	1601.94
314.394	1687.94
314.624	1739.94
314.853	1840.94
315.083	1982.94
315.312	2003.94
315.542	1888.94
315.771	1657.94
316.001	1685.94
316.23	1778.94
316.46	1727.94
316.689	1696.94
316.919	1626.94
317.148	1551.94
317.377	1610.94
317.607	1712.94
317.836	1910.94
318.065	2059.94
318.295	1912.94
318.524	1789.94
318.753	1799.94
318.983	1686.94
319.212	1717.94
319.441	1697.94
319.67	1664.94
319.9	1663.94
320.129	1793.94
320.358	1881.94
320.587	1888.94
320.816	1878.94
321.046	1839.94
321.275	1742.94
321.504	1757.94
321.733	1904.94
321.962	1816.94
322.191	1736.94
322.42	1703.94
322.649	1656.94
322.878	1676.94
323.108	1673.94
323.337	1780.94
323.566	1749.94
323.795	1749.94
324.024	1807.94
324.253	1671.94
324.482	1704.94
324.71	1660.94
324.939	1605.94
325.168	1629.94
325.397	1730.94
325.626	1716.94
325.855	1755.94
326.084	1689.94
326.313	1709.94
326.542	1701.94
326.77	1729.94
326.999	1747.94
327.228	1728.94
327.457	1619.94
327.686	1607.94
327.914	1616.94
328.143	1692.94
328.372	1672.94
328.6	1696.94
328.829	1683.94
329.058	1648.94
329.287	1625.94
329.515	1690.94
329.744	1709.94
329.972	1793.94
330.201	1859.94
330.43	1847.94
330.658	1758.94
330.887	1768.94
331.115	1776.94
331.344	1806.94
331.572	1762.94
331.801	1757.94
332.03	1760.94
332.258	1810.94
332.486	1817.94
332.715	1814.94
332.943	1838.94
333.172	1772.94
333.4	1794.94
333.629	1799.94
333.857	1903.94
334.085	2166.94
334.314	2374.94
334.542	2712.94
334.771	2479.94
334.999	2160.94
335.227	2024.94
335.455	1919.94
335.684	1926.94
335.912	1939.94
336.14	2031.94
336.369	1911.94
336.597	1859.94
336.825	1787.94
337.053	1844.94
337.281	1974.94
337.51	2071.94
337.738	2185.94
337.966	2040.94
338.194	1825.94
338.422	1795.94
338.65	1763.94
338.878	1746.94
339.106	1732.94
339.334	1660.94
339.562	1691.94
339.79	1680.94
340.018	1784.94
340.246	1839.94
340.474	1891.94
340.702	1815.94
340.93	1825.94
341.158	1797.94
341.386	1772.94
341.614	1773.94
341.842	1762.94
342.07	1741.94
342.298	1811.94
342.526	1771.94
342.754	1703.94
342.981	1719.94
343.209	1732.94
343.437	1721.94
343.665	1753.94
343.893	1785.94
344.12	1855.94
344.348	1905.94
344.576	1838.94
344.804	1769.94
345.031	1704.94
345.259	1783.94
345.487	1684.94
345.714	1650.94
345.942	1581.94
346.17	1647.94
346.397	1650.94
346.625	1703.94
346.853	1624.94
347.08	1579.94
347.308	1637.94
347.535	1616.94
347.763	1666.94
347.99	1671.94
348.218	1567.94
348.445	1600.94
348.673	1636.94
348.9	1673.94
349.128	1716.94
349.355	1794.94
349.583	1720.94
349.81	1658.94
350.037	1512.94
350.265	1537.94
350.492	1543.94
350.72	1560.94
350.947	1625.94
351.174	1721.94
351.402	1623.94
351.629	1545.94
351.856	1537.94
352.083	1504.94
352.311	1512.94
352.538	1582.94
352.765	1656.94
352.992	1674.94
353.22	1619.94
353.447	1570.94
353.674	1575.94
353.901	1636.94
354.128	1586.94
354.355	1575.94
354.583	1662.94
354.81	1677.94
355.037	1696.94
355.264	1694.94
355.491	1619.94
355.718	1687.94
355.945	1641.94
356.172	1553.94
356.399	1567.94
356.626	1593.94
356.853	1614.94
357.08	1735.94
357.307	1907.94
357.534	1970.94
357.761	1713.94
357.988	1617.94
358.215	1536.94
358.441	1570.94
358.668	1544.94
358.895	1549.94
359.122	1636.94
359.349	1826.94
359.576	1819.94
359.802	1631.94
360.029	1543.94
360.256	1500.94
360.483	1580.94
360.709	1608.94
360.936	1682.94
361.163	1724.94
361.39	1889.94
361.616	2027.94
361.843	1963.94
362.07	1911.94
362.296	1609.94
362.523	1590.94
362.749	1568.94
362.976	1647.94
363.203	1657.94
363.429	1619.94
363.656	1538.94
363.882	1599.94
364.109	1818.94
364.335	1944.94
364.562	1800.94
364.788	1711.94
365.015	1657.94
365.241	1559.94
365.468	1619.94
365.694	1684.94
365.92	1731.94
366.147	1704.94
366.373	1583.94
366.599	1554.94
366.826	1562.94
367.052	1552.94
367.278	1562.94
367.505	1602.94
367.731	1649.94
367.957	1643.94
368.184	1656.94
368.41	1767.94
368.636	1800.94
368.862	1835.94
369.089	1838.94
369.315	1752.94
369.541	1676.94
369.767	1644.94
369.993	1579.94
370.219	1589.94
370.445	1657.94
370.672	1716.94
370.898	1819.94
371.124	1794.94
371.35	1676.94
371.576	1728.94
371.802	1778.94
372.028	1747.94
372.254	1680.94
372.48	1597.94
372.706	1601.94
372.932	1606.94
373.158	1614.94
373.384	1672.94
373.61	1692.94
373.835	1825.94
374.061	1704.94
374.287	1681.94
374.513	1694.94
374.739	1688.94
374.965	1675.94
375.191	1725.94
375.416	1740.94
375.642	1705.94
375.868	1824.94
376.094	1850.94
376.319	1823.94
376.545	1672.94
376.771	1704.94
376.997	1791.94
377.222	1785.94
377.448	1716.94
377.674	1795.94
377.899	1766.94
378.125	1849.94
378.35	1886.94
378.576	1711.94
378.802	1616.94
379.027	1599.94
379.253	1636.94
379.478	1674.94
379.704	1659.94
379.929	1641.94
380.155	1653.94
380.38	1698.94
380.606	1672.94
380.831	1693.94
381.057	1776.94
381.282	1787.94
381.507	1747.94
381.733	1871.94
381.958	1965.94
382.184	1811.94
382.409	1718.94
382.634	1732.94
382.86	1757.94
383.085	1731.94
383.31	1764.94
383.535	1910.94
383.761	2071.94
383.986	1934.94
384.211	1885.94
384.436	1878.94
384.662	1931.94
384.887	2007.94
385.112	1958.94
385.337	1970.94
385.562	1933.94
385.787	1923.94
386.013	1944.94
386.238	1986.94
386.463	1960.94
386.688	2051.94
386.913	2191.94
387.138	2164.94
387.363	1950.94
387.588	1959.94
387.813	1937.94
388.038	1969.94
388.263	2036.94
388.488	1969.94
388.713	1839.94
388.938	1837.94
389.163	1873.94
389.387	1901.94
389.612	1896.94
389.837	1934.94
390.062	1963.94
390.287	1904.94
390.512	1921.94
390.736	1847.94
390.961	1851.94
391.186	1814.94
391.411	1895.94
391.636	1899.94
391.86	1911.94
392.085	1925.94
392.31	1895.94
392.534	1899.94
392.759	1943.94
392.984	1900.94
393.208	1973.94
393.433	2023.94
393.658	2088.94
393.882	2116.94
394.107	1999.94
394.331	1901.94
394.556	1873.94
394.78	1939.94
395.005	1963.94
395.229	2061.94
395.454	2187.94
395.678	2206.94
395.903	2176.94
396.127	2079.94
396.352	2063.94
396.576	2083.94
396.801	2123.94
397.025	2144.94
397.249	2119.94
397.474	2079.94
397.698	2074.94
397.922	2117.94
398.147	2192.94
398.371	2311.94
398.595	2290.94
398.82	2171.94
399.044	2239.94
399.268	2284.94
399.492	2440.94
399.717	2571.94
399.941	2610.94
400.165	2528.94
400.389	2467.94
400.613	2401.94
400.837	2596.94
401.062	2988.94
401.286	2639.94
401.51	2410.94
401.734	2518.94
401.958	2419.94
402.182	2265.94
402.406	2219.94
402.63	2135.94
402.854	2159.94
403.078	2201.94
403.302	2250.94
403.526	2263.94
403.75	2282.94
403.974	2292.94
404.198	2283.94
404.422	2380.94
404.645	2452.94
404.869	2420.94
405.093	2213.94
405.317	2183.94
405.541	2330.94
405.765	2312.94
405.988	2272.94
406.212	2351.94
406.436	2381.94
406.66	2436.94
406.883	2437.94
407.107	2678.94
407.331	2970.94
407.555	3187.94
407.778	2947.94
408.002	2471.94
408.226	2424.94
408.449	2402.94
408.673	2332.94
408.896	2307.94
409.12	2420.94
409.344	2315.94
409.567	2209.94
409.791	2249.94
410.014	2331.94
410.238	2377.94
410.461	2555.94
410.685	2336.94
410.908	2246.94
411.132	2271.94
411.355	2249.94
411.578	2159.94
411.802	2260.94
412.025	2295.94
412.249	2231.94
412.472	2182.94
412.695	2143.94
412.919	2162.94
413.142	2157.94
413.365	2204.94
413.589	2222.94
413.812	2266.94
414.035	2407.94
414.258	2212.94
414.482	2185.94
414.705	2196.94
414.928	2181.94
415.151	2152.94
415.374	2197.94
415.597	2212.94
415.821	2222.94
416.044	2351.94
416.267	2310.94
416.49	2086.94
416.713	2039.94
416.936	2186.94
417.159	2228.94
417.382	2234.94
417.605	2148.94
417.828	2187.94
418.051	2221.94
418.274	2165.94
418.497	2111.94
418.72	2081.94
418.943	2075.94
419.166	2244.94
419.389	2333.94
419.611	2247.94
419.834	2146.94
420.057	2148.94
420.28	2114.94
420.503	2126.94
420.726	2148.94
420.948	2151.94
421.171	2069.94
421.394	2134.94
421.617	2197.94
421.839	2144.94
422.062	2166.94
422.285	2061.94
422.507	2075.94
422.73	2045.94
422.953	2005.94
423.175	2011.94
423.398	2095.94
423.621	2092.94
423.843	2107.94
424.066	2119.94
424.288	2199.94
424.511	2238.94
424.733	2177.94
424.956	2009.94
425.178	1987.94
425.401	2030.94
425.623	2031.94
425.846	2050.94
426.068	2140.94
426.291	2186.94
426.513	2146.94
426.735	2133.94
426.958	2303.94
427.18	2403.94
427.402	2145.94
427.625	2258.94
427.847	2310.94
428.069	2131.94
428.292	2047.94
428.514	1977.94
428.736	1999.94
428.958	2050.94
429.181	2063.94
429.403	2248.94
429.625	2867.94
429.847	2484.94
430.069	2129.94
430.292	2246.94
430.514	2405.94
430.736	2189.94
430.958	2327.94
431.18	2160.94
431.402	2001.94
431.624	1956.94
431.846	2020.94
432.068	1976.94
432.29	2014.94
432.512	2005.94
432.734	2087.94
432.956	2107.94
433.178	2241.94
433.4	2171.94
433.622	2233.94
433.844	2093.94
434.066	1993.94
434.287	1982.94
434.509	2089.94
434.731	2204.94
434.953	2342.94
435.175	2290.94
435.397	2152.94
435.618	2121.94
435.84	2185.94
436.062	2136.94
436.284	2117.94
436.505	2102.94
436.727	2197.94
436.949	2109.94
437.17	2049.94
437.392	2033.94
437.614	2072.94
437.835	2013.94
438.057	2081.94
438.278	2221.94
438.5	2085.94
438.721	2000.94
438.943	2059.94
439.165	2017.94
439.386	1974.94
439.608	2003.94
439.829	2019.94
440.05	2044.94
440.272	1991.94
440.493	1963.94
440.715	2016.94
440.936	2137.94
441.158	2390.94
441.379	2317.94
441.6	2289.94
441.822	2199.94
442.043	2181.94
442.264	2137.94
442.486	2020.94
442.707	2001.94
442.928	2018.94
443.149	2084.94
443.371	2214.94
443.592	2286.94
443.813	2249.94
444.034	2203.94
444.255	2223.94
444.476	2263.94
444.698	2322.94
444.919	2317.94
445.14	2385.94
445.361	2332.94
445.582	2481.94
445.803	2352.94
446.024	2221.94
446.245	2317.94
446.466	2216.94
446.687	2143.94
446.908	2147.94
447.129	2076.94
447.35	2111.94
447.571	2115.94
447.792	1996.94
448.013	1959.94
448.234	2005.94
448.455	2132.94
448.675	2158.94
448.896	1965.94
449.117	1892.94
449.338	1960.94
449.559	2051.94
449.779	2202.94
450	2412.94
450.221	2581.94
450.442	2498.94
450.662	2204.94
450.883	1925.94
451.104	1891.94
451.324	1947.94
451.545	1990.94
451.766	1992.94
451.986	1902.94
452.207	1871.94
452.428	1809.94
452.648	1780.94
452.869	1859.94
453.089	1967.94
453.31	2023.94
453.53	2036.94
453.751	1961.94
453.971	1839.94
454.192	1897.94
454.412	2026.94
454.633	1967.94
454.853	1895.94
455.073	1741.94
455.294	1735.94
455.514	1793.94
455.734	1747.94
455.955	1817.94
456.175	1792.94
456.395	1803.94
456.616	1883.94
456.836	1895.94
457.056	1853.94
457.276	1904.94
457.497	1855.94
457.717	1741.94
457.937	1771.94
458.157	1877.94
458.377	1817.94
458.598	1784.94
458.818	1804.94
459.038	1944.94
459.258	2013.94
459.478	2072.94
459.698	2013.94
459.918	1984.94
460.138	2121.94
460.358	2148.94
460.578	2166.94
460.798	2287.94
461.018	2359.94
461.238	2264.94
461.458	2167.94
461.678	2159.94
461.898	2121.94
462.118	2062.94
462.338	2152.94
462.558	2174.94
462.777	2192.94
462.997	2264.94
463.217	2405.94
463.437	2372.94
463.657	2222.94
463.876	2140.94
464.096	2129.94
464.316	2155.94
464.536	2225.94
464.755	2286.94
464.975	2323.94
465.195	2198.94
465.414	2298.94
465.634	2276.94
465.854	2151.94
466.073	2297.94
466.293	2248.94
466.512	1959.94
466.732	2008.94
466.951	2065.94
467.171	2089.94
467.391	1973.94
467.61	1992.94
467.829	1944.94
468.049	2072.94
468.268	2333.94
468.488	2244.94
468.707	2123.94
468.927	2041.94
469.146	1997.94
469.365	1947.94
469.585	1998.94
469.804	1988.94
470.023	1976.94
470.243	2027.94
470.462	2014.94
470.681	1955.94
470.901	1958.94
471.12	2033.94
471.339	1957.94
471.558	1886.94
471.777	1898.94
471.997	1931.94
472.216	1948.94
472.435	1866.94
472.654	1974.94
472.873	2040.94
473.092	2107.94
473.311	2022.94
473.53	1889.94
473.749	1872.94
473.968	1963.94
474.187	2041.94
474.406	2149.94
474.625	2043.94
474.844	2005.94
475.063	1989.94
475.282	2028.94
475.501	2015.94
475.72	2019.94
475.939	2159.94
476.158	2050.94
476.377	1984.94
476.596	2084.94
476.814	2097.94
477.033	2069.94
477.252	2173.94
477.471	2254.94
477.69	2117.94
477.908	2095.94
478.127	2225.94
478.346	2376.94
478.564	2395.94
478.783	2338.94
479.002	2438.94
479.22	2418.94
479.439	2423.94
479.658	2780.94
479.876	2752.94
480.095	2449.94
480.313	2342.94
480.532	2200.94
480.751	2230.94
480.969	2319.94
481.188	2242.94
481.406	2197.94
481.624	2193.94
481.843	2170.94
482.061	2284.94
482.28	2264.94
482.498	2303.94
482.717	2327.94
482.935	2206.94
483.153	2179.94
483.372	2193.94
483.59	2175.94
483.808	2211.94
484.027	2242.94
484.245	2401.94
484.463	2758.94
484.681	3147.94
484.9	2404.94
485.118	2261.94
485.336	2207.94
485.554	2300.94
485.772	2431.94
485.99	2372.94
486.209	2423.94
486.427	2357.94
486.645	2353.94
486.863	2350.94
487.081	2363.94
487.299	2475.94
487.517	2423.94
487.735	2315.94
487.953	2264.94
488.171	2293.94
488.389	2264.94
488.607	2280.94
488.825	2542.94
489.043	2592.94
489.261	2306.94
489.479	2403.94
489.696	2468.94
489.914	2499.94
490.132	2380.94
490.35	2305.94
490.568	2448.94
490.786	2392.94
491.003	2240.94
491.221	2333.94
491.439	2380.94
491.657	2383.94
491.874	2366.94
492.092	2440.94
492.31	2415.94
492.527	2399.94
492.745	2357.94
492.963	2383.94
493.18	2454.94
493.398	2613.94
493.615	2691.94
493.833	2458.94
494.05	2399.94
494.268	2445.94
494.485	2525.94
494.703	2395.94
494.92	2346.94
495.138	2351.94
495.355	2371.94
495.573	2510.94
495.79	2568.94
496.008	2676.94
496.225	2527.94
496.442	2522.94
496.66	2572.94
496.877	2507.94
497.094	2645.94
497.312	2679.94
497.529	2605.94
497.746	2679.94
497.963	3108.94
498.181	3471.94
498.398	3256.94
498.615	3231.94
498.832	3096.94
499.049	3091.94
499.267	3070.94
499.484	3264.94
499.701	3495.94
499.918	3552.94
500.135	3772.94
500.352	4137.94
500.569	4051.94
500.786	4369.94
501.003	3971.94
501.22	3579.94
501.437	3612.94
501.654	3575.94
501.871	3472.94
502.088	3051.94
502.305	3099.94
502.522	2909.94
502.739	2748.94
502.956	2693.94
503.172	2649.94
503.389	2591.94
503.606	2507.94
503.823	2542.94
504.04	2565.94
504.256	2592.94
504.473	2563.94
504.69	2669.94
504.907	2502.94
505.123	2400.94
505.34	2497.94
505.557	3273.94
505.773	2755.94
505.99	2376.94
506.207	2187.94
506.423	2159.94
506.64	2136.94
506.856	2171.94
507.073	2450.94
507.289	2678.94
507.506	2595.94
507.722	2173.94
507.939	2081.94
508.155	2101.94
508.372	2099.94
508.588	2030.94
508.805	2008.94
509.021	1954.94
509.238	1936.94
509.454	1956.94
509.67	2005.94
509.887	1952.94
510.103	1978.94
510.319	1977.94
510.536	2073.94
510.752	2162.94
510.968	2136.94
511.184	2285.94
511.401	2237.94
511.617	1955.94
511.833	1923.94
512.049	1936.94
512.265	1927.94
512.481	1917.94
512.698	1988.94
512.914	2119.94
513.13	2082.94
513.346	1958.94
513.562	1850.94
513.778	1888.94
513.994	2056.94
514.21	2083.94
514.426	2104.94
514.642	2342.94
514.858	2258.94
515.074	2013.94
515.29	1930.94
515.506	2024.94
515.721	2065.94
515.937	2033.94
516.153	2339.94
516.369	2246.94
516.585	2114.94
516.801	1984.94
517.016	1975.94
517.232	2086.94
517.448	2127.94
517.664	2148.94
517.879	2107.94
518.095	2240.94
518.311	2120.94
518.527	2026.94
518.742	2001.94
518.958	1930.94
519.173	1931.94
519.389	1965.94
519.605	1968.94
519.82	1977.94
520.036	2019.94
520.251	1953.94
520.467	1993.94
520.682	2095.94
520.898	2206.94
521.113	1983.94
521.329	1924.94
521.544	2083.94
521.76	1959.94
521.975	1888.94
522.19	1849.94
522.406	1812.94
522.621	2213.94
522.836	2257.94
523.052	1874.94
523.267	1846.94
523.482	1876.94
523.698	1756.94
523.913	1719.94
524.128	1796.94
524.343	1871.94
524.559	1908.94
524.774	1749.94
524.989	1745.94
525.204	1755.94
525.419	1713.94
525.634	1723.94
525.849	1771.94
526.064	1749.94
526.28	1792.94
526.495	1680.94
526.71	1700.94
526.925	1724.94
527.14	1704.94
527.355	1672.94
527.57	1673.94
527.785	1723.94
527.999	1705.94
528.214	1644.94
528.429	1629.94
528.644	1628.94
528.859	1678.94
529.074	1659.94
529.289	1670.94
529.503	1721.94
529.718	1704.94
529.933	1643.94
530.148	1629.94
530.363	1635.94
530.577	1623.94
530.792	1651.94
531.007	1681.94
531.221	1698.94
531.436	1682.94
531.651	1753.94
531.865	1843.94
532.08	1745.94
532.295	1636.94
532.509	1585.94
532.724	1617.94
532.938	1697.94
533.153	1817.94
533.367	1748.94
533.582	1696.94
533.796	1627.94
534.011	1701.94
534.225	1678.94
534.44	1622.94
534.654	1627.94
534.868	1586.94
535.083	1720.94
535.297	1729.94
535.511	1656.94
535.726	1629.94
535.94	1653.94
536.154	1636.94
536.369	1589.94
536.583	1617.94
536.797	1571.94
537.011	1663.94
537.225	1573.94
537.44	1516.94
537.654	1638.94
537.868	1580.94
538.082	1483.94
538.296	1509.94
538.51	1511.94
538.724	1510.94
538.938	1488.94
539.153	1575.94
539.367	1601.94
539.581	1551.94
539.795	1644.94
540.009	1638.94
540.222	1568.94
540.436	1588.94
540.65	1717.94
540.864	1780.94
541.078	1643.94
541.292	1521.94
541.506	1557.94
541.72	1582.94
541.934	1545.94
542.147	1584.94
542.361	1560.94
542.575	1548.94
542.789	1504.94
543.002	1456.94
543.216	1494.94
543.43	1618.94
543.644	1645.94
543.857	1721.94
544.071	1639.94
544.285	1572.94
544.498	1529.94
544.712	1553.94
544.925	1569.94
545.139	1587.94
545.352	1555.94
545.566	1499.94
545.779	1457.94
545.993	1485.94
546.206	1541.94
546.42	1484.94
546.633	1443.94
546.847	1453.94
547.06	1501.94
547.274	1499.94
547.487	1463.94
547.7	1480.94
547.914	1501.94
548.127	1517.94
548.34	1520.94
548.554	1528.94
548.767	1487.94
548.98	1493.94
549.193	1471.94
549.407	1555.94
549.62	1565.94
549.833	1479.94
550.046	1446.94
550.259	1477.94
550.473	1455.94
550.686	1444.94
550.899	1427.94
551.112	1399.94
551.325	1406.94
551.538	1499.94
551.751	1765.94
551.964	1435.94
552.177	1407.94
552.39	1378.94
552.603	1465.94
552.816	1451.94
553.029	1491.94
553.242	1552.94
553.455	1490.94
553.667	1463.94
553.88	1447.94
554.093	1457.94
554.306	1396.94
554.519	1339.94
554.732	1335.94
554.944	1366.94
555.157	1407.94
555.37	1359.94
555.583	1352.94
555.795	1347.94
556.008	1330.94
556.221	1295.94
556.433	1293.94
556.646	1264.94
556.859	1248.94
557.071	1243.94
557.284	1240.94
557.496	1232.94
557.709	1192.94
557.921	1215.94
558.134	1222.94
558.346	1249.94
558.559	1259.94
558.771	1187.94
558.984	1158.94
559.196	1169.94
559.409	1179.94
559.621	1188.94
559.833	1179.94
560.046	1248.94
560.258	1228.94
560.47	1220.94
560.683	1196.94
560.895	1198.94
561.107	1185.94
561.32	1219.94
561.532	1236.94
561.744	1225.94
561.956	1213.94
562.168	1192.94
562.381	1182.94
562.593	1178.94
562.805	1176.94
563.017	1150.94
563.229	1188.94
563.441	1184.94
563.653	1176.94
563.865	1215.94
564.077	1133.94
564.289	1139.94
564.501	1176.94
564.713	1200.94
564.925	1256.94
565.137	1361.94
565.349	1232.94
565.561	1216.94
565.773	1277.94
565.985	1255.94
566.197	1329.94
566.408	1406.94
566.62	1439.94
566.832	1456.94
567.044	1442.94
567.255	1405.94
567.467	1410.94
567.679	1466.94
567.891	1534.94
568.102	1460.94
568.314	1409.94
568.526	1351.94
568.737	1302.94
568.949	1255.94
569.161	1212.94
569.372	1160.94
569.584	1159.94
569.795	1124.94
570.007	1123.94
570.218	1079.94
570.43	1059.94
570.641	1075.94
570.853	1059.94
571.064	1060.94
571.276	1062.94
571.487	1055.94
571.698	1007.94
571.91	998.94
572.121	991.94
572.333	986.94
572.544	973.94
572.755	932.94
572.966	947.94
573.178	917.94
573.389	962.94
573.6	992.94
573.811	1076.94
574.023	968.94
574.234	957.94
574.445	921.94
574.656	918.94
574.867	897.94
575.078	893.94
575.289	906.94
575.501	898.94
575.712	887.94
575.923	887.94
576.134	903.94
576.345	877.94
576.556	867.94
576.767	860.94
576.978	839.94
577.188	823.94
577.399	845.94
577.61	841.94
577.821	826.94
578.032	808.94
578.243	811.94
578.454	813.94
578.665	845.94
578.875	816.94
579.086	785.94
579.297	815.94
579.508	840.94
579.718	823.94
579.929	808.94
580.14	781.94
580.35	783.94
580.561	804.94
580.772	871.94
580.982	815.94
581.193	786.94
581.403	778.94
581.614	775.94
581.825	739.94
582.035	749.94
582.246	769.94
582.456	773.94
582.667	790.94
582.877	758.94
583.087	751.94
583.298	744.94
583.508	759.94
583.719	753.94
583.929	766.94
584.139	769.94
584.35	712.94
584.56	723.94
584.77	741.94
584.981	785.94
585.191	771.94
585.401	777.94
585.611	764.94
585.821	737.94
586.032	728.94
586.242	690.94
586.452	702.94
586.662	732.94
586.872	705.94
587.082	723.94
587.292	732.94
587.502	739.94
587.713	751.94
587.923	717.94
588.133	734.94
588.343	735.94
588.553	729.94
588.762	718.94
588.972	693.94
589.182	734.94
589.392	749.94
589.602	719.94
589.812	717.94
590.022	704.94
590.232	728.94
590.441	713.94
590.651	731.94
590.861	713.94
591.071	706.94
591.281	708.94
591.49	700.94
591.7	707.94
591.91	717.94
592.119	688.94
592.329	708.94
592.539	725.94
592.748	728.94
592.958	697.94
593.167	749.94
593.377	757.94
593.587	765.94
593.796	774.94
594.006	751.94
594.215	775.94
594.424	743.94
594.634	709.94
594.843	745.94
595.053	752.94
595.262	687.94
595.472	674.94
595.681	701.94
595.89	690.94
596.1	663.94
596.309	678.94
596.518	660.94
596.727	663.94
596.937	644.94
597.146	636.94
597.355	639.94
597.564	629.94
597.774	629.94
597.983	627.94
598.192	630.94
598.401	599.94
598.61	639.94
598.819	609.94
599.028	584.94
599.237	619.94
599.446	603.94
599.655	577.94
599.864	585.94
600.073	587.94
600.282	571.94
600.491	584.94
600.7	573.94
600.909	596.94
601.118	575.94
601.327	585.94
601.536	614.94
601.745	587.94
601.953	584.94
602.162	578.94
602.371	579.94
602.58	568.94
602.789	593.94
602.997	592.94
603.206	601.94
603.415	576.94
603.623	595.94
603.832	571.94
604.041	571.94
604.249	558.94
604.458	564.94
604.666	565.94
604.875	563.94
605.084	557.94
605.292	574.94
605.501	571.94
605.709	551.94
605.918	539.94
606.126	555.94
606.334	540.94
606.543	546.94
606.751	556.94
606.96	558.94
607.168	526.94
607.376	532.94
607.585	539.94
607.793	531.94
608.001	527.94
608.21	543.94
608.418	522.94
608.626	529.94
608.834	532.94
609.043	525.94
609.251	525.94
609.459	505.94
609.667	523.94
609.875	520.94
610.083	557.94
610.291	566.94
610.499	556.94
610.707	526.94
610.916	530.94
611.124	522.94
611.332	518.94
611.54	510.94
611.748	497.94
611.955	511.94
612.163	521.94
612.371	512.94
612.579	513.94
612.787	523.94
612.995	517.94
613.203	511.94
613.411	507.94
613.618	493.94
613.826	501.94
614.034	491.94
614.242	505.94
614.449	512.94
614.657	506.94
614.865	503.94
615.072	493.94
615.28	494.94
615.488	502.94
615.695	536.94
615.903	511.94
616.111	501.94
616.318	514.94
616.526	498.94
616.733	508.94
616.941	509.94
617.148	501.94
617.356	507.94
617.563	472.94
617.771	471.94
617.978	471.94
618.185	472.94
618.393	469.94
618.6	451.94
618.807	483.94
619.015	472.94
619.222	466.94
619.429	479.94
619.637	466.94
619.844	474.94
620.051	472.94
620.258	477.94
620.466	459.94
620.673	450.94
620.88	433.94
621.087	445.94
621.294	422.94
621.501	448.94
621.708	466.94
621.915	443.94
622.122	452.94
622.329	449.94
622.536	440.94
622.743	449.94
622.95	443.94
623.157	437.94
623.364	428.94
623.571	435.94
623.778	461.94
623.985	456.94
624.192	417.94
624.399	443.94
624.606	421.94
624.812	416.94
625.019	434.94
625.226	437.94
625.433	414.94
625.639	435.94
625.846	412.94
626.053	411.94
626.259	388.94
626.466	399.94
626.673	401.94
626.879	390.94
627.086	407.94
627.293	387.94
627.499	383.94
627.706	402.94
627.912	391.94
628.119	399.94
628.325	413.94
628.532	398.94
628.738	383.94
628.945	388.94
629.151	383.94
629.357	413.94
629.564	389.94
629.77	367.94
629.976	372.94
630.183	395.94
630.389	387.94
630.595	382.94
630.802	367.94
631.008	375.94
631.214	364.94
631.42	374.94
631.627	374.94
631.833	367.94
632.039	380.94
632.245	367.94
632.451	373.94
632.657	367.94
632.863	352.94
633.069	342.94
633.275	368.94
633.481	342.94
633.688	355.94
633.893	337.94
634.099	337.94
634.305	344.94
634.511	357.94
634.717	349.94
634.923	346.94
635.129	340.94
635.335	328.94
635.541	360.94
635.747	353.94
635.952	343.94
636.158	341.94
636.364	349.94
636.57	331.94
636.775	316.94
636.981	355.94
637.187	344.94
637.392	328.94
637.598	333.94
637.804	345.94
638.009	320.94
638.215	320.94
638.421	325.94
638.626	327.94
638.832	321.94
639.037	325.94
639.243	322.94
639.448	323.94
639.654	307.94
639.859	332.94
640.065	311.94
640.27	313.94
640.475	316.94
640.681	343.94
640.886	325.94
641.091	323.94
641.297	322.94
641.502	331.94
641.707	319.94
641.913	314.94
642.118	327.94
642.323	325.94
642.528	306.94
642.733	300.94
642.939	325.94
643.144	312.94
643.349	320.94
643.554	321.94
643.759	307.94
643.964	303.94
644.169	301.94
644.374	295.94
644.579	292.94
644.784	319.94
644.989	303.94
645.194	291.94
645.399	301.94
645.604	316.94
645.809	296.94
646.014	303.94
646.219	296.94
646.423	297.94
646.628	320.94
646.833	303.94
647.038	303.94
647.243	314.94
647.447	299.94
647.652	292.94
647.857	293.94
648.062	307.94
648.266	310.94
648.471	298.94
648.676	310.94
648.88	313.94
649.085	295.94
649.289	307.94
649.494	307.94
649.698	311.94
649.903	293.94
650.107	300.94
650.312	301.94
650.516	294.94
650.721	279.94
650.925	272.94
651.13	279.94
651.334	268.94
651.539	255.94
651.743	263.94
651.947	270.94
652.152	273.94
652.356	258.94
652.56	251.94
652.764	240.94
652.969	243.94
653.173	235.94
653.377	237.94
653.581	235.94
653.785	235.94
653.99	254.94
654.194	240.94
654.398	220.94
654.602	237.94
654.806	227.94
655.01	228.94
655.214	231.94
655.418	233.94
655.622	237.94
655.826	243.94
656.03	244.94
656.234	241.94
656.438	248.94
656.642	248.94
656.846	252.94
657.049	226.94
657.253	209.94
657.457	212.94
657.661	181.94
657.865	187.94
658.068	181.94
658.272	162.94
658.476	157.94
658.68	145.94
658.883	150.94
659.087	135.94
659.291	135.94
659.494	140.94
659.698	125.94
659.901	134.94
660.105	123.94
660.309	123.94
660.512	135.94
660.716	116.94
660.919	115.94
661.123	112.94
661.326	90.94
661.53	87.94
661.733	107.94
661.936	112.94
662.14	91.94
662.343	109.94
662.546	95.94
662.75	97.94
662.953	85.94
663.156	85.94
663.36	88.94
663.563	82.94
663.766	74.94
663.969	70.94
664.173	88.94
664.376	83.94
664.579	84.94
664.782	103.94
664.985	75.94
665.188	78.94
665.391	59.94
665.594	71.94
665.797	77.94
666	74.94
666.203	78.94
666.406	94.94
666.609	76.94
666.812	75.94
667.015	68.94
667.218	79.94
667.421	81.94
667.624	87.94
667.827	83.94
668.03	76.94
668.232	80.94
668.435	80.94
668.638	62.94
668.841	73.94
669.043	75.94
669.246	72.94
669.449	89.94
669.651	84.94
669.854	83.94
670.057	82.94
670.259	76.94
670.462	83.94
670.665	93.94
670.867	94.94
671.07	82.94
671.272	75.94
671.475	77.94
671.677	72.94
671.88	81.94
672.082	84.94
672.284	80.94
672.487	73.94
672.689	79.94
672.892	63.94
