Data from WStandard_LampEnergy5.5LIBS07252019.E.O._I.C._HRD10591_16-07-39-920.txt Node
Date: Thu Jul 25 16:07:39 EDT 2019
User: cochatt
Spectrometer: HR+D1059
Trigger mode: 1
Integration Time (sec): 1.000000E-1
Scans to average: 1
Electric dark correction enabled: true
Nonlinearity correction enabled: false
Boxcar width: 0
XAxis mode: Wavelengths
Number of Pixels in Spectrum: 2048
>>>>>Begin Spectral Data<<<<<
223.165	-16.94
223.4	-16.94
223.635	-16.94
223.869	-17.94
224.104	-7.94
224.338	-7.94
224.573	-17.94
224.808	-14.94
225.042	5.06
225.277	0.06
225.511	-22.94
225.746	8.06
225.98	9.06
226.215	-7.94
226.449	18.06
226.683	11.06
226.918	31.06
227.152	32.06
227.387	46.06
227.621	35.06
227.856	41.06
228.09	53.06
228.324	61.06
228.559	70.06
228.793	150.06
229.027	385.06
229.262	382.06
229.496	392.06
229.73	403.06
229.964	441.06
230.199	452.06
230.433	472.06
230.667	504.06
230.901	539.06
231.136	516.06
231.37	486.06
231.604	485.06
231.838	483.06
232.072	487.06
232.306	466.06
232.541	483.06
232.775	589.06
233.009	604.06
233.243	581.06
233.477	542.06
233.711	562.06
233.945	602.06
234.179	562.06
234.413	614.06
234.647	660.06
234.881	620.06
235.115	574.06
235.349	583.06
235.583	577.06
235.817	549.06
236.051	564.06
236.285	546.06
236.519	596.06
236.753	683.06
236.987	719.06
237.221	685.06
237.455	773.06
237.689	744.06
237.922	691.06
238.156	677.06
238.39	667.06
238.624	719.06
238.858	771.06
239.091	811.06
239.325	826.06
239.559	955.06
239.793	986.06
240.027	1060.06
240.26	1102.06
240.494	797.06
240.728	733.06
240.961	747.06
241.195	754.06
241.429	854.06
241.662	838.06
241.896	787.06
242.13	810.06
242.363	862.06
242.597	949.06
242.83	909.06
243.064	919.06
243.298	1000.06
243.531	966.06
243.765	929.06
243.998	981.06
244.232	852.06
244.465	771.06
244.699	807.06
244.932	957.06
245.166	1082.06
245.399	1029.06
245.633	940.06
245.866	900.06
246.099	991.06
246.333	953.06
246.566	997.06
246.8	1045.06
247.033	1232.06
247.266	1126.06
247.5	1086.06
247.733	1096.06
247.966	1181.06
248.2	1293.06
248.433	1229.06
248.666	1233.06
248.899	1337.06
249.133	1534.06
249.366	1825.06
249.599	1448.06
249.832	1288.06
250.066	1297.06
250.299	1333.06
250.532	1258.06
250.765	1083.06
250.998	1196.06
251.231	1259.06
251.465	1309.06
251.698	1198.06
251.931	1209.06
252.164	1253.06
252.397	1309.06
252.63	1288.06
252.863	1135.06
253.096	1159.06
253.329	1190.06
253.562	1240.06
253.795	1318.06
254.028	1309.06
254.261	1220.06
254.494	1229.06
254.727	1138.06
254.96	1178.06
255.193	1304.06
255.426	1465.06
255.659	1707.06
255.892	1735.06
256.124	1429.06
256.357	1382.06
256.59	1478.06
256.823	1458.06
257.056	1460.06
257.289	1761.06
257.521	1970.06
257.754	1755.06
257.987	1641.06
258.22	1826.06
258.452	1796.06
258.685	1457.06
258.918	1397.06
259.151	1451.06
259.383	1371.06
259.616	1213.06
259.849	1301.06
260.081	1458.06
260.314	1603.06
260.547	1735.06
260.779	1785.06
261.012	1678.06
261.244	1480.06
261.477	1426.06
261.71	1481.06
261.942	1460.06
262.175	1403.06
262.407	1497.06
262.64	1410.06
262.872	1341.06
263.105	1289.06
263.337	1284.06
263.57	1348.06
263.802	1325.06
264.035	1236.06
264.267	1201.06
264.499	1183.06
264.732	1262.06
264.964	1313.06
265.197	1409.06
265.429	1454.06
265.661	1623.06
265.894	1756.06
266.126	1857.06
266.358	1634.06
266.591	1722.06
266.823	1854.06
267.055	1637.06
267.287	1651.06
267.52	1598.06
267.752	1610.06
267.984	1573.06
268.216	1687.06
268.448	1717.06
268.681	1724.06
268.913	1599.06
269.145	1469.06
269.377	1414.06
269.609	1549.06
269.841	1807.06
270.073	2088.06
270.306	2343.06
270.538	2510.06
270.77	2133.06
271.002	1753.06
271.234	1703.06
271.466	1667.06
271.698	1865.06
271.93	2291.06
272.162	2254.06
272.394	2025.06
272.626	1961.06
272.858	1721.06
273.09	1496.06
273.322	1504.06
273.553	1460.06
273.785	1453.06
274.017	1494.06
274.249	1619.06
274.481	1670.06
274.713	1506.06
274.945	1412.06
275.176	1469.06
275.408	1451.06
275.64	1385.06
275.872	1417.06
276.104	1541.06
276.335	1719.06
276.567	1925.06
276.799	1974.06
277.031	1787.06
277.262	1650.06
277.494	1741.06
277.726	1892.06
277.957	1912.06
278.189	1735.06
278.421	1572.06
278.652	1512.06
278.884	1540.06
279.115	1551.06
279.347	1530.06
279.579	1511.06
279.81	1463.06
280.042	1660.06
280.273	1839.06
280.505	1823.06
280.736	1878.06
280.968	1813.06
281.199	1556.06
281.431	1487.06
281.662	1498.06
281.894	1499.06
282.125	1505.06
282.356	1585.06
282.588	1607.06
282.819	1555.06
283.051	1736.06
283.282	1857.06
283.513	1831.06
283.745	1579.06
283.976	1492.06
284.207	1461.06
284.439	1496.06
284.67	1543.06
284.901	1557.06
285.132	1594.06
285.364	1596.06
285.595	1579.06
285.826	1568.06
286.057	1523.06
286.288	1548.06
286.52	1575.06
286.751	1731.06
286.982	1799.06
287.213	1669.06
287.444	1498.06
287.675	1523.06
287.906	1575.06
288.138	1706.06
288.369	1655.06
288.6	1587.06
288.831	1473.06
289.062	1510.06
289.293	1573.06
289.524	1556.06
289.755	1605.06
289.986	1623.06
290.217	1465.06
290.448	1489.06
290.679	1579.06
290.91	1593.06
291.141	1631.06
291.371	1691.06
291.602	1657.06
291.833	1627.06
292.064	1709.06
292.295	1691.06
292.526	1688.06
292.757	1823.06
292.987	1725.06
293.218	1580.06
293.449	1685.06
293.68	1934.06
293.91	2117.06
294.141	1939.06
294.372	1823.06
294.603	1875.06
294.833	1954.06
295.064	1854.06
295.295	1697.06
295.525	1660.06
295.756	1552.06
295.987	1476.06
296.217	1519.06
296.448	1529.06
296.679	1589.06
296.909	1558.06
297.14	1510.06
297.37	1549.06
297.601	1657.06
297.831	1792.06
298.062	1793.06
298.292	1640.06
298.523	1577.06
298.753	1606.06
298.984	1573.06
299.214	1548.06
299.445	1594.06
299.675	1681.06
299.905	1654.06
300.136	1612.06
300.366	1557.06
300.597	1545.06
300.827	1528.06
301.057	1601.06
301.288	1659.06
301.518	1661.06
301.748	1739.06
301.979	1754.06
302.209	1799.06
302.439	1920.06
302.669	2059.06
302.9	1944.06
303.13	1692.06
303.36	1677.06
303.59	1734.06
303.82	1732.06
304.051	1697.06
304.281	1729.06
304.511	1678.06
304.741	1759.06
304.971	1946.06
305.201	2143.06
305.431	2030.06
305.661	1687.06
305.891	1498.06
306.121	1450.06
306.352	1537.06
306.582	1646.06
306.812	1710.06
307.042	1882.06
307.272	1872.06
307.502	1876.06
307.731	2055.06
307.961	2244.06
308.191	2044.06
308.421	1769.06
308.651	1660.06
308.881	1624.06
309.111	1637.06
309.341	1621.06
309.571	1642.06
309.8	1644.06
310.03	1592.06
310.26	1610.06
310.49	1580.06
310.72	1657.06
310.949	1689.06
311.179	1741.06
311.409	1670.06
311.639	1697.06
311.868	1616.06
312.098	1651.06
312.328	1645.06
312.557	1679.06
312.787	1660.06
313.017	1696.06
313.246	1658.06
313.476	1676.06
313.706	1768.06
313.935	1709.06
314.165	1732.06
314.394	1767.06
314.624	1869.06
314.853	1983.06
315.083	2089.06
315.312	2104.06
315.542	1943.06
315.771	1771.06
316.001	1729.06
316.23	1857.06
316.46	1837.06
316.689	1802.06
316.919	1728.06
317.148	1628.06
317.377	1674.06
317.607	1755.06
317.836	2047.06
318.065	2109.06
318.295	2022.06
318.524	1932.06
318.753	1873.06
318.983	1839.06
319.212	1783.06
319.441	1754.06
319.67	1747.06
319.9	1772.06
320.129	1887.06
320.358	1897.06
320.587	1989.06
320.816	1966.06
321.046	1889.06
321.275	1841.06
321.504	1841.06
321.733	1972.06
321.962	1963.06
322.191	1813.06
322.42	1771.06
322.649	1796.06
322.878	1751.06
323.108	1792.06
323.337	1843.06
323.566	1834.06
323.795	1828.06
324.024	1819.06
324.253	1780.06
324.482	1827.06
324.71	1764.06
324.939	1650.06
325.168	1658.06
325.397	1778.06
325.626	1812.06
325.855	1817.06
326.084	1777.06
326.313	1801.06
326.542	1828.06
326.77	1849.06
326.999	1879.06
327.228	1789.06
327.457	1714.06
327.686	1659.06
327.914	1717.06
328.143	1758.06
328.372	1791.06
328.6	1777.06
328.829	1763.06
329.058	1739.06
329.287	1726.06
329.515	1766.06
329.744	1768.06
329.972	1885.06
330.201	1991.06
330.43	1933.06
330.658	1867.06
330.887	1868.06
331.115	1913.06
331.344	1916.06
331.572	1874.06
331.801	1851.06
332.03	1870.06
332.258	1895.06
332.486	1941.06
332.715	1917.06
332.943	1909.06
333.172	1862.06
333.4	1906.06
333.629	1913.06
333.857	2049.06
334.085	2278.06
334.314	2547.06
334.542	2823.06
334.771	2592.06
334.999	2262.06
335.227	2173.06
335.455	1989.06
335.684	1990.06
335.912	2022.06
336.14	2130.06
336.369	2062.06
336.597	1897.06
336.825	1899.06
337.053	1912.06
337.281	2077.06
337.51	2132.06
337.738	2247.06
337.966	2138.06
338.194	1953.06
338.422	1905.06
338.65	1907.06
338.878	1831.06
339.106	1834.06
339.334	1743.06
339.562	1760.06
339.79	1767.06
340.018	1875.06
340.246	1976.06
340.474	1977.06
340.702	1940.06
340.93	1987.06
341.158	1896.06
341.386	1861.06
341.614	1866.06
341.842	1861.06
342.07	1867.06
342.298	1921.06
342.526	1900.06
342.754	1823.06
342.981	1809.06
343.209	1848.06
343.437	1843.06
343.665	1845.06
343.893	1889.06
344.12	1957.06
344.348	2029.06
344.576	1931.06
344.804	1855.06
345.031	1844.06
345.259	1855.06
345.487	1826.06
345.714	1730.06
345.942	1706.06
346.17	1732.06
346.397	1773.06
346.625	1766.06
346.853	1674.06
347.08	1634.06
347.308	1669.06
347.535	1711.06
347.763	1795.06
347.99	1742.06
348.218	1651.06
348.445	1655.06
348.673	1715.06
348.9	1777.06
349.128	1808.06
349.355	1881.06
349.583	1811.06
349.81	1736.06
350.037	1618.06
350.265	1566.06
350.492	1646.06
350.72	1678.06
350.947	1710.06
351.174	1793.06
351.402	1710.06
351.629	1630.06
351.856	1601.06
352.083	1586.06
352.311	1585.06
352.538	1645.06
352.765	1722.06
352.992	1769.06
353.22	1705.06
353.447	1606.06
353.674	1701.06
353.901	1704.06
354.128	1665.06
354.355	1643.06
354.583	1717.06
354.81	1769.06
355.037	1750.06
355.264	1734.06
355.491	1689.06
355.718	1691.06
355.945	1726.06
356.172	1678.06
356.399	1673.06
356.626	1646.06
356.853	1713.06
357.08	1864.06
357.307	2025.06
357.534	2058.06
357.761	1750.06
357.988	1617.06
358.215	1580.06
358.441	1628.06
358.668	1601.06
358.895	1647.06
359.122	1725.06
359.349	1906.06
359.576	1931.06
359.802	1724.06
360.029	1636.06
360.256	1622.06
360.483	1644.06
360.709	1682.06
360.936	1798.06
361.163	1777.06
361.39	1979.06
361.616	2153.06
361.843	2099.06
362.07	2014.06
362.296	1745.06
362.523	1657.06
362.749	1680.06
362.976	1700.06
363.203	1729.06
363.429	1698.06
363.656	1619.06
363.882	1694.06
364.109	1858.06
364.335	2027.06
364.562	1915.06
364.788	1777.06
365.015	1682.06
365.241	1649.06
365.468	1652.06
365.694	1781.06
365.92	1862.06
366.147	1777.06
366.373	1646.06
366.599	1625.06
366.826	1639.06
367.052	1641.06
367.278	1655.06
367.505	1681.06
367.731	1708.06
367.957	1711.06
368.184	1745.06
368.41	1858.06
368.636	1938.06
368.862	1901.06
369.089	1909.06
369.315	1860.06
369.541	1760.06
369.767	1722.06
369.993	1671.06
370.219	1666.06
370.445	1719.06
370.672	1780.06
370.898	1910.06
371.124	1902.06
371.35	1747.06
371.576	1829.06
371.802	1892.06
372.028	1833.06
372.254	1746.06
372.48	1672.06
372.706	1676.06
372.932	1695.06
373.158	1746.06
373.384	1727.06
373.61	1783.06
373.835	1869.06
374.061	1815.06
374.287	1755.06
374.513	1737.06
374.739	1781.06
374.965	1781.06
375.191	1810.06
375.416	1805.06
375.642	1818.06
375.868	1927.06
376.094	1993.06
376.319	1902.06
376.545	1768.06
376.771	1821.06
376.997	1877.06
377.222	1931.06
377.448	1825.06
377.674	1848.06
377.899	1820.06
378.125	1944.06
378.35	1995.06
378.576	1746.06
378.802	1717.06
379.027	1685.06
379.253	1766.06
379.478	1769.06
379.704	1770.06
379.929	1737.06
380.155	1779.06
380.38	1773.06
380.606	1803.06
380.831	1772.06
381.057	1845.06
381.282	1907.06
381.507	1862.06
381.733	1967.06
381.958	2023.06
382.184	1872.06
382.409	1779.06
382.634	1852.06
382.86	1847.06
383.085	1852.06
383.31	1867.06
383.535	2027.06
383.761	2159.06
383.986	2069.06
384.211	2003.06
384.436	1954.06
384.662	2035.06
384.887	2162.06
385.112	2052.06
385.337	2053.06
385.562	2023.06
385.787	2015.06
386.013	2110.06
386.238	2070.06
386.463	2014.06
386.688	2166.06
386.913	2309.06
387.138	2254.06
387.363	2122.06
387.588	2103.06
387.813	2046.06
388.038	2102.06
388.263	2157.06
388.488	2110.06
388.713	1949.06
388.938	1936.06
389.163	1988.06
389.387	1964.06
389.612	1991.06
389.837	2056.06
390.062	2082.06
390.287	2018.06
390.512	2021.06
390.736	1969.06
390.961	1951.06
391.186	1909.06
391.411	1953.06
391.636	1993.06
391.86	2006.06
392.085	2020.06
392.31	2001.06
392.534	2003.06
392.759	2055.06
392.984	2018.06
393.208	2041.06
393.433	2095.06
393.658	2142.06
393.882	2196.06
394.107	2081.06
394.331	1985.06
394.556	1998.06
394.78	1977.06
395.005	2088.06
395.229	2173.06
395.454	2289.06
395.678	2333.06
395.903	2247.06
396.127	2142.06
396.352	2163.06
396.576	2233.06
396.801	2230.06
397.025	2213.06
397.249	2233.06
397.474	2196.06
397.698	2137.06
397.922	2273.06
398.147	2294.06
398.371	2395.06
398.595	2425.06
398.82	2298.06
399.044	2353.06
399.268	2411.06
399.492	2683.06
399.717	2728.06
399.941	2729.06
400.165	2670.06
400.389	2566.06
400.613	2541.06
400.837	2753.06
401.062	3238.06
401.286	2773.06
401.51	2476.06
401.734	2627.06
401.958	2564.06
402.182	2387.06
402.406	2319.06
402.63	2305.06
402.854	2306.06
403.078	2354.06
403.302	2349.06
403.526	2446.06
403.75	2441.06
403.974	2471.06
404.198	2448.06
404.422	2487.06
404.645	2539.06
404.869	2525.06
405.093	2367.06
405.317	2332.06
405.541	2416.06
405.765	2410.06
405.988	2420.06
406.212	2459.06
406.436	2467.06
406.66	2555.06
406.883	2558.06
407.107	2904.06
407.331	3180.06
407.555	3393.06
407.778	3161.06
408.002	2623.06
408.226	2561.06
408.449	2593.06
408.673	2439.06
408.896	2417.06
409.12	2511.06
409.344	2406.06
409.567	2382.06
409.791	2430.06
410.014	2485.06
410.238	2583.06
410.461	2700.06
410.685	2487.06
410.908	2335.06
411.132	2371.06
411.355	2383.06
411.578	2330.06
411.802	2353.06
412.025	2372.06
412.249	2338.06
412.472	2294.06
412.695	2269.06
412.919	2291.06
413.142	2267.06
413.365	2323.06
413.589	2379.06
413.812	2451.06
414.035	2604.06
414.258	2348.06
414.482	2300.06
414.705	2267.06
414.928	2281.06
415.151	2269.06
415.374	2298.06
415.597	2297.06
415.821	2371.06
416.044	2426.06
416.267	2460.06
416.49	2212.06
416.713	2179.06
416.936	2267.06
417.159	2409.06
417.382	2345.06
417.605	2245.06
417.828	2280.06
418.051	2359.06
418.274	2305.06
418.497	2208.06
418.72	2211.06
418.943	2185.06
419.166	2364.06
419.389	2431.06
419.611	2289.06
419.834	2308.06
420.057	2258.06
420.28	2263.06
420.503	2211.06
420.726	2298.06
420.948	2279.06
421.171	2181.06
421.394	2198.06
421.617	2277.06
421.839	2244.06
422.062	2246.06
422.285	2166.06
422.507	2178.06
422.73	2123.06
422.953	2097.06
423.175	2094.06
423.398	2177.06
423.621	2178.06
423.843	2234.06
424.066	2238.06
424.288	2347.06
424.511	2375.06
424.733	2283.06
424.956	2094.06
425.178	2101.06
425.401	2133.06
425.623	2178.06
425.846	2122.06
426.068	2250.06
426.291	2321.06
426.513	2284.06
426.735	2292.06
426.958	2386.06
427.18	2525.06
427.402	2289.06
427.625	2335.06
427.847	2433.06
428.069	2249.06
428.292	2159.06
428.514	2096.06
428.736	2077.06
428.958	2164.06
429.181	2165.06
429.403	2421.06
429.625	2996.06
429.847	2649.06
430.069	2203.06
430.292	2402.06
430.514	2536.06
430.736	2317.06
430.958	2411.06
431.18	2268.06
431.402	2162.06
431.624	2100.06
431.846	2147.06
432.068	2078.06
432.29	2075.06
432.512	2177.06
432.734	2174.06
432.956	2235.06
433.178	2365.06
433.4	2250.06
433.622	2275.06
433.844	2185.06
434.066	2112.06
434.287	2109.06
434.509	2179.06
434.731	2293.06
434.953	2448.06
435.175	2449.06
435.397	2277.06
435.618	2275.06
435.84	2291.06
436.062	2213.06
436.284	2220.06
436.505	2309.06
436.727	2311.06
436.949	2220.06
437.17	2148.06
437.392	2157.06
437.614	2148.06
437.835	2114.06
438.057	2198.06
438.278	2331.06
438.5	2156.06
438.721	2127.06
438.943	2157.06
439.165	2110.06
439.386	2047.06
439.608	2107.06
439.829	2139.06
440.05	2129.06
440.272	2113.06
440.493	2049.06
440.715	2143.06
440.936	2241.06
441.158	2545.06
441.379	2447.06
441.6	2407.06
441.822	2290.06
442.043	2273.06
442.264	2259.06
442.486	2170.06
442.707	2099.06
442.928	2091.06
443.149	2185.06
443.371	2399.06
443.592	2375.06
443.813	2376.06
444.034	2341.06
444.255	2293.06
444.476	2429.06
444.698	2462.06
444.919	2470.06
445.14	2479.06
445.361	2453.06
445.582	2562.06
445.803	2438.06
446.024	2341.06
446.245	2499.06
446.466	2359.06
446.687	2239.06
446.908	2189.06
447.129	2147.06
447.35	2201.06
447.571	2179.06
447.792	2143.06
448.013	2066.06
448.234	2167.06
448.455	2208.06
448.675	2231.06
448.896	1998.06
449.117	2037.06
449.338	2061.06
449.559	2177.06
449.779	2292.06
450	2531.06
450.221	2741.06
450.442	2621.06
450.662	2307.06
450.883	2067.06
451.104	1997.06
451.324	2058.06
451.545	2107.06
451.766	2104.06
451.986	2021.06
452.207	1986.06
452.428	1969.06
452.648	1919.06
452.869	1920.06
453.089	2064.06
453.31	2038.06
453.53	2140.06
453.751	2057.06
453.971	1972.06
454.192	2013.06
454.412	2141.06
454.633	2022.06
454.853	2002.06
455.073	1875.06
455.294	1855.06
455.514	1871.06
455.734	1867.06
455.955	1968.06
456.175	1914.06
456.395	1923.06
456.616	1969.06
456.836	2028.06
457.056	1970.06
457.276	1979.06
457.497	1926.06
457.717	1815.06
457.937	1894.06
458.157	1951.06
458.377	1898.06
458.598	1879.06
458.818	1899.06
459.038	2065.06
459.258	2171.06
459.478	2197.06
459.698	2129.06
459.918	2140.06
460.138	2250.06
460.358	2278.06
460.578	2254.06
460.798	2363.06
461.018	2469.06
461.238	2393.06
461.458	2293.06
461.678	2306.06
461.898	2229.06
462.118	2128.06
462.338	2297.06
462.558	2292.06
462.777	2299.06
462.997	2417.06
463.217	2547.06
463.437	2514.06
463.657	2369.06
463.876	2323.06
464.096	2265.06
464.316	2309.06
464.536	2380.06
464.755	2371.06
464.975	2432.06
465.195	2349.06
465.414	2444.06
465.634	2388.06
465.854	2297.06
466.073	2411.06
466.293	2382.06
466.512	2113.06
466.732	2079.06
466.951	2219.06
467.171	2183.06
467.391	2057.06
467.61	2017.06
467.829	2037.06
468.049	2176.06
468.268	2478.06
468.488	2365.06
468.707	2189.06
468.927	2134.06
469.146	2127.06
469.365	2060.06
469.585	2111.06
469.804	2094.06
470.023	2084.06
470.243	2101.06
470.462	2076.06
470.681	2018.06
470.901	2097.06
471.12	2065.06
471.339	2014.06
471.558	2011.06
471.777	2026.06
471.997	2055.06
472.216	2038.06
472.435	1969.06
472.654	2016.06
472.873	2109.06
473.092	2241.06
473.311	2117.06
473.53	1989.06
473.749	1987.06
473.968	2036.06
474.187	2177.06
474.406	2266.06
474.625	2134.06
474.844	2138.06
475.063	2081.06
475.282	2148.06
475.501	2167.06
475.72	2095.06
475.939	2235.06
476.158	2173.06
476.377	2122.06
476.596	2110.06
476.814	2174.06
477.033	2162.06
477.252	2291.06
477.471	2390.06
477.69	2188.06
477.908	2189.06
478.127	2278.06
478.346	2502.06
478.564	2530.06
478.783	2467.06
479.002	2542.06
479.22	2535.06
479.439	2601.06
479.658	2985.06
479.876	2947.06
480.095	2526.06
480.313	2429.06
480.532	2324.06
480.751	2378.06
480.969	2437.06
481.188	2393.06
481.406	2372.06
481.624	2291.06
481.843	2341.06
482.061	2425.06
482.28	2405.06
482.498	2447.06
482.717	2418.06
482.935	2303.06
483.153	2319.06
483.372	2307.06
483.59	2267.06
483.808	2295.06
484.027	2342.06
484.245	2535.06
484.463	2953.06
484.681	3359.06
484.9	2610.06
485.118	2438.06
485.336	2355.06
485.554	2489.06
485.772	2569.06
485.99	2515.06
486.209	2516.06
486.427	2536.06
486.645	2417.06
486.863	2515.06
487.081	2531.06
487.299	2632.06
487.517	2595.06
487.735	2433.06
487.953	2383.06
488.171	2427.06
488.389	2417.06
488.607	2433.06
488.825	2710.06
489.043	2761.06
489.261	2406.06
489.479	2602.06
489.696	2621.06
489.914	2602.06
490.132	2545.06
490.35	2446.06
490.568	2568.06
490.786	2469.06
491.003	2367.06
491.221	2447.06
491.439	2547.06
491.657	2505.06
491.874	2526.06
492.092	2555.06
492.31	2500.06
492.527	2513.06
492.745	2459.06
492.963	2501.06
493.18	2595.06
493.398	2817.06
493.615	2859.06
493.833	2602.06
494.05	2471.06
494.268	2502.06
494.485	2607.06
494.703	2563.06
494.92	2450.06
495.138	2536.06
495.355	2582.06
495.573	2616.06
495.79	2779.06
496.008	2866.06
496.225	2620.06
496.442	2644.06
496.66	2699.06
496.877	2649.06
497.094	2789.06
497.312	2801.06
497.529	2750.06
497.746	2882.06
497.963	3292.06
498.181	3713.06
498.398	3429.06
498.615	3377.06
498.832	3295.06
499.049	3237.06
499.267	3216.06
499.484	3428.06
499.701	3779.06
499.918	3793.06
500.135	4034.06
500.352	4375.06
500.569	4257.06
500.786	4535.06
501.003	4269.06
501.22	3877.06
501.437	3814.06
501.654	3762.06
501.871	3703.06
502.088	3223.06
502.305	3234.06
502.522	3141.06
502.739	2939.06
502.956	2811.06
503.172	2805.06
503.389	2715.06
503.606	2708.06
503.823	2676.06
504.04	2711.06
504.256	2709.06
504.473	2686.06
504.69	2837.06
504.907	2674.06
505.123	2517.06
505.34	2646.06
505.557	3484.06
505.773	2957.06
505.99	2484.06
506.207	2307.06
506.423	2283.06
506.64	2266.06
506.856	2286.06
507.073	2606.06
507.289	2828.06
507.506	2665.06
507.722	2346.06
507.939	2186.06
508.155	2226.06
508.372	2233.06
508.588	2188.06
508.805	2120.06
509.021	2091.06
509.238	2088.06
509.454	2037.06
509.67	2066.06
509.887	2069.06
510.103	2090.06
510.319	2104.06
510.536	2179.06
510.752	2271.06
510.968	2237.06
511.184	2409.06
511.401	2401.06
511.617	2077.06
511.833	1996.06
512.049	2001.06
512.265	2053.06
512.481	2001.06
512.698	2114.06
512.914	2255.06
513.13	2162.06
513.346	2019.06
513.562	2002.06
513.778	2045.06
513.994	2133.06
514.21	2212.06
514.426	2237.06
514.642	2472.06
514.858	2335.06
515.074	2123.06
515.29	2050.06
515.506	2093.06
515.721	2150.06
515.937	2204.06
516.153	2426.06
516.369	2382.06
516.585	2201.06
516.801	2117.06
517.016	2119.06
517.232	2212.06
517.448	2270.06
517.664	2243.06
517.879	2223.06
518.095	2383.06
518.311	2237.06
518.527	2136.06
518.742	2121.06
518.958	2015.06
519.173	2023.06
519.389	2119.06
519.605	2110.06
519.82	2149.06
520.036	2143.06
520.251	2064.06
520.467	2072.06
520.682	2213.06
520.898	2367.06
521.113	2116.06
521.329	2030.06
521.544	2144.06
521.76	2140.06
521.975	1990.06
522.19	1958.06
522.406	1953.06
522.621	2407.06
522.836	2364.06
523.052	1935.06
523.267	1925.06
523.482	1929.06
523.698	1871.06
523.913	1849.06
524.128	1889.06
524.343	2022.06
524.559	1989.06
524.774	1891.06
524.989	1863.06
525.204	1860.06
525.419	1815.06
525.634	1813.06
525.849	1837.06
526.064	1878.06
526.28	1887.06
526.495	1801.06
526.71	1834.06
526.925	1833.06
527.14	1830.06
527.355	1799.06
527.57	1759.06
527.785	1854.06
527.999	1791.06
528.214	1739.06
528.429	1718.06
528.644	1749.06
528.859	1753.06
529.074	1768.06
529.289	1763.06
529.503	1805.06
529.718	1757.06
529.933	1768.06
530.148	1691.06
530.363	1721.06
530.577	1749.06
530.792	1780.06
531.007	1769.06
531.221	1755.06
531.436	1820.06
531.651	1881.06
531.865	1960.06
532.08	1809.06
532.295	1770.06
532.509	1667.06
532.724	1725.06
532.938	1797.06
533.153	1927.06
533.367	1797.06
533.582	1770.06
533.796	1731.06
534.011	1732.06
534.225	1780.06
534.44	1749.06
534.654	1683.06
534.868	1734.06
535.083	1779.06
535.297	1827.06
535.511	1785.06
535.726	1727.06
535.94	1701.06
536.154	1735.06
536.369	1714.06
536.583	1693.06
536.797	1671.06
537.011	1734.06
537.225	1653.06
537.44	1628.06
537.654	1759.06
537.868	1700.06
538.082	1610.06
538.296	1594.06
538.51	1559.06
538.724	1560.06
538.938	1597.06
539.153	1627.06
539.367	1638.06
539.581	1634.06
539.795	1745.06
540.009	1697.06
540.222	1654.06
540.436	1680.06
540.65	1827.06
540.864	1827.06
541.078	1774.06
541.292	1593.06
541.506	1662.06
541.72	1652.06
541.934	1649.06
542.147	1713.06
542.361	1657.06
542.575	1612.06
542.789	1601.06
543.002	1530.06
543.216	1570.06
543.43	1668.06
543.644	1725.06
543.857	1814.06
544.071	1740.06
544.285	1683.06
544.498	1635.06
544.712	1652.06
544.925	1651.06
545.139	1685.06
545.352	1629.06
545.566	1579.06
545.779	1542.06
545.993	1569.06
546.206	1617.06
546.42	1559.06
546.633	1550.06
546.847	1501.06
547.06	1564.06
547.274	1520.06
547.487	1541.06
547.7	1531.06
547.914	1546.06
548.127	1596.06
548.34	1602.06
548.554	1600.06
548.767	1527.06
548.98	1545.06
549.193	1595.06
549.407	1634.06
549.62	1649.06
549.833	1607.06
550.046	1514.06
550.259	1564.06
550.473	1553.06
550.686	1532.06
550.899	1509.06
551.112	1481.06
551.325	1459.06
551.538	1547.06
551.751	1878.06
551.964	1514.06
552.177	1440.06
552.39	1477.06
552.603	1521.06
552.816	1549.06
553.029	1580.06
553.242	1666.06
553.455	1558.06
553.667	1550.06
553.88	1530.06
554.093	1508.06
554.306	1459.06
554.519	1431.06
554.732	1400.06
554.944	1447.06
555.157	1514.06
555.37	1450.06
555.583	1461.06
555.795	1425.06
556.008	1366.06
556.221	1374.06
556.433	1338.06
556.646	1365.06
556.859	1341.06
557.071	1342.06
557.284	1289.06
557.496	1287.06
557.709	1298.06
557.921	1310.06
558.134	1290.06
558.346	1314.06
558.559	1260.06
558.771	1286.06
558.984	1248.06
559.196	1249.06
559.409	1197.06
559.621	1238.06
559.833	1256.06
560.046	1305.06
560.258	1254.06
560.47	1275.06
560.683	1269.06
560.895	1262.06
561.107	1250.06
561.32	1288.06
561.532	1278.06
561.744	1286.06
561.956	1245.06
562.168	1252.06
562.381	1220.06
562.593	1185.06
562.805	1219.06
563.017	1211.06
563.229	1219.06
563.441	1273.06
563.653	1230.06
563.865	1213.06
564.077	1231.06
564.289	1207.06
564.501	1249.06
564.713	1309.06
564.925	1325.06
565.137	1407.06
565.349	1358.06
565.561	1309.06
565.773	1318.06
565.985	1331.06
566.197	1403.06
566.408	1482.06
566.62	1529.06
566.832	1490.06
567.044	1513.06
567.255	1478.06
567.467	1504.06
567.679	1565.06
567.891	1598.06
568.102	1581.06
568.314	1498.06
568.526	1443.06
568.737	1398.06
568.949	1311.06
569.161	1266.06
569.372	1230.06
569.584	1223.06
569.795	1198.06
570.007	1207.06
570.218	1153.06
570.43	1119.06
570.641	1110.06
570.853	1141.06
571.064	1133.06
571.276	1091.06
571.487	1091.06
571.698	1077.06
571.91	1073.06
572.121	1058.06
572.333	1046.06
572.544	1028.06
572.755	979.06
572.966	973.06
573.178	1001.06
573.389	1013.06
573.6	1067.06
573.811	1136.06
574.023	1029.06
574.234	983.06
574.445	955.06
574.656	952.06
574.867	971.06
575.078	951.06
575.289	980.06
575.501	938.06
575.712	953.06
575.923	948.06
576.134	949.06
576.345	921.06
576.556	902.06
576.767	885.06
576.978	876.06
577.188	875.06
577.399	903.06
577.61	878.06
577.821	892.06
578.032	845.06
578.243	863.06
578.454	866.06
578.665	847.06
578.875	856.06
579.086	839.06
579.297	845.06
579.508	875.06
579.718	895.06
579.929	867.06
580.14	818.06
580.35	841.06
580.561	843.06
580.772	929.06
580.982	861.06
581.193	825.06
581.403	823.06
581.614	794.06
581.825	813.06
582.035	791.06
582.246	787.06
582.456	824.06
582.667	840.06
582.877	791.06
583.087	810.06
583.298	775.06
583.508	831.06
583.719	790.06
583.929	797.06
584.139	814.06
584.35	802.06
584.56	776.06
584.77	799.06
584.981	792.06
585.191	827.06
585.401	827.06
585.611	773.06
585.821	784.06
586.032	775.06
586.242	733.06
586.452	768.06
586.662	768.06
586.872	743.06
587.082	740.06
587.292	782.06
587.502	801.06
587.713	798.06
587.923	781.06
588.133	813.06
588.343	791.06
588.553	790.06
588.762	747.06
588.972	767.06
589.182	782.06
589.392	769.06
589.602	792.06
589.812	787.06
590.022	758.06
590.232	745.06
590.441	777.06
590.651	758.06
590.861	748.06
591.071	725.06
591.281	705.06
591.49	717.06
591.7	752.06
591.91	728.06
592.119	735.06
592.329	764.06
592.539	797.06
592.748	743.06
592.958	790.06
593.167	804.06
593.377	807.06
593.587	774.06
593.796	796.06
594.006	803.06
594.215	780.06
594.424	795.06
594.634	773.06
594.843	750.06
595.053	783.06
595.262	763.06
595.472	742.06
595.681	727.06
595.89	743.06
596.1	715.06
596.309	693.06
596.518	707.06
596.727	717.06
596.937	692.06
597.146	680.06
597.355	686.06
597.564	676.06
597.774	645.06
597.983	653.06
598.192	656.06
598.401	654.06
598.61	649.06
598.819	670.06
599.028	643.06
599.237	659.06
599.446	639.06
599.655	618.06
599.864	620.06
600.073	621.06
600.282	606.06
600.491	611.06
600.7	618.06
600.909	633.06
601.118	607.06
601.327	635.06
601.536	615.06
601.745	611.06
601.953	603.06
602.162	597.06
602.371	627.06
602.58	631.06
602.789	610.06
602.997	590.06
603.206	588.06
603.415	583.06
603.623	614.06
603.832	603.06
604.041	594.06
604.249	588.06
604.458	586.06
604.666	591.06
604.875	579.06
605.084	588.06
605.292	607.06
605.501	569.06
605.709	581.06
605.918	588.06
606.126	571.06
606.334	577.06
606.543	569.06
606.751	555.06
606.96	577.06
607.168	573.06
607.376	575.06
607.585	539.06
607.793	565.06
608.001	562.06
608.21	559.06
608.418	573.06
608.626	536.06
608.834	563.06
609.043	547.06
609.251	571.06
609.459	548.06
609.667	567.06
609.875	571.06
610.083	607.06
610.291	568.06
610.499	566.06
610.707	537.06
610.916	515.06
611.124	532.06
611.332	543.06
611.54	546.06
611.748	547.06
611.955	521.06
612.163	533.06
612.371	550.06
612.579	546.06
612.787	509.06
612.995	517.06
613.203	525.06
613.411	515.06
613.618	533.06
613.826	546.06
614.034	495.06
614.242	513.06
614.449	525.06
614.657	550.06
614.865	528.06
615.072	521.06
615.28	526.06
615.488	534.06
615.695	554.06
615.903	552.06
616.111	540.06
616.318	552.06
616.526	500.06
616.733	522.06
616.941	513.06
617.148	502.06
617.356	517.06
617.563	520.06
617.771	524.06
617.978	465.06
618.185	511.06
618.393	525.06
618.6	514.06
618.807	494.06
619.015	494.06
619.222	481.06
619.429	488.06
619.637	483.06
619.844	470.06
620.051	490.06
620.258	474.06
620.466	474.06
620.673	459.06
620.88	464.06
621.087	480.06
621.294	465.06
621.501	459.06
621.708	478.06
621.915	483.06
622.122	502.06
622.329	465.06
622.536	487.06
622.743	488.06
622.95	478.06
623.157	462.06
623.364	464.06
623.571	454.06
623.778	487.06
623.985	445.06
624.192	477.06
624.399	459.06
624.606	443.06
624.812	449.06
625.019	457.06
625.226	440.06
625.433	438.06
625.639	441.06
625.846	444.06
626.053	407.06
626.259	446.06
626.466	431.06
626.673	400.06
626.879	415.06
627.086	402.06
627.293	403.06
627.499	435.06
627.706	427.06
627.912	449.06
628.119	427.06
628.325	419.06
628.532	396.06
628.738	428.06
628.945	422.06
629.151	420.06
629.357	435.06
629.564	415.06
629.77	403.06
629.976	422.06
630.183	390.06
630.389	410.06
630.595	407.06
630.802	399.06
631.008	386.06
631.214	385.06
631.42	391.06
631.627	402.06
631.833	392.06
632.039	397.06
632.245	381.06
632.451	383.06
632.657	381.06
632.863	377.06
633.069	372.06
633.275	382.06
633.481	400.06
633.688	361.06
633.893	358.06
634.099	364.06
634.305	358.06
634.511	360.06
634.717	377.06
634.923	360.06
635.129	360.06
635.335	355.06
635.541	359.06
635.747	371.06
635.952	359.06
636.158	363.06
636.364	363.06
636.57	354.06
636.775	345.06
636.981	373.06
637.187	363.06
637.392	341.06
637.598	349.06
637.804	354.06
638.009	349.06
638.215	358.06
638.421	357.06
638.626	339.06
638.832	353.06
639.037	319.06
639.243	325.06
639.448	316.06
639.654	356.06
639.859	356.06
640.065	330.06
640.27	348.06
640.475	342.06
640.681	332.06
640.886	343.06
641.091	322.06
641.297	335.06
641.502	327.06
641.707	345.06
641.913	335.06
642.118	335.06
642.323	342.06
642.528	325.06
642.733	298.06
642.939	323.06
643.144	309.06
643.349	329.06
643.554	330.06
643.759	332.06
643.964	330.06
644.169	329.06
644.374	310.06
644.579	328.06
644.784	334.06
644.989	324.06
645.194	345.06
645.399	328.06
645.604	294.06
645.809	318.06
646.014	336.06
646.219	337.06
646.423	309.06
646.628	332.06
646.833	325.06
647.038	323.06
647.243	327.06
647.447	312.06
647.652	315.06
647.857	319.06
648.062	324.06
648.266	335.06
648.471	328.06
648.676	314.06
648.88	314.06
649.085	312.06
649.289	328.06
649.494	313.06
649.698	322.06
649.903	296.06
650.107	302.06
650.312	318.06
650.516	311.06
650.721	293.06
650.925	294.06
651.13	295.06
651.334	287.06
651.539	285.06
651.743	287.06
651.947	257.06
652.152	273.06
652.356	260.06
652.56	275.06
652.764	257.06
652.969	269.06
653.173	268.06
653.377	267.06
653.581	237.06
653.785	235.06
653.99	252.06
654.194	255.06
654.398	246.06
654.602	234.06
654.806	255.06
655.01	253.06
655.214	249.06
655.418	260.06
655.622	241.06
655.826	243.06
656.03	262.06
656.234	278.06
656.438	280.06
656.642	283.06
656.846	274.06
657.049	236.06
657.253	216.06
657.457	210.06
657.661	214.06
657.865	193.06
658.068	183.06
658.272	154.06
658.476	159.06
658.68	146.06
658.883	142.06
659.087	142.06
659.291	150.06
659.494	136.06
659.698	151.06
659.901	131.06
660.105	130.06
660.309	130.06
660.512	123.06
660.716	128.06
660.919	107.06
661.123	124.06
661.326	123.06
661.53	114.06
661.733	114.06
661.936	106.06
662.14	110.06
662.343	91.06
662.546	105.06
662.75	108.06
662.953	90.06
663.156	93.06
663.36	112.06
663.563	91.06
663.766	98.06
663.969	91.06
664.173	89.06
664.376	90.06
664.579	81.06
664.782	97.06
664.985	89.06
665.188	89.06
665.391	82.06
665.594	88.06
665.797	95.06
666	85.06
666.203	74.06
666.406	80.06
666.609	70.06
666.812	81.06
667.015	79.06
667.218	88.06
667.421	91.06
667.624	78.06
667.827	85.06
668.03	68.06
668.232	74.06
668.435	90.06
668.638	74.06
668.841	78.06
669.043	74.06
669.246	71.06
669.449	93.06
669.651	90.06
669.854	83.06
670.057	93.06
670.259	79.06
670.462	73.06
670.665	75.06
670.867	84.06
671.07	70.06
671.272	91.06
671.475	93.06
671.677	84.06
671.88	78.06
672.082	91.06
672.284	79.06
672.487	87.06
672.689	92.06
672.892	80.06
