Data from WStandard_LampEnergy10_LIBS07252019.E.O._I.C._HRD10591_15-55-15-928.txt Node
Date: Thu Jul 25 15:55:15 EDT 2019
User: cochatt
Spectrometer: HR+D1059
Trigger mode: 1
Integration Time (sec): 1.000000E-1
Scans to average: 1
Electric dark correction enabled: true
Nonlinearity correction enabled: false
Boxcar width: 0
XAxis mode: Wavelengths
Number of Pixels in Spectrum: 2048
>>>>>Begin Spectral Data<<<<<
223.165	-29.25
223.4	-29.25
223.635	-29.25
223.869	-17.25
224.104	3.75
224.338	-10.25
224.573	-23.25
224.808	-18.25
225.042	-6.25
225.277	-2.25
225.511	-5.25
225.746	21.75
225.98	10.75
226.215	7.75
226.449	15.75
226.683	11.75
226.918	25.75
227.152	14.75
227.387	25.75
227.621	30.75
227.856	53.75
228.09	46.75
228.324	54.75
228.559	58.75
228.793	71.75
229.027	113.75
229.262	131.75
229.496	139.75
229.73	137.75
229.964	159.75
230.199	173.75
230.433	156.75
230.667	184.75
230.901	185.75
231.136	147.75
231.37	151.75
231.604	167.75
231.838	178.75
232.072	165.75
232.306	167.75
232.541	172.75
232.775	187.75
233.009	208.75
233.243	174.75
233.477	181.75
233.711	181.75
233.945	205.75
234.179	179.75
234.413	195.75
234.647	203.75
234.881	194.75
235.115	192.75
235.349	185.75
235.583	191.75
235.817	195.75
236.051	199.75
236.285	189.75
236.519	201.75
236.753	221.75
236.987	225.75
237.221	229.75
237.455	225.75
237.689	227.75
237.922	226.75
238.156	201.75
238.39	219.75
238.624	233.75
238.858	233.75
239.091	239.75
239.325	233.75
239.559	266.75
239.793	285.75
240.027	293.75
240.26	277.75
240.494	215.75
240.728	231.75
240.961	229.75
241.195	242.75
241.429	262.75
241.662	242.75
241.896	243.75
242.13	229.75
242.363	267.75
242.597	269.75
242.83	283.75
243.064	276.75
243.298	269.75
243.531	276.75
243.765	272.75
243.998	262.75
244.232	259.75
244.465	241.75
244.699	259.75
244.932	267.75
245.166	309.75
245.399	283.75
245.633	265.75
245.866	299.75
246.099	262.75
246.333	282.75
246.566	302.75
246.8	315.75
247.033	355.75
247.266	305.75
247.5	275.75
247.733	294.75
247.966	329.75
248.2	364.75
248.433	337.75
248.666	360.75
248.899	365.75
249.133	412.75
249.366	457.75
249.599	407.75
249.832	341.75
250.066	354.75
250.299	348.75
250.532	344.75
250.765	324.75
250.998	316.75
251.231	347.75
251.465	342.75
251.698	334.75
251.931	341.75
252.164	333.75
252.397	356.75
252.63	356.75
252.863	328.75
253.096	317.75
253.329	336.75
253.562	333.75
253.795	341.75
254.028	352.75
254.261	343.75
254.494	342.75
254.727	325.75
254.96	352.75
255.193	376.75
255.426	413.75
255.659	443.75
255.892	429.75
256.124	382.75
256.357	368.75
256.59	386.75
256.823	402.75
257.056	412.75
257.289	442.75
257.521	489.75
257.754	439.75
257.987	445.75
258.22	456.75
258.452	449.75
258.685	383.75
258.918	381.75
259.151	388.75
259.383	358.75
259.616	354.75
259.849	361.75
260.081	394.75
260.314	441.75
260.547	457.75
260.779	459.75
261.012	417.75
261.244	405.75
261.477	387.75
261.71	402.75
261.942	401.75
262.175	364.75
262.407	387.75
262.64	383.75
262.872	352.75
263.105	359.75
263.337	348.75
263.57	369.75
263.802	359.75
264.035	351.75
264.267	349.75
264.499	326.75
264.732	369.75
264.964	377.75
265.197	394.75
265.429	421.75
265.661	437.75
265.894	478.75
266.126	465.75
266.358	447.75
266.591	470.75
266.823	473.75
267.055	456.75
267.287	449.75
267.52	433.75
267.752	430.75
267.984	433.75
268.216	466.75
268.448	444.75
268.681	427.75
268.913	405.75
269.145	394.75
269.377	393.75
269.609	434.75
269.841	502.75
270.073	563.75
270.306	617.75
270.538	650.75
270.77	513.75
271.002	469.75
271.234	448.75
271.466	461.75
271.698	527.75
271.93	579.75
272.162	571.75
272.394	537.75
272.626	478.75
272.858	461.75
273.09	401.75
273.322	415.75
273.553	393.75
273.785	405.75
274.017	389.75
274.249	439.75
274.481	423.75
274.713	406.75
274.945	399.75
275.176	393.75
275.408	399.75
275.64	391.75
275.872	372.75
276.104	429.75
276.335	469.75
276.567	528.75
276.799	514.75
277.031	474.75
277.262	449.75
277.494	481.75
277.726	503.75
277.957	487.75
278.189	457.75
278.421	415.75
278.652	408.75
278.884	415.75
279.115	411.75
279.347	441.75
279.579	426.75
279.81	425.75
280.042	463.75
280.273	507.75
280.505	527.75
280.736	504.75
280.968	471.75
281.199	426.75
281.431	407.75
281.662	391.75
281.894	417.75
282.125	444.75
282.356	426.75
282.588	427.75
282.819	451.75
283.051	478.75
283.282	513.75
283.513	509.75
283.745	450.75
283.976	403.75
284.207	420.75
284.439	435.75
284.67	437.75
284.901	433.75
285.132	445.75
285.364	435.75
285.595	435.75
285.826	457.75
286.057	445.75
286.288	419.75
286.52	457.75
286.751	490.75
286.982	485.75
287.213	442.75
287.444	408.75
287.675	403.75
287.906	451.75
288.138	481.75
288.369	458.75
288.6	438.75
288.831	429.75
289.062	416.75
289.293	460.75
289.524	443.75
289.755	453.75
289.986	451.75
290.217	422.75
290.448	458.75
290.679	448.75
290.91	464.75
291.141	471.75
291.371	485.75
291.602	470.75
291.833	474.75
292.064	484.75
292.295	486.75
292.526	486.75
292.757	493.75
292.987	487.75
293.218	479.75
293.449	528.75
293.68	566.75
293.91	581.75
294.141	538.75
294.372	529.75
294.603	554.75
294.833	572.75
295.064	537.75
295.295	487.75
295.525	449.75
295.756	472.75
295.987	417.75
296.217	431.75
296.448	437.75
296.679	469.75
296.909	442.75
297.14	474.75
297.37	475.75
297.601	495.75
297.831	494.75
298.062	519.75
298.292	486.75
298.523	465.75
298.753	463.75
298.984	473.75
299.214	453.75
299.445	473.75
299.675	494.75
299.905	498.75
300.136	487.75
300.366	449.75
300.597	476.75
300.827	455.75
301.057	473.75
301.288	495.75
301.518	512.75
301.748	505.75
301.979	535.75
302.209	559.75
302.439	574.75
302.669	578.75
302.9	551.75
303.13	502.75
303.36	492.75
303.59	478.75
303.82	509.75
304.051	535.75
304.281	527.75
304.511	522.75
304.741	581.75
304.971	592.75
305.201	626.75
305.431	554.75
305.661	456.75
305.891	422.75
306.121	460.75
306.352	484.75
306.582	494.75
306.812	530.75
307.042	561.75
307.272	530.75
307.502	586.75
307.731	631.75
307.961	612.75
308.191	577.75
308.421	507.75
308.651	486.75
308.881	490.75
309.111	485.75
309.341	496.75
309.571	484.75
309.8	499.75
310.03	484.75
310.26	478.75
310.49	497.75
310.72	511.75
310.949	515.75
311.179	524.75
311.409	481.75
311.639	486.75
311.868	491.75
312.098	497.75
312.328	495.75
312.557	488.75
312.787	493.75
313.017	501.75
313.246	532.75
313.476	513.75
313.706	534.75
313.935	527.75
314.165	528.75
314.394	537.75
314.624	577.75
314.853	601.75
315.083	611.75
315.312	613.75
315.542	578.75
315.771	537.75
316.001	545.75
316.23	553.75
316.46	542.75
316.689	542.75
316.919	507.75
317.148	515.75
317.377	531.75
317.607	579.75
317.836	617.75
318.065	624.75
318.295	598.75
318.524	576.75
318.753	579.75
318.983	545.75
319.212	537.75
319.441	543.75
319.67	542.75
319.9	533.75
320.129	591.75
320.358	621.75
320.587	591.75
320.816	614.75
321.046	570.75
321.275	578.75
321.504	608.75
321.733	629.75
321.962	581.75
322.191	542.75
322.42	539.75
322.649	548.75
322.878	566.75
323.108	569.75
323.337	539.75
323.566	574.75
323.795	564.75
324.024	571.75
324.253	550.75
324.482	554.75
324.71	543.75
324.939	532.75
325.168	546.75
325.397	569.75
325.626	580.75
325.855	560.75
326.084	541.75
326.313	565.75
326.542	580.75
326.77	576.75
326.999	577.75
327.228	532.75
327.457	532.75
327.686	530.75
327.914	542.75
328.143	555.75
328.372	547.75
328.6	549.75
328.829	535.75
329.058	541.75
329.287	539.75
329.515	559.75
329.744	570.75
329.972	598.75
330.201	618.75
330.43	598.75
330.658	580.75
330.887	607.75
331.115	577.75
331.344	563.75
331.572	570.75
331.801	562.75
332.03	564.75
332.258	586.75
332.486	628.75
332.715	618.75
332.943	586.75
333.172	581.75
333.4	612.75
333.629	613.75
333.857	677.75
334.085	753.75
334.314	810.75
334.542	837.75
334.771	744.75
334.999	685.75
335.227	627.75
335.455	617.75
335.684	615.75
335.912	652.75
336.14	641.75
336.369	608.75
336.597	580.75
336.825	581.75
337.053	599.75
337.281	636.75
337.51	673.75
337.738	665.75
337.966	619.75
338.194	593.75
338.422	592.75
338.65	587.75
338.878	568.75
339.106	568.75
339.334	561.75
339.562	530.75
339.79	591.75
340.018	625.75
340.246	633.75
340.474	631.75
340.702	621.75
340.93	610.75
341.158	606.75
341.386	602.75
341.614	584.75
341.842	583.75
342.07	579.75
342.298	602.75
342.526	597.75
342.754	581.75
342.981	568.75
343.209	594.75
343.437	565.75
343.665	581.75
343.893	603.75
344.12	618.75
344.348	639.75
344.576	589.75
344.804	593.75
345.031	587.75
345.259	584.75
345.487	572.75
345.714	551.75
345.942	555.75
346.17	565.75
346.397	553.75
346.625	552.75
346.853	532.75
347.08	530.75
347.308	532.75
347.535	554.75
347.763	575.75
347.99	557.75
348.218	529.75
348.445	543.75
348.673	558.75
348.9	575.75
349.128	582.75
349.355	602.75
349.583	584.75
349.81	559.75
350.037	510.75
350.265	523.75
350.492	567.75
350.72	539.75
350.947	565.75
351.174	546.75
351.402	550.75
351.629	539.75
351.856	519.75
352.083	508.75
352.311	543.75
352.538	576.75
352.765	586.75
352.992	545.75
353.22	534.75
353.447	539.75
353.674	544.75
353.901	569.75
354.128	554.75
354.355	563.75
354.583	577.75
354.81	583.75
355.037	577.75
355.264	578.75
355.491	554.75
355.718	542.75
355.945	561.75
356.172	551.75
356.399	537.75
356.626	536.75
356.853	593.75
357.08	617.75
357.307	648.75
357.534	635.75
357.761	561.75
357.988	531.75
358.215	541.75
358.441	539.75
358.668	529.75
358.895	564.75
359.122	597.75
359.349	621.75
359.576	609.75
359.802	568.75
360.029	562.75
360.256	538.75
360.483	539.75
360.709	567.75
360.936	583.75
361.163	636.75
361.39	647.75
361.616	698.75
361.843	680.75
362.07	622.75
362.296	565.75
362.523	576.75
362.749	562.75
362.976	564.75
363.203	564.75
363.429	547.75
363.656	544.75
363.882	601.75
364.109	641.75
364.335	665.75
364.562	635.75
364.788	587.75
365.015	568.75
365.241	539.75
365.468	570.75
365.694	606.75
365.92	623.75
366.147	596.75
366.373	551.75
366.599	561.75
366.826	563.75
367.052	576.75
367.278	589.75
367.505	596.75
367.731	587.75
367.957	571.75
368.184	638.75
368.41	669.75
368.636	641.75
368.862	659.75
369.089	655.75
369.315	626.75
369.541	603.75
369.767	593.75
369.993	574.75
370.219	599.75
370.445	608.75
370.672	632.75
370.898	687.75
371.124	647.75
371.35	623.75
371.576	644.75
371.802	647.75
372.028	623.75
372.254	615.75
372.48	609.75
372.706	590.75
372.932	593.75
373.158	602.75
373.384	629.75
373.61	636.75
373.835	657.75
374.061	625.75
374.287	615.75
374.513	601.75
374.739	639.75
374.965	633.75
375.191	645.75
375.416	618.75
375.642	653.75
375.868	707.75
376.094	703.75
376.319	662.75
376.545	645.75
376.771	643.75
376.997	674.75
377.222	663.75
377.448	650.75
377.674	667.75
377.899	670.75
378.125	731.75
378.35	704.75
378.576	652.75
378.802	639.75
379.027	642.75
379.253	626.75
379.478	635.75
379.704	633.75
379.929	642.75
380.155	637.75
380.38	660.75
380.606	639.75
380.831	669.75
381.057	695.75
381.282	688.75
381.507	701.75
381.733	712.75
381.958	745.75
382.184	667.75
382.409	650.75
382.634	698.75
382.86	643.75
383.085	661.75
383.31	720.75
383.535	779.75
383.761	783.75
383.986	728.75
384.211	739.75
384.436	735.75
384.662	773.75
384.887	758.75
385.112	707.75
385.337	726.75
385.562	729.75
385.787	726.75
386.013	751.75
386.238	755.75
386.463	745.75
386.688	830.75
386.913	866.75
387.138	834.75
387.363	741.75
387.588	769.75
387.813	763.75
388.038	783.75
388.263	787.75
388.488	749.75
388.713	697.75
388.938	709.75
389.163	725.75
389.387	741.75
389.612	705.75
389.837	754.75
390.062	749.75
390.287	747.75
390.512	737.75
390.736	690.75
390.961	717.75
391.186	675.75
391.411	700.75
391.636	746.75
391.86	746.75
392.085	736.75
392.31	734.75
392.534	730.75
392.759	760.75
392.984	756.75
393.208	772.75
393.433	772.75
393.658	825.75
393.882	815.75
394.107	746.75
394.331	788.75
394.556	775.75
394.78	751.75
395.005	805.75
395.229	813.75
395.454	857.75
395.678	849.75
395.903	830.75
396.127	793.75
396.352	799.75
396.576	840.75
396.801	873.75
397.025	844.75
397.249	829.75
397.474	794.75
397.698	822.75
397.922	832.75
398.147	886.75
398.371	913.75
398.595	879.75
398.82	878.75
399.044	865.75
399.268	903.75
399.492	934.75
399.717	963.75
399.941	977.75
400.165	954.75
400.389	941.75
400.613	1009.75
400.837	1109.75
401.062	1177.75
401.286	995.75
401.51	941.75
401.734	973.75
401.958	948.75
402.182	899.75
402.406	850.75
402.63	844.75
402.854	874.75
403.078	874.75
403.302	913.75
403.526	891.75
403.75	932.75
403.974	928.75
404.198	922.75
404.422	956.75
404.645	1003.75
404.869	963.75
405.093	885.75
405.317	896.75
405.541	912.75
405.765	921.75
405.988	927.75
406.212	914.75
406.436	949.75
406.66	975.75
406.883	1002.75
407.107	1120.75
407.331	1235.75
407.555	1240.75
407.778	1115.75
408.002	952.75
408.226	926.75
408.449	957.75
408.673	937.75
408.896	961.75
409.12	941.75
409.344	936.75
409.567	893.75
409.791	951.75
410.014	934.75
410.238	996.75
410.461	1022.75
410.685	941.75
410.908	903.75
411.132	923.75
411.355	930.75
411.578	933.75
411.802	949.75
412.025	965.75
412.249	935.75
412.472	901.75
412.695	908.75
412.919	904.75
413.142	895.75
413.365	933.75
413.589	906.75
413.812	957.75
414.035	983.75
414.258	919.75
414.482	899.75
414.705	927.75
414.928	902.75
415.151	895.75
415.374	904.75
415.597	928.75
415.821	918.75
416.044	920.75
416.267	929.75
416.49	887.75
416.713	907.75
416.936	935.75
417.159	966.75
417.382	943.75
417.605	919.75
417.828	900.75
418.051	968.75
418.274	918.75
418.497	916.75
418.72	889.75
418.943	915.75
419.166	954.75
419.389	967.75
419.611	936.75
419.834	921.75
420.057	918.75
420.28	902.75
420.503	916.75
420.726	943.75
420.948	939.75
421.171	905.75
421.394	938.75
421.617	974.75
421.839	974.75
422.062	961.75
422.285	892.75
422.507	912.75
422.73	906.75
422.953	871.75
423.175	878.75
423.398	901.75
423.621	908.75
423.843	899.75
424.066	959.75
424.288	999.75
424.511	1025.75
424.733	988.75
424.956	913.75
425.178	925.75
425.401	891.75
425.623	945.75
425.846	919.75
426.068	945.75
426.291	945.75
426.513	946.75
426.735	948.75
426.958	1056.75
427.18	1050.75
427.402	974.75
427.625	993.75
427.847	968.75
428.069	910.75
428.292	912.75
428.514	893.75
428.736	879.75
428.958	886.75
429.181	910.75
429.403	1058.75
429.625	1220.75
429.847	1017.75
430.069	961.75
430.292	1027.75
430.514	992.75
430.736	962.75
430.958	932.75
431.18	910.75
431.402	847.75
431.624	865.75
431.846	789.75
432.068	724.75
432.29	751.75
432.512	799.75
432.734	875.75
432.956	893.75
433.178	959.75
433.4	917.75
433.622	949.75
433.844	901.75
434.066	853.75
434.287	811.75
434.509	765.75
434.731	817.75
434.953	904.75
435.175	921.75
435.397	897.75
435.618	880.75
435.84	838.75
436.062	813.75
436.284	849.75
436.505	909.75
436.727	919.75
436.949	895.75
437.17	886.75
437.392	870.75
437.614	827.75
437.835	788.75
438.057	800.75
438.278	811.75
438.5	861.75
438.721	909.75
438.943	895.75
439.165	901.75
439.386	920.75
439.608	938.75
439.829	931.75
440.05	929.75
440.272	940.75
440.493	949.75
440.715	966.75
440.936	1001.75
441.158	1036.75
441.379	1033.75
441.6	1002.75
441.822	999.75
442.043	997.75
442.264	971.75
442.486	939.75
442.707	908.75
442.928	957.75
443.149	941.75
443.371	978.75
443.592	1017.75
443.813	1024.75
444.034	1009.75
444.255	989.75
444.476	1009.75
444.698	1011.75
444.919	1023.75
445.14	1110.75
445.361	1095.75
445.582	1062.75
445.803	1034.75
446.024	1012.75
446.245	1036.75
446.466	1061.75
446.687	1009.75
446.908	1036.75
447.129	981.75
447.35	986.75
447.571	971.75
447.792	945.75
448.013	959.75
448.234	945.75
448.455	990.75
448.675	950.75
448.896	908.75
449.117	882.75
449.338	914.75
449.559	917.75
449.779	963.75
450	1003.75
450.221	1042.75
450.442	995.75
450.662	952.75
450.883	874.75
451.104	859.75
451.324	870.75
451.545	878.75
451.766	877.75
451.986	831.75
452.207	833.75
452.428	782.75
452.648	787.75
452.869	731.75
453.089	773.75
453.31	799.75
453.53	726.75
453.751	733.75
453.971	723.75
454.192	749.75
454.412	755.75
454.633	743.75
454.853	765.75
455.073	760.75
455.294	759.75
455.514	777.75
455.734	768.75
455.955	768.75
456.175	731.75
456.395	728.75
456.616	745.75
456.836	726.75
457.056	721.75
457.276	677.75
457.497	712.75
457.717	680.75
457.937	697.75
458.157	730.75
458.377	698.75
458.598	678.75
458.818	697.75
459.038	708.75
459.258	724.75
459.478	715.75
459.698	726.75
459.918	713.75
460.138	787.75
460.358	821.75
460.578	841.75
460.798	840.75
461.018	871.75
461.238	863.75
461.458	840.75
461.678	840.75
461.898	832.75
462.118	820.75
462.338	842.75
462.558	860.75
462.777	827.75
462.997	857.75
463.217	865.75
463.437	889.75
463.657	815.75
463.876	835.75
464.096	827.75
464.316	832.75
464.536	869.75
464.755	838.75
464.975	867.75
465.195	856.75
465.414	880.75
465.634	850.75
465.854	850.75
466.073	953.75
466.293	943.75
466.512	861.75
466.732	883.75
466.951	889.75
467.171	874.75
467.391	866.75
467.61	872.75
467.829	897.75
468.049	971.75
468.268	1020.75
468.488	931.75
468.707	889.75
468.927	892.75
469.146	873.75
469.365	915.75
469.585	931.75
469.804	907.75
470.023	934.75
470.243	903.75
470.462	912.75
470.681	909.75
470.901	903.75
471.12	925.75
471.339	926.75
471.558	918.75
471.777	930.75
471.997	898.75
472.216	808.75
472.435	769.75
472.654	753.75
472.873	742.75
473.092	806.75
473.311	810.75
473.53	797.75
473.749	815.75
473.968	803.75
474.187	838.75
474.406	851.75
474.625	840.75
474.844	891.75
475.063	878.75
475.282	867.75
475.501	807.75
475.72	819.75
475.939	897.75
476.158	892.75
476.377	841.75
476.596	850.75
476.814	793.75
477.033	807.75
477.252	834.75
477.471	886.75
477.69	903.75
477.908	897.75
478.127	957.75
478.346	981.75
478.564	1004.75
478.783	1010.75
479.002	1013.75
479.22	980.75
479.439	1020.75
479.658	1036.75
479.876	985.75
480.095	895.75
480.313	878.75
480.532	873.75
480.751	868.75
480.969	818.75
481.188	791.75
481.406	774.75
481.624	754.75
481.843	805.75
482.061	807.75
482.28	863.75
482.498	871.75
482.717	851.75
482.935	899.75
483.153	965.75
483.372	1025.75
483.59	1013.75
483.808	957.75
484.027	961.75
484.245	996.75
484.463	1173.75
484.681	1253.75
484.9	1025.75
485.118	969.75
485.336	943.75
485.554	888.75
485.772	884.75
485.99	867.75
486.209	895.75
486.427	913.75
486.645	882.75
486.863	992.75
487.081	1010.75
487.299	1021.75
487.517	1004.75
487.735	1086.75
487.953	1207.75
488.171	1154.75
488.389	1120.75
488.607	1076.75
488.825	1135.75
489.043	1016.75
489.261	974.75
489.479	1033.75
489.696	1023.75
489.914	1023.75
490.132	1018.75
490.35	1054.75
490.568	1149.75
490.786	1149.75
491.003	1163.75
491.221	1224.75
491.439	1268.75
491.657	1318.75
491.874	1348.75
492.092	1405.75
492.31	1493.75
492.527	1460.75
492.745	1361.75
492.963	1312.75
493.18	1314.75
493.398	1329.75
493.615	1334.75
493.833	1288.75
494.05	1197.75
494.268	1230.75
494.485	1206.75
494.703	1222.75
494.92	1199.75
495.138	1182.75
495.355	1244.75
495.573	1280.75
495.79	1262.75
496.008	1276.75
496.225	1236.75
496.442	1246.75
496.66	1222.75
496.877	1229.75
497.094	1215.75
497.312	1221.75
497.529	1183.75
497.746	1207.75
497.963	1280.75
498.181	1299.75
498.398	1228.75
498.615	1171.75
498.832	1142.75
499.049	1147.75
499.267	1149.75
499.484	1231.75
499.701	1336.75
499.918	1331.75
500.135	1482.75
500.352	1552.75
500.569	1575.75
500.786	1667.75
501.003	1578.75
501.22	1461.75
501.437	1383.75
501.654	1414.75
501.871	1346.75
502.088	1203.75
502.305	1169.75
502.522	1119.75
502.739	1084.75
502.956	1056.75
503.172	1027.75
503.389	989.75
503.606	987.75
503.823	993.75
504.04	982.75
504.256	1006.75
504.473	1000.75
504.69	977.75
504.907	971.75
505.123	939.75
505.34	1071.75
505.557	1327.75
505.773	1089.75
505.99	948.75
506.207	893.75
506.423	854.75
506.64	863.75
506.856	873.75
507.073	1018.75
507.289	1039.75
507.506	978.75
507.722	906.75
507.939	839.75
508.155	846.75
508.372	827.75
508.588	791.75
508.805	774.75
509.021	757.75
509.238	751.75
509.454	733.75
509.67	732.75
509.887	736.75
510.103	736.75
510.319	721.75
510.536	753.75
510.752	757.75
510.968	768.75
511.184	779.75
511.401	772.75
511.617	704.75
511.833	677.75
512.049	674.75
512.265	708.75
512.481	706.75
512.698	746.75
512.914	781.75
513.13	732.75
513.346	703.75
513.562	689.75
513.778	677.75
513.994	735.75
514.21	744.75
514.426	777.75
514.642	825.75
514.858	757.75
515.074	709.75
515.29	714.75
515.506	712.75
515.721	726.75
515.937	728.75
516.153	783.75
516.369	741.75
516.585	742.75
516.801	703.75
517.016	697.75
517.232	747.75
517.448	779.75
517.664	797.75
517.879	797.75
518.095	822.75
518.311	775.75
518.527	713.75
518.742	751.75
518.958	727.75
519.173	741.75
519.389	742.75
519.605	755.75
519.82	817.75
520.036	766.75
520.251	767.75
520.467	793.75
520.682	811.75
520.898	779.75
521.113	723.75
521.329	714.75
521.544	731.75
521.76	716.75
521.975	698.75
522.19	723.75
522.406	730.75
522.621	912.75
522.836	854.75
523.052	738.75
523.267	751.75
523.482	761.75
523.698	742.75
523.913	725.75
524.128	755.75
524.343	791.75
524.559	831.75
524.774	771.75
524.989	774.75
525.204	746.75
525.419	725.75
525.634	730.75
525.849	741.75
526.064	719.75
526.28	671.75
526.495	652.75
526.71	612.75
526.925	634.75
527.14	609.75
527.355	631.75
527.57	610.75
527.785	656.75
527.999	642.75
528.214	661.75
528.429	687.75
528.644	740.75
528.859	765.75
529.074	819.75
529.289	851.75
529.503	875.75
529.718	794.75
529.933	741.75
530.148	641.75
530.363	646.75
530.577	624.75
530.792	628.75
531.007	633.75
531.221	615.75
531.436	613.75
531.651	631.75
531.865	668.75
532.08	637.75
532.295	626.75
532.509	608.75
532.724	609.75
532.938	647.75
533.153	699.75
533.367	712.75
533.582	755.75
533.796	720.75
534.011	706.75
534.225	670.75
534.44	637.75
534.654	633.75
534.868	641.75
535.083	681.75
535.297	691.75
535.511	680.75
535.726	685.75
535.94	674.75
536.154	665.75
536.369	600.75
536.583	607.75
536.797	594.75
537.011	605.75
537.225	577.75
537.44	585.75
537.654	615.75
537.868	641.75
538.082	591.75
538.296	593.75
538.51	622.75
538.724	643.75
538.938	701.75
539.153	732.75
539.367	730.75
539.581	693.75
539.795	660.75
540.009	623.75
540.222	634.75
540.436	675.75
540.65	746.75
540.864	769.75
541.078	799.75
541.292	837.75
541.506	904.75
541.72	943.75
541.934	1015.75
542.147	1054.75
542.361	983.75
542.575	894.75
542.789	826.75
543.002	762.75
543.216	729.75
543.43	745.75
543.644	841.75
543.857	862.75
544.071	937.75
544.285	935.75
544.498	891.75
544.712	931.75
544.925	958.75
545.139	935.75
545.352	933.75
545.566	876.75
545.779	899.75
545.993	925.75
546.206	923.75
546.42	962.75
546.633	925.75
546.847	936.75
547.06	935.75
547.274	932.75
547.487	980.75
547.7	999.75
547.914	985.75
548.127	957.75
548.34	931.75
548.554	888.75
548.767	906.75
548.98	906.75
549.193	926.75
549.407	943.75
549.62	946.75
549.833	914.75
550.046	905.75
550.259	885.75
550.473	884.75
550.686	891.75
550.899	859.75
551.112	829.75
551.325	829.75
551.538	846.75
551.751	859.75
551.964	698.75
552.177	718.75
552.39	779.75
552.603	840.75
552.816	828.75
553.029	896.75
553.242	918.75
553.455	889.75
553.667	887.75
553.88	913.75
554.093	849.75
554.306	829.75
554.519	838.75
554.732	831.75
554.944	815.75
555.157	837.75
555.37	804.75
555.583	811.75
555.795	767.75
556.008	754.75
556.221	710.75
556.433	694.75
556.646	715.75
556.859	734.75
557.071	721.75
557.284	754.75
557.496	749.75
557.709	738.75
557.921	716.75
558.134	724.75
558.346	719.75
558.559	705.75
558.771	732.75
558.984	702.75
559.196	698.75
559.409	681.75
559.621	689.75
559.833	656.75
560.046	667.75
560.258	675.75
560.47	664.75
560.683	657.75
560.895	685.75
561.107	650.75
561.32	661.75
561.532	661.75
561.744	657.75
561.956	688.75
562.168	651.75
562.381	663.75
562.593	634.75
562.805	634.75
563.017	621.75
563.229	645.75
563.441	635.75
563.653	615.75
563.865	598.75
564.077	630.75
564.289	618.75
564.501	602.75
564.713	612.75
564.925	645.75
565.137	673.75
565.349	617.75
565.561	631.75
565.773	624.75
565.985	623.75
566.197	645.75
566.408	694.75
566.62	685.75
566.832	661.75
567.044	670.75
567.255	654.75
567.467	682.75
567.679	682.75
567.891	654.75
568.102	616.75
568.314	571.75
568.526	545.75
568.737	493.75
568.949	494.75
569.161	481.75
569.372	456.75
569.584	459.75
569.795	461.75
570.007	470.75
570.218	434.75
570.43	450.75
570.641	421.75
570.853	445.75
571.064	473.75
571.276	477.75
571.487	471.75
571.698	469.75
571.91	462.75
572.121	466.75
572.333	459.75
572.544	419.75
572.755	406.75
572.966	384.75
573.178	394.75
573.389	405.75
573.6	416.75
573.811	437.75
574.023	409.75
574.234	392.75
574.445	403.75
574.656	373.75
574.867	375.75
575.078	396.75
575.289	418.75
575.501	398.75
575.712	391.75
575.923	389.75
576.134	384.75
576.345	406.75
576.556	404.75
576.767	405.75
576.978	383.75
577.188	375.75
577.399	362.75
577.61	360.75
577.821	372.75
578.032	341.75
578.243	371.75
578.454	360.75
578.665	359.75
578.875	348.75
579.086	310.75
579.297	335.75
579.508	355.75
579.718	343.75
579.929	342.75
580.14	328.75
580.35	318.75
580.561	359.75
580.772	385.75
580.982	350.75
581.193	367.75
581.403	363.75
581.614	338.75
581.825	362.75
582.035	339.75
582.246	338.75
582.456	358.75
582.667	365.75
582.877	347.75
583.087	338.75
583.298	342.75
583.508	308.75
583.719	325.75
583.929	323.75
584.139	321.75
584.35	323.75
584.56	328.75
584.77	327.75
584.981	332.75
585.191	313.75
585.401	344.75
585.611	325.75
585.821	316.75
586.032	320.75
586.242	317.75
586.452	292.75
586.662	321.75
586.872	298.75
587.082	302.75
587.292	311.75
587.502	311.75
587.713	323.75
587.923	307.75
588.133	321.75
588.343	312.75
588.553	312.75
588.762	326.75
588.972	318.75
589.182	307.75
589.392	301.75
589.602	313.75
589.812	323.75
590.022	312.75
590.232	313.75
590.441	298.75
590.651	311.75
590.861	321.75
591.071	286.75
591.281	301.75
591.49	296.75
591.7	307.75
591.91	291.75
592.119	289.75
592.329	316.75
592.539	319.75
592.748	321.75
592.958	308.75
593.167	323.75
593.377	319.75
593.587	317.75
593.796	319.75
594.006	315.75
594.215	328.75
594.424	323.75
594.634	336.75
594.843	335.75
595.053	346.75
595.262	330.75
595.472	308.75
595.681	308.75
595.89	298.75
596.1	312.75
596.309	313.75
596.518	311.75
596.727	345.75
596.937	325.75
597.146	316.75
597.355	297.75
597.564	288.75
597.774	273.75
597.983	298.75
598.192	252.75
598.401	280.75
598.61	290.75
598.819	298.75
599.028	278.75
599.237	300.75
599.446	292.75
599.655	297.75
599.864	282.75
600.073	324.75
600.282	293.75
600.491	297.75
600.7	287.75
600.909	286.75
601.118	309.75
601.327	330.75
601.536	319.75
601.745	342.75
601.953	351.75
602.162	344.75
602.371	352.75
602.58	367.75
602.789	354.75
602.997	360.75
603.206	347.75
603.415	341.75
603.623	332.75
603.832	335.75
604.041	344.75
604.249	315.75
604.458	312.75
604.666	297.75
604.875	291.75
605.084	325.75
605.292	322.75
605.501	335.75
605.709	336.75
605.918	356.75
606.126	347.75
606.334	369.75
606.543	371.75
606.751	373.75
606.96	371.75
607.168	361.75
607.376	357.75
607.585	340.75
607.793	349.75
608.001	372.75
608.21	349.75
608.418	367.75
608.626	344.75
608.834	369.75
609.043	355.75
609.251	359.75
609.459	355.75
609.667	345.75
609.875	372.75
610.083	377.75
610.291	358.75
610.499	362.75
610.707	342.75
610.916	348.75
611.124	360.75
611.332	354.75
611.54	366.75
611.748	354.75
611.955	373.75
612.163	368.75
612.371	373.75
612.579	354.75
612.787	352.75
612.995	366.75
613.203	368.75
613.411	353.75
613.618	367.75
613.826	358.75
614.034	361.75
614.242	344.75
614.449	360.75
614.657	360.75
614.865	356.75
615.072	377.75
615.28	362.75
615.488	347.75
615.695	371.75
615.903	348.75
616.111	347.75
616.318	366.75
616.526	349.75
616.733	356.75
616.941	351.75
617.148	358.75
617.356	356.75
617.563	322.75
617.771	339.75
617.978	324.75
618.185	348.75
618.393	355.75
618.6	340.75
618.807	337.75
619.015	351.75
619.222	328.75
619.429	331.75
619.637	313.75
619.844	287.75
620.051	294.75
620.258	308.75
620.466	317.75
620.673	306.75
620.88	305.75
621.087	319.75
621.294	283.75
621.501	303.75
621.708	279.75
621.915	303.75
622.122	309.75
622.329	329.75
622.536	344.75
622.743	320.75
622.95	329.75
623.157	312.75
623.364	312.75
623.571	317.75
623.778	337.75
623.985	346.75
624.192	335.75
624.399	321.75
624.606	310.75
624.812	309.75
625.019	300.75
625.226	297.75
625.433	275.75
625.639	287.75
625.846	279.75
626.053	250.75
626.259	257.75
626.466	244.75
626.673	238.75
626.879	235.75
627.086	247.75
627.293	269.75
627.499	279.75
627.706	299.75
627.912	285.75
628.119	305.75
628.325	305.75
628.532	301.75
628.738	310.75
628.945	293.75
629.151	272.75
629.357	255.75
629.564	272.75
629.77	270.75
629.976	262.75
630.183	271.75
630.389	267.75
630.595	290.75
630.802	276.75
631.008	283.75
631.214	281.75
631.42	281.75
631.627	261.75
631.833	235.75
632.039	260.75
632.245	271.75
632.451	279.75
632.657	264.75
632.863	259.75
633.069	265.75
633.275	253.75
633.481	253.75
633.688	247.75
633.893	242.75
634.099	233.75
634.305	257.75
634.511	242.75
634.717	235.75
634.923	239.75
635.129	226.75
635.335	251.75
635.541	244.75
635.747	256.75
635.952	255.75
636.158	267.75
636.364	269.75
636.57	254.75
636.775	267.75
636.981	253.75
637.187	258.75
637.392	252.75
637.598	272.75
637.804	256.75
638.009	261.75
638.215	265.75
638.421	259.75
638.626	245.75
638.832	270.75
639.037	242.75
639.243	242.75
639.448	248.75
639.654	233.75
639.859	249.75
640.065	240.75
640.27	254.75
640.475	250.75
640.681	256.75
640.886	230.75
641.091	237.75
641.297	265.75
641.502	244.75
641.707	243.75
641.913	249.75
642.118	242.75
642.323	237.75
642.528	243.75
642.733	241.75
642.939	241.75
643.144	221.75
643.349	234.75
643.554	232.75
643.759	243.75
643.964	242.75
644.169	240.75
644.374	246.75
644.579	236.75
644.784	273.75
644.989	238.75
645.194	238.75
645.399	250.75
645.604	240.75
645.809	236.75
646.014	241.75
646.219	234.75
646.423	234.75
646.628	254.75
646.833	246.75
647.038	228.75
647.243	244.75
647.447	235.75
647.652	243.75
647.857	225.75
648.062	235.75
648.266	249.75
648.471	235.75
648.676	234.75
648.88	232.75
649.085	239.75
649.289	240.75
649.494	211.75
649.698	232.75
649.903	227.75
650.107	228.75
650.312	223.75
650.516	232.75
650.721	226.75
650.925	224.75
651.13	244.75
651.334	234.75
651.539	228.75
651.743	211.75
651.947	215.75
652.152	228.75
652.356	218.75
652.56	213.75
652.764	221.75
652.969	213.75
653.173	216.75
653.377	198.75
653.581	214.75
653.785	214.75
653.99	210.75
654.194	197.75
654.398	201.75
654.602	198.75
654.806	191.75
655.01	195.75
655.214	194.75
655.418	210.75
655.622	210.75
655.826	203.75
656.03	213.75
656.234	220.75
656.438	232.75
656.642	211.75
656.846	227.75
657.049	210.75
657.253	182.75
657.457	186.75
657.661	183.75
657.865	170.75
658.068	147.75
658.272	133.75
658.476	157.75
658.68	139.75
658.883	136.75
659.087	140.75
659.291	155.75
659.494	139.75
659.698	149.75
659.901	121.75
660.105	143.75
660.309	142.75
660.512	110.75
660.716	119.75
660.919	117.75
661.123	113.75
661.326	102.75
661.53	122.75
661.733	101.75
661.936	101.75
662.14	110.75
662.343	97.75
662.546	102.75
662.75	93.75
662.953	84.75
663.156	76.75
663.36	83.75
663.563	84.75
663.766	87.75
663.969	77.75
664.173	86.75
664.376	79.75
664.579	79.75
664.782	82.75
664.985	94.75
665.188	74.75
665.391	101.75
665.594	85.75
665.797	87.75
666	93.75
666.203	81.75
666.406	73.75
666.609	75.75
666.812	78.75
667.015	99.75
667.218	92.75
667.421	89.75
667.624	91.75
667.827	86.75
668.03	74.75
668.232	83.75
668.435	77.75
668.638	90.75
668.841	72.75
669.043	89.75
669.246	89.75
669.449	69.75
669.651	94.75
669.854	82.75
670.057	79.75
670.259	91.75
670.462	83.75
670.665	72.75
670.867	90.75
671.07	97.75
671.272	74.75
671.475	79.75
671.677	80.75
671.88	82.75
672.082	72.75
672.284	68.75
672.487	69.75
672.689	80.75
672.892	85.75
