Data from WStandard_LampEnergy8_LIBS07252019.E.O._I.C._HRD10591_15-58-22-929.txt Node
Date: Thu Jul 25 15:58:22 EDT 2019
User: cochatt
Spectrometer: HR+D1059
Trigger mode: 1
Integration Time (sec): 1.000000E-1
Scans to average: 1
Electric dark correction enabled: true
Nonlinearity correction enabled: false
Boxcar width: 0
XAxis mode: Wavelengths
Number of Pixels in Spectrum: 2048
>>>>>Begin Spectral Data<<<<<
223.165	-1.62
223.4	-1.62
223.635	-1.62
223.869	-16.62
224.104	-25.62
224.338	-19.62
224.573	-15.62
224.808	-17.62
225.042	-7.62
225.277	-10.62
225.511	-4.62
225.746	15.38
225.98	9.38
226.215	7.38
226.449	34.38
226.683	16.38
226.918	13.38
227.152	23.38
227.387	21.38
227.621	39.38
227.856	42.38
228.09	54.38
228.324	48.38
228.559	59.38
228.793	87.38
229.027	196.38
229.262	219.38
229.496	206.38
229.73	223.38
229.964	241.38
230.199	235.38
230.433	285.38
230.667	267.38
230.901	284.38
231.136	262.38
231.37	265.38
231.604	255.38
231.838	262.38
232.072	279.38
232.306	267.38
232.541	273.38
232.775	312.38
233.009	330.38
233.243	323.38
233.477	297.38
233.711	290.38
233.945	321.38
234.179	294.38
234.413	314.38
234.647	326.38
234.881	304.38
235.115	281.38
235.349	303.38
235.583	296.38
235.817	300.38
236.051	298.38
236.285	299.38
236.519	311.38
236.753	338.38
236.987	344.38
237.221	356.38
237.455	380.38
237.689	386.38
237.922	344.38
238.156	358.38
238.39	366.38
238.624	384.38
238.858	360.38
239.091	394.38
239.325	390.38
239.559	461.38
239.793	492.38
240.027	516.38
240.26	516.38
240.494	406.38
240.728	386.38
240.961	376.38
241.195	394.38
241.429	404.38
241.662	426.38
241.896	382.38
242.13	402.38
242.363	422.38
242.597	439.38
242.83	425.38
243.064	437.38
243.298	460.38
243.531	463.38
243.765	473.38
243.998	466.38
244.232	411.38
244.465	391.38
244.699	415.38
244.932	458.38
245.166	491.38
245.399	483.38
245.633	471.38
245.866	451.38
246.099	468.38
246.333	491.38
246.566	507.38
246.8	526.38
247.033	551.38
247.266	518.38
247.5	530.38
247.733	523.38
247.966	558.38
248.2	584.38
248.433	598.38
248.666	614.38
248.899	665.38
249.133	750.38
249.366	801.38
249.599	679.38
249.832	575.38
250.066	612.38
250.299	632.38
250.532	600.38
250.765	538.38
250.998	560.38
251.231	589.38
251.465	592.38
251.698	559.38
251.931	583.38
252.164	590.38
252.397	600.38
252.63	598.38
252.863	562.38
253.096	563.38
253.329	551.38
253.562	566.38
253.795	629.38
254.028	607.38
254.261	575.38
254.494	569.38
254.727	561.38
254.96	598.38
255.193	646.38
255.426	699.38
255.659	770.38
255.892	786.38
256.124	680.38
256.357	672.38
256.59	684.38
256.823	685.38
257.056	700.38
257.289	841.38
257.521	882.38
257.754	824.38
257.987	792.38
258.22	836.38
258.452	805.38
258.685	690.38
258.918	663.38
259.151	656.38
259.383	644.38
259.616	579.38
259.849	629.38
260.081	686.38
260.314	771.38
260.547	818.38
260.779	814.38
261.012	735.38
261.244	672.38
261.477	670.38
261.71	681.38
261.942	694.38
262.175	672.38
262.407	733.38
262.64	655.38
262.872	642.38
263.105	607.38
263.337	634.38
263.57	615.38
263.802	630.38
264.035	596.38
264.267	570.38
264.499	566.38
264.732	614.38
264.964	650.38
265.197	665.38
265.429	703.38
265.661	756.38
265.894	834.38
266.126	843.38
266.358	779.38
266.591	824.38
266.823	852.38
267.055	802.38
267.287	804.38
267.52	751.38
267.752	754.38
267.984	739.38
268.216	816.38
268.448	792.38
268.681	793.38
268.913	733.38
269.145	731.38
269.377	711.38
269.609	771.38
269.841	863.38
270.073	995.38
270.306	1086.38
270.538	1111.38
270.77	987.38
271.002	862.38
271.234	820.38
271.466	829.38
271.698	907.38
271.93	1075.38
272.162	1079.38
272.394	938.38
272.626	888.38
272.858	781.38
273.09	710.38
273.322	702.38
273.553	655.38
273.785	684.38
274.017	702.38
274.249	778.38
274.481	763.38
274.713	720.38
274.945	710.38
275.176	683.38
275.408	691.38
275.64	683.38
275.872	652.38
276.104	768.38
276.335	824.38
276.567	916.38
276.799	900.38
277.031	821.38
277.262	784.38
277.494	803.38
277.726	884.38
277.957	867.38
278.189	816.38
278.421	768.38
278.652	745.38
278.884	751.38
279.115	724.38
279.347	742.38
279.579	723.38
279.81	743.38
280.042	815.38
280.273	883.38
280.505	874.38
280.736	896.38
280.968	798.38
281.199	744.38
281.431	715.38
281.662	738.38
281.894	731.38
282.125	737.38
282.356	782.38
282.588	773.38
282.819	795.38
283.051	816.38
283.282	854.38
283.513	873.38
283.745	750.38
283.976	723.38
284.207	731.38
284.439	757.38
284.67	743.38
284.901	788.38
285.132	806.38
285.364	773.38
285.595	771.38
285.826	776.38
286.057	754.38
286.288	752.38
286.52	799.38
286.751	834.38
286.982	841.38
287.213	802.38
287.444	739.38
287.675	720.38
287.906	801.38
288.138	822.38
288.369	796.38
288.6	741.38
288.831	739.38
289.062	771.38
289.293	772.38
289.524	760.38
289.755	795.38
289.986	785.38
290.217	741.38
290.448	756.38
290.679	779.38
290.91	798.38
291.141	796.38
291.371	830.38
291.602	818.38
291.833	816.38
292.064	840.38
292.295	824.38
292.526	840.38
292.757	870.38
292.987	820.38
293.218	804.38
293.449	915.38
293.68	973.38
293.91	996.38
294.141	940.38
294.372	897.38
294.603	965.38
294.833	986.38
295.064	902.38
295.295	821.38
295.525	814.38
295.756	768.38
295.987	731.38
296.217	754.38
296.448	756.38
296.679	786.38
296.909	786.38
297.14	809.38
297.37	811.38
297.601	874.38
297.831	870.38
298.062	872.38
298.292	808.38
298.523	764.38
298.753	778.38
298.984	783.38
299.214	794.38
299.445	804.38
299.675	847.38
299.905	826.38
300.136	845.38
300.366	811.38
300.597	760.38
300.827	753.38
301.057	827.38
301.288	853.38
301.518	869.38
301.748	867.38
301.979	948.38
302.209	954.38
302.439	976.38
302.669	1011.38
302.9	920.38
303.13	835.38
303.36	858.38
303.59	868.38
303.82	859.38
304.051	839.38
304.281	888.38
304.511	880.38
304.741	947.38
304.971	1023.38
305.201	1092.38
305.431	949.38
305.661	838.38
305.891	768.38
306.121	750.38
306.352	791.38
306.582	854.38
306.812	868.38
307.042	935.38
307.272	956.38
307.502	982.38
307.731	1087.38
307.961	1109.38
308.191	1010.38
308.421	884.38
308.651	802.38
308.881	801.38
309.111	823.38
309.341	842.38
309.571	847.38
309.8	850.38
310.03	837.38
310.26	810.38
310.49	834.38
310.72	842.38
310.949	880.38
311.179	890.38
311.409	860.38
311.639	832.38
311.868	860.38
312.098	864.38
312.328	878.38
312.557	839.38
312.787	860.38
313.017	900.38
313.246	870.38
313.476	859.38
313.706	882.38
313.935	894.38
314.165	888.38
314.394	929.38
314.624	996.38
314.853	1041.38
315.083	1050.38
315.312	1058.38
315.542	967.38
315.771	890.38
316.001	919.38
316.23	954.38
316.46	930.38
316.689	934.38
316.919	876.38
317.148	862.38
317.377	883.38
317.607	970.38
317.836	1052.38
318.065	1076.38
318.295	1027.38
318.524	1004.38
318.753	956.38
318.983	922.38
319.212	911.38
319.441	905.38
319.67	942.38
319.9	933.38
320.129	982.38
320.358	990.38
320.587	1036.38
320.816	1022.38
321.046	1000.38
321.275	950.38
321.504	968.38
321.733	1044.38
321.962	998.38
322.191	918.38
322.42	927.38
322.649	904.38
322.878	927.38
323.108	915.38
323.337	972.38
323.566	972.38
323.795	950.38
324.024	923.38
324.253	935.38
324.482	947.38
324.71	899.38
324.939	873.38
325.168	927.38
325.397	940.38
325.626	951.38
325.855	920.38
326.084	933.38
326.313	923.38
326.542	946.38
326.77	968.38
326.999	953.38
327.228	915.38
327.457	890.38
327.686	870.38
327.914	905.38
328.143	935.38
328.372	917.38
328.6	923.38
328.829	923.38
329.058	914.38
329.287	916.38
329.515	922.38
329.744	963.38
329.972	1003.38
330.201	1029.38
330.43	987.38
330.658	1005.38
330.887	972.38
331.115	977.38
331.344	975.38
331.572	982.38
331.801	964.38
332.03	958.38
332.258	995.38
332.486	1000.38
332.715	1034.38
332.943	988.38
333.172	972.38
333.4	1020.38
333.629	1038.38
333.857	1107.38
334.085	1227.38
334.314	1378.38
334.542	1429.38
334.771	1290.38
334.999	1172.38
335.227	1096.38
335.455	1059.38
335.684	1054.38
335.912	1094.38
336.14	1108.38
336.369	1043.38
336.597	1033.38
336.825	994.38
337.053	1040.38
337.281	1138.38
337.51	1154.38
337.738	1142.38
337.966	1089.38
338.194	1014.38
338.422	959.38
338.65	1008.38
338.878	983.38
339.106	950.38
339.334	956.38
339.562	921.38
339.79	939.38
340.018	1008.38
340.246	1046.38
340.474	1041.38
340.702	1026.38
340.93	1021.38
341.158	1026.38
341.386	999.38
341.614	999.38
341.842	992.38
342.07	998.38
342.298	977.38
342.526	1009.38
342.754	987.38
342.981	970.38
343.209	961.38
343.437	969.38
343.665	978.38
343.893	1032.38
344.12	1030.38
344.348	1047.38
344.576	1024.38
344.804	991.38
345.031	1011.38
345.259	947.38
345.487	964.38
345.714	906.38
345.942	911.38
346.17	904.38
346.397	934.38
346.625	942.38
346.853	898.38
347.08	906.38
347.308	924.38
347.535	934.38
347.763	955.38
347.99	938.38
348.218	917.38
348.445	905.38
348.673	927.38
348.9	944.38
349.128	966.38
349.355	1019.38
349.583	994.38
349.81	916.38
350.037	853.38
350.265	882.38
350.492	866.38
350.72	902.38
350.947	934.38
351.174	957.38
351.402	870.38
351.629	860.38
351.856	836.38
352.083	863.38
352.311	867.38
352.538	902.38
352.765	940.38
352.992	966.38
353.22	897.38
353.447	900.38
353.674	928.38
353.901	923.38
354.128	880.38
354.355	918.38
354.583	960.38
354.81	977.38
355.037	941.38
355.264	962.38
355.491	913.38
355.718	916.38
355.945	894.38
356.172	923.38
356.399	903.38
356.626	871.38
356.853	934.38
357.08	1035.38
357.307	1101.38
357.534	1080.38
357.761	942.38
357.988	872.38
358.215	862.38
358.441	881.38
358.668	850.38
358.895	896.38
359.122	955.38
359.349	1054.38
359.576	999.38
359.802	919.38
360.029	889.38
360.256	881.38
360.483	908.38
360.709	951.38
360.936	961.38
361.163	1014.38
361.39	1116.38
361.616	1146.38
361.843	1151.38
362.07	1096.38
362.296	926.38
362.523	917.38
362.749	919.38
362.976	926.38
363.203	949.38
363.429	924.38
363.656	893.38
363.882	968.38
364.109	1040.38
364.335	1090.38
364.562	1000.38
364.788	960.38
365.015	918.38
365.241	939.38
365.468	970.38
365.694	996.38
365.92	1014.38
366.147	961.38
366.373	913.38
366.599	886.38
366.826	910.38
367.052	905.38
367.278	916.38
367.505	923.38
367.731	963.38
367.957	970.38
368.184	982.38
368.41	1040.38
368.636	1055.38
368.862	1050.38
369.089	1056.38
369.315	1022.38
369.541	972.38
369.767	960.38
369.993	918.38
370.219	923.38
370.445	994.38
370.672	1034.38
370.898	1070.38
371.124	1049.38
371.35	984.38
371.576	1010.38
371.802	1086.38
372.028	989.38
372.254	963.38
372.48	924.38
372.706	948.38
372.932	956.38
373.158	931.38
373.384	971.38
373.61	1008.38
373.835	1019.38
374.061	983.38
374.287	984.38
374.513	963.38
374.739	967.38
374.965	996.38
375.191	999.38
375.416	1033.38
375.642	1028.38
375.868	1099.38
376.094	1129.38
376.319	1047.38
376.545	988.38
376.771	1034.38
376.997	1107.38
377.222	1050.38
377.448	1046.38
377.674	1029.38
377.899	1056.38
378.125	1130.38
378.35	1072.38
378.576	953.38
378.802	970.38
379.027	949.38
379.253	983.38
379.478	979.38
379.704	980.38
379.929	960.38
380.155	998.38
380.38	1014.38
380.606	1009.38
380.831	1002.38
381.057	1058.38
381.282	1087.38
381.507	1067.38
381.733	1129.38
381.958	1163.38
382.184	1044.38
382.409	1037.38
382.634	1036.38
382.86	1050.38
383.085	1023.38
383.31	1060.38
383.535	1184.38
383.761	1201.38
383.986	1179.38
384.211	1132.38
384.436	1121.38
384.662	1203.38
384.887	1215.38
385.112	1121.38
385.337	1118.38
385.562	1121.38
385.787	1115.38
386.013	1160.38
386.238	1152.38
386.463	1184.38
386.688	1237.38
386.913	1288.38
387.138	1234.38
387.363	1184.38
387.588	1172.38
387.813	1171.38
388.038	1157.38
388.263	1237.38
388.488	1130.38
388.713	1090.38
388.938	1084.38
389.163	1091.38
389.387	1144.38
389.612	1135.38
389.837	1158.38
390.062	1146.38
390.287	1149.38
390.512	1094.38
390.736	1125.38
390.961	1085.38
391.186	1092.38
391.411	1118.38
391.636	1129.38
391.86	1129.38
392.085	1102.38
392.31	1134.38
392.534	1154.38
392.759	1136.38
392.984	1129.38
393.208	1144.38
393.433	1188.38
393.658	1225.38
393.882	1234.38
394.107	1119.38
394.331	1127.38
394.556	1143.38
394.78	1141.38
395.005	1187.38
395.229	1224.38
395.454	1307.38
395.678	1278.38
395.903	1230.38
396.127	1195.38
396.352	1241.38
396.576	1237.38
396.801	1300.38
397.025	1259.38
397.249	1235.38
397.474	1217.38
397.698	1236.38
397.922	1265.38
398.147	1339.38
398.371	1363.38
398.595	1344.38
398.82	1279.38
399.044	1302.38
399.268	1367.38
399.492	1448.38
399.717	1471.38
399.941	1507.38
400.165	1499.38
400.389	1428.38
400.613	1451.38
400.837	1676.38
401.062	1808.38
401.286	1563.38
401.51	1442.38
401.734	1474.38
401.958	1431.38
402.182	1340.38
402.406	1270.38
402.63	1257.38
402.854	1305.38
403.078	1350.38
403.302	1339.38
403.526	1358.38
403.75	1354.38
403.974	1383.38
404.198	1356.38
404.422	1443.38
404.645	1489.38
404.869	1424.38
405.093	1355.38
405.317	1292.38
405.541	1361.38
405.765	1359.38
405.988	1352.38
406.212	1381.38
406.436	1390.38
406.66	1456.38
406.883	1497.38
407.107	1684.38
407.331	1798.38
407.555	1923.38
407.778	1689.38
408.002	1433.38
408.226	1432.38
408.449	1418.38
408.673	1369.38
408.896	1381.38
409.12	1416.38
409.344	1364.38
409.567	1357.38
409.791	1400.38
410.014	1399.38
410.238	1491.38
410.461	1537.38
410.685	1364.38
410.908	1305.38
411.132	1374.38
411.355	1381.38
411.578	1318.38
411.802	1359.38
412.025	1363.38
412.249	1306.38
412.472	1327.38
412.695	1292.38
412.919	1334.38
413.142	1307.38
413.365	1300.38
413.589	1348.38
413.812	1439.38
414.035	1438.38
414.258	1314.38
414.482	1291.38
414.705	1295.38
414.928	1311.38
415.151	1283.38
415.374	1293.38
415.597	1332.38
415.821	1324.38
416.044	1362.38
416.267	1314.38
416.49	1272.38
416.713	1265.38
416.936	1330.38
417.159	1388.38
417.382	1391.38
417.605	1271.38
417.828	1303.38
418.051	1306.38
418.274	1301.38
418.497	1280.38
418.72	1282.38
418.943	1252.38
419.166	1345.38
419.389	1364.38
419.611	1292.38
419.834	1298.38
420.057	1339.38
420.28	1274.38
420.503	1317.38
420.726	1324.38
420.948	1331.38
421.171	1249.38
421.394	1287.38
421.617	1339.38
421.839	1319.38
422.062	1319.38
422.285	1260.38
422.507	1266.38
422.73	1250.38
422.953	1246.38
423.175	1244.38
423.398	1281.38
423.621	1283.38
423.843	1273.38
424.066	1329.38
424.288	1383.38
424.511	1419.38
424.733	1345.38
424.956	1259.38
425.178	1260.38
425.401	1237.38
425.623	1271.38
425.846	1240.38
426.068	1337.38
426.291	1347.38
426.513	1309.38
426.735	1331.38
426.958	1454.38
427.18	1448.38
427.402	1352.38
427.625	1424.38
427.847	1393.38
428.069	1270.38
428.292	1273.38
428.514	1195.38
428.736	1227.38
428.958	1228.38
429.181	1278.38
429.403	1474.38
429.625	1752.38
429.847	1450.38
430.069	1290.38
430.292	1427.38
430.514	1434.38
430.736	1331.38
430.958	1394.38
431.18	1298.38
431.402	1222.38
431.624	1186.38
431.846	1183.38
432.068	1108.38
432.29	1145.38
432.512	1208.38
432.734	1224.38
432.956	1265.38
433.178	1326.38
433.4	1314.38
433.622	1301.38
433.844	1217.38
434.066	1205.38
434.287	1165.38
434.509	1236.38
434.731	1288.38
434.953	1329.38
435.175	1314.38
435.397	1278.38
435.618	1262.38
435.84	1241.38
436.062	1236.38
436.284	1266.38
436.505	1267.38
436.727	1309.38
436.949	1267.38
437.17	1258.38
437.392	1217.38
437.614	1198.38
437.835	1161.38
438.057	1256.38
438.278	1258.38
438.5	1236.38
438.721	1230.38
438.943	1240.38
439.165	1250.38
439.386	1236.38
439.608	1249.38
439.829	1235.38
440.05	1258.38
440.272	1269.38
440.493	1226.38
440.715	1264.38
440.936	1336.38
441.158	1471.38
441.379	1390.38
441.6	1377.38
441.822	1343.38
442.043	1349.38
442.264	1321.38
442.486	1285.38
442.707	1260.38
442.928	1268.38
443.149	1311.38
443.371	1356.38
443.592	1412.38
443.813	1383.38
444.034	1366.38
444.255	1343.38
444.476	1380.38
444.698	1394.38
444.919	1376.38
445.14	1505.38
445.361	1433.38
445.582	1467.38
445.803	1419.38
446.024	1346.38
446.245	1416.38
446.466	1385.38
446.687	1343.38
446.908	1312.38
447.129	1333.38
447.35	1333.38
447.571	1299.38
447.792	1280.38
448.013	1244.38
448.234	1280.38
448.455	1299.38
448.675	1319.38
448.896	1211.38
449.117	1212.38
449.338	1219.38
449.559	1299.38
449.779	1314.38
450	1382.38
450.221	1472.38
450.442	1400.38
450.662	1280.38
450.883	1177.38
451.104	1192.38
451.324	1179.38
451.545	1216.38
451.766	1204.38
451.986	1152.38
452.207	1134.38
452.428	1075.38
452.648	1064.38
452.869	1134.38
453.089	1137.38
453.31	1147.38
453.53	1125.38
453.751	1117.38
453.971	1059.38
454.192	1080.38
454.412	1125.38
454.633	1140.38
454.853	1103.38
455.073	1040.38
455.294	1057.38
455.514	1064.38
455.734	1090.38
455.955	1058.38
456.175	1083.38
456.395	1050.38
456.616	1107.38
456.836	1108.38
457.056	1085.38
457.276	1090.38
457.497	1076.38
457.717	986.38
457.937	1025.38
458.157	1083.38
458.377	1039.38
458.598	1047.38
458.818	1034.38
459.038	1087.38
459.258	1145.38
459.478	1139.38
459.698	1108.38
459.918	1136.38
460.138	1222.38
460.358	1214.38
460.578	1222.38
460.798	1295.38
461.018	1347.38
461.238	1319.38
461.458	1269.38
461.678	1251.38
461.898	1208.38
462.118	1190.38
462.338	1220.38
462.558	1258.38
462.777	1236.38
462.997	1324.38
463.217	1355.38
463.437	1333.38
463.657	1248.38
463.876	1242.38
464.096	1268.38
464.316	1282.38
464.536	1304.38
464.755	1296.38
464.975	1318.38
465.195	1278.38
465.414	1314.38
465.634	1289.38
465.854	1293.38
466.073	1395.38
466.293	1326.38
466.512	1181.38
466.732	1198.38
466.951	1222.38
467.171	1261.38
467.391	1194.38
467.61	1217.38
467.829	1215.38
468.049	1350.38
468.268	1463.38
468.488	1312.38
468.707	1280.38
468.927	1221.38
469.146	1208.38
469.365	1218.38
469.585	1242.38
469.804	1192.38
470.023	1243.38
470.243	1246.38
470.462	1246.38
470.681	1241.38
470.901	1210.38
471.12	1213.38
471.339	1243.38
471.558	1190.38
471.777	1178.38
471.997	1214.38
472.216	1188.38
472.435	1099.38
472.654	1126.38
472.873	1184.38
473.092	1231.38
473.311	1198.38
473.53	1132.38
473.749	1115.38
473.968	1144.38
474.187	1192.38
474.406	1222.38
474.625	1215.38
474.844	1201.38
475.063	1264.38
475.282	1259.38
475.501	1160.38
475.72	1212.38
475.939	1326.38
476.158	1235.38
476.377	1191.38
476.596	1214.38
476.814	1198.38
477.033	1235.38
477.252	1279.38
477.471	1284.38
477.69	1288.38
477.908	1312.38
478.127	1399.38
478.346	1403.38
478.564	1411.38
478.783	1412.38
479.002	1440.38
479.22	1412.38
479.439	1483.38
479.658	1564.38
479.876	1493.38
480.095	1406.38
480.313	1330.38
480.532	1301.38
480.751	1301.38
480.969	1286.38
481.188	1260.38
481.406	1234.38
481.624	1213.38
481.843	1243.38
482.061	1320.38
482.28	1307.38
482.498	1341.38
482.717	1326.38
482.935	1316.38
483.153	1316.38
483.372	1367.38
483.59	1318.38
483.808	1334.38
484.027	1351.38
484.245	1430.38
484.463	1782.38
484.681	1902.38
484.9	1447.38
485.118	1357.38
485.336	1367.38
485.554	1370.38
485.772	1378.38
485.99	1337.38
486.209	1403.38
486.427	1392.38
486.645	1369.38
486.863	1397.38
487.081	1433.38
487.299	1450.38
487.517	1427.38
487.735	1466.38
487.953	1500.38
488.171	1503.38
488.389	1458.38
488.607	1450.38
488.825	1609.38
489.043	1566.38
489.261	1412.38
489.479	1462.38
489.696	1487.38
489.914	1474.38
490.132	1423.38
490.35	1441.38
490.568	1498.38
490.786	1501.38
491.003	1485.38
491.221	1566.38
491.439	1591.38
491.657	1583.38
491.874	1631.38
492.092	1649.38
492.31	1716.38
492.527	1643.38
492.745	1600.38
492.963	1590.38
493.18	1632.38
493.398	1698.38
493.615	1704.38
493.833	1589.38
494.05	1543.38
494.268	1548.38
494.485	1590.38
494.703	1532.38
494.92	1533.38
495.138	1556.38
495.355	1574.38
495.573	1610.38
495.79	1663.38
496.008	1672.38
496.225	1604.38
496.442	1608.38
496.66	1587.38
496.877	1592.38
497.094	1665.38
497.312	1651.38
497.529	1606.38
497.746	1683.38
497.963	1874.38
498.181	1956.38
498.398	1895.38
498.615	1851.38
498.832	1798.38
499.049	1786.38
499.267	1768.38
499.484	1892.38
499.701	2018.38
499.918	2054.38
500.135	2217.38
500.352	2315.38
500.569	2334.38
500.786	2541.38
501.003	2288.38
501.22	2153.38
501.437	2018.38
501.654	2088.38
501.871	1991.38
502.088	1749.38
502.305	1778.38
502.522	1662.38
502.739	1554.38
502.956	1592.38
503.172	1569.38
503.389	1516.38
503.606	1465.38
503.823	1467.38
504.04	1456.38
504.256	1493.38
504.473	1511.38
504.69	1514.38
504.907	1437.38
505.123	1431.38
505.34	1545.38
505.557	2044.38
505.773	1640.38
505.99	1401.38
506.207	1322.38
506.423	1301.38
506.64	1294.38
506.856	1311.38
507.073	1514.38
507.289	1590.38
507.506	1487.38
507.722	1294.38
507.939	1258.38
508.155	1253.38
508.372	1254.38
508.588	1198.38
508.805	1165.38
509.021	1141.38
509.238	1174.38
509.454	1132.38
509.67	1154.38
509.887	1140.38
510.103	1162.38
510.319	1141.38
510.536	1210.38
510.752	1214.38
510.968	1231.38
511.184	1273.38
511.401	1218.38
511.617	1130.38
511.833	1106.38
512.049	1110.38
512.265	1099.38
512.481	1096.38
512.698	1181.38
512.914	1210.38
513.13	1164.38
513.346	1139.38
513.562	1104.38
513.778	1128.38
513.994	1158.38
514.21	1179.38
514.426	1164.38
514.642	1272.38
514.858	1235.38
515.074	1126.38
515.29	1117.38
515.506	1149.38
515.721	1149.38
515.937	1187.38
516.153	1297.38
516.369	1242.38
516.585	1162.38
516.801	1136.38
517.016	1160.38
517.232	1188.38
517.448	1199.38
517.664	1220.38
517.879	1208.38
518.095	1253.38
518.311	1203.38
518.527	1191.38
518.742	1141.38
518.958	1128.38
519.173	1145.38
519.389	1163.38
519.605	1134.38
519.82	1154.38
520.036	1177.38
520.251	1124.38
520.467	1165.38
520.682	1221.38
520.898	1253.38
521.113	1116.38
521.329	1118.38
521.544	1205.38
521.76	1120.38
521.975	1086.38
522.19	1079.38
522.406	1123.38
522.621	1391.38
522.836	1326.38
523.052	1078.38
523.267	1113.38
523.482	1122.38
523.698	1078.38
523.913	1060.38
524.128	1098.38
524.343	1143.38
524.559	1154.38
524.774	1070.38
524.989	1052.38
525.204	1089.38
525.419	1072.38
525.634	1049.38
525.849	1062.38
526.064	1074.38
526.28	1046.38
526.495	995.38
526.71	993.38
526.925	999.38
527.14	1018.38
527.355	961.38
527.57	1001.38
527.785	1021.38
527.999	974.38
528.214	988.38
528.429	999.38
528.644	1035.38
528.859	1087.38
529.074	1065.38
529.289	1099.38
529.503	1106.38
529.718	1072.38
529.933	1017.38
530.148	997.38
530.363	980.38
530.577	967.38
530.792	982.38
531.007	989.38
531.221	959.38
531.436	989.38
531.651	1019.38
531.865	1039.38
532.08	1028.38
532.295	978.38
532.509	928.38
532.724	942.38
532.938	996.38
533.153	1064.38
533.367	1022.38
533.582	1046.38
533.796	1039.38
534.011	987.38
534.225	1001.38
534.44	982.38
534.654	977.38
534.868	968.38
535.083	1028.38
535.297	1015.38
535.511	992.38
535.726	1004.38
535.94	1005.38
536.154	975.38
536.369	924.38
536.583	912.38
536.797	922.38
537.011	944.38
537.225	921.38
537.44	920.38
537.654	984.38
537.868	920.38
538.082	918.38
538.296	932.38
538.51	910.38
538.724	943.38
538.938	952.38
539.153	1002.38
539.367	1003.38
539.581	986.38
539.795	997.38
540.009	969.38
540.222	957.38
540.436	948.38
540.65	1072.38
540.864	1051.38
541.078	1052.38
541.292	1028.38
541.506	1070.38
541.72	1116.38
541.934	1134.38
542.147	1171.38
542.361	1134.38
542.575	1046.38
542.789	1040.38
543.002	980.38
543.216	954.38
543.43	1004.38
543.644	1067.38
543.857	1151.38
544.071	1088.38
544.285	1090.38
544.498	1070.38
544.712	1082.38
544.925	1103.38
545.139	1113.38
545.352	1068.38
545.566	1054.38
545.779	1032.38
545.993	1073.38
546.206	1106.38
546.42	1095.38
546.633	1062.38
546.847	1039.38
547.06	1042.38
547.274	1082.38
547.487	1063.38
547.7	1072.38
547.914	1083.38
548.127	1067.38
548.34	1088.38
548.554	1054.38
548.767	1079.38
548.98	1058.38
549.193	1076.38
549.407	1121.38
549.62	1096.38
549.833	1047.38
550.046	1064.38
550.259	1053.38
550.473	1030.38
550.686	1029.38
550.899	1018.38
551.112	967.38
551.325	1003.38
551.538	1014.38
551.751	1176.38
551.964	915.38
552.177	905.38
552.39	959.38
552.603	986.38
552.816	991.38
553.029	1056.38
553.242	1061.38
553.455	1059.38
553.667	1010.38
553.88	1012.38
554.093	1036.38
554.306	984.38
554.519	963.38
554.732	944.38
554.944	952.38
555.157	973.38
555.37	942.38
555.583	949.38
555.795	899.38
556.008	891.38
556.221	863.38
556.433	857.38
556.646	853.38
556.859	833.38
557.071	895.38
557.284	887.38
557.496	882.38
557.709	857.38
557.921	859.38
558.134	842.38
558.346	860.38
558.559	872.38
558.771	854.38
558.984	806.38
559.196	806.38
559.409	788.38
559.621	805.38
559.833	792.38
560.046	859.38
560.258	808.38
560.47	800.38
560.683	795.38
560.895	834.38
561.107	819.38
561.32	809.38
561.532	826.38
561.744	821.38
561.956	823.38
562.168	802.38
562.381	778.38
562.593	768.38
562.805	800.38
563.017	759.38
563.229	781.38
563.441	800.38
563.653	768.38
563.865	789.38
564.077	788.38
564.289	782.38
564.501	773.38
564.713	793.38
564.925	844.38
565.137	884.38
565.349	816.38
565.561	810.38
565.773	825.38
565.985	809.38
566.197	874.38
566.408	900.38
566.62	904.38
566.832	886.38
567.044	912.38
567.255	839.38
567.467	886.38
567.679	923.38
567.891	922.38
568.102	887.38
568.314	826.38
568.526	805.38
568.737	774.38
568.949	743.38
569.161	715.38
569.372	678.38
569.584	672.38
569.795	667.38
570.007	668.38
570.218	639.38
570.43	640.38
570.641	658.38
570.853	654.38
571.064	668.38
571.276	656.38
571.487	645.38
571.698	654.38
571.91	624.38
572.121	610.38
572.333	607.38
572.544	604.38
572.755	579.38
572.966	578.38
573.178	563.38
573.389	580.38
573.6	598.38
573.811	676.38
574.023	582.38
574.234	561.38
574.445	564.38
574.656	569.38
574.867	560.38
575.078	562.38
575.289	593.38
575.501	579.38
575.712	540.38
575.923	538.38
576.134	559.38
576.345	524.38
576.556	568.38
576.767	548.38
576.978	568.38
577.188	510.38
577.399	525.38
577.61	514.38
577.821	513.38
578.032	527.38
578.243	520.38
578.454	513.38
578.665	473.38
578.875	501.38
579.086	473.38
579.297	510.38
579.508	508.38
579.718	504.38
579.929	505.38
580.14	487.38
580.35	478.38
580.561	503.38
580.772	543.38
580.982	506.38
581.193	481.38
581.403	471.38
581.614	455.38
581.825	474.38
582.035	486.38
582.246	486.38
582.456	496.38
582.667	472.38
582.877	475.38
583.087	487.38
583.298	469.38
583.508	476.38
583.719	485.38
583.929	482.38
584.139	478.38
584.35	448.38
584.56	454.38
584.77	459.38
584.981	453.38
585.191	480.38
585.401	481.38
585.611	494.38
585.821	466.38
586.032	445.38
586.242	444.38
586.452	432.38
586.662	459.38
586.872	425.38
587.082	437.38
587.292	469.38
587.502	452.38
587.713	452.38
587.923	431.38
588.133	437.38
588.343	455.38
588.553	437.38
588.762	449.38
588.972	451.38
589.182	431.38
589.392	442.38
589.602	454.38
589.812	444.38
590.022	432.38
590.232	437.38
590.441	450.38
590.651	441.38
590.861	442.38
591.071	427.38
591.281	444.38
591.49	439.38
591.7	454.38
591.91	430.38
592.119	442.38
592.329	448.38
592.539	470.38
592.748	447.38
592.958	440.38
593.167	470.38
593.377	462.38
593.587	482.38
593.796	466.38
594.006	456.38
594.215	459.38
594.424	458.38
594.634	465.38
594.843	464.38
595.053	490.38
595.262	443.38
595.472	440.38
595.681	425.38
595.89	431.38
596.1	426.38
596.309	438.38
596.518	435.38
596.727	437.38
596.937	433.38
597.146	415.38
597.355	421.38
597.564	395.38
597.774	402.38
597.983	407.38
598.192	402.38
598.401	408.38
598.61	408.38
598.819	401.38
599.028	395.38
599.237	414.38
599.446	384.38
599.655	380.38
599.864	380.38
600.073	388.38
600.282	391.38
600.491	366.38
600.7	362.38
600.909	373.38
601.118	390.38
601.327	389.38
601.536	405.38
601.745	419.38
601.953	413.38
602.162	414.38
602.371	416.38
602.58	403.38
602.789	404.38
602.997	417.38
603.206	414.38
603.415	412.38
603.623	400.38
603.832	419.38
604.041	401.38
604.249	389.38
604.458	366.38
604.666	385.38
604.875	379.38
605.084	404.38
605.292	403.38
605.501	392.38
605.709	406.38
605.918	404.38
606.126	395.38
606.334	402.38
606.543	391.38
606.751	380.38
606.96	400.38
607.168	398.38
607.376	384.38
607.585	393.38
607.793	377.38
608.001	411.38
608.21	392.38
608.418	406.38
608.626	396.38
608.834	379.38
609.043	407.38
609.251	399.38
609.459	383.38
609.667	395.38
609.875	418.38
610.083	405.38
610.291	410.38
610.499	400.38
610.707	387.38
610.916	382.38
611.124	390.38
611.332	390.38
611.54	400.38
611.748	392.38
611.955	394.38
612.163	391.38
612.371	392.38
612.579	366.38
612.787	389.38
612.995	395.38
613.203	396.38
613.411	377.38
613.618	384.38
613.826	391.38
614.034	388.38
614.242	390.38
614.449	382.38
614.657	378.38
614.865	395.38
615.072	386.38
615.28	368.38
615.488	386.38
615.695	400.38
615.903	394.38
616.111	363.38
616.318	379.38
616.526	386.38
616.733	398.38
616.941	376.38
617.148	402.38
617.356	378.38
617.563	394.38
617.771	371.38
617.978	354.38
618.185	374.38
618.393	346.38
618.6	376.38
618.807	372.38
619.015	388.38
619.222	361.38
619.429	342.38
619.637	353.38
619.844	342.38
620.051	341.38
620.258	376.38
620.466	372.38
620.673	359.38
620.88	330.38
621.087	341.38
621.294	339.38
621.501	338.38
621.708	338.38
621.915	347.38
622.122	353.38
622.329	358.38
622.536	354.38
622.743	366.38
622.95	359.38
623.157	344.38
623.364	346.38
623.571	348.38
623.778	363.38
623.985	336.38
624.192	346.38
624.399	350.38
624.606	353.38
624.812	322.38
625.019	331.38
625.226	321.38
625.433	318.38
625.639	353.38
625.846	324.38
626.053	288.38
626.259	313.38
626.466	297.38
626.673	286.38
626.879	299.38
627.086	295.38
627.293	323.38
627.499	314.38
627.706	306.38
627.912	310.38
628.119	335.38
628.325	318.38
628.532	320.38
628.738	331.38
628.945	321.38
629.151	310.38
629.357	330.38
629.564	320.38
629.77	313.38
629.976	297.38
630.183	289.38
630.389	290.38
630.595	308.38
630.802	310.38
631.008	297.38
631.214	294.38
631.42	300.38
631.627	268.38
631.833	277.38
632.039	286.38
632.245	281.38
632.451	290.38
632.657	272.38
632.863	303.38
633.069	293.38
633.275	278.38
633.481	266.38
633.688	260.38
633.893	282.38
634.099	288.38
634.305	282.38
634.511	286.38
634.717	282.38
634.923	242.38
635.129	250.38
635.335	264.38
635.541	263.38
635.747	270.38
635.952	271.38
636.158	273.38
636.364	261.38
636.57	291.38
636.775	272.38
636.981	294.38
637.187	256.38
637.392	274.38
637.598	292.38
637.804	287.38
638.009	271.38
638.215	279.38
638.421	276.38
638.626	268.38
638.832	277.38
639.037	265.38
639.243	263.38
639.448	259.38
639.654	284.38
639.859	273.38
640.065	263.38
640.27	265.38
640.475	254.38
640.681	254.38
640.886	258.38
641.091	259.38
641.297	265.38
641.502	275.38
641.707	268.38
641.913	243.38
642.118	255.38
642.323	266.38
642.528	259.38
642.733	248.38
642.939	257.38
643.144	262.38
643.349	275.38
643.554	276.38
643.759	254.38
643.964	248.38
644.169	252.38
644.374	248.38
644.579	260.38
644.784	266.38
644.989	261.38
645.194	249.38
645.399	259.38
645.604	276.38
645.809	271.38
646.014	272.38
646.219	261.38
646.423	244.38
646.628	274.38
646.833	259.38
647.038	269.38
647.243	265.38
647.447	256.38
647.652	254.38
647.857	226.38
648.062	244.38
648.266	262.38
648.471	254.38
648.676	262.38
648.88	246.38
649.085	243.38
649.289	252.38
649.494	264.38
649.698	266.38
649.903	254.38
650.107	249.38
650.312	256.38
650.516	252.38
650.721	239.38
650.925	242.38
651.13	243.38
651.334	253.38
651.539	238.38
651.743	233.38
651.947	227.38
652.152	216.38
652.356	215.38
652.56	202.38
652.764	223.38
652.969	212.38
653.173	211.38
653.377	223.38
653.581	213.38
653.785	193.38
653.99	218.38
654.194	223.38
654.398	216.38
654.602	224.38
654.806	230.38
655.01	206.38
655.214	212.38
655.418	255.38
655.622	233.38
655.826	227.38
656.03	229.38
656.234	212.38
656.438	240.38
656.642	261.38
656.846	246.38
657.049	229.38
657.253	222.38
657.457	207.38
657.661	183.38
657.865	179.38
658.068	164.38
658.272	174.38
658.476	161.38
658.68	162.38
658.883	168.38
659.087	154.38
659.291	151.38
659.494	144.38
659.698	116.38
659.901	132.38
660.105	133.38
660.309	127.38
660.512	131.38
660.716	135.38
660.919	110.38
661.123	110.38
661.326	107.38
661.53	104.38
661.733	102.38
661.936	115.38
662.14	95.38
662.343	89.38
662.546	92.38
662.75	95.38
662.953	85.38
663.156	95.38
663.36	95.38
663.563	88.38
663.766	80.38
663.969	80.38
664.173	86.38
664.376	89.38
664.579	89.38
664.782	75.38
664.985	87.38
665.188	74.38
665.391	76.38
665.594	80.38
665.797	88.38
666	86.38
666.203	103.38
666.406	97.38
666.609	78.38
666.812	75.38
667.015	72.38
667.218	66.38
667.421	84.38
667.624	73.38
667.827	82.38
668.03	70.38
668.232	101.38
668.435	90.38
668.638	81.38
668.841	82.38
669.043	82.38
669.246	83.38
669.449	95.38
669.651	86.38
669.854	71.38
670.057	81.38
670.259	70.38
670.462	80.38
670.665	68.38
670.867	91.38
671.07	85.38
671.272	76.38
671.475	86.38
671.677	63.38
671.88	80.38
672.082	80.38
672.284	87.38
672.487	72.38
672.689	80.38
672.892	91.38
