Data from WStandard_LampEnergy5.5LIBS07252019.E.O._I.C._HRD10591_16-06-40-920.txt Node
Date: Thu Jul 25 16:06:40 EDT 2019
User: cochatt
Spectrometer: HR+D1059
Trigger mode: 1
Integration Time (sec): 1.000000E-1
Scans to average: 1
Electric dark correction enabled: true
Nonlinearity correction enabled: false
Boxcar width: 0
XAxis mode: Wavelengths
Number of Pixels in Spectrum: 2048
>>>>>Begin Spectral Data<<<<<
223.165	-22.38
223.4	-22.38
223.635	-22.38
223.869	-25.38
224.104	-24.38
224.338	-8.38
224.573	-21.38
224.808	-19.38
225.042	-0.38
225.277	-9.38
225.511	4.62
225.746	-3.38
225.98	22.62
226.215	5.62
226.449	8.62
226.683	39.62
226.918	31.62
227.152	21.62
227.387	28.62
227.621	33.62
227.856	35.62
228.09	49.62
228.324	52.62
228.559	51.62
228.793	143.62
229.027	360.62
229.262	375.62
229.496	393.62
229.73	390.62
229.964	457.62
230.199	437.62
230.433	478.62
230.667	493.62
230.901	524.62
231.136	490.62
231.37	463.62
231.604	467.62
231.838	453.62
232.072	466.62
232.306	451.62
232.541	467.62
232.775	547.62
233.009	604.62
233.243	558.62
233.477	531.62
233.711	542.62
233.945	567.62
234.179	548.62
234.413	588.62
234.647	627.62
234.881	611.62
235.115	551.62
235.349	538.62
235.583	558.62
235.817	548.62
236.051	546.62
236.285	533.62
236.519	617.62
236.753	671.62
236.987	699.62
237.221	694.62
237.455	729.62
237.689	726.62
237.922	693.62
238.156	656.62
238.39	681.62
238.624	712.62
238.858	771.62
239.091	786.62
239.325	812.62
239.559	901.62
239.793	975.62
240.027	1073.62
240.26	1052.62
240.494	767.62
240.728	701.62
240.961	734.62
241.195	723.62
241.429	814.62
241.662	829.62
241.896	751.62
242.13	770.62
242.363	848.62
242.597	927.62
242.83	885.62
243.064	894.62
243.298	960.62
243.531	916.62
243.765	933.62
243.998	942.62
244.232	814.62
244.465	781.62
244.699	785.62
244.932	912.62
245.166	1031.62
245.399	1017.62
245.633	895.62
245.866	892.62
246.099	928.62
246.333	952.62
246.566	957.62
246.8	1079.62
247.033	1176.62
247.266	1085.62
247.5	1064.62
247.733	1091.62
247.966	1115.62
248.2	1215.62
248.433	1168.62
248.666	1194.62
248.899	1313.62
249.133	1515.62
249.366	1724.62
249.599	1420.62
249.832	1213.62
250.066	1279.62
250.299	1298.62
250.532	1213.62
250.765	1101.62
250.998	1146.62
251.231	1214.62
251.465	1255.62
251.698	1180.62
251.931	1145.62
252.164	1214.62
252.397	1237.62
252.63	1267.62
252.863	1094.62
253.096	1073.62
253.329	1149.62
253.562	1168.62
253.795	1257.62
254.028	1213.62
254.261	1157.62
254.494	1164.62
254.727	1069.62
254.96	1139.62
255.193	1283.62
255.426	1409.62
255.659	1636.62
255.892	1684.62
256.124	1398.62
256.357	1329.62
256.59	1446.62
256.823	1442.62
257.056	1441.62
257.289	1693.62
257.521	1921.62
257.754	1704.62
257.987	1583.62
258.22	1813.62
258.452	1720.62
258.685	1420.62
258.918	1361.62
259.151	1400.62
259.383	1332.62
259.616	1175.62
259.849	1217.62
260.081	1369.62
260.314	1553.62
260.547	1733.62
260.779	1754.62
261.012	1569.62
261.244	1438.62
261.477	1353.62
261.71	1419.62
261.942	1388.62
262.175	1371.62
262.407	1461.62
262.64	1361.62
262.872	1250.62
263.105	1209.62
263.337	1257.62
263.57	1292.62
263.802	1289.62
264.035	1222.62
264.267	1133.62
264.499	1131.62
264.732	1196.62
264.964	1309.62
265.197	1345.62
265.429	1383.62
265.661	1557.62
265.894	1721.62
266.126	1787.62
266.358	1588.62
266.591	1683.62
266.823	1831.62
267.055	1615.62
267.287	1579.62
267.52	1580.62
267.752	1538.62
267.984	1559.62
268.216	1575.62
268.448	1634.62
268.681	1647.62
268.913	1507.62
269.145	1401.62
269.377	1419.62
269.609	1495.62
269.841	1733.62
270.073	2034.62
270.306	2274.62
270.538	2449.62
270.77	2059.62
271.002	1729.62
271.234	1620.62
271.466	1611.62
271.698	1832.62
271.93	2213.62
272.162	2184.62
272.394	2005.62
272.626	1883.62
272.858	1670.62
273.09	1433.62
273.322	1446.62
273.553	1358.62
273.785	1361.62
274.017	1448.62
274.249	1557.62
274.481	1598.62
274.713	1433.62
274.945	1384.62
275.176	1421.62
275.408	1410.62
275.64	1382.62
275.872	1344.62
276.104	1453.62
276.335	1633.62
276.567	1843.62
276.799	1906.62
277.031	1721.62
277.262	1595.62
277.494	1637.62
277.726	1816.62
277.957	1811.62
278.189	1637.62
278.421	1539.62
278.652	1495.62
278.884	1439.62
279.115	1443.62
279.347	1509.62
279.579	1463.62
279.81	1461.62
280.042	1599.62
280.273	1774.62
280.505	1784.62
280.736	1797.62
280.968	1706.62
281.199	1467.62
281.431	1430.62
281.662	1434.62
281.894	1417.62
282.125	1467.62
282.356	1515.62
282.588	1564.62
282.819	1499.62
283.051	1662.62
283.282	1781.62
283.513	1716.62
283.745	1517.62
283.976	1392.62
284.207	1405.62
284.439	1490.62
284.67	1488.62
284.901	1502.62
285.132	1534.62
285.364	1527.62
285.595	1530.62
285.826	1505.62
286.057	1458.62
286.288	1463.62
286.52	1568.62
286.751	1657.62
286.982	1723.62
287.213	1579.62
287.444	1443.62
287.675	1395.62
287.906	1475.62
288.138	1666.62
288.369	1573.62
288.6	1474.62
288.831	1438.62
289.062	1463.62
289.293	1495.62
289.524	1490.62
289.755	1516.62
289.986	1558.62
290.217	1431.62
290.448	1470.62
290.679	1535.62
290.91	1521.62
291.141	1573.62
291.371	1634.62
291.602	1588.62
291.833	1553.62
292.064	1610.62
292.295	1627.62
292.526	1642.62
292.757	1721.62
292.987	1663.62
293.218	1537.62
293.449	1667.62
293.68	1855.62
293.91	2059.62
294.141	1894.62
294.372	1754.62
294.603	1763.62
294.833	1887.62
295.064	1776.62
295.295	1594.62
295.525	1607.62
295.756	1481.62
295.987	1404.62
296.217	1450.62
296.448	1447.62
296.679	1479.62
296.909	1486.62
297.14	1465.62
297.37	1499.62
297.601	1558.62
297.831	1678.62
298.062	1719.62
298.292	1577.62
298.523	1475.62
298.753	1486.62
298.984	1551.62
299.214	1509.62
299.445	1525.62
299.675	1628.62
299.905	1635.62
300.136	1555.62
300.366	1526.62
300.597	1502.62
300.827	1485.62
301.057	1553.62
301.288	1605.62
301.518	1617.62
301.748	1634.62
301.979	1715.62
302.209	1732.62
302.439	1845.62
302.669	1944.62
302.9	1811.62
303.13	1621.62
303.36	1640.62
303.59	1668.62
303.82	1629.62
304.051	1605.62
304.281	1589.62
304.511	1605.62
304.741	1686.62
304.971	1877.62
305.201	2081.62
305.431	1955.62
305.661	1604.62
305.891	1413.62
306.121	1441.62
306.352	1498.62
306.582	1558.62
306.812	1669.62
307.042	1834.62
307.272	1803.62
307.502	1859.62
307.731	1960.62
307.961	2157.62
308.191	1949.62
308.421	1706.62
308.651	1573.62
308.881	1563.62
309.111	1551.62
309.341	1563.62
309.571	1562.62
309.8	1561.62
310.03	1568.62
310.26	1544.62
310.49	1553.62
310.72	1603.62
310.949	1672.62
311.179	1669.62
311.409	1652.62
311.639	1650.62
311.868	1550.62
312.098	1539.62
312.328	1600.62
312.557	1554.62
312.787	1601.62
313.017	1645.62
313.246	1628.62
313.476	1638.62
313.706	1706.62
313.935	1698.62
314.165	1661.62
314.394	1717.62
314.624	1801.62
314.853	1907.62
315.083	1955.62
315.312	2059.62
315.542	1916.62
315.771	1701.62
316.001	1697.62
316.23	1815.62
316.46	1798.62
316.689	1757.62
316.919	1653.62
317.148	1576.62
317.377	1596.62
317.607	1729.62
317.836	1958.62
318.065	2015.62
318.295	1957.62
318.524	1860.62
318.753	1786.62
318.983	1799.62
319.212	1745.62
319.441	1717.62
319.67	1717.62
319.9	1722.62
320.129	1811.62
320.358	1892.62
320.587	1940.62
320.816	1939.62
321.046	1894.62
321.275	1781.62
321.504	1780.62
321.733	1917.62
321.962	1860.62
322.191	1741.62
322.42	1742.62
322.649	1707.62
322.878	1717.62
323.108	1707.62
323.337	1761.62
323.566	1796.62
323.795	1777.62
324.024	1784.62
324.253	1697.62
324.482	1787.62
324.71	1690.62
324.939	1604.62
325.168	1656.62
325.397	1693.62
325.626	1764.62
325.855	1766.62
326.084	1720.62
326.313	1726.62
326.542	1754.62
326.77	1815.62
326.999	1849.62
327.228	1741.62
327.457	1642.62
327.686	1619.62
327.914	1695.62
328.143	1703.62
328.372	1725.62
328.6	1720.62
328.829	1719.62
329.058	1685.62
329.287	1682.62
329.515	1710.62
329.744	1785.62
329.972	1845.62
330.201	1943.62
330.43	1896.62
330.658	1799.62
330.887	1826.62
331.115	1817.62
331.344	1865.62
331.572	1822.62
331.801	1787.62
332.03	1807.62
332.258	1799.62
332.486	1868.62
332.715	1883.62
332.943	1837.62
333.172	1814.62
333.4	1849.62
333.629	1904.62
333.857	1999.62
334.085	2212.62
334.314	2422.62
334.542	2774.62
334.771	2540.62
334.999	2225.62
335.227	2092.62
335.455	1973.62
335.684	1916.62
335.912	2002.62
336.14	2064.62
336.369	2028.62
336.597	1892.62
336.825	1836.62
337.053	1864.62
337.281	1965.62
337.51	2093.62
337.738	2205.62
337.966	2125.62
338.194	1933.62
338.422	1819.62
338.65	1823.62
338.878	1814.62
339.106	1776.62
339.334	1723.62
339.562	1690.62
339.79	1756.62
340.018	1865.62
340.246	1913.62
340.474	1959.62
340.702	1857.62
340.93	1883.62
341.158	1849.62
341.386	1832.62
341.614	1797.62
341.842	1808.62
342.07	1815.62
342.298	1831.62
342.526	1804.62
342.754	1811.62
342.981	1773.62
343.209	1742.62
343.437	1746.62
343.665	1742.62
343.893	1846.62
344.12	1923.62
344.348	1969.62
344.576	1830.62
344.804	1805.62
345.031	1777.62
345.259	1804.62
345.487	1739.62
345.714	1664.62
345.942	1640.62
346.17	1689.62
346.397	1730.62
346.625	1731.62
346.853	1636.62
347.08	1596.62
347.308	1632.62
347.535	1631.62
347.763	1727.62
347.99	1688.62
348.218	1630.62
348.445	1612.62
348.673	1672.62
348.9	1715.62
349.128	1713.62
349.355	1842.62
349.583	1715.62
349.81	1675.62
350.037	1565.62
350.265	1578.62
350.492	1589.62
350.72	1644.62
350.947	1692.62
351.174	1713.62
351.402	1660.62
351.629	1608.62
351.856	1547.62
352.083	1542.62
352.311	1554.62
352.538	1614.62
352.765	1693.62
352.992	1758.62
353.22	1646.62
353.447	1591.62
353.674	1591.62
353.901	1677.62
354.128	1597.62
354.355	1622.62
354.583	1648.62
354.81	1753.62
355.037	1704.62
355.264	1711.62
355.491	1630.62
355.718	1678.62
355.945	1658.62
356.172	1606.62
356.399	1549.62
356.626	1601.62
356.853	1647.62
357.08	1769.62
357.307	1981.62
357.534	1947.62
357.761	1693.62
357.988	1614.62
358.215	1559.62
358.441	1598.62
358.668	1581.62
358.895	1567.62
359.122	1644.62
359.349	1857.62
359.576	1834.62
359.802	1688.62
360.029	1590.62
360.256	1566.62
360.483	1592.62
360.709	1628.62
360.936	1698.62
361.163	1775.62
361.39	1923.62
361.616	2091.62
361.843	2013.62
362.07	1925.62
362.296	1669.62
362.523	1613.62
362.749	1601.62
362.976	1680.62
363.203	1737.62
363.429	1653.62
363.656	1568.62
363.882	1645.62
364.109	1788.62
364.335	1989.62
364.562	1845.62
364.788	1753.62
365.015	1645.62
365.241	1577.62
365.468	1653.62
365.694	1718.62
365.92	1820.62
366.147	1719.62
366.373	1628.62
366.599	1583.62
366.826	1571.62
367.052	1597.62
367.278	1625.62
367.505	1635.62
367.731	1662.62
367.957	1638.62
368.184	1708.62
368.41	1803.62
368.636	1846.62
368.862	1828.62
369.089	1879.62
369.315	1779.62
369.541	1751.62
369.767	1657.62
369.993	1594.62
370.219	1633.62
370.445	1643.62
370.672	1720.62
370.898	1827.62
371.124	1861.62
371.35	1699.62
371.576	1791.62
371.802	1870.62
372.028	1775.62
372.254	1707.62
372.48	1646.62
372.706	1648.62
372.932	1622.62
373.158	1645.62
373.384	1701.62
373.61	1717.62
373.835	1809.62
374.061	1766.62
374.287	1721.62
374.513	1734.62
374.739	1709.62
374.965	1785.62
375.191	1740.62
375.416	1785.62
375.642	1766.62
375.868	1875.62
376.094	1931.62
376.319	1837.62
376.545	1719.62
376.771	1762.62
376.997	1841.62
377.222	1833.62
377.448	1748.62
377.674	1802.62
377.899	1753.62
378.125	1905.62
378.35	1923.62
378.576	1702.62
378.802	1689.62
379.027	1638.62
379.253	1691.62
379.478	1724.62
379.704	1713.62
379.929	1729.62
380.155	1677.62
380.38	1749.62
380.606	1753.62
380.831	1734.62
381.057	1820.62
381.282	1843.62
381.507	1845.62
381.733	1861.62
381.958	2049.62
382.184	1826.62
382.409	1802.62
382.634	1838.62
382.86	1800.62
383.085	1810.62
383.31	1828.62
383.535	1970.62
383.761	2117.62
383.986	1993.62
384.211	1932.62
384.436	1913.62
384.662	1989.62
384.887	2066.62
385.112	1994.62
385.337	2035.62
385.562	1969.62
385.787	1972.62
386.013	1999.62
386.238	2059.62
386.463	1982.62
386.688	2103.62
386.913	2210.62
387.138	2204.62
387.363	2024.62
387.588	2095.62
387.813	2007.62
388.038	2015.62
388.263	2072.62
388.488	2049.62
388.713	1875.62
388.938	1861.62
389.163	1880.62
389.387	1946.62
389.612	1937.62
389.837	1976.62
390.062	1992.62
390.287	1958.62
390.512	1947.62
390.736	1922.62
390.961	1889.62
391.186	1834.62
391.411	1917.62
391.636	1937.62
391.86	1987.62
392.085	1977.62
392.31	1994.62
392.534	1976.62
392.759	1989.62
392.984	1950.62
393.208	2049.62
393.433	2114.62
393.658	2157.62
393.882	2123.62
394.107	2041.62
394.331	1939.62
394.556	1963.62
394.78	1991.62
395.005	2023.62
395.229	2137.62
395.454	2254.62
395.678	2335.62
395.903	2148.62
396.127	2071.62
396.352	2101.62
396.576	2149.62
396.801	2189.62
397.025	2215.62
397.249	2176.62
397.474	2129.62
397.698	2110.62
397.922	2153.62
398.147	2259.62
398.371	2346.62
398.595	2346.62
398.82	2256.62
399.044	2337.62
399.268	2352.62
399.492	2567.62
399.717	2641.62
399.941	2710.62
400.165	2589.62
400.389	2517.62
400.613	2525.62
400.837	2700.62
401.062	3123.62
401.286	2694.62
401.51	2489.62
401.734	2569.62
401.958	2461.62
402.182	2365.62
402.406	2241.62
402.63	2196.62
402.854	2213.62
403.078	2230.62
403.302	2371.62
403.526	2345.62
403.75	2388.62
403.974	2364.62
404.198	2335.62
404.422	2407.62
404.645	2516.62
404.869	2504.62
405.093	2304.62
405.317	2278.62
405.541	2337.62
405.765	2377.62
405.988	2348.62
406.212	2403.62
406.436	2435.62
406.66	2503.62
406.883	2487.62
407.107	2793.62
407.331	3013.62
407.555	3241.62
407.778	3041.62
408.002	2518.62
408.226	2447.62
408.449	2475.62
408.673	2405.62
408.896	2391.62
409.12	2481.62
409.344	2385.62
409.567	2311.62
409.791	2354.62
410.014	2402.62
410.238	2461.62
410.461	2644.62
410.685	2408.62
410.908	2300.62
411.132	2307.62
411.355	2353.62
411.578	2324.62
411.802	2268.62
412.025	2357.62
412.249	2269.62
412.472	2214.62
412.695	2241.62
412.919	2206.62
413.142	2211.62
413.365	2254.62
413.589	2295.62
413.812	2419.62
414.035	2473.62
414.258	2317.62
414.482	2210.62
414.705	2250.62
414.928	2181.62
415.151	2204.62
415.374	2251.62
415.597	2305.62
415.821	2294.62
416.044	2395.62
416.267	2355.62
416.49	2150.62
416.713	2156.62
416.936	2213.62
417.159	2264.62
417.382	2316.62
417.605	2144.62
417.828	2277.62
418.051	2309.62
418.274	2236.62
418.497	2198.62
418.72	2177.62
418.943	2123.62
419.166	2300.62
419.389	2384.62
419.611	2276.62
419.834	2211.62
420.057	2252.62
420.28	2161.62
420.503	2151.62
420.726	2222.62
420.948	2215.62
421.171	2135.62
421.394	2149.62
421.617	2255.62
421.839	2215.62
422.062	2174.62
422.285	2078.62
422.507	2108.62
422.73	2092.62
422.953	2049.62
423.175	2063.62
423.398	2129.62
423.621	2115.62
423.843	2158.62
424.066	2225.62
424.288	2240.62
424.511	2307.62
424.733	2233.62
424.956	2061.62
425.178	2028.62
425.401	2059.62
425.623	2104.62
425.846	2086.62
426.068	2193.62
426.291	2277.62
426.513	2197.62
426.735	2207.62
426.958	2284.62
427.18	2439.62
427.402	2252.62
427.625	2317.62
427.847	2386.62
428.069	2174.62
428.292	2165.62
428.514	2036.62
428.736	2054.62
428.958	2077.62
429.181	2112.62
429.403	2349.62
429.625	2875.62
429.847	2549.62
430.069	2122.62
430.292	2350.62
430.514	2455.62
430.736	2241.62
430.958	2354.62
431.18	2285.62
431.402	2131.62
431.624	2050.62
431.846	2099.62
432.068	2015.62
432.29	2041.62
432.512	2094.62
432.734	2109.62
432.956	2175.62
433.178	2247.62
433.4	2226.62
433.622	2247.62
433.844	2118.62
434.066	2026.62
434.287	2041.62
434.509	2121.62
434.731	2284.62
434.953	2396.62
435.175	2335.62
435.397	2196.62
435.618	2230.62
435.84	2238.62
436.062	2174.62
436.284	2178.62
436.505	2235.62
436.727	2229.62
436.949	2153.62
437.17	2081.62
437.392	2053.62
437.614	2115.62
437.835	2012.62
438.057	2190.62
438.278	2289.62
438.5	2131.62
438.721	2066.62
438.943	2123.62
439.165	2049.62
439.386	2078.62
439.608	2029.62
439.829	2085.62
440.05	2127.62
440.272	2063.62
440.493	2044.62
440.715	2109.62
440.936	2213.62
441.158	2420.62
441.379	2406.62
441.6	2273.62
441.822	2251.62
442.043	2200.62
442.264	2150.62
442.486	2062.62
442.707	2081.62
442.928	2079.62
443.149	2186.62
443.371	2270.62
443.592	2369.62
443.813	2267.62
444.034	2280.62
444.255	2283.62
444.476	2328.62
444.698	2406.62
444.919	2343.62
445.14	2437.62
445.361	2444.62
445.582	2521.62
445.803	2390.62
446.024	2276.62
446.245	2401.62
446.466	2304.62
446.687	2138.62
446.908	2203.62
447.129	2101.62
447.35	2128.62
447.571	2141.62
447.792	2002.62
448.013	2042.62
448.234	2113.62
448.455	2170.62
448.675	2249.62
448.896	2007.62
449.117	1974.62
449.338	2008.62
449.559	2114.62
449.779	2215.62
450	2440.62
450.221	2662.62
450.442	2593.62
450.662	2237.62
450.883	2005.62
451.104	1951.62
451.324	1985.62
451.545	2081.62
451.766	2049.62
451.986	1932.62
452.207	1927.62
452.428	1861.62
452.648	1837.62
452.869	1898.62
453.089	2042.62
453.31	2071.62
453.53	2072.62
453.751	2014.62
453.971	1856.62
454.192	1935.62
454.412	2070.62
454.633	1942.62
454.853	1940.62
455.073	1812.62
455.294	1802.62
455.514	1795.62
455.734	1851.62
455.955	1849.62
456.175	1869.62
456.395	1855.62
456.616	1899.62
456.836	1969.62
457.056	1867.62
457.276	1894.62
457.497	1875.62
457.717	1809.62
457.937	1867.62
458.157	1856.62
458.377	1828.62
458.598	1827.62
458.818	1886.62
459.038	1978.62
459.258	2145.62
459.478	2152.62
459.698	2063.62
459.918	2086.62
460.138	2215.62
460.358	2218.62
460.578	2246.62
460.798	2323.62
461.018	2425.62
461.238	2312.62
461.458	2205.62
461.678	2232.62
461.898	2192.62
462.118	2122.62
462.338	2264.62
462.558	2237.62
462.777	2246.62
462.997	2325.62
463.217	2465.62
463.437	2454.62
463.657	2295.62
463.876	2189.62
464.096	2243.62
464.316	2215.62
464.536	2302.62
464.755	2325.62
464.975	2353.62
465.195	2253.62
465.414	2354.62
465.634	2331.62
465.854	2211.62
466.073	2366.62
466.293	2284.62
466.512	2006.62
466.732	2006.62
466.951	2124.62
467.171	2095.62
467.391	2021.62
467.61	1967.62
467.829	1978.62
468.049	2143.62
468.268	2434.62
468.488	2273.62
468.707	2172.62
468.927	2116.62
469.146	2010.62
469.365	2005.62
469.585	2019.62
469.804	2005.62
470.023	2014.62
470.243	2058.62
470.462	2046.62
470.681	1999.62
470.901	2050.62
471.12	2057.62
471.339	2007.62
471.558	1939.62
471.777	1931.62
471.997	1981.62
472.216	2022.62
472.435	1951.62
472.654	1965.62
472.873	2047.62
473.092	2193.62
473.311	2043.62
473.53	1923.62
473.749	1933.62
473.968	1994.62
474.187	2146.62
474.406	2224.62
474.625	2105.62
474.844	2048.62
475.063	2022.62
475.282	2125.62
475.501	2045.62
475.72	2085.62
475.939	2193.62
476.158	2117.62
476.377	2070.62
476.596	2064.62
476.814	2137.62
477.033	2169.62
477.252	2249.62
477.471	2300.62
477.69	2186.62
477.908	2121.62
478.127	2241.62
478.346	2457.62
478.564	2499.62
478.783	2462.62
479.002	2469.62
479.22	2401.62
479.439	2545.62
479.658	2877.62
479.876	2841.62
480.095	2474.62
480.313	2382.62
480.532	2269.62
480.751	2281.62
480.969	2315.62
481.188	2317.62
481.406	2263.62
481.624	2235.62
481.843	2274.62
482.061	2331.62
482.28	2340.62
482.498	2396.62
482.717	2366.62
482.935	2273.62
483.153	2247.62
483.372	2251.62
483.59	2204.62
483.808	2259.62
484.027	2317.62
484.245	2458.62
484.463	2806.62
484.681	3197.62
484.9	2497.62
485.118	2301.62
485.336	2319.62
485.554	2393.62
485.772	2532.62
485.99	2433.62
486.209	2491.62
486.427	2476.62
486.645	2435.62
486.863	2392.62
487.081	2477.62
487.299	2506.62
487.517	2449.62
487.735	2343.62
487.953	2355.62
488.171	2370.62
488.389	2334.62
488.607	2373.62
488.825	2571.62
489.043	2620.62
489.261	2347.62
489.479	2485.62
489.696	2530.62
489.914	2563.62
490.132	2445.62
490.35	2387.62
490.568	2452.62
490.786	2440.62
491.003	2303.62
491.221	2404.62
491.439	2454.62
491.657	2481.62
491.874	2417.62
492.092	2458.62
492.31	2445.62
492.527	2455.62
492.745	2439.62
492.963	2444.62
493.18	2498.62
493.398	2705.62
493.615	2766.62
493.833	2551.62
494.05	2469.62
494.268	2487.62
494.485	2534.62
494.703	2498.62
494.92	2410.62
495.138	2428.62
495.355	2481.62
495.573	2528.62
495.79	2739.62
496.008	2801.62
496.225	2625.62
496.442	2600.62
496.66	2673.62
496.877	2641.62
497.094	2661.62
497.312	2711.62
497.529	2734.62
497.746	2711.62
497.963	3191.62
498.181	3647.62
498.398	3333.62
498.615	3235.62
498.832	3202.62
499.049	3115.62
499.267	3171.62
499.484	3330.62
499.701	3646.62
499.918	3727.62
500.135	3982.62
500.352	4263.62
500.569	4189.62
500.786	4449.62
501.003	4149.62
501.22	3755.62
501.437	3681.62
501.654	3713.62
501.871	3567.62
502.088	3114.62
502.305	3182.62
502.522	3042.62
502.739	2841.62
502.956	2753.62
503.172	2737.62
503.389	2628.62
503.606	2640.62
503.823	2642.62
504.04	2587.62
504.256	2642.62
504.473	2611.62
504.69	2765.62
504.907	2594.62
505.123	2430.62
505.34	2534.62
505.557	3331.62
505.773	2903.62
505.99	2388.62
506.207	2244.62
506.423	2237.62
506.64	2217.62
506.856	2231.62
507.073	2523.62
507.289	2718.62
507.506	2619.62
507.722	2270.62
507.939	2143.62
508.155	2112.62
508.372	2194.62
508.588	2063.62
508.805	2063.62
509.021	2059.62
509.238	2031.62
509.454	2003.62
509.67	2028.62
509.887	1990.62
510.103	1980.62
510.319	2026.62
510.536	2152.62
510.752	2183.62
510.968	2191.62
511.184	2321.62
511.401	2323.62
511.617	2024.62
511.833	1974.62
512.049	1937.62
512.265	1959.62
512.481	1972.62
512.698	2049.62
512.914	2199.62
513.13	2083.62
513.346	1990.62
513.562	1970.62
513.778	1998.62
513.994	2075.62
514.21	2155.62
514.426	2158.62
514.642	2421.62
514.858	2270.62
515.074	2078.62
515.29	2009.62
515.506	2053.62
515.721	2104.62
515.937	2110.62
516.153	2452.62
516.369	2286.62
516.585	2118.62
516.801	2071.62
517.016	2048.62
517.232	2087.62
517.448	2183.62
517.664	2179.62
517.879	2217.62
518.095	2298.62
518.311	2223.62
518.527	2103.62
518.742	2084.62
518.958	2017.62
519.173	2047.62
519.389	2060.62
519.605	2038.62
519.82	2064.62
520.036	2097.62
520.251	2009.62
520.467	2047.62
520.682	2189.62
520.898	2323.62
521.113	2008.62
521.329	1961.62
521.544	2078.62
521.76	1994.62
521.975	1928.62
522.19	1907.62
522.406	1889.62
522.621	2309.62
522.836	2237.62
523.052	1876.62
523.267	1850.62
523.482	1874.62
523.698	1827.62
523.913	1761.62
524.128	1834.62
524.343	1979.62
524.559	1958.62
524.774	1885.62
524.989	1845.62
525.204	1845.62
525.419	1758.62
525.634	1742.62
525.849	1798.62
526.064	1832.62
526.28	1831.62
526.495	1818.62
526.71	1768.62
526.925	1730.62
527.14	1729.62
527.355	1731.62
527.57	1691.62
527.785	1778.62
527.999	1742.62
528.214	1667.62
528.429	1666.62
528.644	1698.62
528.859	1693.62
529.074	1687.62
529.289	1715.62
529.503	1757.62
529.718	1756.62
529.933	1717.62
530.148	1644.62
530.363	1690.62
530.577	1693.62
530.792	1744.62
531.007	1733.62
531.221	1687.62
531.436	1703.62
531.651	1783.62
531.865	1884.62
532.08	1831.62
532.295	1692.62
532.509	1621.62
532.724	1661.62
532.938	1745.62
533.153	1842.62
533.367	1763.62
533.582	1741.62
533.796	1721.62
534.011	1722.62
534.225	1717.62
534.44	1685.62
534.654	1659.62
534.868	1655.62
535.083	1741.62
535.297	1710.62
535.511	1678.62
535.726	1678.62
535.94	1676.62
536.154	1654.62
536.369	1629.62
536.583	1625.62
536.797	1629.62
537.011	1666.62
537.225	1615.62
537.44	1599.62
537.654	1693.62
537.868	1610.62
538.082	1529.62
538.296	1548.62
538.51	1531.62
538.724	1542.62
538.938	1573.62
539.153	1611.62
539.367	1609.62
539.581	1644.62
539.795	1701.62
540.009	1667.62
540.222	1604.62
540.436	1612.62
540.65	1782.62
540.864	1808.62
541.078	1669.62
541.292	1586.62
541.506	1623.62
541.72	1612.62
541.934	1612.62
542.147	1642.62
542.361	1600.62
542.575	1547.62
542.789	1539.62
543.002	1497.62
543.216	1572.62
543.43	1633.62
543.644	1716.62
543.857	1731.62
544.071	1676.62
544.285	1613.62
544.498	1610.62
544.712	1615.62
544.925	1641.62
545.139	1674.62
545.352	1598.62
545.566	1552.62
545.779	1504.62
545.993	1549.62
546.206	1588.62
546.42	1541.62
546.633	1494.62
546.847	1467.62
547.06	1492.62
547.274	1522.62
547.487	1503.62
547.7	1525.62
547.914	1523.62
548.127	1559.62
548.34	1559.62
548.554	1556.62
548.767	1543.62
548.98	1550.62
549.193	1535.62
549.407	1577.62
549.62	1624.62
549.833	1544.62
550.046	1531.62
550.259	1482.62
550.473	1488.62
550.686	1521.62
550.899	1478.62
551.112	1477.62
551.325	1431.62
551.538	1521.62
551.751	1798.62
551.964	1448.62
552.177	1424.62
552.39	1459.62
552.603	1475.62
552.816	1488.62
553.029	1585.62
553.242	1576.62
553.455	1538.62
553.667	1521.62
553.88	1479.62
554.093	1451.62
554.306	1419.62
554.519	1430.62
554.732	1382.62
554.944	1413.62
555.157	1433.62
555.37	1413.62
555.583	1405.62
555.795	1390.62
556.008	1347.62
556.221	1326.62
556.433	1334.62
556.646	1330.62
556.859	1321.62
557.071	1317.62
557.284	1296.62
557.496	1309.62
557.709	1289.62
557.921	1247.62
558.134	1258.62
558.346	1270.62
558.559	1269.62
558.771	1231.62
558.984	1235.62
559.196	1206.62
559.409	1223.62
559.621	1215.62
559.833	1230.62
560.046	1271.62
560.258	1287.62
560.47	1246.62
560.683	1241.62
560.895	1233.62
561.107	1239.62
561.32	1235.62
561.532	1250.62
561.744	1234.62
561.956	1244.62
562.168	1213.62
562.381	1181.62
562.593	1207.62
562.805	1239.62
563.017	1176.62
563.229	1211.62
563.441	1257.62
563.653	1220.62
563.865	1209.62
564.077	1202.62
564.289	1209.62
564.501	1205.62
564.713	1256.62
564.925	1290.62
565.137	1418.62
565.349	1270.62
565.561	1277.62
565.773	1293.62
565.985	1349.62
566.197	1394.62
566.408	1473.62
566.62	1499.62
566.832	1468.62
567.044	1473.62
567.255	1480.62
567.467	1472.62
567.679	1546.62
567.891	1556.62
568.102	1511.62
568.314	1468.62
568.526	1403.62
568.737	1362.62
568.949	1316.62
569.161	1228.62
569.372	1204.62
569.584	1191.62
569.795	1166.62
570.007	1187.62
570.218	1154.62
570.43	1116.62
570.641	1103.62
570.853	1108.62
571.064	1089.62
571.276	1102.62
571.487	1077.62
571.698	1061.62
571.91	1053.62
572.121	1022.62
572.333	1016.62
572.544	1037.62
572.755	1001.62
572.966	975.62
573.178	982.62
573.389	997.62
573.6	1010.62
573.811	1056.62
574.023	1020.62
574.234	982.62
574.445	954.62
574.656	934.62
574.867	939.62
575.078	933.62
575.289	945.62
575.501	926.62
575.712	909.62
575.923	909.62
576.134	912.62
576.345	911.62
576.556	906.62
576.767	871.62
576.978	879.62
577.188	871.62
577.399	863.62
577.61	842.62
577.821	847.62
578.032	836.62
578.243	856.62
578.454	868.62
578.665	849.62
578.875	829.62
579.086	821.62
579.297	830.62
579.508	855.62
579.718	875.62
579.929	832.62
580.14	805.62
580.35	828.62
580.561	838.62
580.772	904.62
580.982	842.62
581.193	837.62
581.403	807.62
581.614	805.62
581.825	788.62
582.035	805.62
582.246	799.62
582.456	828.62
582.667	809.62
582.877	794.62
583.087	808.62
583.298	773.62
583.508	750.62
583.719	769.62
583.929	809.62
584.139	794.62
584.35	770.62
584.56	776.62
584.77	771.62
584.981	782.62
585.191	787.62
585.401	813.62
585.611	767.62
585.821	742.62
586.032	751.62
586.242	735.62
586.452	738.62
586.662	750.62
586.872	747.62
587.082	742.62
587.292	799.62
587.502	763.62
587.713	792.62
587.923	742.62
588.133	755.62
588.343	773.62
588.553	743.62
588.762	747.62
588.972	732.62
589.182	773.62
589.392	758.62
589.602	747.62
589.812	748.62
590.022	740.62
590.232	711.62
590.441	727.62
590.651	755.62
590.861	754.62
591.071	709.62
591.281	728.62
591.49	739.62
591.7	732.62
591.91	741.62
592.119	737.62
592.329	740.62
592.539	775.62
592.748	766.62
592.958	771.62
593.167	775.62
593.377	765.62
593.587	760.62
593.796	765.62
594.006	764.62
594.215	783.62
594.424	772.62
594.634	765.62
594.843	755.62
595.053	755.62
595.262	736.62
595.472	757.62
595.681	716.62
595.89	703.62
596.1	691.62
596.309	708.62
596.518	681.62
596.727	697.62
596.937	706.62
597.146	664.62
597.355	658.62
597.564	655.62
597.774	634.62
597.983	640.62
598.192	646.62
598.401	615.62
598.61	628.62
598.819	640.62
599.028	647.62
599.237	637.62
599.446	614.62
599.655	584.62
599.864	601.62
600.073	604.62
600.282	614.62
600.491	593.62
600.7	580.62
600.909	611.62
601.118	582.62
601.327	617.62
601.536	625.62
601.745	593.62
601.953	607.62
602.162	591.62
602.371	612.62
602.58	604.62
602.789	581.62
602.997	594.62
603.206	606.62
603.415	600.62
603.623	583.62
603.832	599.62
604.041	582.62
604.249	566.62
604.458	593.62
604.666	573.62
604.875	573.62
605.084	583.62
605.292	587.62
605.501	584.62
605.709	586.62
605.918	565.62
606.126	561.62
606.334	575.62
606.543	565.62
606.751	575.62
606.96	580.62
607.168	558.62
607.376	525.62
607.585	561.62
607.793	541.62
608.001	557.62
608.21	540.62
608.418	552.62
608.626	564.62
608.834	518.62
609.043	539.62
609.251	547.62
609.459	532.62
609.667	546.62
609.875	556.62
610.083	565.62
610.291	543.62
610.499	549.62
610.707	558.62
610.916	530.62
611.124	539.62
611.332	561.62
611.54	527.62
611.748	517.62
611.955	523.62
612.163	513.62
612.371	531.62
612.579	511.62
612.787	533.62
612.995	530.62
613.203	547.62
613.411	531.62
613.618	540.62
613.826	539.62
614.034	527.62
614.242	522.62
614.449	534.62
614.657	535.62
614.865	511.62
615.072	513.62
615.28	518.62
615.488	526.62
615.695	538.62
615.903	499.62
616.111	493.62
616.318	524.62
616.526	515.62
616.733	509.62
616.941	478.62
617.148	506.62
617.356	518.62
617.563	492.62
617.771	521.62
617.978	489.62
618.185	501.62
618.393	479.62
618.6	492.62
618.807	507.62
619.015	492.62
619.222	494.62
619.429	497.62
619.637	494.62
619.844	472.62
620.051	484.62
620.258	490.62
620.466	472.62
620.673	485.62
620.88	467.62
621.087	464.62
621.294	449.62
621.501	458.62
621.708	487.62
621.915	465.62
622.122	472.62
622.329	478.62
622.536	453.62
622.743	463.62
622.95	447.62
623.157	438.62
623.364	460.62
623.571	461.62
623.778	443.62
623.985	441.62
624.192	454.62
624.399	437.62
624.606	437.62
624.812	455.62
625.019	437.62
625.226	425.62
625.433	441.62
625.639	430.62
625.846	444.62
626.053	437.62
626.259	438.62
626.466	407.62
626.673	397.62
626.879	413.62
627.086	408.62
627.293	426.62
627.499	423.62
627.706	419.62
627.912	411.62
628.119	445.62
628.325	381.62
628.532	410.62
628.738	404.62
628.945	404.62
629.151	416.62
629.357	422.62
629.564	434.62
629.77	415.62
629.976	391.62
630.183	398.62
630.389	395.62
630.595	394.62
630.802	386.62
631.008	390.62
631.214	378.62
631.42	399.62
631.627	373.62
631.833	375.62
632.039	376.62
632.245	378.62
632.451	370.62
632.657	363.62
632.863	369.62
633.069	362.62
633.275	363.62
633.481	373.62
633.688	381.62
633.893	364.62
634.099	355.62
634.305	349.62
634.511	350.62
634.717	359.62
634.923	365.62
635.129	349.62
635.335	356.62
635.541	346.62
635.747	355.62
635.952	347.62
636.158	359.62
636.364	351.62
636.57	353.62
636.775	342.62
636.981	357.62
637.187	362.62
637.392	351.62
637.598	349.62
637.804	355.62
638.009	373.62
638.215	351.62
638.421	341.62
638.626	354.62
638.832	337.62
639.037	337.62
639.243	334.62
639.448	336.62
639.654	323.62
639.859	322.62
640.065	329.62
640.27	329.62
640.475	325.62
640.681	347.62
640.886	338.62
641.091	339.62
641.297	331.62
641.502	333.62
641.707	328.62
641.913	340.62
642.118	317.62
642.323	317.62
642.528	334.62
642.733	324.62
642.939	318.62
643.144	315.62
643.349	329.62
643.554	345.62
643.759	317.62
643.964	322.62
644.169	321.62
644.374	330.62
644.579	323.62
644.784	334.62
644.989	315.62
645.194	311.62
645.399	305.62
645.604	317.62
645.809	312.62
646.014	339.62
646.219	313.62
646.423	314.62
646.628	322.62
646.833	316.62
647.038	323.62
647.243	316.62
647.447	294.62
647.652	307.62
647.857	334.62
648.062	338.62
648.266	324.62
648.471	298.62
648.676	321.62
648.88	339.62
649.085	318.62
649.289	317.62
649.494	308.62
649.698	322.62
649.903	309.62
650.107	297.62
650.312	322.62
650.516	308.62
650.721	302.62
650.925	313.62
651.13	278.62
651.334	309.62
651.539	290.62
651.743	277.62
651.947	268.62
652.152	267.62
652.356	273.62
652.56	252.62
652.764	275.62
652.969	275.62
653.173	269.62
653.377	247.62
653.581	246.62
653.785	234.62
653.99	245.62
654.194	247.62
654.398	229.62
654.602	233.62
654.806	243.62
655.01	234.62
655.214	249.62
655.418	228.62
655.622	234.62
655.826	230.62
656.03	236.62
656.234	273.62
656.438	266.62
656.642	262.62
656.846	246.62
657.049	229.62
657.253	204.62
657.457	198.62
657.661	204.62
657.865	194.62
658.068	170.62
658.272	147.62
658.476	167.62
658.68	158.62
658.883	150.62
659.087	135.62
659.291	141.62
659.494	135.62
659.698	139.62
659.901	125.62
660.105	129.62
660.309	122.62
660.512	123.62
660.716	119.62
660.919	110.62
661.123	108.62
661.326	115.62
661.53	106.62
661.733	99.62
661.936	93.62
662.14	100.62
662.343	102.62
662.546	110.62
662.75	93.62
662.953	97.62
663.156	104.62
663.36	91.62
663.563	94.62
663.766	84.62
663.969	77.62
664.173	77.62
664.376	89.62
664.579	84.62
664.782	106.62
664.985	89.62
665.188	84.62
665.391	94.62
665.594	102.62
665.797	99.62
666	81.62
666.203	84.62
666.406	91.62
666.609	92.62
666.812	94.62
667.015	93.62
667.218	82.62
667.421	80.62
667.624	94.62
667.827	102.62
668.03	79.62
668.232	77.62
668.435	104.62
668.638	89.62
668.841	95.62
669.043	91.62
669.246	87.62
669.449	78.62
669.651	74.62
669.854	94.62
670.057	74.62
670.259	91.62
670.462	86.62
670.665	78.62
670.867	79.62
671.07	88.62
671.272	85.62
671.475	85.62
671.677	86.62
671.88	76.62
672.082	72.62
672.284	79.62
672.487	93.62
672.689	98.62
672.892	70.62
