Data from WStandard_LampEnergy5.5LIBS07252019.E.O._I.C._HRD10591_16-08-14-921.txt Node
Date: Thu Jul 25 16:08:14 EDT 2019
User: cochatt
Spectrometer: HR+D1059
Trigger mode: 1
Integration Time (sec): 1.000000E-1
Scans to average: 1
Electric dark correction enabled: true
Nonlinearity correction enabled: false
Boxcar width: 0
XAxis mode: Wavelengths
Number of Pixels in Spectrum: 2048
>>>>>Begin Spectral Data<<<<<
223.165	-3.12
223.4	-3.12
223.635	-3.12
223.869	-23.12
224.104	-30.12
224.338	-2.12
224.573	-1.12
224.808	-4.12
225.042	-7.12
225.277	-21.12
225.511	3.88
225.746	-2.12
225.98	-2.12
226.215	7.88
226.449	22.88
226.683	13.88
226.918	24.88
227.152	22.88
227.387	33.88
227.621	33.88
227.856	47.88
228.09	46.88
228.324	49.88
228.559	60.88
228.793	152.88
229.027	351.88
229.262	360.88
229.496	372.88
229.73	400.88
229.964	434.88
230.199	438.88
230.433	470.88
230.667	484.88
230.901	522.88
231.136	474.88
231.37	450.88
231.604	444.88
231.838	457.88
232.072	497.88
232.306	448.88
232.541	467.88
232.775	538.88
233.009	591.88
233.243	577.88
233.477	517.88
233.711	553.88
233.945	559.88
234.179	527.88
234.413	558.88
234.647	636.88
234.881	598.88
235.115	546.88
235.349	555.88
235.583	555.88
235.817	553.88
236.051	560.88
236.285	565.88
236.519	587.88
236.753	666.88
236.987	689.88
237.221	661.88
237.455	741.88
237.689	738.88
237.922	657.88
238.156	655.88
238.39	683.88
238.624	698.88
238.858	745.88
239.091	764.88
239.325	785.88
239.559	893.88
239.793	948.88
240.027	1013.88
240.26	1044.88
240.494	753.88
240.728	728.88
240.961	733.88
241.195	738.88
241.429	806.88
241.662	800.88
241.896	752.88
242.13	761.88
242.363	849.88
242.597	908.88
242.83	870.88
243.064	899.88
243.298	951.88
243.531	952.88
243.765	930.88
243.998	927.88
244.232	795.88
244.465	765.88
244.699	791.88
244.932	888.88
245.166	1025.88
245.399	973.88
245.633	917.88
245.866	907.88
246.099	906.88
246.333	940.88
246.566	963.88
246.8	1010.88
247.033	1148.88
247.266	1061.88
247.5	1044.88
247.733	1042.88
247.966	1099.88
248.2	1227.88
248.433	1173.88
248.666	1193.88
248.899	1298.88
249.133	1519.88
249.366	1751.88
249.599	1433.88
249.832	1221.88
250.066	1256.88
250.299	1305.88
250.532	1176.88
250.765	1059.88
250.998	1143.88
251.231	1209.88
251.465	1224.88
251.698	1184.88
251.931	1175.88
252.164	1203.88
252.397	1244.88
252.63	1241.88
252.863	1093.88
253.096	1111.88
253.329	1151.88
253.562	1185.88
253.795	1275.88
254.028	1269.88
254.261	1174.88
254.494	1161.88
254.727	1110.88
254.96	1147.88
255.193	1236.88
255.426	1384.88
255.659	1577.88
255.892	1652.88
256.124	1383.88
256.357	1293.88
256.59	1416.88
256.823	1403.88
257.056	1373.88
257.289	1667.88
257.521	1875.88
257.754	1685.88
257.987	1556.88
258.22	1721.88
258.452	1734.88
258.685	1376.88
258.918	1341.88
259.151	1379.88
259.383	1313.88
259.616	1161.88
259.849	1245.88
260.081	1393.88
260.314	1501.88
260.547	1658.88
260.779	1701.88
261.012	1609.88
261.244	1407.88
261.477	1328.88
261.71	1415.88
261.942	1407.88
262.175	1336.88
262.407	1431.88
262.64	1374.88
262.872	1297.88
263.105	1258.88
263.337	1287.88
263.57	1311.88
263.802	1314.88
264.035	1226.88
264.267	1131.88
264.499	1125.88
264.732	1233.88
264.964	1289.88
265.197	1347.88
265.429	1411.88
265.661	1551.88
265.894	1721.88
266.126	1811.88
266.358	1593.88
266.591	1590.88
266.823	1815.88
267.055	1578.88
267.287	1616.88
267.52	1545.88
267.752	1541.88
267.984	1544.88
268.216	1623.88
268.448	1603.88
268.681	1624.88
268.913	1517.88
269.145	1409.88
269.377	1378.88
269.609	1465.88
269.841	1713.88
270.073	1964.88
270.306	2247.88
270.538	2399.88
270.77	2073.88
271.002	1738.88
271.234	1681.88
271.466	1618.88
271.698	1779.88
271.93	2193.88
272.162	2155.88
272.394	1995.88
272.626	1903.88
272.858	1657.88
273.09	1458.88
273.322	1417.88
273.553	1399.88
273.785	1404.88
274.017	1427.88
274.249	1564.88
274.481	1576.88
274.713	1414.88
274.945	1385.88
275.176	1421.88
275.408	1417.88
275.64	1363.88
275.872	1343.88
276.104	1450.88
276.335	1622.88
276.567	1821.88
276.799	1879.88
277.031	1699.88
277.262	1621.88
277.494	1653.88
277.726	1831.88
277.957	1785.88
278.189	1669.88
278.421	1551.88
278.652	1469.88
278.884	1450.88
279.115	1498.88
279.347	1512.88
279.579	1477.88
279.81	1473.88
280.042	1585.88
280.273	1755.88
280.505	1766.88
280.736	1791.88
280.968	1697.88
281.199	1488.88
281.431	1404.88
281.662	1401.88
281.894	1408.88
282.125	1445.88
282.356	1519.88
282.588	1546.88
282.819	1528.88
283.051	1615.88
283.282	1774.88
283.513	1763.88
283.745	1533.88
283.976	1411.88
284.207	1399.88
284.439	1478.88
284.67	1471.88
284.901	1514.88
285.132	1525.88
285.364	1539.88
285.595	1542.88
285.826	1473.88
286.057	1489.88
286.288	1460.88
286.52	1543.88
286.751	1665.88
286.982	1740.88
287.213	1592.88
287.444	1477.88
287.675	1462.88
287.906	1549.88
288.138	1634.88
288.369	1618.88
288.6	1537.88
288.831	1459.88
289.062	1485.88
289.293	1506.88
289.524	1482.88
289.755	1524.88
289.986	1541.88
290.217	1437.88
290.448	1449.88
290.679	1517.88
290.91	1552.88
291.141	1558.88
291.371	1667.88
291.602	1624.88
291.833	1555.88
292.064	1613.88
292.295	1618.88
292.526	1674.88
292.757	1738.88
292.987	1699.88
293.218	1529.88
293.449	1672.88
293.68	1850.88
293.91	2010.88
294.141	1892.88
294.372	1750.88
294.603	1799.88
294.833	1888.88
295.064	1824.88
295.295	1640.88
295.525	1602.88
295.756	1517.88
295.987	1390.88
296.217	1436.88
296.448	1496.88
296.679	1487.88
296.909	1474.88
297.14	1485.88
297.37	1502.88
297.601	1566.88
297.831	1712.88
298.062	1730.88
298.292	1596.88
298.523	1497.88
298.753	1485.88
298.984	1523.88
299.214	1534.88
299.445	1543.88
299.675	1598.88
299.905	1621.88
300.136	1557.88
300.366	1566.88
300.597	1490.88
300.827	1489.88
301.057	1541.88
301.288	1603.88
301.518	1615.88
301.748	1656.88
301.979	1715.88
302.209	1731.88
302.439	1877.88
302.669	1975.88
302.9	1806.88
303.13	1605.88
303.36	1611.88
303.59	1642.88
303.82	1638.88
304.051	1621.88
304.281	1669.88
304.511	1640.88
304.741	1719.88
304.971	1858.88
305.201	2074.88
305.431	1947.88
305.661	1598.88
305.891	1474.88
306.121	1449.88
306.352	1511.88
306.582	1570.88
306.812	1654.88
307.042	1826.88
307.272	1803.88
307.502	1813.88
307.731	1961.88
307.961	2144.88
308.191	1953.88
308.421	1707.88
308.651	1600.88
308.881	1565.88
309.111	1576.88
309.341	1562.88
309.571	1568.88
309.8	1562.88
310.03	1554.88
310.26	1568.88
310.49	1568.88
310.72	1572.88
310.949	1654.88
311.179	1703.88
311.409	1670.88
311.639	1600.88
311.868	1613.88
312.098	1617.88
312.328	1615.88
312.557	1581.88
312.787	1639.88
313.017	1674.88
313.246	1635.88
313.476	1627.88
313.706	1699.88
313.935	1670.88
314.165	1665.88
314.394	1738.88
314.624	1756.88
314.853	1917.88
315.083	1933.88
315.312	2048.88
315.542	1921.88
315.771	1673.88
316.001	1661.88
316.23	1813.88
316.46	1803.88
316.689	1769.88
316.919	1668.88
317.148	1618.88
317.377	1601.88
317.607	1742.88
317.836	1953.88
318.065	2045.88
318.295	1949.88
318.524	1865.88
318.753	1777.88
318.983	1776.88
319.212	1709.88
319.441	1683.88
319.67	1686.88
319.9	1752.88
320.129	1793.88
320.358	1838.88
320.587	1940.88
320.816	1928.88
321.046	1877.88
321.275	1778.88
321.504	1756.88
321.733	1956.88
321.962	1897.88
322.191	1727.88
322.42	1719.88
322.649	1694.88
322.878	1675.88
323.108	1754.88
323.337	1799.88
323.566	1824.88
323.795	1773.88
324.024	1763.88
324.253	1713.88
324.482	1825.88
324.71	1695.88
324.939	1606.88
325.168	1687.88
325.397	1753.88
325.626	1779.88
325.855	1759.88
326.084	1745.88
326.313	1768.88
326.542	1793.88
326.77	1804.88
326.999	1813.88
327.228	1736.88
327.457	1654.88
327.686	1653.88
327.914	1668.88
328.143	1703.88
328.372	1706.88
328.6	1730.88
328.829	1726.88
329.058	1666.88
329.287	1667.88
329.515	1727.88
329.744	1755.88
329.972	1800.88
330.201	1926.88
330.43	1874.88
330.658	1835.88
330.887	1843.88
331.115	1832.88
331.344	1870.88
331.572	1837.88
331.801	1810.88
332.03	1802.88
332.258	1793.88
332.486	1846.88
332.715	1847.88
332.943	1849.88
333.172	1833.88
333.4	1872.88
333.629	1865.88
333.857	2007.88
334.085	2205.88
334.314	2390.88
334.542	2681.88
334.771	2521.88
334.999	2195.88
335.227	2055.88
335.455	1981.88
335.684	1926.88
335.912	1985.88
336.14	2074.88
336.369	1983.88
336.597	1863.88
336.825	1831.88
337.053	1890.88
337.281	2024.88
337.51	2063.88
337.738	2161.88
337.966	2084.88
338.194	1874.88
338.422	1838.88
338.65	1823.88
338.878	1767.88
339.106	1759.88
339.334	1727.88
339.562	1713.88
339.79	1717.88
340.018	1828.88
340.246	1944.88
340.474	1911.88
340.702	1875.88
340.93	1880.88
341.158	1856.88
341.386	1816.88
341.614	1811.88
341.842	1814.88
342.07	1803.88
342.298	1851.88
342.526	1827.88
342.754	1780.88
342.981	1797.88
343.209	1734.88
343.437	1762.88
343.665	1809.88
343.893	1841.88
344.12	1931.88
344.348	1971.88
344.576	1888.88
344.804	1815.88
345.031	1802.88
345.259	1826.88
345.487	1731.88
345.714	1701.88
345.942	1683.88
346.17	1702.88
346.397	1684.88
346.625	1706.88
346.853	1578.88
347.08	1591.88
347.308	1594.88
347.535	1663.88
347.763	1760.88
347.99	1705.88
348.218	1625.88
348.445	1629.88
348.673	1687.88
348.9	1722.88
349.128	1737.88
349.355	1848.88
349.583	1757.88
349.81	1721.88
350.037	1560.88
350.265	1547.88
350.492	1582.88
350.72	1619.88
350.947	1691.88
351.174	1739.88
351.402	1626.88
351.629	1583.88
351.856	1585.88
352.083	1538.88
352.311	1570.88
352.538	1622.88
352.765	1663.88
352.992	1717.88
353.22	1637.88
353.447	1623.88
353.674	1621.88
353.901	1612.88
354.128	1600.88
354.355	1592.88
354.583	1657.88
354.81	1717.88
355.037	1697.88
355.264	1731.88
355.491	1679.88
355.718	1688.88
355.945	1665.88
356.172	1613.88
356.399	1607.88
356.626	1579.88
356.853	1665.88
357.08	1791.88
357.307	1957.88
357.534	1928.88
357.761	1755.88
357.988	1651.88
358.215	1550.88
358.441	1567.88
358.668	1553.88
358.895	1582.88
359.122	1660.88
359.349	1825.88
359.576	1878.88
359.802	1666.88
360.029	1615.88
360.256	1591.88
360.483	1589.88
360.709	1614.88
360.936	1662.88
361.163	1733.88
361.39	1879.88
361.616	2070.88
361.843	2041.88
362.07	1944.88
362.296	1653.88
362.523	1633.88
362.749	1638.88
362.976	1706.88
363.203	1664.88
363.429	1652.88
363.656	1568.88
363.882	1646.88
364.109	1807.88
364.335	1986.88
364.562	1825.88
364.788	1757.88
365.015	1704.88
365.241	1586.88
365.468	1641.88
365.694	1723.88
365.92	1806.88
366.147	1709.88
366.373	1615.88
366.599	1579.88
366.826	1613.88
367.052	1611.88
367.278	1647.88
367.505	1631.88
367.731	1682.88
367.957	1701.88
368.184	1703.88
368.41	1802.88
368.636	1826.88
368.862	1824.88
369.089	1840.88
369.315	1789.88
369.541	1702.88
369.767	1685.88
369.993	1629.88
370.219	1664.88
370.445	1659.88
370.672	1756.88
370.898	1825.88
371.124	1828.88
371.35	1768.88
371.576	1773.88
371.802	1856.88
372.028	1797.88
372.254	1727.88
372.48	1676.88
372.706	1622.88
372.932	1681.88
373.158	1698.88
373.384	1717.88
373.61	1729.88
373.835	1858.88
374.061	1753.88
374.287	1724.88
374.513	1697.88
374.739	1681.88
374.965	1722.88
375.191	1752.88
375.416	1744.88
375.642	1799.88
375.868	1897.88
376.094	1924.88
376.319	1872.88
376.545	1723.88
376.771	1721.88
376.997	1838.88
377.222	1831.88
377.448	1783.88
377.674	1835.88
377.899	1792.88
378.125	1865.88
378.35	1939.88
378.576	1738.88
378.802	1657.88
379.027	1663.88
379.253	1695.88
379.478	1758.88
379.704	1669.88
379.929	1707.88
380.155	1692.88
380.38	1752.88
380.606	1746.88
380.831	1758.88
381.057	1816.88
381.282	1881.88
381.507	1801.88
381.733	1889.88
381.958	2005.88
382.184	1830.88
382.409	1778.88
382.634	1775.88
382.86	1798.88
383.085	1806.88
383.31	1817.88
383.535	1929.88
383.761	2092.88
383.986	2076.88
384.211	1979.88
384.436	1914.88
384.662	2020.88
384.887	2106.88
385.112	1973.88
385.337	2016.88
385.562	1977.88
385.787	1961.88
386.013	2055.88
386.238	2030.88
386.463	1981.88
386.688	2123.88
386.913	2285.88
387.138	2248.88
387.363	2087.88
387.588	2051.88
387.813	2023.88
388.038	1988.88
388.263	2070.88
388.488	2066.88
388.713	1901.88
388.938	1909.88
389.163	1896.88
389.387	1935.88
389.612	1917.88
389.837	1988.88
390.062	2006.88
390.287	1990.88
390.512	1909.88
390.736	1926.88
390.961	1918.88
391.186	1853.88
391.411	1885.88
391.636	1954.88
391.86	1939.88
392.085	1928.88
392.31	1981.88
392.534	1957.88
392.759	2027.88
392.984	1969.88
393.208	1974.88
393.433	2029.88
393.658	2094.88
393.882	2125.88
394.107	2003.88
394.331	1967.88
394.556	1958.88
394.78	1974.88
395.005	2056.88
395.229	2099.88
395.454	2239.88
395.678	2285.88
395.903	2144.88
396.127	2098.88
396.352	2077.88
396.576	2144.88
396.801	2187.88
397.025	2135.88
397.249	2144.88
397.474	2104.88
397.698	2103.88
397.922	2150.88
398.147	2272.88
398.371	2365.88
398.595	2353.88
398.82	2262.88
399.044	2249.88
399.268	2382.88
399.492	2565.88
399.717	2611.88
399.941	2649.88
400.165	2591.88
400.389	2501.88
400.613	2519.88
400.837	2731.88
401.062	3147.88
401.286	2734.88
401.51	2431.88
401.734	2583.88
401.958	2489.88
402.182	2333.88
402.406	2271.88
402.63	2233.88
402.854	2240.88
403.078	2277.88
403.302	2346.88
403.526	2333.88
403.75	2352.88
403.974	2361.88
404.198	2367.88
404.422	2381.88
404.645	2527.88
404.869	2502.88
405.093	2335.88
405.317	2271.88
405.541	2361.88
405.765	2410.88
405.988	2375.88
406.212	2374.88
406.436	2381.88
406.66	2489.88
406.883	2532.88
407.107	2785.88
407.331	3006.88
407.555	3256.88
407.778	3047.88
408.002	2555.88
408.226	2478.88
408.449	2443.88
408.673	2426.88
408.896	2432.88
409.12	2468.88
409.344	2390.88
409.567	2312.88
409.791	2392.88
410.014	2408.88
410.238	2490.88
410.461	2666.88
410.685	2417.88
410.908	2287.88
411.132	2341.88
411.355	2329.88
411.578	2286.88
411.802	2289.88
412.025	2350.88
412.249	2310.88
412.472	2223.88
412.695	2218.88
412.919	2212.88
413.142	2216.88
413.365	2255.88
413.589	2358.88
413.812	2367.88
414.035	2409.88
414.258	2269.88
414.482	2264.88
414.705	2257.88
414.928	2212.88
415.151	2247.88
415.374	2202.88
415.597	2258.88
415.821	2313.88
416.044	2373.88
416.267	2404.88
416.49	2199.88
416.713	2096.88
416.936	2225.88
417.159	2299.88
417.382	2321.88
417.605	2195.88
417.828	2223.88
418.051	2349.88
418.274	2218.88
418.497	2169.88
418.72	2188.88
418.943	2145.88
419.166	2355.88
419.389	2400.88
419.611	2309.88
419.834	2229.88
420.057	2259.88
420.28	2177.88
420.503	2164.88
420.726	2183.88
420.948	2216.88
421.171	2141.88
421.394	2169.88
421.617	2255.88
421.839	2226.88
422.062	2196.88
422.285	2141.88
422.507	2109.88
422.73	2097.88
422.953	2077.88
423.175	2040.88
423.398	2123.88
423.621	2173.88
423.843	2197.88
424.066	2207.88
424.288	2249.88
424.511	2310.88
424.733	2264.88
424.956	2048.88
425.178	2107.88
425.401	2080.88
425.623	2137.88
425.846	2096.88
426.068	2184.88
426.291	2238.88
426.513	2235.88
426.735	2209.88
426.958	2333.88
427.18	2469.88
427.402	2272.88
427.625	2275.88
427.847	2297.88
428.069	2183.88
428.292	2137.88
428.514	2064.88
428.736	2066.88
428.958	2063.88
429.181	2120.88
429.403	2362.88
429.625	2884.88
429.847	2507.88
430.069	2182.88
430.292	2340.88
430.514	2492.88
430.736	2249.88
430.958	2340.88
431.18	2262.88
431.402	2114.88
431.624	2055.88
431.846	2077.88
432.068	2049.88
432.29	2068.88
432.512	2147.88
432.734	2154.88
432.956	2171.88
433.178	2205.88
433.4	2234.88
433.622	2216.88
433.844	2124.88
434.066	2060.88
434.287	2080.88
434.509	2119.88
434.731	2232.88
434.953	2379.88
435.175	2339.88
435.397	2200.88
435.618	2212.88
435.84	2252.88
436.062	2224.88
436.284	2196.88
436.505	2223.88
436.727	2241.88
436.949	2187.88
437.17	2114.88
437.392	2101.88
437.614	2133.88
437.835	2037.88
438.057	2216.88
438.278	2290.88
438.5	2125.88
438.721	2087.88
438.943	2089.88
439.165	2099.88
439.386	2053.88
439.608	2045.88
439.829	2069.88
440.05	2059.88
440.272	2074.88
440.493	2018.88
440.715	2078.88
440.936	2186.88
441.158	2461.88
441.379	2317.88
441.6	2268.88
441.822	2261.88
442.043	2262.88
442.264	2166.88
442.486	2073.88
442.707	2096.88
442.928	2046.88
443.149	2165.88
443.371	2281.88
443.592	2330.88
443.813	2264.88
444.034	2263.88
444.255	2259.88
444.476	2356.88
444.698	2407.88
444.919	2323.88
445.14	2447.88
445.361	2407.88
445.582	2510.88
445.803	2383.88
446.024	2321.88
446.245	2364.88
446.466	2261.88
446.687	2187.88
446.908	2158.88
447.129	2093.88
447.35	2155.88
447.571	2152.88
447.792	2084.88
448.013	2051.88
448.234	2081.88
448.455	2172.88
448.675	2199.88
448.896	1963.88
449.117	2001.88
449.338	2058.88
449.559	2104.88
449.779	2244.88
450	2446.88
450.221	2648.88
450.442	2521.88
450.662	2243.88
450.883	1961.88
451.104	1890.88
451.324	1995.88
451.545	2085.88
451.766	2021.88
451.986	1946.88
452.207	1919.88
452.428	1879.88
452.648	1856.88
452.869	1938.88
453.089	2031.88
453.31	2056.88
453.53	2094.88
453.751	1982.88
453.971	1910.88
454.192	1960.88
454.412	2074.88
454.633	2002.88
454.853	1938.88
455.073	1813.88
455.294	1779.88
455.514	1816.88
455.734	1826.88
455.955	1892.88
456.175	1845.88
456.395	1848.88
456.616	1956.88
456.836	1937.88
457.056	1901.88
457.276	1952.88
457.497	1821.88
457.717	1795.88
457.937	1841.88
458.157	1872.88
458.377	1856.88
458.598	1851.88
458.818	1898.88
459.038	1967.88
459.258	2124.88
459.478	2153.88
459.698	2077.88
459.918	2088.88
460.138	2162.88
460.358	2217.88
460.578	2235.88
460.798	2329.88
461.018	2450.88
461.238	2325.88
461.458	2225.88
461.678	2247.88
461.898	2189.88
462.118	2145.88
462.338	2257.88
462.558	2248.88
462.777	2247.88
462.997	2343.88
463.217	2502.88
463.437	2464.88
463.657	2318.88
463.876	2276.88
464.096	2264.88
464.316	2206.88
464.536	2335.88
464.755	2323.88
464.975	2376.88
465.195	2245.88
465.414	2416.88
465.634	2340.88
465.854	2267.88
466.073	2325.88
466.293	2293.88
466.512	2057.88
466.732	2015.88
466.951	2165.88
467.171	2143.88
467.391	1992.88
467.61	1986.88
467.829	1981.88
468.049	2149.88
468.268	2409.88
468.488	2319.88
468.707	2162.88
468.927	2089.88
469.146	2053.88
469.365	2008.88
469.585	2040.88
469.804	1989.88
470.023	1996.88
470.243	2019.88
470.462	2055.88
470.681	1962.88
470.901	2073.88
471.12	2072.88
471.339	2048.88
471.558	1954.88
471.777	1945.88
471.997	1973.88
472.216	1965.88
472.435	1953.88
472.654	1942.88
472.873	2081.88
473.092	2177.88
473.311	2096.88
473.53	1915.88
473.749	1941.88
473.968	2001.88
474.187	2106.88
474.406	2200.88
474.625	2146.88
474.844	2059.88
475.063	2038.88
475.282	2113.88
475.501	2094.88
475.72	2065.88
475.939	2173.88
476.158	2131.88
476.377	2080.88
476.596	2049.88
476.814	2115.88
477.033	2093.88
477.252	2233.88
477.471	2261.88
477.69	2129.88
477.908	2163.88
478.127	2268.88
478.346	2437.88
478.564	2465.88
478.783	2437.88
479.002	2536.88
479.22	2426.88
479.439	2536.88
479.658	2851.88
479.876	2849.88
480.095	2510.88
480.313	2382.88
480.532	2244.88
480.751	2309.88
480.969	2334.88
481.188	2290.88
481.406	2257.88
481.624	2234.88
481.843	2269.88
482.061	2361.88
482.28	2408.88
482.498	2392.88
482.717	2385.88
482.935	2245.88
483.153	2249.88
483.372	2278.88
483.59	2207.88
483.808	2249.88
484.027	2322.88
484.245	2455.88
484.463	2816.88
484.681	3251.88
484.9	2536.88
485.118	2354.88
485.336	2337.88
485.554	2382.88
485.772	2477.88
485.99	2436.88
486.209	2459.88
486.427	2417.88
486.645	2439.88
486.863	2418.88
487.081	2480.88
487.299	2514.88
487.517	2484.88
487.735	2400.88
487.953	2380.88
488.171	2384.88
488.389	2353.88
488.607	2401.88
488.825	2611.88
489.043	2662.88
489.261	2349.88
489.479	2503.88
489.696	2547.88
489.914	2526.88
490.132	2490.88
490.35	2391.88
490.568	2476.88
490.786	2402.88
491.003	2333.88
491.221	2381.88
491.439	2453.88
491.657	2461.88
491.874	2426.88
492.092	2484.88
492.31	2469.88
492.527	2463.88
492.745	2423.88
492.963	2439.88
493.18	2536.88
493.398	2715.88
493.615	2728.88
493.833	2542.88
494.05	2464.88
494.268	2502.88
494.485	2591.88
494.703	2531.88
494.92	2417.88
495.138	2453.88
495.355	2512.88
495.573	2591.88
495.79	2705.88
496.008	2792.88
496.225	2582.88
496.442	2559.88
496.66	2641.88
496.877	2628.88
497.094	2741.88
497.312	2751.88
497.529	2697.88
497.746	2764.88
497.963	3168.88
498.181	3559.88
498.398	3324.88
498.615	3281.88
498.832	3195.88
499.049	3169.88
499.267	3178.88
499.484	3351.88
499.701	3635.88
499.918	3697.88
500.135	3942.88
500.352	4241.88
500.569	4202.88
500.786	4392.88
501.003	4161.88
501.22	3789.88
501.437	3712.88
501.654	3623.88
501.871	3541.88
502.088	3131.88
502.305	3130.88
502.522	3058.88
502.739	2817.88
502.956	2774.88
503.172	2721.88
503.389	2660.88
503.606	2601.88
503.823	2600.88
504.04	2653.88
504.256	2635.88
504.473	2651.88
504.69	2724.88
504.907	2671.88
505.123	2497.88
505.34	2582.88
505.557	3334.88
505.773	2837.88
505.99	2423.88
506.207	2246.88
506.423	2199.88
506.64	2214.88
506.856	2254.88
507.073	2526.88
507.289	2736.88
507.506	2625.88
507.722	2326.88
507.939	2145.88
508.155	2151.88
508.372	2179.88
508.588	2125.88
508.805	2073.88
509.021	2037.88
509.238	2049.88
509.454	2042.88
509.67	2048.88
509.887	2014.88
510.103	2054.88
510.319	2052.88
510.536	2176.88
510.752	2207.88
510.968	2239.88
511.184	2367.88
511.401	2305.88
511.617	2058.88
511.833	2019.88
512.049	1941.88
512.265	1969.88
512.481	1984.88
512.698	2026.88
512.914	2169.88
513.13	2099.88
513.346	1983.88
513.562	1935.88
513.778	1994.88
513.994	2080.88
514.21	2153.88
514.426	2188.88
514.642	2382.88
514.858	2209.88
515.074	2053.88
515.29	2026.88
515.506	2074.88
515.721	2123.88
515.937	2099.88
516.153	2409.88
516.369	2308.88
516.585	2137.88
516.801	2060.88
517.016	2083.88
517.232	2122.88
517.448	2197.88
517.664	2203.88
517.879	2177.88
518.095	2303.88
518.311	2231.88
518.527	2105.88
518.742	2076.88
518.958	2004.88
519.173	1984.88
519.389	2039.88
519.605	2019.88
519.82	2023.88
520.036	2080.88
520.251	2005.88
520.467	1975.88
520.682	2195.88
520.898	2265.88
521.113	2095.88
521.329	1962.88
521.544	2103.88
521.76	2017.88
521.975	1939.88
522.19	1883.88
522.406	1872.88
522.621	2286.88
522.836	2315.88
523.052	1914.88
523.267	1881.88
523.482	1946.88
523.698	1820.88
523.913	1785.88
524.128	1839.88
524.343	1940.88
524.559	1951.88
524.774	1871.88
524.989	1826.88
525.204	1822.88
525.419	1773.88
525.634	1834.88
525.849	1821.88
526.064	1815.88
526.28	1816.88
526.495	1770.88
526.71	1777.88
526.925	1789.88
527.14	1747.88
527.355	1699.88
527.57	1714.88
527.785	1733.88
527.999	1745.88
528.214	1701.88
528.429	1670.88
528.644	1721.88
528.859	1752.88
529.074	1691.88
529.289	1731.88
529.503	1753.88
529.718	1767.88
529.933	1723.88
530.148	1654.88
530.363	1660.88
530.577	1713.88
530.792	1728.88
531.007	1740.88
531.221	1711.88
531.436	1792.88
531.651	1846.88
531.865	1927.88
532.08	1791.88
532.295	1699.88
532.509	1640.88
532.724	1665.88
532.938	1766.88
533.153	1886.88
533.367	1767.88
533.582	1777.88
533.796	1681.88
534.011	1701.88
534.225	1733.88
534.44	1725.88
534.654	1669.88
534.868	1679.88
535.083	1775.88
535.297	1751.88
535.511	1720.88
535.726	1739.88
535.94	1707.88
536.154	1684.88
536.369	1675.88
536.583	1634.88
536.797	1594.88
537.011	1673.88
537.225	1634.88
537.44	1589.88
537.654	1617.88
537.868	1634.88
538.082	1534.88
538.296	1531.88
538.51	1531.88
538.724	1551.88
538.938	1570.88
539.153	1641.88
539.367	1606.88
539.581	1601.88
539.795	1687.88
540.009	1658.88
540.222	1645.88
540.436	1660.88
540.65	1765.88
540.864	1765.88
541.078	1719.88
541.292	1557.88
541.506	1589.88
541.72	1602.88
541.934	1570.88
542.147	1699.88
542.361	1630.88
542.575	1569.88
542.789	1535.88
543.002	1501.88
543.216	1562.88
543.43	1617.88
543.644	1655.88
543.857	1717.88
544.071	1665.88
544.285	1645.88
544.498	1577.88
544.712	1577.88
544.925	1635.88
545.139	1657.88
545.352	1611.88
545.566	1510.88
545.779	1497.88
545.993	1599.88
546.206	1619.88
546.42	1522.88
546.633	1526.88
546.847	1524.88
547.06	1511.88
547.274	1495.88
547.487	1493.88
547.7	1522.88
547.914	1512.88
548.127	1532.88
548.34	1577.88
548.554	1565.88
548.767	1518.88
548.98	1514.88
549.193	1520.88
549.407	1576.88
549.62	1621.88
549.833	1528.88
550.046	1497.88
550.259	1535.88
550.473	1514.88
550.686	1504.88
550.899	1469.88
551.112	1453.88
551.325	1430.88
551.538	1526.88
551.751	1754.88
551.964	1472.88
552.177	1417.88
552.39	1453.88
552.603	1517.88
552.816	1488.88
553.029	1537.88
553.242	1568.88
553.455	1505.88
553.667	1500.88
553.88	1519.88
554.093	1460.88
554.306	1404.88
554.519	1418.88
554.732	1377.88
554.944	1394.88
555.157	1455.88
555.37	1413.88
555.583	1402.88
555.795	1366.88
556.008	1352.88
556.221	1308.88
556.433	1300.88
556.646	1296.88
556.859	1297.88
557.071	1297.88
557.284	1298.88
557.496	1289.88
557.709	1266.88
557.921	1248.88
558.134	1251.88
558.346	1265.88
558.559	1238.88
558.771	1252.88
558.984	1234.88
559.196	1180.88
559.409	1200.88
559.621	1223.88
559.833	1215.88
560.046	1281.88
560.258	1245.88
560.47	1261.88
560.683	1226.88
560.895	1240.88
561.107	1274.88
561.32	1260.88
561.532	1253.88
561.744	1206.88
561.956	1238.88
562.168	1201.88
562.381	1184.88
562.593	1203.88
562.805	1211.88
563.017	1202.88
563.229	1210.88
563.441	1218.88
563.653	1221.88
563.865	1197.88
564.077	1171.88
564.289	1230.88
564.501	1203.88
564.713	1280.88
564.925	1285.88
565.137	1394.88
565.349	1313.88
565.561	1267.88
565.773	1287.88
565.985	1314.88
566.197	1374.88
566.408	1465.88
566.62	1484.88
566.832	1469.88
567.044	1470.88
567.255	1491.88
567.467	1454.88
567.679	1556.88
567.891	1576.88
568.102	1531.88
568.314	1467.88
568.526	1426.88
568.737	1321.88
568.949	1281.88
569.161	1250.88
569.372	1211.88
569.584	1162.88
569.795	1173.88
570.007	1157.88
570.218	1138.88
570.43	1117.88
570.641	1109.88
570.853	1096.88
571.064	1095.88
571.276	1097.88
571.487	1070.88
571.698	1059.88
571.91	1033.88
572.121	1025.88
572.333	985.88
572.544	1009.88
572.755	967.88
572.966	960.88
573.178	997.88
573.389	955.88
573.6	997.88
573.811	1079.88
574.023	992.88
574.234	975.88
574.445	963.88
574.656	919.88
574.867	906.88
575.078	941.88
575.289	924.88
575.501	897.88
575.712	918.88
575.923	899.88
576.134	942.88
576.345	891.88
576.556	907.88
576.767	885.88
576.978	900.88
577.188	872.88
577.399	856.88
577.61	871.88
577.821	877.88
578.032	867.88
578.243	868.88
578.454	870.88
578.665	839.88
578.875	795.88
579.086	815.88
579.297	809.88
579.508	886.88
579.718	863.88
579.929	844.88
580.14	821.88
580.35	829.88
580.561	837.88
580.772	906.88
580.982	867.88
581.193	810.88
581.403	805.88
581.614	817.88
581.825	793.88
582.035	790.88
582.246	783.88
582.456	788.88
582.667	796.88
582.877	803.88
583.087	770.88
583.298	769.88
583.508	769.88
583.719	785.88
583.929	801.88
584.139	808.88
584.35	762.88
584.56	777.88
584.77	809.88
584.981	789.88
585.191	792.88
585.401	814.88
585.611	778.88
585.821	774.88
586.032	767.88
586.242	746.88
586.452	749.88
586.662	749.88
586.872	751.88
587.082	747.88
587.292	773.88
587.502	793.88
587.713	801.88
587.923	758.88
588.133	740.88
588.343	746.88
588.553	744.88
588.762	737.88
588.972	732.88
589.182	770.88
589.392	739.88
589.602	779.88
589.812	734.88
590.022	741.88
590.232	727.88
590.441	738.88
590.651	749.88
590.861	762.88
591.071	725.88
591.281	755.88
591.49	722.88
591.7	743.88
591.91	736.88
592.119	729.88
592.329	730.88
592.539	767.88
592.748	769.88
592.958	766.88
593.167	759.88
593.377	781.88
593.587	777.88
593.796	781.88
594.006	766.88
594.215	771.88
594.424	746.88
594.634	768.88
594.843	754.88
595.053	770.88
595.262	741.88
595.472	707.88
595.681	756.88
595.89	699.88
596.1	721.88
596.309	710.88
596.518	689.88
596.727	687.88
596.937	691.88
597.146	654.88
597.355	660.88
597.564	670.88
597.774	664.88
597.983	633.88
598.192	628.88
598.401	631.88
598.61	640.88
598.819	641.88
599.028	636.88
599.237	618.88
599.446	600.88
599.655	605.88
599.864	614.88
600.073	626.88
600.282	627.88
600.491	598.88
600.7	595.88
600.909	598.88
601.118	599.88
601.327	604.88
601.536	612.88
601.745	571.88
601.953	581.88
602.162	601.88
602.371	597.88
602.58	603.88
602.789	594.88
602.997	590.88
603.206	618.88
603.415	569.88
603.623	586.88
603.832	590.88
604.041	592.88
604.249	568.88
604.458	580.88
604.666	599.88
604.875	575.88
605.084	589.88
605.292	605.88
605.501	571.88
605.709	566.88
605.918	536.88
606.126	561.88
606.334	551.88
606.543	559.88
606.751	564.88
606.96	571.88
607.168	564.88
607.376	543.88
607.585	543.88
607.793	545.88
608.001	535.88
608.21	547.88
608.418	534.88
608.626	541.88
608.834	555.88
609.043	538.88
609.251	535.88
609.459	546.88
609.667	541.88
609.875	552.88
610.083	555.88
610.291	578.88
610.499	545.88
610.707	533.88
610.916	524.88
611.124	518.88
611.332	533.88
611.54	517.88
611.748	518.88
611.955	515.88
612.163	523.88
612.371	499.88
612.579	534.88
612.787	525.88
612.995	543.88
613.203	526.88
613.411	501.88
613.618	519.88
613.826	520.88
614.034	495.88
614.242	514.88
614.449	516.88
614.657	521.88
614.865	524.88
615.072	517.88
615.28	520.88
615.488	519.88
615.695	531.88
615.903	526.88
616.111	505.88
616.318	517.88
616.526	511.88
616.733	493.88
616.941	484.88
617.148	497.88
617.356	490.88
617.563	507.88
617.771	512.88
617.978	486.88
618.185	505.88
618.393	499.88
618.6	506.88
618.807	489.88
619.015	491.88
619.222	465.88
619.429	463.88
619.637	485.88
619.844	474.88
620.051	466.88
620.258	478.88
620.466	468.88
620.673	467.88
620.88	439.88
621.087	461.88
621.294	435.88
621.501	443.88
621.708	466.88
621.915	448.88
622.122	457.88
622.329	456.88
622.536	471.88
622.743	463.88
622.95	472.88
623.157	453.88
623.364	444.88
623.571	449.88
623.778	478.88
623.985	445.88
624.192	437.88
624.399	436.88
624.606	421.88
624.812	425.88
625.019	413.88
625.226	449.88
625.433	420.88
625.639	453.88
625.846	418.88
626.053	439.88
626.259	401.88
626.466	389.88
626.673	413.88
626.879	381.88
627.086	409.88
627.293	401.88
627.499	390.88
627.706	409.88
627.912	412.88
628.119	376.88
628.325	399.88
628.532	398.88
628.738	425.88
628.945	396.88
629.151	411.88
629.357	390.88
629.564	394.88
629.77	401.88
629.976	378.88
630.183	387.88
630.389	388.88
630.595	393.88
630.802	400.88
631.008	393.88
631.214	386.88
631.42	367.88
631.627	377.88
631.833	362.88
632.039	401.88
632.245	373.88
632.451	365.88
632.657	366.88
632.863	369.88
633.069	379.88
633.275	358.88
633.481	371.88
633.688	350.88
633.893	356.88
634.099	367.88
634.305	354.88
634.511	348.88
634.717	360.88
634.923	339.88
635.129	334.88
635.335	354.88
635.541	365.88
635.747	351.88
635.952	355.88
636.158	346.88
636.364	373.88
636.57	336.88
636.775	347.88
636.981	359.88
637.187	351.88
637.392	352.88
637.598	344.88
637.804	352.88
638.009	350.88
638.215	339.88
638.421	333.88
638.626	343.88
638.832	338.88
639.037	338.88
639.243	331.88
639.448	321.88
639.654	341.88
639.859	322.88
640.065	335.88
640.27	322.88
640.475	336.88
640.681	322.88
640.886	330.88
641.091	319.88
641.297	322.88
641.502	310.88
641.707	331.88
641.913	323.88
642.118	309.88
642.323	315.88
642.528	295.88
642.733	325.88
642.939	307.88
643.144	319.88
643.349	319.88
643.554	314.88
643.759	321.88
643.964	315.88
644.169	314.88
644.374	305.88
644.579	305.88
644.784	328.88
644.989	284.88
645.194	292.88
645.399	313.88
645.604	297.88
645.809	303.88
646.014	314.88
646.219	312.88
646.423	321.88
646.628	324.88
646.833	313.88
647.038	323.88
647.243	340.88
647.447	307.88
647.652	321.88
647.857	290.88
648.062	311.88
648.266	296.88
648.471	322.88
648.676	312.88
648.88	312.88
649.085	319.88
649.289	314.88
649.494	293.88
649.698	303.88
649.903	305.88
650.107	315.88
650.312	309.88
650.516	293.88
650.721	293.88
650.925	281.88
651.13	278.88
651.334	275.88
651.539	257.88
651.743	285.88
651.947	262.88
652.152	286.88
652.356	250.88
652.56	273.88
652.764	262.88
652.969	256.88
653.173	243.88
653.377	240.88
653.581	249.88
653.785	246.88
653.99	254.88
654.194	240.88
654.398	233.88
654.602	249.88
654.806	233.88
655.01	248.88
655.214	243.88
655.418	242.88
655.622	224.88
655.826	236.88
656.03	261.88
656.234	253.88
656.438	270.88
656.642	267.88
656.846	259.88
657.049	234.88
657.253	241.88
657.457	205.88
657.661	196.88
657.865	193.88
658.068	158.88
658.272	161.88
658.476	156.88
658.68	162.88
658.883	147.88
659.087	142.88
659.291	134.88
659.494	148.88
659.698	129.88
659.901	129.88
660.105	128.88
660.309	127.88
660.512	120.88
660.716	91.88
660.919	100.88
661.123	115.88
661.326	109.88
661.53	103.88
661.733	109.88
661.936	91.88
662.14	91.88
662.343	92.88
662.546	78.88
662.75	99.88
662.953	101.88
663.156	73.88
663.36	90.88
663.563	80.88
663.766	87.88
663.969	78.88
664.173	86.88
664.376	71.88
664.579	66.88
664.782	75.88
664.985	68.88
665.188	81.88
665.391	79.88
665.594	80.88
665.797	90.88
666	76.88
666.203	80.88
666.406	70.88
666.609	82.88
666.812	68.88
667.015	80.88
667.218	78.88
667.421	81.88
667.624	81.88
667.827	62.88
668.03	74.88
668.232	70.88
668.435	75.88
668.638	74.88
668.841	86.88
669.043	70.88
669.246	71.88
669.449	63.88
669.651	81.88
669.854	83.88
670.057	71.88
670.259	78.88
670.462	75.88
670.665	82.88
670.867	79.88
671.07	82.88
671.272	81.88
671.475	88.88
671.677	74.88
671.88	67.88
672.082	74.88
672.284	72.88
672.487	87.88
672.689	85.88
672.892	72.88
