Data from WStandard_LampEnergy10_LIBS07252019.E.O._I.C._HRD10591_15-52-47-927.txt Node
Date: Thu Jul 25 15:52:47 EDT 2019
User: cochatt
Spectrometer: HR+D1059
Trigger mode: 1
Integration Time (sec): 1.000000E-1
Scans to average: 1
Electric dark correction enabled: true
Nonlinearity correction enabled: false
Boxcar width: 0
XAxis mode: Wavelengths
Number of Pixels in Spectrum: 2048
>>>>>Begin Spectral Data<<<<<
223.165	-15.12
223.4	-15.12
223.635	-15.12
223.869	-19.12
224.104	-13.12
224.338	-9.12
224.573	-5.12
224.808	0.88
225.042	-11.12
225.277	-11.12
225.511	-13.12
225.746	5.88
225.98	1.88
226.215	4.88
226.449	21.88
226.683	18.88
226.918	19.88
227.152	22.88
227.387	33.88
227.621	20.88
227.856	32.88
228.09	44.88
228.324	37.88
228.559	58.88
228.793	182.88
229.027	402.88
229.262	424.88
229.496	449.88
229.73	447.88
229.964	481.88
230.199	498.88
230.433	508.88
230.667	569.88
230.901	576.88
231.136	517.88
231.37	529.88
231.604	506.88
231.838	506.88
232.072	516.88
232.306	530.88
232.541	541.88
232.775	616.88
233.009	669.88
233.243	656.88
233.477	598.88
233.711	605.88
233.945	608.88
234.179	613.88
234.413	647.88
234.647	705.88
234.881	642.88
235.115	595.88
235.349	616.88
235.583	630.88
235.817	637.88
236.051	590.88
236.285	591.88
236.519	662.88
236.753	730.88
236.987	762.88
237.221	730.88
237.455	833.88
237.689	789.88
237.922	749.88
238.156	724.88
238.39	738.88
238.624	811.88
238.858	843.88
239.091	870.88
239.325	904.88
239.559	1024.88
239.793	1058.88
240.027	1102.88
240.26	1092.88
240.494	823.88
240.728	772.88
240.961	840.88
241.195	822.88
241.429	898.88
241.662	918.88
241.896	855.88
242.13	857.88
242.363	955.88
242.597	1011.88
242.83	968.88
243.064	967.88
243.298	1068.88
243.531	1028.88
243.765	1012.88
243.998	995.88
244.232	898.88
244.465	896.88
244.699	888.88
244.932	1011.88
245.166	1134.88
245.399	1082.88
245.633	992.88
245.866	995.88
246.099	1053.88
246.333	1075.88
246.566	1078.88
246.8	1167.88
247.033	1283.88
247.266	1214.88
247.5	1189.88
247.733	1182.88
247.966	1227.88
248.2	1356.88
248.433	1330.88
248.666	1386.88
248.899	1476.88
249.133	1700.88
249.366	1837.88
249.599	1537.88
249.832	1408.88
250.066	1392.88
250.299	1398.88
250.532	1304.88
250.765	1208.88
250.998	1294.88
251.231	1296.88
251.465	1366.88
251.698	1318.88
251.931	1316.88
252.164	1335.88
252.397	1380.88
252.63	1388.88
252.863	1233.88
253.096	1213.88
253.329	1290.88
253.562	1323.88
253.795	1420.88
254.028	1384.88
254.261	1328.88
254.494	1290.88
254.727	1227.88
254.96	1299.88
255.193	1415.88
255.426	1594.88
255.659	1792.88
255.892	1856.88
256.124	1523.88
256.357	1492.88
256.59	1560.88
256.823	1618.88
257.056	1609.88
257.289	1903.88
257.521	2068.88
257.754	1843.88
257.987	1820.88
258.22	1917.88
258.452	1862.88
258.685	1567.88
258.918	1529.88
259.151	1550.88
259.383	1472.88
259.616	1317.88
259.849	1398.88
260.081	1556.88
260.314	1745.88
260.547	1890.88
260.779	1916.88
261.012	1754.88
261.244	1585.88
261.477	1482.88
261.71	1576.88
261.942	1566.88
262.175	1556.88
262.407	1637.88
262.64	1527.88
262.872	1441.88
263.105	1363.88
263.337	1447.88
263.57	1449.88
263.802	1441.88
264.035	1363.88
264.267	1311.88
264.499	1288.88
264.732	1373.88
264.964	1452.88
265.197	1549.88
265.429	1622.88
265.661	1753.88
265.894	1939.88
266.126	1979.88
266.358	1810.88
266.591	1861.88
266.823	2024.88
267.055	1816.88
267.287	1794.88
267.52	1776.88
267.752	1734.88
267.984	1732.88
268.216	1793.88
268.448	1846.88
268.681	1808.88
268.913	1672.88
269.145	1618.88
269.377	1581.88
269.609	1737.88
269.841	2045.88
270.073	2309.88
270.306	2576.88
270.538	2626.88
270.77	2200.88
271.002	1954.88
271.234	1854.88
271.466	1909.88
271.698	2154.88
271.93	2473.88
272.162	2397.88
272.394	2214.88
272.626	2032.88
272.858	1861.88
273.09	1622.88
273.322	1636.88
273.553	1529.88
273.785	1593.88
274.017	1633.88
274.249	1796.88
274.481	1764.88
274.713	1614.88
274.945	1632.88
275.176	1597.88
275.408	1626.88
275.64	1557.88
275.872	1564.88
276.104	1705.88
276.335	1914.88
276.567	2144.88
276.799	2118.88
277.031	1920.88
277.262	1820.88
277.494	1899.88
277.726	2093.88
277.957	2040.88
278.189	1874.88
278.421	1724.88
278.652	1651.88
278.884	1694.88
279.115	1680.88
279.347	1696.88
279.579	1698.88
279.81	1676.88
280.042	1905.88
280.273	2004.88
280.505	2024.88
280.736	2039.88
280.968	1932.88
281.199	1702.88
281.431	1650.88
281.662	1615.88
281.894	1667.88
282.125	1706.88
282.356	1795.88
282.588	1749.88
282.819	1755.88
283.051	1936.88
283.282	2049.88
283.513	1929.88
283.745	1723.88
283.976	1616.88
284.207	1673.88
284.439	1729.88
284.67	1709.88
284.901	1785.88
285.132	1795.88
285.364	1759.88
285.595	1776.88
285.826	1746.88
286.057	1694.88
286.288	1681.88
286.52	1842.88
286.751	1959.88
286.982	1967.88
287.213	1822.88
287.444	1634.88
287.675	1680.88
287.906	1779.88
288.138	1890.88
288.369	1848.88
288.6	1708.88
288.831	1675.88
289.062	1680.88
289.293	1729.88
289.524	1762.88
289.755	1801.88
289.986	1780.88
290.217	1668.88
290.448	1697.88
290.679	1781.88
290.91	1767.88
291.141	1851.88
291.371	1917.88
291.602	1850.88
291.833	1814.88
292.064	1896.88
292.295	1891.88
292.526	1953.88
292.757	2032.88
292.987	1920.88
293.218	1850.88
293.449	1984.88
293.68	2260.88
293.91	2304.88
294.141	2177.88
294.372	2059.88
294.603	2143.88
294.833	2190.88
295.064	2058.88
295.295	1939.88
295.525	1860.88
295.756	1746.88
295.987	1656.88
296.217	1707.88
296.448	1716.88
296.679	1757.88
296.909	1778.88
297.14	1771.88
297.37	1833.88
297.601	1937.88
297.831	2020.88
298.062	2004.88
298.292	1857.88
298.523	1772.88
298.753	1799.88
298.984	1838.88
299.214	1855.88
299.445	1869.88
299.675	1899.88
299.905	1896.88
300.136	1845.88
300.366	1800.88
300.597	1773.88
300.827	1759.88
301.057	1835.88
301.288	1957.88
301.518	1930.88
301.748	1970.88
301.979	2102.88
302.209	2123.88
302.439	2233.88
302.669	2287.88
302.9	2131.88
303.13	1940.88
303.36	1970.88
303.59	2000.88
303.82	1965.88
304.051	1938.88
304.281	1949.88
304.511	1937.88
304.741	2108.88
304.971	2301.88
305.201	2467.88
305.431	2274.88
305.661	1885.88
305.891	1742.88
306.121	1740.88
306.352	1791.88
306.582	1925.88
306.812	2031.88
307.042	2172.88
307.272	2165.88
307.502	2245.88
307.731	2418.88
307.961	2520.88
308.191	2326.88
308.421	2035.88
308.651	1940.88
308.881	1889.88
309.111	1892.88
309.341	1876.88
309.571	1868.88
309.8	1885.88
310.03	1870.88
310.26	1910.88
310.49	1862.88
310.72	1914.88
310.949	1980.88
311.179	1994.88
311.409	1949.88
311.639	1958.88
311.868	1889.88
312.098	1944.88
312.328	1944.88
312.557	1930.88
312.787	1988.88
313.017	1986.88
313.246	1956.88
313.476	1979.88
313.706	2013.88
313.935	1982.88
314.165	2070.88
314.394	2126.88
314.624	2233.88
314.853	2304.88
315.083	2444.88
315.312	2468.88
315.542	2267.88
315.771	2088.88
316.001	2035.88
316.23	2147.88
316.46	2169.88
316.689	2120.88
316.919	2041.88
317.148	1970.88
317.377	2011.88
317.607	2153.88
317.836	2398.88
318.065	2432.88
318.295	2352.88
318.524	2270.88
318.753	2219.88
318.983	2155.88
319.212	2128.88
319.441	2056.88
319.67	2052.88
319.9	2118.88
320.129	2226.88
320.358	2335.88
320.587	2341.88
320.816	2334.88
321.046	2296.88
321.275	2168.88
321.504	2201.88
321.733	2416.88
321.962	2290.88
322.191	2090.88
322.42	2094.88
322.649	2097.88
322.878	2100.88
323.108	2074.88
323.337	2211.88
323.566	2189.88
323.795	2212.88
324.024	2179.88
324.253	2156.88
324.482	2141.88
324.71	2088.88
324.939	2012.88
325.168	2057.88
325.397	2106.88
325.626	2147.88
325.855	2141.88
326.084	2075.88
326.313	2089.88
326.542	2154.88
326.77	2177.88
326.999	2175.88
327.228	2109.88
327.457	1985.88
327.686	2001.88
327.914	2068.88
328.143	2143.88
328.372	2135.88
328.6	2128.88
328.829	2116.88
329.058	2049.88
329.287	2045.88
329.515	2156.88
329.744	2186.88
329.972	2289.88
330.201	2359.88
330.43	2290.88
330.658	2255.88
330.887	2227.88
331.115	2229.88
331.344	2270.88
331.572	2239.88
331.801	2260.88
332.03	2222.88
332.258	2241.88
332.486	2256.88
332.715	2303.88
332.943	2274.88
333.172	2244.88
333.4	2287.88
333.629	2325.88
333.857	2472.88
334.085	2740.88
334.314	3096.88
334.542	3307.88
334.771	3013.88
334.999	2649.88
335.227	2500.88
335.455	2427.88
335.684	2387.88
335.912	2468.88
336.14	2493.88
336.369	2397.88
336.597	2325.88
336.825	2323.88
337.053	2382.88
337.281	2483.88
337.51	2604.88
337.738	2680.88
337.966	2518.88
338.194	2303.88
338.422	2244.88
338.65	2178.88
338.878	2213.88
339.106	2148.88
339.334	2124.88
339.562	2100.88
339.79	2181.88
340.018	2290.88
340.246	2349.88
340.474	2363.88
340.702	2304.88
340.93	2297.88
341.158	2263.88
341.386	2229.88
341.614	2222.88
341.842	2200.88
342.07	2221.88
342.298	2252.88
342.526	2222.88
342.754	2202.88
342.981	2220.88
343.209	2133.88
343.437	2157.88
343.665	2221.88
343.893	2288.88
344.12	2331.88
344.348	2356.88
344.576	2284.88
344.804	2188.88
345.031	2207.88
345.259	2224.88
345.487	2120.88
345.714	2068.88
345.942	2048.88
346.17	2064.88
346.397	2102.88
346.625	2114.88
346.853	1988.88
347.08	1959.88
347.308	1995.88
347.535	2079.88
347.763	2131.88
347.99	2061.88
348.218	2029.88
348.445	1992.88
348.673	2083.88
348.9	2121.88
349.128	2173.88
349.355	2211.88
349.583	2181.88
349.81	2060.88
350.037	1953.88
350.265	1918.88
350.492	1958.88
350.72	1965.88
350.947	2094.88
351.174	2119.88
351.402	2011.88
351.629	1944.88
351.856	1966.88
352.083	1957.88
352.311	1914.88
352.538	2016.88
352.765	2108.88
352.992	2109.88
353.22	2051.88
353.447	1991.88
353.674	2028.88
353.901	2053.88
354.128	1990.88
354.355	2018.88
354.583	2097.88
354.81	2154.88
355.037	2139.88
355.264	2122.88
355.491	2063.88
355.718	2076.88
355.945	2027.88
356.172	1983.88
356.399	1900.88
356.626	1970.88
356.853	2067.88
357.08	2222.88
357.307	2434.88
357.534	2378.88
357.761	2120.88
357.988	1982.88
358.215	1929.88
358.441	1969.88
358.668	1918.88
358.895	2004.88
359.122	2112.88
359.349	2329.88
359.576	2260.88
359.802	2032.88
360.029	1982.88
360.256	1937.88
360.483	2022.88
360.709	2100.88
360.936	2180.88
361.163	2250.88
361.39	2451.88
361.616	2584.88
361.843	2510.88
362.07	2334.88
362.296	2067.88
362.523	1987.88
362.749	2028.88
362.976	2072.88
363.203	2090.88
363.429	2023.88
363.656	1981.88
363.882	2064.88
364.109	2282.88
364.335	2446.88
364.562	2284.88
364.788	2144.88
365.015	2086.88
365.241	2054.88
365.468	2077.88
365.694	2159.88
365.92	2190.88
366.147	2100.88
366.373	1993.88
366.599	1979.88
366.826	1979.88
367.052	1999.88
367.278	1998.88
367.505	2056.88
367.731	2095.88
367.957	2106.88
368.184	2192.88
368.41	2279.88
368.636	2283.88
368.862	2311.88
369.089	2314.88
369.315	2213.88
369.541	2165.88
369.767	2097.88
369.993	2057.88
370.219	2076.88
370.445	2116.88
370.672	2250.88
370.898	2309.88
371.124	2269.88
371.35	2154.88
371.576	2280.88
371.802	2369.88
372.028	2206.88
372.254	2136.88
372.48	2087.88
372.706	2033.88
372.932	2093.88
373.158	2136.88
373.384	2133.88
373.61	2251.88
373.835	2310.88
374.061	2178.88
374.287	2157.88
374.513	2154.88
374.739	2168.88
374.965	2216.88
375.191	2186.88
375.416	2172.88
375.642	2275.88
375.868	2417.88
376.094	2400.88
376.319	2314.88
376.545	2194.88
376.771	2187.88
376.997	2340.88
377.222	2277.88
377.448	2203.88
377.674	2273.88
377.899	2273.88
378.125	2365.88
378.35	2332.88
378.576	2173.88
378.802	2093.88
379.027	2083.88
379.253	2155.88
379.478	2178.88
379.704	2167.88
379.929	2166.88
380.155	2162.88
380.38	2215.88
380.606	2206.88
380.831	2215.88
381.057	2333.88
381.282	2274.88
381.507	2241.88
381.733	2459.88
381.958	2502.88
382.184	2300.88
382.409	2254.88
382.634	2236.88
382.86	2251.88
383.085	2266.88
383.31	2368.88
383.535	2531.88
383.761	2618.88
383.986	2568.88
384.211	2423.88
384.436	2444.88
384.662	2552.88
384.887	2624.88
385.112	2474.88
385.337	2572.88
385.562	2436.88
385.787	2462.88
386.013	2561.88
386.238	2512.88
386.463	2514.88
386.688	2721.88
386.913	2860.88
387.138	2750.88
387.363	2545.88
387.588	2561.88
387.813	2507.88
388.038	2562.88
388.263	2669.88
388.488	2527.88
388.713	2321.88
388.938	2365.88
389.163	2405.88
389.387	2503.88
389.612	2447.88
389.837	2516.88
390.062	2512.88
390.287	2493.88
390.512	2484.88
390.736	2403.88
390.961	2409.88
391.186	2345.88
391.411	2406.88
391.636	2441.88
391.86	2467.88
392.085	2495.88
392.31	2453.88
392.534	2426.88
392.759	2506.88
392.984	2485.88
393.208	2488.88
393.433	2572.88
393.658	2714.88
393.882	2696.88
394.107	2486.88
394.331	2477.88
394.556	2480.88
394.78	2528.88
395.005	2618.88
395.229	2716.88
395.454	2879.88
395.678	2807.88
395.903	2693.88
396.127	2610.88
396.352	2680.88
396.576	2741.88
396.801	2705.88
397.025	2714.88
397.249	2709.88
397.474	2646.88
397.698	2721.88
397.922	2759.88
398.147	2904.88
398.371	2955.88
398.595	2958.88
398.82	2841.88
399.044	2942.88
399.268	3053.88
399.492	3260.88
399.717	3325.88
399.941	3348.88
400.165	3272.88
400.389	3194.88
400.613	3196.88
400.837	3577.88
401.062	3958.88
401.286	3323.88
401.51	3142.88
401.734	3236.88
401.958	3113.88
402.182	2932.88
402.406	2864.88
402.63	2767.88
402.854	2848.88
403.078	2884.88
403.302	2913.88
403.526	3017.88
403.75	2980.88
403.974	3019.88
404.198	3000.88
404.422	3105.88
404.645	3201.88
404.869	3131.88
405.093	2945.88
405.317	2890.88
405.541	2956.88
405.765	2966.88
405.988	2970.88
406.212	3076.88
406.436	3052.88
406.66	3237.88
406.883	3252.88
407.107	3600.88
407.331	3944.88
407.555	4137.88
407.778	3726.88
408.002	3199.88
408.226	3112.88
408.449	3125.88
408.673	3021.88
408.896	3077.88
409.12	3076.88
409.344	3070.88
409.567	2945.88
409.791	3011.88
410.014	3100.88
410.238	3219.88
410.461	3371.88
410.685	3010.88
410.908	2881.88
411.132	2954.88
411.355	2933.88
411.578	2850.88
411.802	2958.88
412.025	2914.88
412.249	2911.88
412.472	2860.88
412.695	2814.88
412.919	2834.88
413.142	2826.88
413.365	2851.88
413.589	2945.88
413.812	3028.88
414.035	3101.88
414.258	2859.88
414.482	2896.88
414.705	2902.88
414.928	2861.88
415.151	2827.88
415.374	2826.88
415.597	2900.88
415.821	2964.88
416.044	2986.88
416.267	2969.88
416.49	2757.88
416.713	2717.88
416.936	2861.88
417.159	2909.88
417.382	2940.88
417.605	2778.88
417.828	2861.88
418.051	2894.88
418.274	2838.88
418.497	2768.88
418.72	2757.88
418.943	2764.88
419.166	2918.88
419.389	2969.88
419.611	2887.88
419.834	2795.88
420.057	2788.88
420.28	2770.88
420.503	2782.88
420.726	2819.88
420.948	2819.88
421.171	2677.88
421.394	2793.88
421.617	2922.88
421.839	2850.88
422.062	2852.88
422.285	2766.88
422.507	2780.88
422.73	2643.88
422.953	2641.88
423.175	2632.88
423.398	2752.88
423.621	2729.88
423.843	2767.88
424.066	2844.88
424.288	2988.88
424.511	2954.88
424.733	2836.88
424.956	2657.88
425.178	2590.88
425.401	2684.88
425.623	2714.88
425.846	2692.88
426.068	2832.88
426.291	2834.88
426.513	2848.88
426.735	2821.88
426.958	3008.88
427.18	3125.88
427.402	2919.88
427.625	2990.88
427.847	2976.88
428.069	2740.88
428.292	2694.88
428.514	2610.88
428.736	2648.88
428.958	2690.88
429.181	2738.88
429.403	3141.88
429.625	3720.88
429.847	3184.88
430.069	2776.88
430.292	3046.88
430.514	3116.88
430.736	2874.88
430.958	2972.88
431.18	2802.88
431.402	2655.88
431.624	2633.88
431.846	2583.88
432.068	2482.88
432.29	2524.88
432.512	2616.88
432.734	2702.88
432.956	2763.88
433.178	2818.88
433.4	2797.88
433.622	2734.88
433.844	2704.88
434.066	2529.88
434.287	2588.88
434.509	2644.88
434.731	2832.88
434.953	3014.88
435.175	2922.88
435.397	2823.88
435.618	2765.88
435.84	2754.88
436.062	2692.88
436.284	2773.88
436.505	2729.88
436.727	2804.88
436.949	2748.88
437.17	2650.88
437.392	2643.88
437.614	2598.88
437.835	2555.88
438.057	2682.88
438.278	2756.88
438.5	2630.88
438.721	2632.88
438.943	2644.88
439.165	2652.88
439.386	2602.88
439.608	2661.88
439.829	2666.88
440.05	2687.88
440.272	2627.88
440.493	2626.88
440.715	2690.88
440.936	2858.88
441.158	3074.88
441.379	2998.88
441.6	2922.88
441.822	2890.88
442.043	2892.88
442.264	2790.88
442.486	2666.88
442.707	2657.88
442.928	2666.88
443.149	2791.88
443.371	2920.88
443.592	2982.88
443.813	2937.88
444.034	2919.88
444.255	2934.88
444.476	2976.88
444.698	3054.88
444.919	2992.88
445.14	3124.88
445.361	3094.88
445.582	3118.88
445.803	3033.88
446.024	2933.88
446.245	3098.88
446.466	2977.88
446.687	2840.88
446.908	2838.88
447.129	2786.88
447.35	2764.88
447.571	2733.88
447.792	2628.88
448.013	2680.88
448.234	2710.88
448.455	2840.88
448.675	2787.88
448.896	2588.88
449.117	2516.88
449.338	2614.88
449.559	2692.88
449.779	2830.88
450	3045.88
450.221	3228.88
450.442	3099.88
450.662	2789.88
450.883	2537.88
451.104	2504.88
451.324	2577.88
451.545	2618.88
451.766	2578.88
451.986	2473.88
452.207	2428.88
452.428	2400.88
452.648	2342.88
452.869	2425.88
453.089	2494.88
453.31	2517.88
453.53	2536.88
453.751	2421.88
453.971	2327.88
454.192	2429.88
454.412	2541.88
454.633	2445.88
454.853	2399.88
455.073	2274.88
455.294	2279.88
455.514	2287.88
455.734	2301.88
455.955	2291.88
456.175	2276.88
456.395	2333.88
456.616	2369.88
456.836	2374.88
457.056	2358.88
457.276	2321.88
457.497	2270.88
457.717	2226.88
457.937	2220.88
458.157	2330.88
458.377	2294.88
458.598	2235.88
458.818	2305.88
459.038	2448.88
459.258	2538.88
459.478	2530.88
459.698	2488.88
459.918	2540.88
460.138	2681.88
460.358	2688.88
460.578	2763.88
460.798	2832.88
461.018	2973.88
461.238	2865.88
461.458	2734.88
461.678	2787.88
461.898	2736.88
462.118	2615.88
462.338	2755.88
462.558	2816.88
462.777	2738.88
462.997	2873.88
463.217	3045.88
463.437	2974.88
463.657	2783.88
463.876	2725.88
464.096	2759.88
464.316	2736.88
464.536	2869.88
464.755	2850.88
464.975	2912.88
465.195	2827.88
465.414	2884.88
465.634	2868.88
465.854	2769.88
466.073	2957.88
466.293	2866.88
466.512	2552.88
466.732	2603.88
466.951	2708.88
467.171	2659.88
467.391	2604.88
467.61	2522.88
467.829	2581.88
468.049	2785.88
468.268	3106.88
468.488	2863.88
468.707	2669.88
468.927	2650.88
469.146	2658.88
469.365	2590.88
469.585	2585.88
469.804	2581.88
470.023	2620.88
470.243	2678.88
470.462	2587.88
470.681	2584.88
470.901	2656.88
471.12	2632.88
471.339	2614.88
471.558	2483.88
471.777	2508.88
471.997	2514.88
472.216	2527.88
472.435	2399.88
472.654	2401.88
472.873	2518.88
473.092	2636.88
473.311	2568.88
473.53	2421.88
473.749	2477.88
473.968	2555.88
474.187	2659.88
474.406	2694.88
474.625	2629.88
474.844	2618.88
475.063	2561.88
475.282	2625.88
475.501	2575.88
475.72	2596.88
475.939	2800.88
476.158	2684.88
476.377	2604.88
476.596	2650.88
476.814	2704.88
477.033	2692.88
477.252	2760.88
477.471	2819.88
477.69	2755.88
477.908	2757.88
478.127	2914.88
478.346	3109.88
478.564	3090.88
478.783	3041.88
479.002	3147.88
479.22	3082.88
479.439	3272.88
479.658	3510.88
479.876	3362.88
480.095	3033.88
480.313	2921.88
480.532	2858.88
480.751	2855.88
480.969	2825.88
481.188	2778.88
481.406	2746.88
481.624	2693.88
481.843	2743.88
482.061	2828.88
482.28	2909.88
482.498	2925.88
482.717	2837.88
482.935	2809.88
483.153	2892.88
483.372	2909.88
483.59	2867.88
483.808	2936.88
484.027	2926.88
484.245	3138.88
484.463	3622.88
484.681	3981.88
484.9	3163.88
485.118	2991.88
485.336	2901.88
485.554	3035.88
485.772	3078.88
485.99	3030.88
486.209	3032.88
486.427	3028.88
486.645	3024.88
486.863	2987.88
487.081	3209.88
487.299	3182.88
487.517	3113.88
487.735	3069.88
487.953	3061.88
488.171	3149.88
488.389	3078.88
488.607	3083.88
488.825	3404.88
489.043	3353.88
489.261	3022.88
489.479	3195.88
489.696	3210.88
489.914	3130.88
490.132	3101.88
490.35	3094.88
490.568	3313.88
490.786	3141.88
491.003	3094.88
491.221	3229.88
491.439	3371.88
491.657	3267.88
491.874	3401.88
492.092	3436.88
492.31	3491.88
492.527	3406.88
492.745	3337.88
492.963	3339.88
493.18	3356.88
493.398	3611.88
493.615	3652.88
493.833	3391.88
494.05	3242.88
494.268	3317.88
494.485	3348.88
494.703	3290.88
494.92	3246.88
495.138	3246.88
495.355	3272.88
495.573	3344.88
495.79	3558.88
496.008	3600.88
496.225	3381.88
496.442	3421.88
496.66	3388.88
496.877	3385.88
497.094	3569.88
497.312	3516.88
497.529	3478.88
497.746	3552.88
497.963	4083.88
498.181	4424.88
498.398	4144.88
498.615	4019.88
498.832	3965.88
499.049	3897.88
499.267	3970.88
499.484	4208.88
499.701	4520.88
499.918	4611.88
500.135	4904.88
500.352	5197.88
500.569	5185.88
500.786	5516.88
501.003	5136.88
501.22	4711.88
501.437	4574.88
501.654	4578.88
501.871	4381.88
502.088	3944.88
502.305	3933.88
502.522	3760.88
502.739	3497.88
502.956	3445.88
503.172	3448.88
503.389	3325.88
503.606	3206.88
503.823	3230.88
504.04	3246.88
504.256	3252.88
504.473	3242.88
504.69	3366.88
504.907	3175.88
505.123	3043.88
505.34	3303.88
505.557	4207.88
505.773	3492.88
505.99	3026.88
506.207	2811.88
506.423	2769.88
506.64	2785.88
506.856	2804.88
507.073	3187.88
507.289	3439.88
507.506	3258.88
507.722	2804.88
507.939	2680.88
508.155	2702.88
508.372	2736.88
508.588	2577.88
508.805	2531.88
509.021	2513.88
509.238	2534.88
509.454	2472.88
509.67	2492.88
509.887	2459.88
510.103	2405.88
510.319	2472.88
510.536	2617.88
510.752	2690.88
510.968	2671.88
511.184	2858.88
511.401	2676.88
511.617	2469.88
511.833	2380.88
512.049	2402.88
512.265	2414.88
512.481	2381.88
512.698	2452.88
512.914	2647.88
513.13	2468.88
513.346	2412.88
513.562	2365.88
513.778	2423.88
513.994	2558.88
514.21	2564.88
514.426	2646.88
514.642	2876.88
514.858	2724.88
515.074	2488.88
515.29	2424.88
515.506	2540.88
515.721	2532.88
515.937	2563.88
516.153	2903.88
516.369	2753.88
516.585	2608.88
516.801	2540.88
517.016	2509.88
517.232	2616.88
517.448	2667.88
517.664	2684.88
517.879	2685.88
518.095	2830.88
518.311	2684.88
518.527	2621.88
518.742	2572.88
518.958	2460.88
519.173	2490.88
519.389	2505.88
519.605	2571.88
519.82	2577.88
520.036	2553.88
520.251	2496.88
520.467	2501.88
520.682	2693.88
520.898	2761.88
521.113	2488.88
521.329	2381.88
521.544	2602.88
521.76	2500.88
521.975	2365.88
522.19	2344.88
522.406	2363.88
522.621	2859.88
522.836	2837.88
523.052	2341.88
523.267	2333.88
523.482	2391.88
523.698	2249.88
523.913	2236.88
524.128	2270.88
524.343	2455.88
524.559	2456.88
524.774	2301.88
524.989	2276.88
525.204	2307.88
525.419	2264.88
525.634	2254.88
525.849	2246.88
526.064	2260.88
526.28	2207.88
526.495	2172.88
526.71	2123.88
526.925	2152.88
527.14	2156.88
527.355	2088.88
527.57	2116.88
527.785	2222.88
527.999	2105.88
528.214	2109.88
528.429	2074.88
528.644	2138.88
528.859	2185.88
529.074	2245.88
529.289	2235.88
529.503	2298.88
529.718	2252.88
529.933	2206.88
530.148	2091.88
530.363	2053.88
530.577	2096.88
530.792	2157.88
531.007	2119.88
531.221	2103.88
531.436	2134.88
531.651	2175.88
531.865	2268.88
532.08	2162.88
532.295	2084.88
532.509	1989.88
532.724	2072.88
532.938	2176.88
533.153	2340.88
533.367	2196.88
533.582	2188.88
533.796	2171.88
534.011	2163.88
534.225	2124.88
534.44	2067.88
534.654	2049.88
534.868	2069.88
535.083	2146.88
535.297	2193.88
535.511	2114.88
535.726	2110.88
535.94	2086.88
536.154	2073.88
536.369	2013.88
536.583	2021.88
536.797	1993.88
537.011	2061.88
537.225	2002.88
537.44	1996.88
537.654	2069.88
537.868	2011.88
538.082	1906.88
538.296	1880.88
538.51	1944.88
538.724	1961.88
538.938	1976.88
539.153	2067.88
539.367	2080.88
539.581	2027.88
539.795	2100.88
540.009	2022.88
540.222	2019.88
540.436	2065.88
540.65	2238.88
540.864	2308.88
541.078	2180.88
541.292	2101.88
541.506	2200.88
541.72	2253.88
541.934	2288.88
542.147	2314.88
542.361	2234.88
542.575	2127.88
542.789	2074.88
543.002	1978.88
543.216	2037.88
543.43	2119.88
543.644	2208.88
543.857	2341.88
544.071	2298.88
544.285	2236.88
544.498	2186.88
544.712	2187.88
544.925	2242.88
545.139	2235.88
545.352	2170.88
545.566	2091.88
545.779	2086.88
545.993	2165.88
546.206	2206.88
546.42	2179.88
546.633	2117.88
546.847	2087.88
547.06	2165.88
547.274	2124.88
547.487	2114.88
547.7	2166.88
547.914	2148.88
548.127	2161.88
548.34	2170.88
548.554	2149.88
548.767	2132.88
548.98	2100.88
549.193	2127.88
549.407	2261.88
549.62	2199.88
549.833	2098.88
550.046	2073.88
550.259	2098.88
550.473	2083.88
550.686	2034.88
550.899	2001.88
551.112	2008.88
551.325	1949.88
551.538	2061.88
551.751	2298.88
551.964	1872.88
552.177	1875.88
552.39	1936.88
552.603	2036.88
552.816	2068.88
553.029	2154.88
553.242	2128.88
553.455	2081.88
553.667	2073.88
553.88	2081.88
554.093	2035.88
554.306	1944.88
554.519	1944.88
554.732	1899.88
554.944	1944.88
555.157	1984.88
555.37	1936.88
555.583	1890.88
555.795	1835.88
556.008	1804.88
556.221	1793.88
556.433	1738.88
556.646	1745.88
556.859	1727.88
557.071	1716.88
557.284	1714.88
557.496	1760.88
557.709	1725.88
557.921	1756.88
558.134	1700.88
558.346	1730.88
558.559	1684.88
558.771	1673.88
558.984	1615.88
559.196	1581.88
559.409	1581.88
559.621	1592.88
559.833	1634.88
560.046	1653.88
560.258	1653.88
560.47	1631.88
560.683	1662.88
560.895	1635.88
561.107	1630.88
561.32	1664.88
561.532	1668.88
561.744	1631.88
561.956	1635.88
562.168	1603.88
562.381	1590.88
562.593	1576.88
562.805	1568.88
563.017	1551.88
563.229	1565.88
563.441	1613.88
563.653	1570.88
563.865	1557.88
564.077	1560.88
564.289	1550.88
564.501	1576.88
564.713	1619.88
564.925	1675.88
565.137	1776.88
565.349	1650.88
565.561	1603.88
565.773	1659.88
565.985	1660.88
566.197	1766.88
566.408	1836.88
566.62	1872.88
566.832	1884.88
567.044	1832.88
567.255	1816.88
567.467	1882.88
567.679	1894.88
567.891	1944.88
568.102	1879.88
568.314	1826.88
568.526	1709.88
568.737	1623.88
568.949	1574.88
569.161	1492.88
569.372	1416.88
569.584	1404.88
569.795	1418.88
570.007	1419.88
570.218	1365.88
570.43	1320.88
570.641	1311.88
570.853	1379.88
571.064	1378.88
571.276	1381.88
571.487	1370.88
571.698	1336.88
571.91	1279.88
572.121	1272.88
572.333	1269.88
572.544	1219.88
572.755	1221.88
572.966	1169.88
573.178	1172.88
573.389	1175.88
573.6	1239.88
573.811	1298.88
574.023	1184.88
574.234	1174.88
574.445	1159.88
574.656	1113.88
574.867	1107.88
575.078	1147.88
575.289	1162.88
575.501	1131.88
575.712	1108.88
575.923	1113.88
576.134	1115.88
576.345	1110.88
576.556	1112.88
576.767	1087.88
576.978	1097.88
577.188	1077.88
577.399	1060.88
577.61	1074.88
577.821	1063.88
578.032	1056.88
578.243	1006.88
578.454	1024.88
578.665	1010.88
578.875	998.88
579.086	1006.88
579.297	1017.88
579.508	1061.88
579.718	1013.88
579.929	1012.88
580.14	973.88
580.35	962.88
580.561	1015.88
580.772	1094.88
580.982	1009.88
581.193	1019.88
581.403	959.88
581.614	964.88
581.825	945.88
582.035	960.88
582.246	957.88
582.456	980.88
582.667	951.88
582.877	928.88
583.087	948.88
583.298	952.88
583.508	934.88
583.719	936.88
583.929	932.88
584.139	939.88
584.35	892.88
584.56	908.88
584.77	910.88
584.981	930.88
585.191	949.88
585.401	947.88
585.611	939.88
585.821	908.88
586.032	907.88
586.242	869.88
586.452	862.88
586.662	936.88
586.872	911.88
587.082	877.88
587.292	916.88
587.502	936.88
587.713	922.88
587.923	872.88
588.133	898.88
588.343	911.88
588.553	894.88
588.762	899.88
588.972	893.88
589.182	920.88
589.392	910.88
589.602	917.88
589.812	893.88
590.022	867.88
590.232	844.88
590.441	874.88
590.651	887.88
590.861	875.88
591.071	866.88
591.281	847.88
591.49	875.88
591.7	865.88
591.91	855.88
592.119	876.88
592.329	918.88
592.539	918.88
592.748	897.88
592.958	915.88
593.167	930.88
593.377	932.88
593.587	941.88
593.796	937.88
594.006	937.88
594.215	956.88
594.424	932.88
594.634	904.88
594.843	893.88
595.053	940.88
595.262	871.88
595.472	892.88
595.681	912.88
595.89	868.88
596.1	844.88
596.309	856.88
596.518	840.88
596.727	840.88
596.937	822.88
597.146	805.88
597.355	820.88
597.564	789.88
597.774	779.88
597.983	773.88
598.192	742.88
598.401	752.88
598.61	766.88
598.819	744.88
599.028	774.88
599.237	795.88
599.446	756.88
599.655	760.88
599.864	757.88
600.073	722.88
600.282	750.88
600.491	740.88
600.7	745.88
600.909	743.88
601.118	768.88
601.327	763.88
601.536	775.88
601.745	765.88
601.953	771.88
602.162	770.88
602.371	788.88
602.58	790.88
602.789	779.88
602.997	760.88
603.206	738.88
603.415	745.88
603.623	755.88
603.832	772.88
604.041	765.88
604.249	722.88
604.458	710.88
604.666	736.88
604.875	722.88
605.084	728.88
605.292	758.88
605.501	737.88
605.709	758.88
605.918	747.88
606.126	740.88
606.334	742.88
606.543	754.88
606.751	730.88
606.96	743.88
607.168	721.88
607.376	705.88
607.585	738.88
607.793	730.88
608.001	725.88
608.21	711.88
608.418	746.88
608.626	745.88
608.834	717.88
609.043	772.88
609.251	729.88
609.459	708.88
609.667	716.88
609.875	732.88
610.083	780.88
610.291	745.88
610.499	740.88
610.707	726.88
610.916	708.88
611.124	718.88
611.332	728.88
611.54	718.88
611.748	706.88
611.955	713.88
612.163	723.88
612.371	692.88
612.579	681.88
612.787	710.88
612.995	697.88
613.203	730.88
613.411	703.88
613.618	704.88
613.826	696.88
614.034	722.88
614.242	676.88
614.449	678.88
614.657	715.88
614.865	698.88
615.072	707.88
615.28	692.88
615.488	718.88
615.695	730.88
615.903	734.88
616.111	690.88
616.318	704.88
616.526	719.88
616.733	688.88
616.941	671.88
617.148	675.88
617.356	682.88
617.563	676.88
617.771	676.88
617.978	653.88
618.185	683.88
618.393	657.88
618.6	670.88
618.807	685.88
619.015	661.88
619.222	666.88
619.429	639.88
619.637	658.88
619.844	646.88
620.051	630.88
620.258	641.88
620.466	651.88
620.673	630.88
620.88	600.88
621.087	596.88
621.294	598.88
621.501	600.88
621.708	627.88
621.915	621.88
622.122	641.88
622.329	648.88
622.536	616.88
622.743	615.88
622.95	602.88
623.157	608.88
623.364	622.88
623.571	632.88
623.778	629.88
623.985	628.88
624.192	608.88
624.399	599.88
624.606	581.88
624.812	597.88
625.019	578.88
625.226	575.88
625.433	577.88
625.639	560.88
625.846	557.88
626.053	534.88
626.259	549.88
626.466	549.88
626.673	512.88
626.879	551.88
627.086	541.88
627.293	536.88
627.499	561.88
627.706	560.88
627.912	561.88
628.119	579.88
628.325	557.88
628.532	562.88
628.738	544.88
628.945	554.88
629.151	541.88
629.357	551.88
629.564	557.88
629.77	536.88
629.976	530.88
630.183	521.88
630.389	525.88
630.595	522.88
630.802	541.88
631.008	537.88
631.214	527.88
631.42	537.88
631.627	497.88
631.833	516.88
632.039	520.88
632.245	513.88
632.451	484.88
632.657	535.88
632.863	500.88
633.069	484.88
633.275	494.88
633.481	497.88
633.688	497.88
633.893	490.88
634.099	486.88
634.305	502.88
634.511	462.88
634.717	461.88
634.923	465.88
635.129	450.88
635.335	454.88
635.541	462.88
635.747	460.88
635.952	468.88
636.158	485.88
636.364	475.88
636.57	482.88
636.775	470.88
636.981	490.88
637.187	491.88
637.392	488.88
637.598	484.88
637.804	456.88
638.009	492.88
638.215	451.88
638.421	467.88
638.626	468.88
638.832	459.88
639.037	474.88
639.243	455.88
639.448	438.88
639.654	442.88
639.859	442.88
640.065	454.88
640.27	445.88
640.475	445.88
640.681	444.88
640.886	459.88
641.091	457.88
641.297	466.88
641.502	433.88
641.707	447.88
641.913	464.88
642.118	436.88
642.323	435.88
642.528	440.88
642.733	425.88
642.939	450.88
643.144	431.88
643.349	432.88
643.554	446.88
643.759	427.88
643.964	425.88
644.169	434.88
644.374	444.88
644.579	426.88
644.784	428.88
644.989	434.88
645.194	433.88
645.399	438.88
645.604	408.88
645.809	418.88
646.014	437.88
646.219	450.88
646.423	439.88
646.628	435.88
646.833	449.88
647.038	418.88
647.243	422.88
647.447	436.88
647.652	443.88
647.857	436.88
648.062	434.88
648.266	436.88
648.471	456.88
648.676	415.88
648.88	446.88
649.085	440.88
649.289	426.88
649.494	424.88
649.698	415.88
649.903	406.88
650.107	402.88
650.312	393.88
650.516	434.88
650.721	399.88
650.925	409.88
651.13	388.88
651.334	412.88
651.539	404.88
651.743	373.88
651.947	387.88
652.152	348.88
652.356	376.88
652.56	350.88
652.764	378.88
652.969	370.88
653.173	355.88
653.377	361.88
653.581	350.88
653.785	365.88
653.99	359.88
654.194	370.88
654.398	353.88
654.602	355.88
654.806	322.88
655.01	331.88
655.214	358.88
655.418	349.88
655.622	361.88
655.826	351.88
656.03	359.88
656.234	377.88
656.438	393.88
656.642	359.88
656.846	365.88
657.049	351.88
657.253	317.88
657.457	299.88
657.661	290.88
657.865	286.88
658.068	273.88
658.272	240.88
658.476	234.88
658.68	226.88
658.883	236.88
659.087	197.88
659.291	201.88
659.494	201.88
659.698	176.88
659.901	185.88
660.105	182.88
660.309	175.88
660.512	169.88
660.716	154.88
660.919	143.88
661.123	147.88
661.326	138.88
661.53	128.88
661.733	108.88
661.936	120.88
662.14	119.88
662.343	101.88
662.546	113.88
662.75	121.88
662.953	110.88
663.156	96.88
663.36	92.88
663.563	97.88
663.766	88.88
663.969	100.88
664.173	81.88
664.376	98.88
664.579	80.88
664.782	89.88
664.985	86.88
665.188	87.88
665.391	75.88
665.594	90.88
665.797	91.88
666	95.88
666.203	97.88
666.406	86.88
666.609	90.88
666.812	80.88
667.015	81.88
667.218	91.88
667.421	97.88
667.624	80.88
667.827	83.88
668.03	86.88
668.232	72.88
668.435	83.88
668.638	73.88
668.841	99.88
669.043	90.88
669.246	92.88
669.449	82.88
669.651	84.88
669.854	90.88
670.057	76.88
670.259	99.88
670.462	82.88
670.665	79.88
670.867	88.88
671.07	93.88
671.272	82.88
671.475	84.88
671.677	81.88
671.88	82.88
672.082	80.88
672.284	90.88
672.487	83.88
672.689	80.88
672.892	94.88
