Data from WStandard_LampEnergy8_LIBS07252019.E.O._I.C._HRD10591_15-59-06-929.txt Node
Date: Thu Jul 25 15:59:06 EDT 2019
User: cochatt
Spectrometer: HR+D1059
Trigger mode: 1
Integration Time (sec): 1.000000E-1
Scans to average: 1
Electric dark correction enabled: true
Nonlinearity correction enabled: false
Boxcar width: 0
XAxis mode: Wavelengths
Number of Pixels in Spectrum: 2048
>>>>>Begin Spectral Data<<<<<
223.165	-19.38
223.4	-19.38
223.635	-19.38
223.869	-8.38
224.104	-15.38
224.338	-24.38
224.573	-10.38
224.808	-9.38
225.042	-7.38
225.277	-1.38
225.511	11.62
225.746	2.62
225.98	7.62
226.215	-3.38
226.449	12.62
226.683	16.62
226.918	17.62
227.152	30.62
227.387	31.62
227.621	32.62
227.856	40.62
228.09	55.62
228.324	57.62
228.559	51.62
228.793	101.62
229.027	186.62
229.262	195.62
229.496	217.62
229.73	232.62
229.964	255.62
230.199	268.62
230.433	272.62
230.667	272.62
230.901	297.62
231.136	256.62
231.37	268.62
231.604	247.62
231.838	272.62
232.072	285.62
232.306	260.62
232.541	262.62
232.775	305.62
233.009	322.62
233.243	309.62
233.477	305.62
233.711	304.62
233.945	298.62
234.179	314.62
234.413	318.62
234.647	352.62
234.881	304.62
235.115	291.62
235.349	315.62
235.583	298.62
235.817	286.62
236.051	299.62
236.285	295.62
236.519	338.62
236.753	353.62
236.987	372.62
237.221	378.62
237.455	388.62
237.689	371.62
237.922	358.62
238.156	343.62
238.39	346.62
238.624	378.62
238.858	360.62
239.091	382.62
239.325	405.62
239.559	454.62
239.793	478.62
240.027	525.62
240.26	500.62
240.494	412.62
240.728	369.62
240.961	376.62
241.195	384.62
241.429	408.62
241.662	417.62
241.896	402.62
242.13	429.62
242.363	449.62
242.597	470.62
242.83	458.62
243.064	461.62
243.298	464.62
243.531	465.62
243.765	462.62
243.998	456.62
244.232	424.62
244.465	399.62
244.699	423.62
244.932	450.62
245.166	498.62
245.399	489.62
245.633	473.62
245.866	470.62
246.099	471.62
246.333	480.62
246.566	500.62
246.8	527.62
247.033	617.62
247.266	554.62
247.5	519.62
247.733	544.62
247.966	566.62
248.2	618.62
248.433	603.62
248.666	612.62
248.899	662.62
249.133	780.62
249.366	838.62
249.599	658.62
249.832	640.62
250.066	660.62
250.299	645.62
250.532	588.62
250.765	578.62
250.998	571.62
251.231	594.62
251.465	596.62
251.698	564.62
251.931	590.62
252.164	603.62
252.397	616.62
252.63	604.62
252.863	573.62
253.096	552.62
253.329	589.62
253.562	606.62
253.795	618.62
254.028	626.62
254.261	586.62
254.494	564.62
254.727	543.62
254.96	591.62
255.193	627.62
255.426	728.62
255.659	802.62
255.892	824.62
256.124	680.62
256.357	666.62
256.59	708.62
256.823	744.62
257.056	710.62
257.289	811.62
257.521	912.62
257.754	838.62
257.987	789.62
258.22	849.62
258.452	802.62
258.685	681.62
258.918	669.62
259.151	690.62
259.383	638.62
259.616	580.62
259.849	617.62
260.081	706.62
260.314	763.62
260.547	822.62
260.779	829.62
261.012	779.62
261.244	680.62
261.477	688.62
261.71	713.62
261.942	705.62
262.175	690.62
262.407	724.62
262.64	683.62
262.872	620.62
263.105	627.62
263.337	644.62
263.57	646.62
263.802	670.62
264.035	608.62
264.267	588.62
264.499	594.62
264.732	622.62
264.964	660.62
265.197	664.62
265.429	706.62
265.661	814.62
265.894	861.62
266.126	896.62
266.358	807.62
266.591	847.62
266.823	866.62
267.055	799.62
267.287	810.62
267.52	761.62
267.752	768.62
267.984	776.62
268.216	827.62
268.448	800.62
268.681	787.62
268.913	741.62
269.145	712.62
269.377	698.62
269.609	777.62
269.841	918.62
270.073	1008.62
270.306	1074.62
270.538	1130.62
270.77	964.62
271.002	876.62
271.234	842.62
271.466	848.62
271.698	916.62
271.93	1082.62
272.162	1084.62
272.394	960.62
272.626	909.62
272.858	838.62
273.09	697.62
273.322	718.62
273.553	679.62
273.785	680.62
274.017	741.62
274.249	767.62
274.481	746.62
274.713	694.62
274.945	708.62
275.176	692.62
275.408	682.62
275.64	686.62
275.872	698.62
276.104	770.62
276.335	840.62
276.567	910.62
276.799	914.62
277.031	843.62
277.262	834.62
277.494	867.62
277.726	932.62
277.957	872.62
278.189	809.62
278.421	756.62
278.652	732.62
278.884	739.62
279.115	730.62
279.347	738.62
279.579	737.62
279.81	795.62
280.042	838.62
280.273	903.62
280.505	886.62
280.736	912.62
280.968	848.62
281.199	749.62
281.431	730.62
281.662	718.62
281.894	738.62
282.125	749.62
282.356	771.62
282.588	787.62
282.819	772.62
283.051	820.62
283.282	911.62
283.513	862.62
283.745	743.62
283.976	720.62
284.207	748.62
284.439	750.62
284.67	757.62
284.901	762.62
285.132	796.62
285.364	772.62
285.595	772.62
285.826	750.62
286.057	780.62
286.288	772.62
286.52	813.62
286.751	860.62
286.982	869.62
287.213	810.62
287.444	731.62
287.675	729.62
287.906	797.62
288.138	836.62
288.369	800.62
288.6	774.62
288.831	745.62
289.062	754.62
289.293	779.62
289.524	790.62
289.755	816.62
289.986	776.62
290.217	759.62
290.448	754.62
290.679	779.62
290.91	791.62
291.141	829.62
291.371	819.62
291.602	803.62
291.833	822.62
292.064	854.62
292.295	853.62
292.526	867.62
292.757	900.62
292.987	837.62
293.218	828.62
293.449	901.62
293.68	981.62
293.91	1066.62
294.141	967.62
294.372	945.62
294.603	957.62
294.833	1011.62
295.064	902.62
295.295	845.62
295.525	796.62
295.756	754.62
295.987	738.62
296.217	751.62
296.448	796.62
296.679	788.62
296.909	780.62
297.14	780.62
297.37	801.62
297.601	870.62
297.831	904.62
298.062	896.62
298.292	825.62
298.523	772.62
298.753	824.62
298.984	786.62
299.214	831.62
299.445	824.62
299.675	835.62
299.905	854.62
300.136	845.62
300.366	804.62
300.597	803.62
300.827	841.62
301.057	845.62
301.288	847.62
301.518	865.62
301.748	883.62
301.979	928.62
302.209	937.62
302.439	985.62
302.669	1038.62
302.9	938.62
303.13	877.62
303.36	876.62
303.59	902.62
303.82	869.62
304.051	890.62
304.281	862.62
304.511	881.62
304.741	949.62
304.971	1033.62
305.201	1064.62
305.431	952.62
305.661	818.62
305.891	766.62
306.121	756.62
306.352	804.62
306.582	847.62
306.812	922.62
307.042	950.62
307.272	965.62
307.502	1014.62
307.731	1068.62
307.961	1098.62
308.191	1033.62
308.421	882.62
308.651	833.62
308.881	848.62
309.111	827.62
309.341	841.62
309.571	850.62
309.8	837.62
310.03	837.62
310.26	838.62
310.49	850.62
310.72	872.62
310.949	877.62
311.179	893.62
311.409	876.62
311.639	853.62
311.868	813.62
312.098	866.62
312.328	868.62
312.557	846.62
312.787	868.62
313.017	918.62
313.246	881.62
313.476	885.62
313.706	913.62
313.935	893.62
314.165	905.62
314.394	937.62
314.624	991.62
314.853	1029.62
315.083	1060.62
315.312	1066.62
315.542	1000.62
315.771	906.62
316.001	966.62
316.23	967.62
316.46	985.62
316.689	916.62
316.919	906.62
317.148	870.62
317.377	927.62
317.607	988.62
317.836	1069.62
318.065	1118.62
318.295	1049.62
318.524	997.62
318.753	996.62
318.983	968.62
319.212	930.62
319.441	937.62
319.67	956.62
319.9	945.62
320.129	987.62
320.358	1012.62
320.587	1066.62
320.816	1039.62
321.046	1001.62
321.275	1003.62
321.504	1012.62
321.733	1044.62
321.962	1019.62
322.191	939.62
322.42	901.62
322.649	922.62
322.878	943.62
323.108	944.62
323.337	979.62
323.566	979.62
323.795	977.62
324.024	974.62
324.253	992.62
324.482	954.62
324.71	897.62
324.939	880.62
325.168	912.62
325.397	933.62
325.626	966.62
325.855	972.62
326.084	953.62
326.313	922.62
326.542	974.62
326.77	1004.62
326.999	988.62
327.228	922.62
327.457	909.62
327.686	911.62
327.914	940.62
328.143	943.62
328.372	928.62
328.6	949.62
328.829	934.62
329.058	927.62
329.287	948.62
329.515	949.62
329.744	963.62
329.972	1027.62
330.201	1051.62
330.43	1057.62
330.658	1014.62
330.887	1021.62
331.115	999.62
331.344	1035.62
331.572	976.62
331.801	984.62
332.03	965.62
332.258	992.62
332.486	1036.62
332.715	1033.62
332.943	1033.62
333.172	1012.62
333.4	1020.62
333.629	1020.62
333.857	1101.62
334.085	1261.62
334.314	1431.62
334.542	1445.62
334.771	1288.62
334.999	1159.62
335.227	1090.62
335.455	1049.62
335.684	1081.62
335.912	1082.62
336.14	1088.62
336.369	1097.62
336.597	1036.62
336.825	983.62
337.053	1058.62
337.281	1142.62
337.51	1162.62
337.738	1161.62
337.966	1124.62
338.194	1017.62
338.422	999.62
338.65	995.62
338.878	985.62
339.106	935.62
339.334	938.62
339.562	934.62
339.79	974.62
340.018	1041.62
340.246	1047.62
340.474	1073.62
340.702	1012.62
340.93	1004.62
341.158	1022.62
341.386	1008.62
341.614	1038.62
341.842	986.62
342.07	997.62
342.298	995.62
342.526	1000.62
342.754	959.62
342.981	982.62
343.209	964.62
343.437	977.62
343.665	978.62
343.893	1018.62
344.12	1046.62
344.348	1078.62
344.576	1019.62
344.804	965.62
345.031	987.62
345.259	983.62
345.487	942.62
345.714	934.62
345.942	933.62
346.17	901.62
346.397	947.62
346.625	933.62
346.853	921.62
347.08	911.62
347.308	889.62
347.535	924.62
347.763	988.62
347.99	914.62
348.218	926.62
348.445	924.62
348.673	923.62
348.9	984.62
349.128	971.62
349.355	1001.62
349.583	957.62
349.81	953.62
350.037	862.62
350.265	904.62
350.492	893.62
350.72	920.62
350.947	984.62
351.174	986.62
351.402	915.62
351.629	881.62
351.856	855.62
352.083	873.62
352.311	922.62
352.538	936.62
352.765	947.62
352.992	955.62
353.22	918.62
353.447	884.62
353.674	896.62
353.901	919.62
354.128	917.62
354.355	922.62
354.583	958.62
354.81	997.62
355.037	967.62
355.264	940.62
355.491	923.62
355.718	946.62
355.945	937.62
356.172	903.62
356.399	892.62
356.626	936.62
356.853	940.62
357.08	1041.62
357.307	1110.62
357.534	1070.62
357.761	987.62
357.988	904.62
358.215	878.62
358.441	898.62
358.668	869.62
358.895	928.62
359.122	958.62
359.349	1086.62
359.576	1027.62
359.802	930.62
360.029	884.62
360.256	907.62
360.483	929.62
360.709	948.62
360.936	1011.62
361.163	1051.62
361.39	1138.62
361.616	1168.62
361.843	1139.62
362.07	1068.62
362.296	913.62
362.523	944.62
362.749	928.62
362.976	972.62
363.203	960.62
363.429	933.62
363.656	902.62
363.882	968.62
364.109	1088.62
364.335	1097.62
364.562	1028.62
364.788	993.62
365.015	935.62
365.241	937.62
365.468	954.62
365.694	994.62
365.92	1028.62
366.147	968.62
366.373	919.62
366.599	907.62
366.826	909.62
367.052	919.62
367.278	924.62
367.505	953.62
367.731	961.62
367.957	985.62
368.184	1014.62
368.41	1084.62
368.636	1097.62
368.862	1069.62
369.089	1084.62
369.315	1028.62
369.541	996.62
369.767	984.62
369.993	922.62
370.219	937.62
370.445	966.62
370.672	1054.62
370.898	1084.62
371.124	1048.62
371.35	1012.62
371.576	1028.62
371.802	1074.62
372.028	1004.62
372.254	1000.62
372.48	951.62
372.706	938.62
372.932	966.62
373.158	977.62
373.384	1015.62
373.61	1013.62
373.835	1016.62
374.061	1002.62
374.287	995.62
374.513	1022.62
374.739	1009.62
374.965	1012.62
375.191	1006.62
375.416	1064.62
375.642	1058.62
375.868	1099.62
376.094	1120.62
376.319	1064.62
376.545	1031.62
376.771	1044.62
376.997	1085.62
377.222	1068.62
377.448	1042.62
377.674	1086.62
377.899	1064.62
378.125	1117.62
378.35	1086.62
378.576	1027.62
378.802	954.62
379.027	948.62
379.253	1006.62
379.478	1014.62
379.704	998.62
379.929	971.62
380.155	1017.62
380.38	1010.62
380.606	1023.62
380.831	1002.62
381.057	1084.62
381.282	1092.62
381.507	1072.62
381.733	1142.62
381.958	1166.62
382.184	1055.62
382.409	1043.62
382.634	1059.62
382.86	1088.62
383.085	1031.62
383.31	1117.62
383.535	1180.62
383.761	1254.62
383.986	1161.62
384.211	1133.62
384.436	1118.62
384.662	1185.62
384.887	1221.62
385.112	1160.62
385.337	1180.62
385.562	1140.62
385.787	1167.62
386.013	1221.62
386.238	1190.62
386.463	1196.62
386.688	1252.62
386.913	1339.62
387.138	1271.62
387.363	1175.62
387.588	1175.62
387.813	1157.62
388.038	1216.62
388.263	1249.62
388.488	1164.62
388.713	1109.62
388.938	1103.62
389.163	1118.62
389.387	1123.62
389.612	1164.62
389.837	1166.62
390.062	1161.62
390.287	1165.62
390.512	1132.62
390.736	1120.62
390.961	1095.62
391.186	1088.62
391.411	1094.62
391.636	1125.62
391.86	1141.62
392.085	1112.62
392.31	1118.62
392.534	1133.62
392.759	1168.62
392.984	1134.62
393.208	1167.62
393.433	1195.62
393.658	1216.62
393.882	1238.62
394.107	1181.62
394.331	1177.62
394.556	1109.62
394.78	1174.62
395.005	1209.62
395.229	1230.62
395.454	1350.62
395.678	1302.62
395.903	1238.62
396.127	1207.62
396.352	1223.62
396.576	1235.62
396.801	1258.62
397.025	1264.62
397.249	1282.62
397.474	1243.62
397.698	1244.62
397.922	1250.62
398.147	1333.62
398.371	1393.62
398.595	1355.62
398.82	1316.62
399.044	1348.62
399.268	1410.62
399.492	1491.62
399.717	1497.62
399.941	1527.62
400.165	1453.62
400.389	1445.62
400.613	1454.62
400.837	1662.62
401.062	1796.62
401.286	1561.62
401.51	1448.62
401.734	1480.62
401.958	1448.62
402.182	1330.62
402.406	1288.62
402.63	1291.62
402.854	1316.62
403.078	1302.62
403.302	1320.62
403.526	1356.62
403.75	1382.62
403.974	1407.62
404.198	1380.62
404.422	1432.62
404.645	1522.62
404.869	1458.62
405.093	1359.62
405.317	1338.62
405.541	1361.62
405.765	1376.62
405.988	1369.62
406.212	1405.62
406.436	1418.62
406.66	1458.62
406.883	1468.62
407.107	1711.62
407.331	1829.62
407.555	1939.62
407.778	1729.62
408.002	1451.62
408.226	1395.62
408.449	1434.62
408.673	1415.62
408.896	1404.62
409.12	1417.62
409.344	1398.62
409.567	1336.62
409.791	1358.62
410.014	1388.62
410.238	1484.62
410.461	1584.62
410.685	1405.62
410.908	1366.62
411.132	1354.62
411.355	1360.62
411.578	1347.62
411.802	1342.62
412.025	1358.62
412.249	1347.62
412.472	1324.62
412.695	1319.62
412.919	1280.62
413.142	1317.62
413.365	1328.62
413.589	1366.62
413.812	1396.62
414.035	1427.62
414.258	1343.62
414.482	1309.62
414.705	1330.62
414.928	1346.62
415.151	1352.62
415.374	1311.62
415.597	1368.62
415.821	1355.62
416.044	1372.62
416.267	1346.62
416.49	1281.62
416.713	1250.62
416.936	1330.62
417.159	1407.62
417.382	1385.62
417.605	1310.62
417.828	1342.62
418.051	1329.62
418.274	1335.62
418.497	1238.62
418.72	1305.62
418.943	1299.62
419.166	1353.62
419.389	1382.62
419.611	1298.62
419.834	1292.62
420.057	1355.62
420.28	1268.62
420.503	1329.62
420.726	1338.62
420.948	1301.62
421.171	1268.62
421.394	1300.62
421.617	1343.62
421.839	1371.62
422.062	1312.62
422.285	1281.62
422.507	1274.62
422.73	1254.62
422.953	1244.62
423.175	1243.62
423.398	1285.62
423.621	1275.62
423.843	1333.62
424.066	1360.62
424.288	1429.62
424.511	1404.62
424.733	1382.62
424.956	1246.62
425.178	1273.62
425.401	1252.62
425.623	1267.62
425.846	1286.62
426.068	1362.62
426.291	1356.62
426.513	1336.62
426.735	1341.62
426.958	1442.62
427.18	1524.62
427.402	1390.62
427.625	1444.62
427.847	1384.62
428.069	1298.62
428.292	1272.62
428.514	1240.62
428.736	1241.62
428.958	1269.62
429.181	1296.62
429.403	1481.62
429.625	1780.62
429.847	1506.62
430.069	1307.62
430.292	1460.62
430.514	1439.62
430.736	1377.62
430.958	1380.62
431.18	1314.62
431.402	1230.62
431.624	1235.62
431.846	1178.62
432.068	1148.62
432.29	1149.62
432.512	1227.62
432.734	1262.62
432.956	1307.62
433.178	1359.62
433.4	1308.62
433.622	1345.62
433.844	1248.62
434.066	1230.62
434.287	1197.62
434.509	1230.62
434.731	1310.62
434.953	1394.62
435.175	1356.62
435.397	1270.62
435.618	1307.62
435.84	1275.62
436.062	1223.62
436.284	1273.62
436.505	1332.62
436.727	1322.62
436.949	1286.62
437.17	1257.62
437.392	1236.62
437.614	1256.62
437.835	1195.62
438.057	1254.62
438.278	1263.62
438.5	1260.62
438.721	1252.62
438.943	1234.62
439.165	1252.62
439.386	1244.62
439.608	1289.62
439.829	1250.62
440.05	1248.62
440.272	1249.62
440.493	1247.62
440.715	1258.62
440.936	1365.62
441.158	1473.62
441.379	1396.62
441.6	1368.62
441.822	1362.62
442.043	1322.62
442.264	1336.62
442.486	1254.62
442.707	1272.62
442.928	1256.62
443.149	1290.62
443.371	1392.62
443.592	1412.62
443.813	1394.62
444.034	1388.62
444.255	1352.62
444.476	1373.62
444.698	1428.62
444.919	1406.62
445.14	1524.62
445.361	1459.62
445.582	1449.62
445.803	1423.62
446.024	1405.62
446.245	1439.62
446.466	1413.62
446.687	1334.62
446.908	1337.62
447.129	1309.62
447.35	1314.62
447.571	1328.62
447.792	1290.62
448.013	1258.62
448.234	1274.62
448.455	1332.62
448.675	1370.62
448.896	1207.62
449.117	1213.62
449.338	1267.62
449.559	1274.62
449.779	1357.62
450	1432.62
450.221	1494.62
450.442	1443.62
450.662	1305.62
450.883	1188.62
451.104	1175.62
451.324	1188.62
451.545	1228.62
451.766	1203.62
451.986	1149.62
452.207	1156.62
452.428	1122.62
452.648	1097.62
452.869	1105.62
453.089	1162.62
453.31	1162.62
453.53	1150.62
453.751	1145.62
453.971	1084.62
454.192	1101.62
454.412	1141.62
454.633	1189.62
454.853	1127.62
455.073	1065.62
455.294	1084.62
455.514	1095.62
455.734	1078.62
455.955	1069.62
456.175	1099.62
456.395	1072.62
456.616	1122.62
456.836	1116.62
457.056	1107.62
457.276	1085.62
457.497	1041.62
457.717	1040.62
457.937	1054.62
458.157	1058.62
458.377	1031.62
458.598	1042.62
458.818	1070.62
459.038	1109.62
459.258	1170.62
459.478	1138.62
459.698	1122.62
459.918	1145.62
460.138	1238.62
460.358	1241.62
460.578	1264.62
460.798	1322.62
461.018	1378.62
461.238	1326.62
461.458	1264.62
461.678	1249.62
461.898	1238.62
462.118	1214.62
462.338	1301.62
462.558	1294.62
462.777	1288.62
462.997	1348.62
463.217	1396.62
463.437	1320.62
463.657	1300.62
463.876	1291.62
464.096	1275.62
464.316	1265.62
464.536	1321.62
464.755	1292.62
464.975	1301.62
465.195	1300.62
465.414	1354.62
465.634	1286.62
465.854	1310.62
466.073	1371.62
466.293	1368.62
466.512	1234.62
466.732	1228.62
466.951	1259.62
467.171	1219.62
467.391	1194.62
467.61	1208.62
467.829	1243.62
468.049	1355.62
468.268	1474.62
468.488	1352.62
468.707	1307.62
468.927	1253.62
469.146	1194.62
469.365	1229.62
469.585	1249.62
469.804	1239.62
470.023	1260.62
470.243	1280.62
470.462	1219.62
470.681	1213.62
470.901	1237.62
471.12	1252.62
471.339	1236.62
471.558	1218.62
471.777	1216.62
471.997	1210.62
472.216	1210.62
472.435	1148.62
472.654	1141.62
472.873	1190.62
473.092	1238.62
473.311	1196.62
473.53	1145.62
473.749	1180.62
473.968	1182.62
474.187	1226.62
474.406	1240.62
474.625	1222.62
474.844	1245.62
475.063	1233.62
475.282	1212.62
475.501	1203.62
475.72	1188.62
475.939	1331.62
476.158	1278.62
476.377	1257.62
476.596	1216.62
476.814	1216.62
477.033	1227.62
477.252	1271.62
477.471	1312.62
477.69	1266.62
477.908	1306.62
478.127	1377.62
478.346	1420.62
478.564	1392.62
478.783	1405.62
479.002	1441.62
479.22	1433.62
479.439	1514.62
479.658	1580.62
479.876	1534.62
480.095	1389.62
480.313	1341.62
480.532	1300.62
480.751	1340.62
480.969	1304.62
481.188	1301.62
481.406	1270.62
481.624	1245.62
481.843	1272.62
482.061	1330.62
482.28	1372.62
482.498	1345.62
482.717	1308.62
482.935	1344.62
483.153	1355.62
483.372	1378.62
483.59	1354.62
483.808	1383.62
484.027	1389.62
484.245	1444.62
484.463	1769.62
484.681	1906.62
484.9	1468.62
485.118	1376.62
485.336	1367.62
485.554	1387.62
485.772	1412.62
485.99	1369.62
486.209	1395.62
486.427	1422.62
486.645	1433.62
486.863	1442.62
487.081	1482.62
487.299	1476.62
487.517	1449.62
487.735	1426.62
487.953	1561.62
488.171	1521.62
488.389	1485.62
488.607	1466.62
488.825	1625.62
489.043	1575.62
489.261	1426.62
489.479	1466.62
489.696	1501.62
489.914	1492.62
490.132	1451.62
490.35	1490.62
490.568	1572.62
490.786	1508.62
491.003	1482.62
491.221	1530.62
491.439	1595.62
491.657	1580.62
491.874	1638.62
492.092	1674.62
492.31	1698.62
492.527	1691.62
492.745	1623.62
492.963	1602.62
493.18	1614.62
493.398	1685.62
493.615	1715.62
493.833	1638.62
494.05	1533.62
494.268	1536.62
494.485	1579.62
494.703	1541.62
494.92	1543.62
495.138	1605.62
495.355	1592.62
495.573	1586.62
495.79	1683.62
496.008	1678.62
496.225	1610.62
496.442	1610.62
496.66	1634.62
496.877	1607.62
497.094	1662.62
497.312	1627.62
497.529	1612.62
497.746	1670.62
497.963	1904.62
498.181	1990.62
498.398	1914.62
498.615	1902.62
498.832	1798.62
499.049	1760.62
499.267	1778.62
499.484	1912.62
499.701	2052.62
499.918	2073.62
500.135	2240.62
500.352	2388.62
500.569	2412.62
500.786	2580.62
501.003	2333.62
501.22	2115.62
501.437	2025.62
501.654	2110.62
501.871	2047.62
502.088	1786.62
502.305	1750.62
502.522	1716.62
502.739	1605.62
502.956	1593.62
503.172	1545.62
503.389	1534.62
503.606	1486.62
503.823	1532.62
504.04	1505.62
504.256	1500.62
504.473	1522.62
504.69	1544.62
504.907	1480.62
505.123	1412.62
505.34	1576.62
505.557	2052.62
505.773	1673.62
505.99	1402.62
506.207	1348.62
506.423	1312.62
506.64	1329.62
506.856	1324.62
507.073	1527.62
507.289	1581.62
507.506	1576.62
507.722	1316.62
507.939	1265.62
508.155	1262.62
508.372	1269.62
508.588	1224.62
508.805	1202.62
509.021	1178.62
509.238	1144.62
509.454	1156.62
509.67	1145.62
509.887	1118.62
510.103	1127.62
510.319	1172.62
510.536	1245.62
510.752	1249.62
510.968	1200.62
511.184	1315.62
511.401	1267.62
511.617	1145.62
511.833	1105.62
512.049	1121.62
512.265	1105.62
512.481	1081.62
512.698	1158.62
512.914	1202.62
513.13	1170.62
513.346	1125.62
513.562	1084.62
513.778	1105.62
513.994	1227.62
514.21	1184.62
514.426	1205.62
514.642	1349.62
514.858	1226.62
515.074	1186.62
515.29	1134.62
515.506	1173.62
515.721	1168.62
515.937	1197.62
516.153	1301.62
516.369	1251.62
516.585	1221.62
516.801	1172.62
517.016	1172.62
517.232	1231.62
517.448	1246.62
517.664	1231.62
517.879	1249.62
518.095	1282.62
518.311	1225.62
518.527	1194.62
518.742	1193.62
518.958	1149.62
519.173	1172.62
519.389	1168.62
519.605	1157.62
519.82	1194.62
520.036	1212.62
520.251	1147.62
520.467	1185.62
520.682	1269.62
520.898	1240.62
521.113	1140.62
521.329	1128.62
521.544	1187.62
521.76	1182.62
521.975	1105.62
522.19	1090.62
522.406	1112.62
522.621	1408.62
522.836	1306.62
523.052	1078.62
523.267	1110.62
523.482	1117.62
523.698	1086.62
523.913	1066.62
524.128	1078.62
524.343	1152.62
524.559	1166.62
524.774	1100.62
524.989	1066.62
525.204	1088.62
525.419	1052.62
525.634	1078.62
525.849	1046.62
526.064	1055.62
526.28	1054.62
526.495	1008.62
526.71	1005.62
526.925	1016.62
527.14	1008.62
527.355	974.62
527.57	973.62
527.785	1035.62
527.999	1022.62
528.214	1008.62
528.429	1010.62
528.644	1059.62
528.859	1080.62
529.074	1082.62
529.289	1124.62
529.503	1120.62
529.718	1079.62
529.933	1048.62
530.148	1004.62
530.363	965.62
530.577	996.62
530.792	993.62
531.007	986.62
531.221	966.62
531.436	1028.62
531.651	1033.62
531.865	1052.62
532.08	1019.62
532.295	986.62
532.509	960.62
532.724	968.62
532.938	1019.62
533.153	1084.62
533.367	1040.62
533.582	1037.62
533.796	1002.62
534.011	1034.62
534.225	1023.62
534.44	993.62
534.654	981.62
534.868	980.62
535.083	1028.62
535.297	1067.62
535.511	991.62
535.726	1002.62
535.94	1020.62
536.154	967.62
536.369	952.62
536.583	937.62
536.797	930.62
537.011	1000.62
537.225	940.62
537.44	936.62
537.654	982.62
537.868	954.62
538.082	909.62
538.296	903.62
538.51	924.62
538.724	933.62
538.938	980.62
539.153	1002.62
539.367	1027.62
539.581	956.62
539.795	1028.62
540.009	969.62
540.222	929.62
540.436	978.62
540.65	1083.62
540.864	1107.62
541.078	1079.62
541.292	993.62
541.506	1056.62
541.72	1110.62
541.934	1162.62
542.147	1202.62
542.361	1147.62
542.575	1084.62
542.789	1026.62
543.002	983.62
543.216	985.62
543.43	1036.62
543.644	1042.62
543.857	1126.62
544.071	1140.62
544.285	1105.62
544.498	1096.62
544.712	1097.62
544.925	1110.62
545.139	1105.62
545.352	1098.62
545.566	1089.62
545.779	1092.62
545.993	1081.62
546.206	1106.62
546.42	1076.62
546.633	1082.62
546.847	1078.62
547.06	1067.62
547.274	1084.62
547.487	1078.62
547.7	1078.62
547.914	1106.62
548.127	1064.62
548.34	1081.62
548.554	1064.62
548.767	1061.62
548.98	1069.62
549.193	1090.62
549.407	1128.62
549.62	1092.62
549.833	1050.62
550.046	1035.62
550.259	1063.62
550.473	1048.62
550.686	1028.62
550.899	998.62
551.112	991.62
551.325	975.62
551.538	1067.62
551.751	1162.62
551.964	965.62
552.177	957.62
552.39	937.62
552.603	1015.62
552.816	1022.62
553.029	1047.62
553.242	1083.62
553.455	1084.62
553.667	1056.62
553.88	1062.62
554.093	1013.62
554.306	1000.62
554.519	954.62
554.732	967.62
554.944	961.62
555.157	1015.62
555.37	946.62
555.583	965.62
555.795	946.62
556.008	892.62
556.221	875.62
556.433	860.62
556.646	857.62
556.859	840.62
557.071	871.62
557.284	888.62
557.496	874.62
557.709	883.62
557.921	872.62
558.134	887.62
558.346	882.62
558.559	850.62
558.771	859.62
558.984	864.62
559.196	820.62
559.409	829.62
559.621	834.62
559.833	814.62
560.046	841.62
560.258	865.62
560.47	840.62
560.683	851.62
560.895	825.62
561.107	840.62
561.32	834.62
561.532	855.62
561.744	809.62
561.956	816.62
562.168	783.62
562.381	805.62
562.593	788.62
562.805	799.62
563.017	794.62
563.229	820.62
563.441	807.62
563.653	790.62
563.865	781.62
564.077	798.62
564.289	792.62
564.501	790.62
564.713	802.62
564.925	826.62
565.137	902.62
565.349	811.62
565.561	806.62
565.773	820.62
565.985	850.62
566.197	890.62
566.408	902.62
566.62	919.62
566.832	910.62
567.044	921.62
567.255	914.62
567.467	928.62
567.679	938.62
567.891	950.62
568.102	921.62
568.314	850.62
568.526	838.62
568.737	808.62
568.949	730.62
569.161	729.62
569.372	708.62
569.584	662.62
569.795	698.62
570.007	687.62
570.218	658.62
570.43	660.62
570.641	650.62
570.853	680.62
571.064	685.62
571.276	656.62
571.487	670.62
571.698	618.62
571.91	650.62
572.121	647.62
572.333	637.62
572.544	640.62
572.755	601.62
572.966	572.62
573.178	603.62
573.389	583.62
573.6	613.62
573.811	652.62
574.023	612.62
574.234	585.62
574.445	568.62
574.656	592.62
574.867	575.62
575.078	565.62
575.289	565.62
575.501	546.62
575.712	550.62
575.923	560.62
576.134	575.62
576.345	555.62
576.556	537.62
576.767	543.62
576.978	558.62
577.188	555.62
577.399	538.62
577.61	522.62
577.821	527.62
578.032	544.62
578.243	520.62
578.454	523.62
578.665	511.62
578.875	502.62
579.086	496.62
579.297	505.62
579.508	533.62
579.718	512.62
579.929	525.62
580.14	519.62
580.35	473.62
580.561	517.62
580.772	549.62
580.982	501.62
581.193	511.62
581.403	490.62
581.614	466.62
581.825	491.62
582.035	473.62
582.246	492.62
582.456	526.62
582.667	489.62
582.877	475.62
583.087	476.62
583.298	497.62
583.508	485.62
583.719	478.62
583.929	470.62
584.139	472.62
584.35	465.62
584.56	458.62
584.77	479.62
584.981	472.62
585.191	461.62
585.401	490.62
585.611	476.62
585.821	466.62
586.032	460.62
586.242	436.62
586.452	453.62
586.662	452.62
586.872	452.62
587.082	470.62
587.292	476.62
587.502	492.62
587.713	454.62
587.923	445.62
588.133	467.62
588.343	474.62
588.553	457.62
588.762	419.62
588.972	441.62
589.182	452.62
589.392	429.62
589.602	472.62
589.812	453.62
590.022	450.62
590.232	454.62
590.441	458.62
590.651	471.62
590.861	456.62
591.071	449.62
591.281	446.62
591.49	441.62
591.7	449.62
591.91	452.62
592.119	446.62
592.329	460.62
592.539	472.62
592.748	471.62
592.958	462.62
593.167	480.62
593.377	468.62
593.587	480.62
593.796	458.62
594.006	482.62
594.215	462.62
594.424	459.62
594.634	466.62
594.843	455.62
595.053	498.62
595.262	464.62
595.472	455.62
595.681	462.62
595.89	449.62
596.1	454.62
596.309	457.62
596.518	425.62
596.727	434.62
596.937	418.62
597.146	411.62
597.355	410.62
597.564	426.62
597.774	395.62
597.983	406.62
598.192	405.62
598.401	393.62
598.61	402.62
598.819	381.62
599.028	425.62
599.237	414.62
599.446	398.62
599.655	389.62
599.864	397.62
600.073	376.62
600.282	394.62
600.491	396.62
600.7	375.62
600.909	376.62
601.118	392.62
601.327	397.62
601.536	416.62
601.745	410.62
601.953	417.62
602.162	414.62
602.371	434.62
602.58	426.62
602.789	416.62
602.997	437.62
603.206	416.62
603.415	394.62
603.623	394.62
603.832	415.62
604.041	418.62
604.249	390.62
604.458	374.62
604.666	371.62
604.875	385.62
605.084	407.62
605.292	397.62
605.501	409.62
605.709	427.62
605.918	410.62
606.126	401.62
606.334	394.62
606.543	416.62
606.751	407.62
606.96	404.62
607.168	404.62
607.376	399.62
607.585	393.62
607.793	398.62
608.001	414.62
608.21	423.62
608.418	412.62
608.626	409.62
608.834	377.62
609.043	405.62
609.251	394.62
609.459	381.62
609.667	408.62
609.875	396.62
610.083	425.62
610.291	410.62
610.499	413.62
610.707	405.62
610.916	394.62
611.124	387.62
611.332	406.62
611.54	406.62
611.748	415.62
611.955	393.62
612.163	395.62
612.371	397.62
612.579	382.62
612.787	396.62
612.995	397.62
613.203	410.62
613.411	385.62
613.618	392.62
613.826	376.62
614.034	384.62
614.242	400.62
614.449	389.62
614.657	401.62
614.865	372.62
615.072	386.62
615.28	377.62
615.488	389.62
615.695	418.62
615.903	409.62
616.111	378.62
616.318	396.62
616.526	387.62
616.733	378.62
616.941	377.62
617.148	380.62
617.356	390.62
617.563	381.62
617.771	385.62
617.978	361.62
618.185	370.62
618.393	365.62
618.6	398.62
618.807	368.62
619.015	362.62
619.222	390.62
619.429	360.62
619.637	353.62
619.844	347.62
620.051	354.62
620.258	349.62
620.466	355.62
620.673	352.62
620.88	365.62
621.087	319.62
621.294	353.62
621.501	340.62
621.708	344.62
621.915	353.62
622.122	331.62
622.329	344.62
622.536	350.62
622.743	340.62
622.95	353.62
623.157	343.62
623.364	356.62
623.571	362.62
623.778	358.62
623.985	348.62
624.192	348.62
624.399	337.62
624.606	346.62
624.812	348.62
625.019	344.62
625.226	331.62
625.433	314.62
625.639	337.62
625.846	312.62
626.053	323.62
626.259	294.62
626.466	300.62
626.673	291.62
626.879	280.62
627.086	315.62
627.293	320.62
627.499	298.62
627.706	331.62
627.912	335.62
628.119	337.62
628.325	343.62
628.532	316.62
628.738	335.62
628.945	314.62
629.151	314.62
629.357	325.62
629.564	313.62
629.77	313.62
629.976	311.62
630.183	315.62
630.389	308.62
630.595	315.62
630.802	310.62
631.008	315.62
631.214	288.62
631.42	290.62
631.627	311.62
631.833	282.62
632.039	296.62
632.245	313.62
632.451	285.62
632.657	308.62
632.863	300.62
633.069	283.62
633.275	271.62
633.481	281.62
633.688	279.62
633.893	297.62
634.099	294.62
634.305	261.62
634.511	268.62
634.717	264.62
634.923	263.62
635.129	261.62
635.335	254.62
635.541	269.62
635.747	289.62
635.952	273.62
636.158	267.62
636.364	288.62
636.57	288.62
636.775	289.62
636.981	290.62
637.187	287.62
637.392	279.62
637.598	277.62
637.804	261.62
638.009	266.62
638.215	268.62
638.421	273.62
638.626	260.62
638.832	264.62
639.037	278.62
639.243	262.62
639.448	257.62
639.654	260.62
639.859	270.62
640.065	266.62
640.27	279.62
640.475	264.62
640.681	266.62
640.886	266.62
641.091	275.62
641.297	286.62
641.502	265.62
641.707	260.62
641.913	256.62
642.118	269.62
642.323	246.62
642.528	258.62
642.733	250.62
642.939	262.62
643.144	254.62
643.349	267.62
643.554	246.62
643.759	259.62
643.964	259.62
644.169	275.62
644.374	272.62
644.579	269.62
644.784	278.62
644.989	246.62
645.194	265.62
645.399	263.62
645.604	260.62
645.809	259.62
646.014	256.62
646.219	245.62
646.423	254.62
646.628	248.62
646.833	276.62
647.038	255.62
647.243	250.62
647.447	264.62
647.652	254.62
647.857	261.62
648.062	252.62
648.266	263.62
648.471	265.62
648.676	261.62
648.88	273.62
649.085	267.62
649.289	244.62
649.494	256.62
649.698	260.62
649.903	261.62
650.107	238.62
650.312	256.62
650.516	256.62
650.721	246.62
650.925	239.62
651.13	248.62
651.334	240.62
651.539	241.62
651.743	233.62
651.947	236.62
652.152	228.62
652.356	233.62
652.56	206.62
652.764	218.62
652.969	224.62
653.173	205.62
653.377	221.62
653.581	229.62
653.785	216.62
653.99	213.62
654.194	220.62
654.398	229.62
654.602	212.62
654.806	226.62
655.01	226.62
655.214	217.62
655.418	223.62
655.622	243.62
655.826	225.62
656.03	240.62
656.234	249.62
656.438	264.62
656.642	264.62
656.846	262.62
657.049	227.62
657.253	216.62
657.457	202.62
657.661	201.62
657.865	177.62
658.068	166.62
658.272	172.62
658.476	180.62
658.68	158.62
658.883	167.62
659.087	155.62
659.291	138.62
659.494	137.62
659.698	145.62
659.901	132.62
660.105	123.62
660.309	129.62
660.512	130.62
660.716	120.62
660.919	132.62
661.123	113.62
661.326	97.62
661.53	109.62
661.733	99.62
661.936	96.62
662.14	107.62
662.343	104.62
662.546	103.62
662.75	112.62
662.953	101.62
663.156	100.62
663.36	87.62
663.563	105.62
663.766	94.62
663.969	82.62
664.173	91.62
664.376	94.62
664.579	65.62
664.782	77.62
664.985	77.62
665.188	88.62
665.391	86.62
665.594	82.62
665.797	93.62
666	88.62
666.203	91.62
666.406	85.62
666.609	75.62
666.812	81.62
667.015	85.62
667.218	85.62
667.421	93.62
667.624	63.62
667.827	81.62
668.03	76.62
668.232	76.62
668.435	72.62
668.638	89.62
668.841	93.62
669.043	90.62
669.246	81.62
669.449	80.62
669.651	77.62
669.854	82.62
670.057	86.62
670.259	64.62
670.462	82.62
670.665	83.62
670.867	77.62
671.07	80.62
671.272	76.62
671.475	84.62
671.677	75.62
671.88	84.62
672.082	96.62
672.284	76.62
672.487	88.62
672.689	86.62
672.892	87.62
