Data from WStandard_LampEnergy8_LIBS07252019.E.O._I.C._HRD10591_15-58-49-929.txt Node
Date: Thu Jul 25 15:58:49 EDT 2019
User: cochatt
Spectrometer: HR+D1059
Trigger mode: 1
Integration Time (sec): 1.000000E-1
Scans to average: 1
Electric dark correction enabled: true
Nonlinearity correction enabled: false
Boxcar width: 0
XAxis mode: Wavelengths
Number of Pixels in Spectrum: 2048
>>>>>Begin Spectral Data<<<<<
223.165	-24.25
223.4	-24.25
223.635	-24.25
223.869	-17.25
224.104	-13.25
224.338	-15.25
224.573	-18.25
224.808	0.75
225.042	-0.25
225.277	5.75
225.511	-1.25
225.746	1.75
225.98	4.75
226.215	4.75
226.449	13.75
226.683	19.75
226.918	24.75
227.152	13.75
227.387	34.75
227.621	33.75
227.856	41.75
228.09	41.75
228.324	61.75
228.559	54.75
228.793	109.75
229.027	199.75
229.262	196.75
229.496	230.75
229.73	217.75
229.964	241.75
230.199	247.75
230.433	278.75
230.667	276.75
230.901	296.75
231.136	269.75
231.37	246.75
231.604	259.75
231.838	279.75
232.072	270.75
232.306	259.75
232.541	276.75
232.775	311.75
233.009	330.75
233.243	314.75
233.477	306.75
233.711	285.75
233.945	304.75
234.179	314.75
234.413	326.75
234.647	349.75
234.881	314.75
235.115	292.75
235.349	313.75
235.583	308.75
235.817	282.75
236.051	298.75
236.285	302.75
236.519	321.75
236.753	356.75
236.987	357.75
237.221	368.75
237.455	379.75
237.689	375.75
237.922	379.75
238.156	355.75
238.39	354.75
238.624	374.75
238.858	400.75
239.091	405.75
239.325	416.75
239.559	477.75
239.793	487.75
240.027	531.75
240.26	486.75
240.494	393.75
240.728	386.75
240.961	379.75
241.195	402.75
241.429	443.75
241.662	390.75
241.896	398.75
242.13	401.75
242.363	463.75
242.597	467.75
242.83	441.75
243.064	453.75
243.298	494.75
243.531	467.75
243.765	462.75
243.998	466.75
244.232	432.75
244.465	408.75
244.699	427.75
244.932	466.75
245.166	527.75
245.399	501.75
245.633	485.75
245.866	460.75
246.099	479.75
246.333	487.75
246.566	518.75
246.8	516.75
247.033	571.75
247.266	576.75
247.5	539.75
247.733	543.75
247.966	574.75
248.2	622.75
248.433	600.75
248.666	617.75
248.899	688.75
249.133	752.75
249.366	823.75
249.599	682.75
249.832	621.75
250.066	631.75
250.299	614.75
250.532	592.75
250.765	548.75
250.998	568.75
251.231	587.75
251.465	622.75
251.698	594.75
251.931	586.75
252.164	602.75
252.397	616.75
252.63	619.75
252.863	540.75
253.096	558.75
253.329	588.75
253.562	614.75
253.795	634.75
254.028	643.75
254.261	587.75
254.494	581.75
254.727	570.75
254.96	585.75
255.193	657.75
255.426	728.75
255.659	799.75
255.892	794.75
256.124	672.75
256.357	633.75
256.59	692.75
256.823	723.75
257.056	712.75
257.289	856.75
257.521	913.75
257.754	847.75
257.987	793.75
258.22	872.75
258.452	839.75
258.685	714.75
258.918	679.75
259.151	688.75
259.383	651.75
259.616	616.75
259.849	646.75
260.081	704.75
260.314	779.75
260.547	808.75
260.779	797.75
261.012	768.75
261.244	691.75
261.477	678.75
261.71	712.75
261.942	690.75
262.175	679.75
262.407	716.75
262.64	681.75
262.872	627.75
263.105	637.75
263.337	653.75
263.57	638.75
263.802	641.75
264.035	582.75
264.267	581.75
264.499	579.75
264.732	623.75
264.964	660.75
265.197	693.75
265.429	732.75
265.661	788.75
265.894	861.75
266.126	875.75
266.358	784.75
266.591	809.75
266.823	853.75
267.055	790.75
267.287	770.75
267.52	770.75
267.752	772.75
267.984	766.75
268.216	806.75
268.448	815.75
268.681	788.75
268.913	726.75
269.145	703.75
269.377	712.75
269.609	768.75
269.841	908.75
270.073	1035.75
270.306	1106.75
270.538	1111.75
270.77	985.75
271.002	858.75
271.234	816.75
271.466	839.75
271.698	938.75
271.93	1084.75
272.162	1057.75
272.394	944.75
272.626	928.75
272.858	809.75
273.09	728.75
273.322	714.75
273.553	665.75
273.785	664.75
274.017	731.75
274.249	760.75
274.481	777.75
274.713	716.75
274.945	681.75
275.176	698.75
275.408	702.75
275.64	686.75
275.872	703.75
276.104	763.75
276.335	823.75
276.567	968.75
276.799	927.75
277.031	872.75
277.262	824.75
277.494	862.75
277.726	914.75
277.957	912.75
278.189	840.75
278.421	778.75
278.652	752.75
278.884	750.75
279.115	770.75
279.347	768.75
279.579	755.75
279.81	754.75
280.042	821.75
280.273	904.75
280.505	876.75
280.736	873.75
280.968	848.75
281.199	760.75
281.431	723.75
281.662	712.75
281.894	716.75
282.125	745.75
282.356	792.75
282.588	788.75
282.819	788.75
283.051	855.75
283.282	871.75
283.513	866.75
283.745	764.75
283.976	728.75
284.207	714.75
284.439	755.75
284.67	754.75
284.901	772.75
285.132	802.75
285.364	806.75
285.595	788.75
285.826	795.75
286.057	771.75
286.288	773.75
286.52	804.75
286.751	838.75
286.982	848.75
287.213	775.75
287.444	744.75
287.675	738.75
287.906	794.75
288.138	849.75
288.369	776.75
288.6	781.75
288.831	754.75
289.062	761.75
289.293	800.75
289.524	779.75
289.755	816.75
289.986	802.75
290.217	745.75
290.448	755.75
290.679	786.75
290.91	812.75
291.141	814.75
291.371	861.75
291.602	828.75
291.833	800.75
292.064	830.75
292.295	836.75
292.526	857.75
292.757	902.75
292.987	787.75
293.218	819.75
293.449	898.75
293.68	1010.75
293.91	988.75
294.141	957.75
294.372	923.75
294.603	972.75
294.833	985.75
295.064	927.75
295.295	831.75
295.525	804.75
295.756	760.75
295.987	746.75
296.217	766.75
296.448	773.75
296.679	779.75
296.909	784.75
297.14	787.75
297.37	819.75
297.601	848.75
297.831	904.75
298.062	906.75
298.292	827.75
298.523	816.75
298.753	803.75
298.984	809.75
299.214	839.75
299.445	842.75
299.675	848.75
299.905	854.75
300.136	822.75
300.366	769.75
300.597	780.75
300.827	778.75
301.057	808.75
301.288	865.75
301.518	878.75
301.748	883.75
301.979	920.75
302.209	940.75
302.439	997.75
302.669	1014.75
302.9	938.75
303.13	845.75
303.36	857.75
303.59	890.75
303.82	870.75
304.051	905.75
304.281	846.75
304.511	869.75
304.741	940.75
304.971	1032.75
305.201	1099.75
305.431	978.75
305.661	816.75
305.891	734.75
306.121	784.75
306.352	803.75
306.582	844.75
306.812	914.75
307.042	967.75
307.272	963.75
307.502	1016.75
307.731	1099.75
307.961	1138.75
308.191	990.75
308.421	883.75
308.651	884.75
308.881	847.75
309.111	837.75
309.341	860.75
309.571	855.75
309.8	855.75
310.03	840.75
310.26	840.75
310.49	827.75
310.72	873.75
310.949	902.75
311.179	878.75
311.409	860.75
311.639	849.75
311.868	850.75
312.098	873.75
312.328	856.75
312.557	859.75
312.787	853.75
313.017	891.75
313.246	898.75
313.476	874.75
313.706	891.75
313.935	888.75
314.165	890.75
314.394	930.75
314.624	1005.75
314.853	1017.75
315.083	1089.75
315.312	1087.75
315.542	1008.75
315.771	925.75
316.001	960.75
316.23	990.75
316.46	967.75
316.689	945.75
316.919	920.75
317.148	863.75
317.377	924.75
317.607	960.75
317.836	1101.75
318.065	1076.75
318.295	1024.75
318.524	1005.75
318.753	980.75
318.983	950.75
319.212	953.75
319.441	940.75
319.67	949.75
319.9	944.75
320.129	963.75
320.358	1044.75
320.587	1062.75
320.816	1043.75
321.046	988.75
321.275	1008.75
321.504	999.75
321.733	1063.75
321.962	997.75
322.191	922.75
322.42	940.75
322.649	940.75
322.878	914.75
323.108	966.75
323.337	994.75
323.566	979.75
323.795	972.75
324.024	962.75
324.253	966.75
324.482	961.75
324.71	912.75
324.939	902.75
325.168	918.75
325.397	942.75
325.626	976.75
325.855	946.75
326.084	931.75
326.313	932.75
326.542	985.75
326.77	990.75
326.999	994.75
327.228	965.75
327.457	915.75
327.686	907.75
327.914	909.75
328.143	933.75
328.372	950.75
328.6	923.75
328.829	925.75
329.058	939.75
329.287	931.75
329.515	953.75
329.744	988.75
329.972	1023.75
330.201	1063.75
330.43	1033.75
330.658	986.75
330.887	991.75
331.115	983.75
331.344	1009.75
331.572	989.75
331.801	1014.75
332.03	1003.75
332.258	983.75
332.486	1013.75
332.715	1007.75
332.943	1026.75
333.172	1000.75
333.4	1019.75
333.629	1037.75
333.857	1115.75
334.085	1266.75
334.314	1385.75
334.542	1471.75
334.771	1320.75
334.999	1158.75
335.227	1122.75
335.455	1048.75
335.684	1074.75
335.912	1075.75
336.14	1118.75
336.369	1078.75
336.597	1060.75
336.825	1011.75
337.053	1061.75
337.281	1118.75
337.51	1157.75
337.738	1221.75
337.966	1108.75
338.194	1031.75
338.422	991.75
338.65	996.75
338.878	951.75
339.106	979.75
339.334	955.75
339.562	941.75
339.79	980.75
340.018	1033.75
340.246	1052.75
340.474	1056.75
340.702	1038.75
340.93	1063.75
341.158	1022.75
341.386	1011.75
341.614	999.75
341.842	1005.75
342.07	1002.75
342.298	998.75
342.526	1003.75
342.754	1015.75
342.981	991.75
343.209	959.75
343.437	977.75
343.665	970.75
343.893	1015.75
344.12	1076.75
344.348	1084.75
344.576	1033.75
344.804	983.75
345.031	1002.75
345.259	992.75
345.487	975.75
345.714	933.75
345.942	928.75
346.17	920.75
346.397	942.75
346.625	955.75
346.853	920.75
347.08	902.75
347.308	901.75
347.535	937.75
347.763	964.75
347.99	932.75
348.218	890.75
348.445	936.75
348.673	928.75
348.9	986.75
349.128	1004.75
349.355	1001.75
349.583	985.75
349.81	943.75
350.037	898.75
350.265	869.75
350.492	882.75
350.72	914.75
350.947	982.75
351.174	977.75
351.402	911.75
351.629	875.75
351.856	859.75
352.083	888.75
352.311	882.75
352.538	939.75
352.765	969.75
352.992	932.75
353.22	915.75
353.447	875.75
353.674	929.75
353.901	916.75
354.128	870.75
354.355	916.75
354.583	960.75
354.81	991.75
355.037	974.75
355.264	945.75
355.491	940.75
355.718	922.75
355.945	935.75
356.172	901.75
356.399	914.75
356.626	880.75
356.853	959.75
357.08	1037.75
357.307	1123.75
357.534	1072.75
357.761	959.75
357.988	905.75
358.215	872.75
358.441	896.75
358.668	903.75
358.895	950.75
359.122	970.75
359.349	1072.75
359.576	1045.75
359.802	943.75
360.029	900.75
360.256	895.75
360.483	935.75
360.709	968.75
360.936	959.75
361.163	1004.75
361.39	1091.75
361.616	1171.75
361.843	1166.75
362.07	1061.75
362.296	948.75
362.523	937.75
362.749	959.75
362.976	940.75
363.203	959.75
363.429	930.75
363.656	912.75
363.882	970.75
364.109	1097.75
364.335	1106.75
364.562	1028.75
364.788	971.75
365.015	948.75
365.241	900.75
365.468	958.75
365.694	975.75
365.92	1003.75
366.147	979.75
366.373	934.75
366.599	890.75
366.826	892.75
367.052	922.75
367.278	956.75
367.505	957.75
367.731	964.75
367.957	954.75
368.184	999.75
368.41	1067.75
368.636	1097.75
368.862	1102.75
369.089	1076.75
369.315	1033.75
369.541	976.75
369.767	965.75
369.993	928.75
370.219	931.75
370.445	978.75
370.672	1014.75
370.898	1065.75
371.124	1033.75
371.35	1006.75
371.576	1050.75
371.802	1068.75
372.028	1010.75
372.254	975.75
372.48	938.75
372.706	962.75
372.932	977.75
373.158	974.75
373.384	972.75
373.61	1028.75
373.835	1049.75
374.061	966.75
374.287	984.75
374.513	992.75
374.739	984.75
374.965	986.75
375.191	1021.75
375.416	1003.75
375.642	1057.75
375.868	1131.75
376.094	1134.75
376.319	1084.75
376.545	1030.75
376.771	1052.75
376.997	1058.75
377.222	1050.75
377.448	1033.75
377.674	1068.75
377.899	1058.75
378.125	1114.75
378.35	1104.75
378.576	990.75
378.802	950.75
379.027	988.75
379.253	1013.75
379.478	971.75
379.704	1027.75
379.929	1000.75
380.155	990.75
380.38	1028.75
380.606	1009.75
380.831	1003.75
381.057	1100.75
381.282	1088.75
381.507	1046.75
381.733	1108.75
381.958	1143.75
382.184	1093.75
382.409	1022.75
382.634	1056.75
382.86	1064.75
383.085	1043.75
383.31	1084.75
383.535	1222.75
383.761	1225.75
383.986	1169.75
384.211	1114.75
384.436	1151.75
384.662	1206.75
384.887	1231.75
385.112	1159.75
385.337	1172.75
385.562	1115.75
385.787	1150.75
386.013	1170.75
386.238	1174.75
386.463	1195.75
386.688	1271.75
386.913	1350.75
387.138	1274.75
387.363	1201.75
387.588	1183.75
387.813	1142.75
388.038	1198.75
388.263	1237.75
388.488	1159.75
388.713	1070.75
388.938	1083.75
389.163	1096.75
389.387	1142.75
389.612	1130.75
389.837	1161.75
390.062	1168.75
390.287	1139.75
390.512	1142.75
390.736	1134.75
390.961	1110.75
391.186	1083.75
391.411	1116.75
391.636	1122.75
391.86	1127.75
392.085	1110.75
392.31	1146.75
392.534	1142.75
392.759	1142.75
392.984	1139.75
393.208	1156.75
393.433	1217.75
393.658	1247.75
393.882	1223.75
394.107	1195.75
394.331	1154.75
394.556	1114.75
394.78	1179.75
395.005	1224.75
395.229	1258.75
395.454	1322.75
395.678	1292.75
395.903	1259.75
396.127	1194.75
396.352	1235.75
396.576	1260.75
396.801	1273.75
397.025	1254.75
397.249	1245.75
397.474	1232.75
397.698	1245.75
397.922	1282.75
398.147	1360.75
398.371	1394.75
398.595	1356.75
398.82	1298.75
399.044	1362.75
399.268	1399.75
399.492	1451.75
399.717	1520.75
399.941	1476.75
400.165	1479.75
400.389	1412.75
400.613	1474.75
400.837	1643.75
401.062	1822.75
401.286	1558.75
401.51	1482.75
401.734	1487.75
401.958	1417.75
402.182	1355.75
402.406	1299.75
402.63	1322.75
402.854	1334.75
403.078	1333.75
403.302	1332.75
403.526	1364.75
403.75	1388.75
403.974	1401.75
404.198	1372.75
404.422	1453.75
404.645	1512.75
404.869	1470.75
405.093	1338.75
405.317	1316.75
405.541	1352.75
405.765	1358.75
405.988	1390.75
406.212	1402.75
406.436	1416.75
406.66	1436.75
406.883	1520.75
407.107	1674.75
407.331	1820.75
407.555	1968.75
407.778	1716.75
408.002	1436.75
408.226	1447.75
408.449	1411.75
408.673	1381.75
408.896	1397.75
409.12	1444.75
409.344	1416.75
409.567	1371.75
409.791	1381.75
410.014	1406.75
410.238	1526.75
410.461	1555.75
410.685	1387.75
410.908	1339.75
411.132	1400.75
411.355	1356.75
411.578	1320.75
411.802	1367.75
412.025	1354.75
412.249	1356.75
412.472	1311.75
412.695	1323.75
412.919	1307.75
413.142	1303.75
413.365	1352.75
413.589	1366.75
413.812	1463.75
414.035	1463.75
414.258	1355.75
414.482	1315.75
414.705	1330.75
414.928	1315.75
415.151	1298.75
415.374	1329.75
415.597	1333.75
415.821	1346.75
416.044	1349.75
416.267	1346.75
416.49	1311.75
416.713	1283.75
416.936	1352.75
417.159	1412.75
417.382	1392.75
417.605	1310.75
417.828	1315.75
418.051	1328.75
418.274	1318.75
418.497	1306.75
418.72	1322.75
418.943	1322.75
419.166	1334.75
419.389	1392.75
419.611	1329.75
419.834	1288.75
420.057	1335.75
420.28	1303.75
420.503	1311.75
420.726	1326.75
420.948	1301.75
421.171	1308.75
421.394	1281.75
421.617	1380.75
421.839	1312.75
422.062	1322.75
422.285	1304.75
422.507	1295.75
422.73	1257.75
422.953	1206.75
423.175	1249.75
423.398	1273.75
423.621	1294.75
423.843	1310.75
424.066	1338.75
424.288	1394.75
424.511	1444.75
424.733	1385.75
424.956	1271.75
425.178	1211.75
425.401	1283.75
425.623	1294.75
425.846	1244.75
426.068	1311.75
426.291	1382.75
426.513	1314.75
426.735	1364.75
426.958	1443.75
427.18	1528.75
427.402	1401.75
427.625	1429.75
427.847	1412.75
428.069	1274.75
428.292	1275.75
428.514	1241.75
428.736	1232.75
428.958	1252.75
429.181	1290.75
429.403	1508.75
429.625	1804.75
429.847	1502.75
430.069	1310.75
430.292	1436.75
430.514	1470.75
430.736	1356.75
430.958	1448.75
431.18	1332.75
431.402	1241.75
431.624	1218.75
431.846	1176.75
432.068	1171.75
432.29	1171.75
432.512	1205.75
432.734	1253.75
432.956	1299.75
433.178	1320.75
433.4	1351.75
433.622	1308.75
433.844	1264.75
434.066	1215.75
434.287	1203.75
434.509	1215.75
434.731	1279.75
434.953	1378.75
435.175	1353.75
435.397	1283.75
435.618	1306.75
435.84	1257.75
436.062	1247.75
436.284	1280.75
436.505	1303.75
436.727	1304.75
436.949	1271.75
437.17	1248.75
437.392	1234.75
437.614	1231.75
437.835	1208.75
438.057	1243.75
438.278	1258.75
438.5	1237.75
438.721	1233.75
438.943	1255.75
439.165	1225.75
439.386	1241.75
439.608	1257.75
439.829	1247.75
440.05	1257.75
440.272	1255.75
440.493	1260.75
440.715	1280.75
440.936	1363.75
441.158	1479.75
441.379	1448.75
441.6	1395.75
441.822	1395.75
442.043	1377.75
442.264	1347.75
442.486	1251.75
442.707	1248.75
442.928	1248.75
443.149	1288.75
443.371	1392.75
443.592	1366.75
443.813	1355.75
444.034	1410.75
444.255	1389.75
444.476	1379.75
444.698	1412.75
444.919	1439.75
445.14	1510.75
445.361	1484.75
445.582	1471.75
445.803	1391.75
446.024	1392.75
446.245	1436.75
446.466	1393.75
446.687	1366.75
446.908	1354.75
447.129	1356.75
447.35	1343.75
447.571	1304.75
447.792	1238.75
448.013	1259.75
448.234	1275.75
448.455	1337.75
448.675	1329.75
448.896	1222.75
449.117	1191.75
449.338	1234.75
449.559	1284.75
449.779	1307.75
450	1426.75
450.221	1492.75
450.442	1431.75
450.662	1326.75
450.883	1199.75
451.104	1202.75
451.324	1214.75
451.545	1223.75
451.766	1204.75
451.986	1142.75
452.207	1168.75
452.428	1123.75
452.648	1088.75
452.869	1115.75
453.089	1145.75
453.31	1171.75
453.53	1166.75
453.751	1139.75
453.971	1064.75
454.192	1120.75
454.412	1166.75
454.633	1145.75
454.853	1148.75
455.073	1051.75
455.294	1094.75
455.514	1065.75
455.734	1063.75
455.955	1111.75
456.175	1094.75
456.395	1047.75
456.616	1091.75
456.836	1107.75
457.056	1106.75
457.276	1106.75
457.497	1089.75
457.717	1012.75
457.937	1046.75
458.157	1085.75
458.377	1060.75
458.598	1032.75
458.818	1079.75
459.038	1114.75
459.258	1163.75
459.478	1180.75
459.698	1103.75
459.918	1160.75
460.138	1209.75
460.358	1256.75
460.578	1254.75
460.798	1297.75
461.018	1358.75
461.238	1314.75
461.458	1267.75
461.678	1265.75
461.898	1228.75
462.118	1232.75
462.338	1249.75
462.558	1277.75
462.777	1265.75
462.997	1332.75
463.217	1374.75
463.437	1329.75
463.657	1263.75
463.876	1249.75
464.096	1257.75
464.316	1269.75
464.536	1332.75
464.755	1334.75
464.975	1311.75
465.195	1292.75
465.414	1329.75
465.634	1362.75
465.854	1335.75
466.073	1401.75
466.293	1347.75
466.512	1210.75
466.732	1221.75
466.951	1255.75
467.171	1249.75
467.391	1184.75
467.61	1212.75
467.829	1254.75
468.049	1349.75
468.268	1455.75
468.488	1373.75
468.707	1254.75
468.927	1235.75
469.146	1234.75
469.365	1224.75
469.585	1264.75
469.804	1246.75
470.023	1242.75
470.243	1273.75
470.462	1251.75
470.681	1222.75
470.901	1240.75
471.12	1227.75
471.339	1226.75
471.558	1213.75
471.777	1183.75
471.997	1235.75
472.216	1173.75
472.435	1154.75
472.654	1154.75
472.873	1189.75
473.092	1248.75
473.311	1198.75
473.53	1133.75
473.749	1139.75
473.968	1191.75
474.187	1225.75
474.406	1278.75
474.625	1210.75
474.844	1225.75
475.063	1239.75
475.282	1217.75
475.501	1202.75
475.72	1231.75
475.939	1314.75
476.158	1224.75
476.377	1215.75
476.596	1202.75
476.814	1209.75
477.033	1233.75
477.252	1255.75
477.471	1281.75
477.69	1321.75
477.908	1288.75
478.127	1361.75
478.346	1398.75
478.564	1430.75
478.783	1424.75
479.002	1447.75
479.22	1449.75
479.439	1477.75
479.658	1570.75
479.876	1505.75
480.095	1348.75
480.313	1344.75
480.532	1349.75
480.751	1280.75
480.969	1318.75
481.188	1267.75
481.406	1286.75
481.624	1234.75
481.843	1280.75
482.061	1302.75
482.28	1322.75
482.498	1350.75
482.717	1327.75
482.935	1336.75
483.153	1349.75
483.372	1360.75
483.59	1371.75
483.808	1324.75
484.027	1378.75
484.245	1457.75
484.463	1764.75
484.681	1926.75
484.9	1476.75
485.118	1396.75
485.336	1366.75
485.554	1380.75
485.772	1442.75
485.99	1412.75
486.209	1406.75
486.427	1387.75
486.645	1415.75
486.863	1432.75
487.081	1452.75
487.299	1473.75
487.517	1446.75
487.735	1458.75
487.953	1502.75
488.171	1520.75
488.389	1479.75
488.607	1464.75
488.825	1614.75
489.043	1570.75
489.261	1398.75
489.479	1484.75
489.696	1516.75
489.914	1469.75
490.132	1479.75
490.35	1485.75
490.568	1549.75
490.786	1529.75
491.003	1503.75
491.221	1557.75
491.439	1609.75
491.657	1620.75
491.874	1657.75
492.092	1657.75
492.31	1712.75
492.527	1695.75
492.745	1614.75
492.963	1617.75
493.18	1650.75
493.398	1740.75
493.615	1704.75
493.833	1625.75
494.05	1595.75
494.268	1575.75
494.485	1578.75
494.703	1553.75
494.92	1540.75
495.138	1544.75
495.355	1582.75
495.573	1647.75
495.79	1698.75
496.008	1681.75
496.225	1591.75
496.442	1589.75
496.66	1628.75
496.877	1586.75
497.094	1663.75
497.312	1659.75
497.529	1637.75
497.746	1689.75
497.963	1859.75
498.181	1990.75
498.398	1917.75
498.615	1888.75
498.832	1826.75
499.049	1754.75
499.267	1775.75
499.484	1932.75
499.701	2053.75
499.918	2119.75
500.135	2216.75
500.352	2417.75
500.569	2390.75
500.786	2551.75
501.003	2326.75
501.22	2140.75
501.437	2032.75
501.654	2076.75
501.871	2043.75
502.088	1767.75
502.305	1800.75
502.522	1695.75
502.739	1582.75
502.956	1601.75
503.172	1546.75
503.389	1500.75
503.606	1502.75
503.823	1495.75
504.04	1490.75
504.256	1548.75
504.473	1534.75
504.69	1546.75
504.907	1444.75
505.123	1449.75
505.34	1554.75
505.557	2062.75
505.773	1702.75
505.99	1425.75
506.207	1310.75
506.423	1268.75
506.64	1306.75
506.856	1310.75
507.073	1509.75
507.289	1641.75
507.506	1540.75
507.722	1330.75
507.939	1261.75
508.155	1285.75
508.372	1281.75
508.588	1236.75
508.805	1223.75
509.021	1188.75
509.238	1182.75
509.454	1154.75
509.67	1152.75
509.887	1150.75
510.103	1138.75
510.319	1173.75
510.536	1228.75
510.752	1233.75
510.968	1208.75
511.184	1318.75
511.401	1259.75
511.617	1146.75
511.833	1100.75
512.049	1089.75
512.265	1084.75
512.481	1081.75
512.698	1175.75
512.914	1228.75
513.13	1171.75
513.346	1150.75
513.562	1120.75
513.778	1138.75
513.994	1173.75
514.21	1202.75
514.426	1226.75
514.642	1342.75
514.858	1278.75
515.074	1140.75
515.29	1146.75
515.506	1164.75
515.721	1172.75
515.937	1195.75
516.153	1302.75
516.369	1256.75
516.585	1212.75
516.801	1149.75
517.016	1160.75
517.232	1191.75
517.448	1232.75
517.664	1222.75
517.879	1226.75
518.095	1284.75
518.311	1248.75
518.527	1200.75
518.742	1170.75
518.958	1158.75
519.173	1123.75
519.389	1186.75
519.605	1195.75
519.82	1188.75
520.036	1170.75
520.251	1146.75
520.467	1179.75
520.682	1265.75
520.898	1278.75
521.113	1141.75
521.329	1120.75
521.544	1185.75
521.76	1157.75
521.975	1121.75
522.19	1094.75
522.406	1125.75
522.621	1418.75
522.836	1323.75
523.052	1105.75
523.267	1121.75
523.482	1137.75
523.698	1074.75
523.913	1046.75
524.128	1105.75
524.343	1155.75
524.559	1130.75
524.774	1123.75
524.989	1098.75
525.204	1080.75
525.419	1047.75
525.634	1082.75
525.849	1092.75
526.064	1098.75
526.28	1071.75
526.495	1014.75
526.71	977.75
526.925	984.75
527.14	1000.75
527.355	983.75
527.57	1016.75
527.785	1036.75
527.999	998.75
528.214	971.75
528.429	1044.75
528.644	1026.75
528.859	1086.75
529.074	1100.75
529.289	1113.75
529.503	1132.75
529.718	1145.75
529.933	1056.75
530.148	979.75
530.363	995.75
530.577	1000.75
530.792	992.75
531.007	962.75
531.221	971.75
531.436	991.75
531.651	1014.75
531.865	1058.75
532.08	1026.75
532.295	969.75
532.509	927.75
532.724	991.75
532.938	1025.75
533.153	1062.75
533.367	1013.75
533.582	1046.75
533.796	1029.75
534.011	1038.75
534.225	1028.75
534.44	978.75
534.654	1014.75
534.868	966.75
535.083	1046.75
535.297	1051.75
535.511	997.75
535.726	1007.75
535.94	985.75
536.154	1020.75
536.369	970.75
536.583	959.75
536.797	960.75
537.011	971.75
537.225	954.75
537.44	952.75
537.654	979.75
537.868	950.75
538.082	916.75
538.296	920.75
538.51	907.75
538.724	947.75
538.938	992.75
539.153	1029.75
539.367	994.75
539.581	976.75
539.795	989.75
540.009	964.75
540.222	959.75
540.436	1023.75
540.65	1070.75
540.864	1098.75
541.078	1068.75
541.292	1050.75
541.506	1065.75
541.72	1109.75
541.934	1166.75
542.147	1187.75
542.361	1132.75
542.575	1069.75
542.789	1029.75
543.002	970.75
543.216	978.75
543.43	1022.75
543.644	1057.75
543.857	1138.75
544.071	1100.75
544.285	1061.75
544.498	1088.75
544.712	1092.75
544.925	1112.75
545.139	1121.75
545.352	1099.75
545.566	1054.75
545.779	1077.75
545.993	1068.75
546.206	1105.75
546.42	1096.75
546.633	1064.75
546.847	1080.75
547.06	1084.75
547.274	1052.75
547.487	1100.75
547.7	1126.75
547.914	1103.75
548.127	1064.75
548.34	1105.75
548.554	1071.75
548.767	1057.75
548.98	1090.75
549.193	1066.75
549.407	1125.75
549.62	1122.75
549.833	1078.75
550.046	1037.75
550.259	1067.75
550.473	1038.75
550.686	1039.75
550.899	1006.75
551.112	998.75
551.325	993.75
551.538	1057.75
551.751	1163.75
551.964	938.75
552.177	927.75
552.39	996.75
552.603	1020.75
552.816	1020.75
553.029	1091.75
553.242	1066.75
553.455	1047.75
553.667	1069.75
553.88	1030.75
554.093	1010.75
554.306	1016.75
554.519	1019.75
554.732	939.75
554.944	984.75
555.157	995.75
555.37	968.75
555.583	963.75
555.795	924.75
556.008	873.75
556.221	912.75
556.433	914.75
556.646	868.75
556.859	858.75
557.071	886.75
557.284	868.75
557.496	892.75
557.709	839.75
557.921	852.75
558.134	863.75
558.346	855.75
558.559	867.75
558.771	871.75
558.984	850.75
559.196	822.75
559.409	816.75
559.621	808.75
559.833	806.75
560.046	850.75
560.258	839.75
560.47	809.75
560.683	842.75
560.895	802.75
561.107	838.75
561.32	838.75
561.532	807.75
561.744	821.75
561.956	827.75
562.168	813.75
562.381	828.75
562.593	792.75
562.805	776.75
563.017	771.75
563.229	814.75
563.441	820.75
563.653	791.75
563.865	796.75
564.077	788.75
564.289	815.75
564.501	783.75
564.713	792.75
564.925	838.75
565.137	898.75
565.349	812.75
565.561	815.75
565.773	804.75
565.985	822.75
566.197	870.75
566.408	943.75
566.62	930.75
566.832	886.75
567.044	898.75
567.255	875.75
567.467	908.75
567.679	954.75
567.891	948.75
568.102	888.75
568.314	863.75
568.526	821.75
568.737	770.75
568.949	715.75
569.161	717.75
569.372	694.75
569.584	661.75
569.795	690.75
570.007	679.75
570.218	643.75
570.43	663.75
570.641	648.75
570.853	663.75
571.064	678.75
571.276	674.75
571.487	660.75
571.698	647.75
571.91	635.75
572.121	635.75
572.333	622.75
572.544	607.75
572.755	596.75
572.966	586.75
573.178	585.75
573.389	573.75
573.6	601.75
573.811	644.75
574.023	578.75
574.234	580.75
574.445	577.75
574.656	566.75
574.867	566.75
575.078	571.75
575.289	593.75
575.501	562.75
575.712	561.75
575.923	556.75
576.134	576.75
576.345	545.75
576.556	575.75
576.767	569.75
576.978	534.75
577.188	516.75
577.399	525.75
577.61	526.75
577.821	540.75
578.032	518.75
578.243	527.75
578.454	510.75
578.665	495.75
578.875	496.75
579.086	472.75
579.297	500.75
579.508	500.75
579.718	524.75
579.929	535.75
580.14	498.75
580.35	508.75
580.561	523.75
580.772	592.75
580.982	536.75
581.193	517.75
581.403	504.75
581.614	507.75
581.825	482.75
582.035	483.75
582.246	472.75
582.456	475.75
582.667	508.75
582.877	475.75
583.087	489.75
583.298	461.75
583.508	481.75
583.719	479.75
583.929	478.75
584.139	443.75
584.35	446.75
584.56	456.75
584.77	476.75
584.981	466.75
585.191	463.75
585.401	497.75
585.611	460.75
585.821	457.75
586.032	465.75
586.242	460.75
586.452	467.75
586.662	474.75
586.872	450.75
587.082	434.75
587.292	467.75
587.502	464.75
587.713	449.75
587.923	458.75
588.133	435.75
588.343	452.75
588.553	454.75
588.762	456.75
588.972	447.75
589.182	458.75
589.392	455.75
589.602	460.75
589.812	454.75
590.022	447.75
590.232	416.75
590.441	483.75
590.651	450.75
590.861	455.75
591.071	442.75
591.281	444.75
591.49	416.75
591.7	434.75
591.91	435.75
592.119	437.75
592.329	448.75
592.539	471.75
592.748	468.75
592.958	465.75
593.167	454.75
593.377	478.75
593.587	460.75
593.796	469.75
594.006	476.75
594.215	464.75
594.424	468.75
594.634	454.75
594.843	487.75
595.053	488.75
595.262	447.75
595.472	436.75
595.681	440.75
595.89	438.75
596.1	416.75
596.309	443.75
596.518	437.75
596.727	435.75
596.937	430.75
597.146	418.75
597.355	411.75
597.564	435.75
597.774	407.75
597.983	396.75
598.192	395.75
598.401	410.75
598.61	386.75
598.819	387.75
599.028	410.75
599.237	402.75
599.446	389.75
599.655	376.75
599.864	387.75
600.073	388.75
600.282	392.75
600.491	381.75
600.7	386.75
600.909	387.75
601.118	393.75
601.327	414.75
601.536	420.75
601.745	439.75
601.953	406.75
602.162	435.75
602.371	410.75
602.58	401.75
602.789	409.75
602.997	414.75
603.206	415.75
603.415	411.75
603.623	409.75
603.832	406.75
604.041	404.75
604.249	383.75
604.458	380.75
604.666	394.75
604.875	376.75
605.084	403.75
605.292	408.75
605.501	426.75
605.709	411.75
605.918	412.75
606.126	417.75
606.334	390.75
606.543	404.75
606.751	418.75
606.96	413.75
607.168	405.75
607.376	382.75
607.585	389.75
607.793	410.75
608.001	408.75
608.21	394.75
608.418	419.75
608.626	410.75
608.834	396.75
609.043	395.75
609.251	399.75
609.459	403.75
609.667	406.75
609.875	419.75
610.083	398.75
610.291	407.75
610.499	412.75
610.707	415.75
610.916	392.75
611.124	423.75
611.332	402.75
611.54	398.75
611.748	388.75
611.955	386.75
612.163	386.75
612.371	390.75
612.579	380.75
612.787	393.75
612.995	399.75
613.203	398.75
613.411	400.75
613.618	378.75
613.826	394.75
614.034	399.75
614.242	380.75
614.449	405.75
614.657	400.75
614.865	389.75
615.072	376.75
615.28	395.75
615.488	385.75
615.695	404.75
615.903	405.75
616.111	386.75
616.318	383.75
616.526	371.75
616.733	394.75
616.941	405.75
617.148	396.75
617.356	369.75
617.563	391.75
617.771	374.75
617.978	374.75
618.185	373.75
618.393	373.75
618.6	379.75
618.807	369.75
619.015	380.75
619.222	368.75
619.429	378.75
619.637	342.75
619.844	334.75
620.051	359.75
620.258	353.75
620.466	348.75
620.673	359.75
620.88	336.75
621.087	331.75
621.294	356.75
621.501	327.75
621.708	332.75
621.915	346.75
622.122	346.75
622.329	362.75
622.536	359.75
622.743	356.75
622.95	345.75
623.157	344.75
623.364	337.75
623.571	347.75
623.778	372.75
623.985	339.75
624.192	352.75
624.399	358.75
624.606	347.75
624.812	356.75
625.019	339.75
625.226	339.75
625.433	316.75
625.639	318.75
625.846	321.75
626.053	296.75
626.259	298.75
626.466	304.75
626.673	313.75
626.879	299.75
627.086	326.75
627.293	314.75
627.499	312.75
627.706	319.75
627.912	300.75
628.119	339.75
628.325	332.75
628.532	316.75
628.738	334.75
628.945	302.75
629.151	312.75
629.357	310.75
629.564	309.75
629.77	298.75
629.976	291.75
630.183	290.75
630.389	309.75
630.595	317.75
630.802	310.75
631.008	299.75
631.214	308.75
631.42	308.75
631.627	299.75
631.833	279.75
632.039	296.75
632.245	290.75
632.451	303.75
632.657	299.75
632.863	283.75
633.069	290.75
633.275	272.75
633.481	265.75
633.688	302.75
633.893	272.75
634.099	288.75
634.305	270.75
634.511	282.75
634.717	282.75
634.923	280.75
635.129	273.75
635.335	248.75
635.541	262.75
635.747	274.75
635.952	289.75
636.158	293.75
636.364	294.75
636.57	292.75
636.775	290.75
636.981	275.75
637.187	277.75
637.392	278.75
637.598	290.75
637.804	298.75
638.009	280.75
638.215	266.75
638.421	276.75
638.626	282.75
638.832	287.75
639.037	276.75
639.243	276.75
639.448	274.75
639.654	257.75
639.859	261.75
640.065	259.75
640.27	263.75
640.475	272.75
640.681	266.75
640.886	256.75
641.091	260.75
641.297	266.75
641.502	256.75
641.707	262.75
641.913	256.75
642.118	265.75
642.323	270.75
642.528	279.75
642.733	259.75
642.939	251.75
643.144	259.75
643.349	255.75
643.554	256.75
643.759	247.75
643.964	265.75
644.169	272.75
644.374	260.75
644.579	252.75
644.784	266.75
644.989	246.75
645.194	244.75
645.399	254.75
645.604	272.75
645.809	230.75
646.014	248.75
646.219	276.75
646.423	271.75
646.628	264.75
646.833	250.75
647.038	264.75
647.243	264.75
647.447	242.75
647.652	243.75
647.857	247.75
648.062	250.75
648.266	256.75
648.471	262.75
648.676	276.75
648.88	262.75
649.085	260.75
649.289	254.75
649.494	246.75
649.698	256.75
649.903	268.75
650.107	254.75
650.312	240.75
650.516	231.75
650.721	242.75
650.925	235.75
651.13	238.75
651.334	250.75
651.539	248.75
651.743	223.75
651.947	246.75
652.152	234.75
652.356	230.75
652.56	201.75
652.764	229.75
652.969	220.75
653.173	240.75
653.377	219.75
653.581	209.75
653.785	228.75
653.99	219.75
654.194	215.75
654.398	214.75
654.602	211.75
654.806	207.75
655.01	216.75
655.214	211.75
655.418	208.75
655.622	202.75
655.826	237.75
656.03	229.75
656.234	221.75
656.438	246.75
656.642	268.75
656.846	240.75
657.049	235.75
657.253	208.75
657.457	215.75
657.661	190.75
657.865	168.75
658.068	183.75
658.272	166.75
658.476	174.75
658.68	163.75
658.883	154.75
659.087	142.75
659.291	136.75
659.494	156.75
659.698	130.75
659.901	144.75
660.105	135.75
660.309	135.75
660.512	123.75
660.716	113.75
660.919	122.75
661.123	109.75
661.326	111.75
661.53	120.75
661.733	112.75
661.936	115.75
662.14	93.75
662.343	103.75
662.546	97.75
662.75	98.75
662.953	93.75
663.156	89.75
663.36	97.75
663.563	85.75
663.766	83.75
663.969	83.75
664.173	82.75
664.376	80.75
664.579	96.75
664.782	101.75
664.985	91.75
665.188	80.75
665.391	80.75
665.594	90.75
665.797	85.75
666	75.75
666.203	93.75
666.406	88.75
666.609	70.75
666.812	85.75
667.015	74.75
667.218	73.75
667.421	91.75
667.624	93.75
667.827	83.75
668.03	82.75
668.232	85.75
668.435	75.75
668.638	95.75
668.841	80.75
669.043	84.75
669.246	87.75
669.449	72.75
669.651	97.75
669.854	74.75
670.057	85.75
670.259	81.75
670.462	89.75
670.665	86.75
670.867	79.75
671.07	66.75
671.272	81.75
671.475	78.75
671.677	81.75
671.88	86.75
672.082	81.75
672.284	81.75
672.487	79.75
672.689	76.75
672.892	76.75
