Data from WStandard_LampEnergy8_LIBS07252019.E.O._I.C._HRD10591_15-59-46-930.txt Node
Date: Thu Jul 25 15:59:46 EDT 2019
User: cochatt
Spectrometer: HR+D1059
Trigger mode: 1
Integration Time (sec): 1.000000E-1
Scans to average: 1
Electric dark correction enabled: true
Nonlinearity correction enabled: false
Boxcar width: 0
XAxis mode: Wavelengths
Number of Pixels in Spectrum: 2048
>>>>>Begin Spectral Data<<<<<
223.165	-12.19
223.4	-12.19
223.635	-12.19
223.869	-22.19
224.104	-14.19
224.338	-19.19
224.573	-11.19
224.808	-7.19
225.042	-7.19
225.277	1.81
225.511	-3.19
225.746	1.81
225.98	-0.19
226.215	2.81
226.449	21.81
226.683	27.81
226.918	24.81
227.152	15.81
227.387	34.81
227.621	43.81
227.856	31.81
228.09	41.81
228.324	36.81
228.559	69.81
228.793	92.81
229.027	211.81
229.262	215.81
229.496	226.81
229.73	236.81
229.964	264.81
230.199	267.81
230.433	268.81
230.667	291.81
230.901	282.81
231.136	268.81
231.37	255.81
231.604	282.81
231.838	266.81
232.072	261.81
232.306	267.81
232.541	268.81
232.775	298.81
233.009	344.81
233.243	317.81
233.477	295.81
233.711	316.81
233.945	324.81
234.179	311.81
234.413	347.81
234.647	350.81
234.881	314.81
235.115	300.81
235.349	309.81
235.583	321.81
235.817	308.81
236.051	297.81
236.285	320.81
236.519	332.81
236.753	353.81
236.987	351.81
237.221	377.81
237.455	385.81
237.689	366.81
237.922	353.81
238.156	356.81
238.39	372.81
238.624	376.81
238.858	380.81
239.091	423.81
239.325	414.81
239.559	476.81
239.793	501.81
240.027	517.81
240.26	511.81
240.494	397.81
240.728	371.81
240.961	379.81
241.195	405.81
241.429	409.81
241.662	422.81
241.896	385.81
242.13	400.81
242.363	449.81
242.597	460.81
242.83	461.81
243.064	476.81
243.298	477.81
243.531	481.81
243.765	477.81
243.998	462.81
244.232	426.81
244.465	398.81
244.699	413.81
244.932	477.81
245.166	524.81
245.399	495.81
245.633	437.81
245.866	461.81
246.099	499.81
246.333	499.81
246.566	508.81
246.8	551.81
247.033	603.81
247.266	559.81
247.5	529.81
247.733	537.81
247.966	550.81
248.2	629.81
248.433	609.81
248.666	641.81
248.899	684.81
249.133	748.81
249.366	825.81
249.599	710.81
249.832	610.81
250.066	645.81
250.299	645.81
250.532	616.81
250.765	555.81
250.998	563.81
251.231	600.81
251.465	593.81
251.698	587.81
251.931	591.81
252.164	611.81
252.397	626.81
252.63	597.81
252.863	542.81
253.096	554.81
253.329	575.81
253.562	581.81
253.795	640.81
254.028	617.81
254.261	584.81
254.494	565.81
254.727	565.81
254.96	589.81
255.193	641.81
255.426	703.81
255.659	798.81
255.892	785.81
256.124	689.81
256.357	671.81
256.59	719.81
256.823	697.81
257.056	720.81
257.289	825.81
257.521	909.81
257.754	805.81
257.987	777.81
258.22	852.81
258.452	842.81
258.685	693.81
258.918	674.81
259.151	679.81
259.383	632.81
259.616	601.81
259.849	643.81
260.081	720.81
260.314	775.81
260.547	823.81
260.779	795.81
261.012	765.81
261.244	725.81
261.477	685.81
261.71	690.81
261.942	694.81
262.175	695.81
262.407	706.81
262.64	666.81
262.872	635.81
263.105	625.81
263.337	629.81
263.57	668.81
263.802	662.81
264.035	600.81
264.267	586.81
264.499	575.81
264.732	625.81
264.964	673.81
265.197	682.81
265.429	717.81
265.661	769.81
265.894	849.81
266.126	874.81
266.358	813.81
266.591	816.81
266.823	861.81
267.055	793.81
267.287	803.81
267.52	758.81
267.752	761.81
267.984	771.81
268.216	809.81
268.448	825.81
268.681	803.81
268.913	746.81
269.145	711.81
269.377	690.81
269.609	786.81
269.841	915.81
270.073	1004.81
270.306	1117.81
270.538	1143.81
270.77	955.81
271.002	860.81
271.234	828.81
271.466	832.81
271.698	939.81
271.93	1041.81
272.162	1033.81
272.394	964.81
272.626	915.81
272.858	797.81
273.09	713.81
273.322	721.81
273.553	700.81
273.785	693.81
274.017	723.81
274.249	774.81
274.481	757.81
274.713	716.81
274.945	709.81
275.176	703.81
275.408	719.81
275.64	711.81
275.872	694.81
276.104	752.81
276.335	849.81
276.567	943.81
276.799	924.81
277.031	859.81
277.262	809.81
277.494	840.81
277.726	923.81
277.957	917.81
278.189	826.81
278.421	748.81
278.652	740.81
278.884	732.81
279.115	755.81
279.347	779.81
279.579	752.81
279.81	733.81
280.042	844.81
280.273	868.81
280.505	885.81
280.736	903.81
280.968	839.81
281.199	751.81
281.431	722.81
281.662	729.81
281.894	745.81
282.125	763.81
282.356	763.81
282.588	792.81
282.819	819.81
283.051	865.81
283.282	921.81
283.513	892.81
283.745	765.81
283.976	713.81
284.207	747.81
284.439	762.81
284.67	748.81
284.901	789.81
285.132	819.81
285.364	793.81
285.595	803.81
285.826	773.81
286.057	784.81
286.288	753.81
286.52	803.81
286.751	850.81
286.982	874.81
287.213	795.81
287.444	753.81
287.675	738.81
287.906	804.81
288.138	857.81
288.369	813.81
288.6	771.81
288.831	746.81
289.062	763.81
289.293	782.81
289.524	797.81
289.755	793.81
289.986	812.81
290.217	753.81
290.448	735.81
290.679	789.81
290.91	795.81
291.141	826.81
291.371	852.81
291.602	830.81
291.833	835.81
292.064	844.81
292.295	832.81
292.526	869.81
292.757	879.81
292.987	845.81
293.218	807.81
293.449	867.81
293.68	1016.81
293.91	1043.81
294.141	956.81
294.372	922.81
294.603	948.81
294.833	983.81
295.064	930.81
295.295	825.81
295.525	828.81
295.756	772.81
295.987	744.81
296.217	756.81
296.448	785.81
296.679	795.81
296.909	808.81
297.14	779.81
297.37	808.81
297.601	846.81
297.831	915.81
298.062	875.81
298.292	840.81
298.523	806.81
298.753	786.81
298.984	808.81
299.214	826.81
299.445	829.81
299.675	882.81
299.905	877.81
300.136	825.81
300.366	789.81
300.597	785.81
300.827	796.81
301.057	821.81
301.288	863.81
301.518	871.81
301.748	908.81
301.979	914.81
302.209	933.81
302.439	1025.81
302.669	1019.81
302.9	931.81
303.13	858.81
303.36	881.81
303.59	876.81
303.82	867.81
304.051	881.81
304.281	881.81
304.511	878.81
304.741	929.81
304.971	1051.81
305.201	1084.81
305.431	976.81
305.661	825.81
305.891	753.81
306.121	811.81
306.352	823.81
306.582	857.81
306.812	908.81
307.042	980.81
307.272	980.81
307.502	992.81
307.731	1092.81
307.961	1132.81
308.191	1002.81
308.421	881.81
308.651	857.81
308.881	858.81
309.111	845.81
309.341	827.81
309.571	864.81
309.8	819.81
310.03	819.81
310.26	837.81
310.49	853.81
310.72	861.81
310.949	900.81
311.179	929.81
311.409	895.81
311.639	872.81
311.868	859.81
312.098	897.81
312.328	888.81
312.557	854.81
312.787	861.81
313.017	885.81
313.246	889.81
313.476	861.81
313.706	898.81
313.935	891.81
314.165	927.81
314.394	952.81
314.624	1000.81
314.853	1041.81
315.083	1078.81
315.312	1084.81
315.542	1004.81
315.771	903.81
316.001	944.81
316.23	982.81
316.46	966.81
316.689	926.81
316.919	886.81
317.148	888.81
317.377	901.81
317.607	986.81
317.836	1071.81
318.065	1084.81
318.295	1052.81
318.524	1033.81
318.753	986.81
318.983	975.81
319.212	936.81
319.441	917.81
319.67	931.81
319.9	973.81
320.129	1019.81
320.358	1046.81
320.587	1045.81
320.816	1038.81
321.046	999.81
321.275	986.81
321.504	1008.81
321.733	1040.81
321.962	1032.81
322.191	953.81
322.42	941.81
322.649	918.81
322.878	897.81
323.108	948.81
323.337	982.81
323.566	959.81
323.795	968.81
324.024	990.81
324.253	953.81
324.482	943.81
324.71	923.81
324.939	899.81
325.168	929.81
325.397	959.81
325.626	986.81
325.855	968.81
326.084	921.81
326.313	933.81
326.542	964.81
326.77	1001.81
326.999	952.81
327.228	946.81
327.457	907.81
327.686	891.81
327.914	921.81
328.143	945.81
328.372	952.81
328.6	949.81
328.829	930.81
329.058	919.81
329.287	936.81
329.515	950.81
329.744	961.81
329.972	1024.81
330.201	1059.81
330.43	1055.81
330.658	995.81
330.887	1026.81
331.115	998.81
331.344	1005.81
331.572	1007.81
331.801	981.81
332.03	997.81
332.258	1007.81
332.486	1028.81
332.715	1036.81
332.943	1030.81
333.172	1007.81
333.4	1008.81
333.629	1052.81
333.857	1120.81
334.085	1256.81
334.314	1364.81
334.542	1448.81
334.771	1315.81
334.999	1205.81
335.227	1129.81
335.455	1037.81
335.684	1077.81
335.912	1105.81
336.14	1128.81
336.369	1073.81
336.597	1019.81
336.825	1028.81
337.053	1073.81
337.281	1137.81
337.51	1176.81
337.738	1185.81
337.966	1110.81
338.194	1003.81
338.422	968.81
338.65	995.81
338.878	991.81
339.106	986.81
339.334	938.81
339.562	952.81
339.79	972.81
340.018	1047.81
340.246	1047.81
340.474	1071.81
340.702	1086.81
340.93	1042.81
341.158	1032.81
341.386	1004.81
341.614	1003.81
341.842	1015.81
342.07	1014.81
342.298	1047.81
342.526	991.81
342.754	979.81
342.981	1013.81
343.209	991.81
343.437	957.81
343.665	964.81
343.893	1021.81
344.12	1059.81
344.348	1080.81
344.576	1043.81
344.804	992.81
345.031	996.81
345.259	972.81
345.487	954.81
345.714	928.81
345.942	934.81
346.17	949.81
346.397	949.81
346.625	962.81
346.853	908.81
347.08	909.81
347.308	909.81
347.535	975.81
347.763	965.81
347.99	920.81
348.218	931.81
348.445	926.81
348.673	948.81
348.9	984.81
349.128	1000.81
349.355	1055.81
349.583	989.81
349.81	940.81
350.037	891.81
350.265	879.81
350.492	933.81
350.72	954.81
350.947	968.81
351.174	947.81
351.402	895.81
351.629	860.81
351.856	891.81
352.083	854.81
352.311	848.81
352.538	898.81
352.765	949.81
352.992	961.81
353.22	913.81
353.447	879.81
353.674	903.81
353.901	937.81
354.128	900.81
354.355	923.81
354.583	966.81
354.81	985.81
355.037	959.81
355.264	940.81
355.491	968.81
355.718	921.81
355.945	923.81
356.172	927.81
356.399	885.81
356.626	913.81
356.853	993.81
357.08	1053.81
357.307	1106.81
357.534	1070.81
357.761	951.81
357.988	897.81
358.215	897.81
358.441	919.81
358.668	886.81
358.895	912.81
359.122	953.81
359.349	1068.81
359.576	1025.81
359.802	949.81
360.029	920.81
360.256	909.81
360.483	909.81
360.709	955.81
360.936	972.81
361.163	1058.81
361.39	1137.81
361.616	1205.81
361.843	1161.81
362.07	1070.81
362.296	961.81
362.523	920.81
362.749	943.81
362.976	956.81
363.203	997.81
363.429	940.81
363.656	933.81
363.882	963.81
364.109	1067.81
364.335	1112.81
364.562	1005.81
364.788	993.81
365.015	953.81
365.241	950.81
365.468	952.81
365.694	984.81
365.92	1011.81
366.147	953.81
366.373	924.81
366.599	899.81
366.826	913.81
367.052	917.81
367.278	949.81
367.505	953.81
367.731	975.81
367.957	973.81
368.184	1013.81
368.41	1038.81
368.636	1065.81
368.862	1085.81
369.089	1079.81
369.315	1047.81
369.541	1009.81
369.767	955.81
369.993	936.81
370.219	944.81
370.445	1018.81
370.672	1059.81
370.898	1082.81
371.124	1054.81
371.35	1015.81
371.576	1040.81
371.802	1060.81
372.028	1003.81
372.254	981.81
372.48	951.81
372.706	966.81
372.932	932.81
373.158	993.81
373.384	1010.81
373.61	1033.81
373.835	1055.81
374.061	1011.81
374.287	1002.81
374.513	1003.81
374.739	999.81
374.965	997.81
375.191	1025.81
375.416	1017.81
375.642	1054.81
375.868	1114.81
376.094	1133.81
376.319	1071.81
376.545	1018.81
376.771	1049.81
376.997	1083.81
377.222	1091.81
377.448	1042.81
377.674	1061.81
377.899	1080.81
378.125	1137.81
378.35	1105.81
378.576	1000.81
378.802	947.81
379.027	964.81
379.253	1004.81
379.478	981.81
379.704	1001.81
379.929	1013.81
380.155	1008.81
380.38	1027.81
380.606	1028.81
380.831	1043.81
381.057	1071.81
381.282	1081.81
381.507	1071.81
381.733	1153.81
381.958	1154.81
382.184	1068.81
382.409	1047.81
382.634	1049.81
382.86	1059.81
383.085	1059.81
383.31	1111.81
383.535	1239.81
383.761	1268.81
383.986	1185.81
384.211	1119.81
384.436	1129.81
384.662	1178.81
384.887	1211.81
385.112	1176.81
385.337	1155.81
385.562	1185.81
385.787	1171.81
386.013	1180.81
386.238	1180.81
386.463	1194.81
386.688	1282.81
386.913	1338.81
387.138	1258.81
387.363	1209.81
387.588	1180.81
387.813	1165.81
388.038	1191.81
388.263	1236.81
388.488	1171.81
388.713	1099.81
388.938	1079.81
389.163	1101.81
389.387	1147.81
389.612	1114.81
389.837	1155.81
390.062	1151.81
390.287	1173.81
390.512	1159.81
390.736	1107.81
390.961	1127.81
391.186	1135.81
391.411	1116.81
391.636	1140.81
391.86	1139.81
392.085	1145.81
392.31	1121.81
392.534	1135.81
392.759	1167.81
392.984	1150.81
393.208	1169.81
393.433	1182.81
393.658	1225.81
393.882	1214.81
394.107	1161.81
394.331	1128.81
394.556	1142.81
394.78	1150.81
395.005	1181.81
395.229	1244.81
395.454	1345.81
395.678	1331.81
395.903	1292.81
396.127	1215.81
396.352	1216.81
396.576	1267.81
396.801	1272.81
397.025	1247.81
397.249	1237.81
397.474	1205.81
397.698	1233.81
397.922	1277.81
398.147	1360.81
398.371	1407.81
398.595	1392.81
398.82	1280.81
399.044	1364.81
399.268	1373.81
399.492	1468.81
399.717	1512.81
399.941	1518.81
400.165	1469.81
400.389	1439.81
400.613	1473.81
400.837	1685.81
401.062	1815.81
401.286	1554.81
401.51	1475.81
401.734	1500.81
401.958	1450.81
402.182	1336.81
402.406	1301.81
402.63	1290.81
402.854	1275.81
403.078	1329.81
403.302	1332.81
403.526	1366.81
403.75	1371.81
403.974	1391.81
404.198	1379.81
404.422	1461.81
404.645	1527.81
404.869	1473.81
405.093	1362.81
405.317	1339.81
405.541	1352.81
405.765	1369.81
405.988	1395.81
406.212	1420.81
406.436	1456.81
406.66	1467.81
406.883	1508.81
407.107	1702.81
407.331	1839.81
407.555	1973.81
407.778	1723.81
408.002	1469.81
408.226	1435.81
408.449	1431.81
408.673	1393.81
408.896	1384.81
409.12	1435.81
409.344	1407.81
409.567	1351.81
409.791	1365.81
410.014	1436.81
410.238	1495.81
410.461	1569.81
410.685	1411.81
410.908	1343.81
411.132	1393.81
411.355	1351.81
411.578	1378.81
411.802	1364.81
412.025	1375.81
412.249	1334.81
412.472	1296.81
412.695	1316.81
412.919	1299.81
413.142	1329.81
413.365	1343.81
413.589	1353.81
413.812	1415.81
414.035	1455.81
414.258	1378.81
414.482	1364.81
414.705	1354.81
414.928	1303.81
415.151	1308.81
415.374	1302.81
415.597	1338.81
415.821	1352.81
416.044	1358.81
416.267	1375.81
416.49	1314.81
416.713	1288.81
416.936	1340.81
417.159	1391.81
417.382	1391.81
417.605	1335.81
417.828	1333.81
418.051	1389.81
418.274	1321.81
418.497	1293.81
418.72	1297.81
418.943	1301.81
419.166	1325.81
419.389	1401.81
419.611	1353.81
419.834	1302.81
420.057	1335.81
420.28	1299.81
420.503	1306.81
420.726	1347.81
420.948	1342.81
421.171	1293.81
421.394	1309.81
421.617	1369.81
421.839	1363.81
422.062	1314.81
422.285	1283.81
422.507	1300.81
422.73	1272.81
422.953	1208.81
423.175	1244.81
423.398	1271.81
423.621	1300.81
423.843	1288.81
424.066	1337.81
424.288	1410.81
424.511	1452.81
424.733	1377.81
424.956	1255.81
425.178	1268.81
425.401	1281.81
425.623	1287.81
425.846	1313.81
426.068	1335.81
426.291	1323.81
426.513	1318.81
426.735	1312.81
426.958	1471.81
427.18	1492.81
427.402	1414.81
427.625	1447.81
427.847	1415.81
428.069	1310.81
428.292	1295.81
428.514	1264.81
428.736	1250.81
428.958	1255.81
429.181	1328.81
429.403	1494.81
429.625	1775.81
429.847	1476.81
430.069	1311.81
430.292	1487.81
430.514	1506.81
430.736	1376.81
430.958	1385.81
431.18	1340.81
431.402	1216.81
431.624	1237.81
431.846	1201.81
432.068	1135.81
432.29	1162.81
432.512	1206.81
432.734	1238.81
432.956	1299.81
433.178	1391.81
433.4	1333.81
433.622	1313.81
433.844	1255.81
434.066	1227.81
434.287	1213.81
434.509	1242.81
434.731	1300.81
434.953	1394.81
435.175	1354.81
435.397	1320.81
435.618	1316.81
435.84	1245.81
436.062	1247.81
436.284	1331.81
436.505	1301.81
436.727	1308.81
436.949	1290.81
437.17	1260.81
437.392	1246.81
437.614	1215.81
437.835	1197.81
438.057	1249.81
438.278	1257.81
438.5	1220.81
438.721	1209.81
438.943	1263.81
439.165	1255.81
439.386	1257.81
439.608	1254.81
439.829	1275.81
440.05	1285.81
440.272	1275.81
440.493	1228.81
440.715	1291.81
440.936	1385.81
441.158	1439.81
441.379	1399.81
441.6	1418.81
441.822	1398.81
442.043	1367.81
442.264	1324.81
442.486	1299.81
442.707	1252.81
442.928	1284.81
443.149	1332.81
443.371	1372.81
443.592	1419.81
443.813	1394.81
444.034	1359.81
444.255	1363.81
444.476	1428.81
444.698	1441.81
444.919	1383.81
445.14	1583.81
445.361	1500.81
445.582	1467.81
445.803	1405.81
446.024	1372.81
446.245	1439.81
446.466	1393.81
446.687	1344.81
446.908	1382.81
447.129	1335.81
447.35	1324.81
447.571	1311.81
447.792	1253.81
448.013	1247.81
448.234	1298.81
448.455	1321.81
448.675	1339.81
448.896	1209.81
449.117	1199.81
449.338	1236.81
449.559	1278.81
449.779	1342.81
450	1458.81
450.221	1508.81
450.442	1459.81
450.662	1287.81
450.883	1203.81
451.104	1179.81
451.324	1227.81
451.545	1227.81
451.766	1192.81
451.986	1178.81
452.207	1168.81
452.428	1123.81
452.648	1119.81
452.869	1145.81
453.089	1153.81
453.31	1180.81
453.53	1171.81
453.751	1152.81
453.971	1085.81
454.192	1114.81
454.412	1160.81
454.633	1140.81
454.853	1108.81
455.073	1084.81
455.294	1096.81
455.514	1045.81
455.734	1073.81
455.955	1085.81
456.175	1068.81
456.395	1073.81
456.616	1071.81
456.836	1123.81
457.056	1066.81
457.276	1083.81
457.497	1038.81
457.717	1021.81
457.937	1009.81
458.157	1087.81
458.377	1080.81
458.598	1059.81
458.818	1095.81
459.038	1151.81
459.258	1144.81
459.478	1141.81
459.698	1120.81
459.918	1175.81
460.138	1265.81
460.358	1259.81
460.578	1256.81
460.798	1363.81
461.018	1365.81
461.238	1343.81
461.458	1282.81
461.678	1287.81
461.898	1291.81
462.118	1225.81
462.338	1290.81
462.558	1277.81
462.777	1277.81
462.997	1359.81
463.217	1399.81
463.437	1354.81
463.657	1299.81
463.876	1281.81
464.096	1261.81
464.316	1276.81
464.536	1334.81
464.755	1362.81
464.975	1309.81
465.195	1306.81
465.414	1348.81
465.634	1304.81
465.854	1303.81
466.073	1389.81
466.293	1391.81
466.512	1224.81
466.732	1227.81
466.951	1289.81
467.171	1219.81
467.391	1232.81
467.61	1220.81
467.829	1234.81
468.049	1339.81
468.268	1469.81
468.488	1342.81
468.707	1295.81
468.927	1267.81
469.146	1208.81
469.365	1237.81
469.585	1262.81
469.804	1215.81
470.023	1252.81
470.243	1282.81
470.462	1251.81
470.681	1201.81
470.901	1248.81
471.12	1257.81
471.339	1253.81
471.558	1212.81
471.777	1219.81
471.997	1219.81
472.216	1181.81
472.435	1153.81
472.654	1157.81
472.873	1175.81
473.092	1227.81
473.311	1195.81
473.53	1153.81
473.749	1145.81
473.968	1197.81
474.187	1233.81
474.406	1263.81
474.625	1239.81
474.844	1215.81
475.063	1251.81
475.282	1209.81
475.501	1206.81
475.72	1250.81
475.939	1298.81
476.158	1230.81
476.377	1204.81
476.596	1268.81
476.814	1250.81
477.033	1257.81
477.252	1296.81
477.471	1348.81
477.69	1293.81
477.908	1299.81
478.127	1385.81
478.346	1441.81
478.564	1439.81
478.783	1410.81
479.002	1473.81
479.22	1436.81
479.439	1501.81
479.658	1610.81
479.876	1543.81
480.095	1421.81
480.313	1329.81
480.532	1333.81
480.751	1339.81
480.969	1317.81
481.188	1301.81
481.406	1263.81
481.624	1245.81
481.843	1265.81
482.061	1333.81
482.28	1336.81
482.498	1374.81
482.717	1349.81
482.935	1317.81
483.153	1376.81
483.372	1386.81
483.59	1385.81
483.808	1349.81
484.027	1365.81
484.245	1493.81
484.463	1755.81
484.681	1928.81
484.9	1501.81
485.118	1403.81
485.336	1373.81
485.554	1386.81
485.772	1425.81
485.99	1384.81
486.209	1417.81
486.427	1366.81
486.645	1424.81
486.863	1460.81
487.081	1475.81
487.299	1538.81
487.517	1438.81
487.735	1486.81
487.953	1540.81
488.171	1521.81
488.389	1473.81
488.607	1503.81
488.825	1631.81
489.043	1583.81
489.261	1411.81
489.479	1482.81
489.696	1511.81
489.914	1482.81
490.132	1442.81
490.35	1467.81
490.568	1549.81
490.786	1513.81
491.003	1490.81
491.221	1580.81
491.439	1637.81
491.657	1628.81
491.874	1632.81
492.092	1708.81
492.31	1729.81
492.527	1691.81
492.745	1609.81
492.963	1622.81
493.18	1631.81
493.398	1711.81
493.615	1707.81
493.833	1626.81
494.05	1600.81
494.268	1583.81
494.485	1559.81
494.703	1571.81
494.92	1559.81
495.138	1563.81
495.355	1553.81
495.573	1628.81
495.79	1673.81
496.008	1691.81
496.225	1586.81
496.442	1659.81
496.66	1618.81
496.877	1600.81
497.094	1653.81
497.312	1673.81
497.529	1653.81
497.746	1719.81
497.963	1875.81
498.181	1999.81
498.398	1953.81
498.615	1783.81
498.832	1813.81
499.049	1816.81
499.267	1823.81
499.484	1928.81
499.701	2038.81
499.918	2103.81
500.135	2244.81
500.352	2372.81
500.569	2392.81
500.786	2559.81
501.003	2339.81
501.22	2139.81
501.437	2091.81
501.654	2099.81
501.871	2021.81
502.088	1805.81
502.305	1773.81
502.522	1738.81
502.739	1641.81
502.956	1599.81
503.172	1587.81
503.389	1538.81
503.606	1501.81
503.823	1509.81
504.04	1511.81
504.256	1543.81
504.473	1539.81
504.69	1543.81
504.907	1473.81
505.123	1417.81
505.34	1580.81
505.557	2001.81
505.773	1688.81
505.99	1441.81
506.207	1340.81
506.423	1303.81
506.64	1313.81
506.856	1363.81
507.073	1541.81
507.289	1621.81
507.506	1535.81
507.722	1343.81
507.939	1297.81
508.155	1264.81
508.372	1280.81
508.588	1252.81
508.805	1201.81
509.021	1187.81
509.238	1183.81
509.454	1152.81
509.67	1146.81
509.887	1161.81
510.103	1179.81
510.319	1170.81
510.536	1200.81
510.752	1263.81
510.968	1231.81
511.184	1302.81
511.401	1272.81
511.617	1153.81
511.833	1107.81
512.049	1120.81
512.265	1120.81
512.481	1116.81
512.698	1159.81
512.914	1207.81
513.13	1186.81
513.346	1133.81
513.562	1115.81
513.778	1144.81
513.994	1207.81
514.21	1236.81
514.426	1193.81
514.642	1313.81
514.858	1245.81
515.074	1178.81
515.29	1148.81
515.506	1174.81
515.721	1187.81
515.937	1205.81
516.153	1313.81
516.369	1250.81
516.585	1221.81
516.801	1185.81
517.016	1205.81
517.232	1241.81
517.448	1207.81
517.664	1212.81
517.879	1251.81
518.095	1315.81
518.311	1244.81
518.527	1167.81
518.742	1162.81
518.958	1153.81
519.173	1155.81
519.389	1224.81
519.605	1177.81
519.82	1187.81
520.036	1195.81
520.251	1185.81
520.467	1176.81
520.682	1296.81
520.898	1254.81
521.113	1164.81
521.329	1116.81
521.544	1218.81
521.76	1116.81
521.975	1130.81
522.19	1105.81
522.406	1125.81
522.621	1410.81
522.836	1356.81
523.052	1140.81
523.267	1140.81
523.482	1119.81
523.698	1059.81
523.913	1091.81
524.128	1120.81
524.343	1205.81
524.559	1181.81
524.774	1117.81
524.989	1089.81
525.204	1084.81
525.419	1064.81
525.634	1083.81
525.849	1072.81
526.064	1095.81
526.28	1051.81
526.495	1009.81
526.71	1023.81
526.925	1015.81
527.14	995.81
527.355	974.81
527.57	973.81
527.785	1043.81
527.999	1001.81
528.214	1000.81
528.429	1016.81
528.644	1051.81
528.859	1085.81
529.074	1096.81
529.289	1128.81
529.503	1155.81
529.718	1107.81
529.933	1058.81
530.148	1010.81
530.363	980.81
530.577	999.81
530.792	996.81
531.007	998.81
531.221	1007.81
531.436	1022.81
531.651	1045.81
531.865	1056.81
532.08	1036.81
532.295	977.81
532.509	963.81
532.724	945.81
532.938	993.81
533.153	1081.81
533.367	1046.81
533.582	1071.81
533.796	1034.81
534.011	1031.81
534.225	1001.81
534.44	968.81
534.654	977.81
534.868	979.81
535.083	1037.81
535.297	1053.81
535.511	1020.81
535.726	989.81
535.94	1023.81
536.154	966.81
536.369	965.81
536.583	954.81
536.797	947.81
537.011	965.81
537.225	922.81
537.44	938.81
537.654	979.81
537.868	922.81
538.082	906.81
538.296	906.81
538.51	957.81
538.724	970.81
538.938	989.81
539.153	1012.81
539.367	1029.81
539.581	941.81
539.795	982.81
540.009	995.81
540.222	971.81
540.436	999.81
540.65	1052.81
540.864	1077.81
541.078	1064.81
541.292	1025.81
541.506	1076.81
541.72	1116.81
541.934	1159.81
542.147	1197.81
542.361	1141.81
542.575	1076.81
542.789	1068.81
543.002	971.81
543.216	976.81
543.43	1068.81
543.644	1090.81
543.857	1139.81
544.071	1110.81
544.285	1107.81
544.498	1098.81
544.712	1122.81
544.925	1109.81
545.139	1129.81
545.352	1075.81
545.566	1046.81
545.779	1091.81
545.993	1106.81
546.206	1144.81
546.42	1091.81
546.633	1091.81
546.847	1114.81
547.06	1078.81
547.274	1065.81
547.487	1094.81
547.7	1106.81
547.914	1111.81
548.127	1101.81
548.34	1102.81
548.554	1051.81
548.767	1066.81
548.98	1088.81
549.193	1083.81
549.407	1141.81
549.62	1121.81
549.833	1081.81
550.046	1066.81
550.259	1089.81
550.473	1060.81
550.686	1025.81
550.899	1017.81
551.112	996.81
551.325	1015.81
551.538	1049.81
551.751	1141.81
551.964	935.81
552.177	939.81
552.39	987.81
552.603	1010.81
552.816	1048.81
553.029	1082.81
553.242	1088.81
553.455	1066.81
553.667	1031.81
553.88	1029.81
554.093	1012.81
554.306	996.81
554.519	989.81
554.732	985.81
554.944	988.81
555.157	972.81
555.37	961.81
555.583	978.81
555.795	949.81
556.008	915.81
556.221	895.81
556.433	904.81
556.646	909.81
556.859	885.81
557.071	892.81
557.284	871.81
557.496	869.81
557.709	898.81
557.921	881.81
558.134	881.81
558.346	874.81
558.559	872.81
558.771	860.81
558.984	827.81
559.196	817.81
559.409	812.81
559.621	853.81
559.833	790.81
560.046	846.81
560.258	834.81
560.47	832.81
560.683	848.81
560.895	832.81
561.107	836.81
561.32	824.81
561.532	837.81
561.744	825.81
561.956	844.81
562.168	805.81
562.381	812.81
562.593	786.81
562.805	817.81
563.017	799.81
563.229	806.81
563.441	817.81
563.653	794.81
563.865	781.81
564.077	763.81
564.289	774.81
564.501	778.81
564.713	822.81
564.925	856.81
565.137	895.81
565.349	817.81
565.561	832.81
565.773	814.81
565.985	827.81
566.197	874.81
566.408	922.81
566.62	921.81
566.832	905.81
567.044	909.81
567.255	888.81
567.467	895.81
567.679	963.81
567.891	945.81
568.102	884.81
568.314	858.81
568.526	812.81
568.737	771.81
568.949	752.81
569.161	717.81
569.372	697.81
569.584	694.81
569.795	699.81
570.007	692.81
570.218	656.81
570.43	653.81
570.641	661.81
570.853	672.81
571.064	671.81
571.276	676.81
571.487	664.81
571.698	656.81
571.91	643.81
572.121	639.81
572.333	626.81
572.544	636.81
572.755	592.81
572.966	592.81
573.178	584.81
573.389	579.81
573.6	603.81
573.811	658.81
574.023	597.81
574.234	583.81
574.445	571.81
574.656	563.81
574.867	533.81
575.078	580.81
575.289	588.81
575.501	560.81
575.712	555.81
575.923	573.81
576.134	553.81
576.345	540.81
576.556	575.81
576.767	547.81
576.978	557.81
577.188	565.81
577.399	517.81
577.61	535.81
577.821	547.81
578.032	522.81
578.243	527.81
578.454	499.81
578.665	489.81
578.875	513.81
579.086	504.81
579.297	495.81
579.508	542.81
579.718	525.81
579.929	505.81
580.14	500.81
580.35	495.81
580.561	529.81
580.772	549.81
580.982	544.81
581.193	501.81
581.403	501.81
581.614	487.81
581.825	478.81
582.035	481.81
582.246	496.81
582.456	488.81
582.667	500.81
582.877	473.81
583.087	463.81
583.298	456.81
583.508	467.81
583.719	461.81
583.929	480.81
584.139	457.81
584.35	472.81
584.56	451.81
584.77	467.81
584.981	499.81
585.191	473.81
585.401	469.81
585.611	475.81
585.821	459.81
586.032	451.81
586.242	450.81
586.452	437.81
586.662	461.81
586.872	477.81
587.082	470.81
587.292	487.81
587.502	443.81
587.713	454.81
587.923	469.81
588.133	471.81
588.343	460.81
588.553	434.81
588.762	437.81
588.972	453.81
589.182	455.81
589.392	446.81
589.602	463.81
589.812	451.81
590.022	431.81
590.232	419.81
590.441	460.81
590.651	481.81
590.861	459.81
591.071	433.81
591.281	446.81
591.49	453.81
591.7	449.81
591.91	449.81
592.119	442.81
592.329	464.81
592.539	474.81
592.748	476.81
592.958	461.81
593.167	473.81
593.377	487.81
593.587	478.81
593.796	478.81
594.006	479.81
594.215	477.81
594.424	487.81
594.634	496.81
594.843	439.81
595.053	479.81
595.262	457.81
595.472	429.81
595.681	447.81
595.89	437.81
596.1	436.81
596.309	447.81
596.518	437.81
596.727	463.81
596.937	441.81
597.146	419.81
597.355	422.81
597.564	415.81
597.774	410.81
597.983	410.81
598.192	408.81
598.401	386.81
598.61	416.81
598.819	393.81
599.028	395.81
599.237	405.81
599.446	410.81
599.655	382.81
599.864	387.81
600.073	392.81
600.282	383.81
600.491	384.81
600.7	367.81
600.909	386.81
601.118	398.81
601.327	415.81
601.536	424.81
601.745	427.81
601.953	411.81
602.162	441.81
602.371	416.81
602.58	435.81
602.789	421.81
602.997	432.81
603.206	437.81
603.415	406.81
603.623	416.81
603.832	409.81
604.041	385.81
604.249	369.81
604.458	382.81
604.666	397.81
604.875	384.81
605.084	386.81
605.292	407.81
605.501	394.81
605.709	400.81
605.918	427.81
606.126	399.81
606.334	398.81
606.543	408.81
606.751	410.81
606.96	426.81
607.168	401.81
607.376	389.81
607.585	392.81
607.793	401.81
608.001	396.81
608.21	401.81
608.418	399.81
608.626	393.81
608.834	407.81
609.043	402.81
609.251	402.81
609.459	395.81
609.667	412.81
609.875	426.81
610.083	415.81
610.291	400.81
610.499	407.81
610.707	408.81
610.916	389.81
611.124	405.81
611.332	396.81
611.54	402.81
611.748	415.81
611.955	395.81
612.163	403.81
612.371	405.81
612.579	375.81
612.787	405.81
612.995	409.81
613.203	395.81
613.411	373.81
613.618	372.81
613.826	396.81
614.034	391.81
614.242	397.81
614.449	381.81
614.657	411.81
614.865	380.81
615.072	397.81
615.28	387.81
615.488	397.81
615.695	409.81
615.903	405.81
616.111	411.81
616.318	406.81
616.526	393.81
616.733	390.81
616.941	398.81
617.148	379.81
617.356	388.81
617.563	383.81
617.771	363.81
617.978	367.81
618.185	376.81
618.393	398.81
618.6	390.81
618.807	381.81
619.015	383.81
619.222	360.81
619.429	374.81
619.637	367.81
619.844	363.81
620.051	356.81
620.258	343.81
620.466	368.81
620.673	341.81
620.88	332.81
621.087	335.81
621.294	351.81
621.501	356.81
621.708	336.81
621.915	355.81
622.122	345.81
622.329	343.81
622.536	353.81
622.743	347.81
622.95	347.81
623.157	349.81
623.364	348.81
623.571	370.81
623.778	375.81
623.985	341.81
624.192	351.81
624.399	356.81
624.606	356.81
624.812	328.81
625.019	346.81
625.226	344.81
625.433	333.81
625.639	327.81
625.846	316.81
626.053	307.81
626.259	301.81
626.466	292.81
626.673	296.81
626.879	287.81
627.086	303.81
627.293	308.81
627.499	313.81
627.706	327.81
627.912	297.81
628.119	328.81
628.325	316.81
628.532	308.81
628.738	331.81
628.945	332.81
629.151	308.81
629.357	316.81
629.564	315.81
629.77	315.81
629.976	299.81
630.183	305.81
630.389	292.81
630.595	288.81
630.802	299.81
631.008	299.81
631.214	297.81
631.42	301.81
631.627	295.81
631.833	293.81
632.039	293.81
632.245	287.81
632.451	305.81
632.657	283.81
632.863	287.81
633.069	270.81
633.275	297.81
633.481	270.81
633.688	269.81
633.893	285.81
634.099	287.81
634.305	276.81
634.511	259.81
634.717	272.81
634.923	275.81
635.129	261.81
635.335	262.81
635.541	284.81
635.747	283.81
635.952	275.81
636.158	285.81
636.364	290.81
636.57	283.81
636.775	271.81
636.981	288.81
637.187	271.81
637.392	290.81
637.598	279.81
637.804	279.81
638.009	291.81
638.215	273.81
638.421	288.81
638.626	275.81
638.832	268.81
639.037	280.81
639.243	267.81
639.448	262.81
639.654	278.81
639.859	252.81
640.065	267.81
640.27	279.81
640.475	262.81
640.681	259.81
640.886	271.81
641.091	277.81
641.297	275.81
641.502	258.81
641.707	264.81
641.913	248.81
642.118	243.81
642.323	267.81
642.528	265.81
642.733	247.81
642.939	259.81
643.144	262.81
643.349	259.81
643.554	271.81
643.759	249.81
643.964	246.81
644.169	249.81
644.374	257.81
644.579	274.81
644.784	267.81
644.989	271.81
645.194	259.81
645.399	257.81
645.604	234.81
645.809	243.81
646.014	257.81
646.219	248.81
646.423	258.81
646.628	247.81
646.833	260.81
647.038	256.81
647.243	265.81
647.447	241.81
647.652	256.81
647.857	251.81
648.062	271.81
648.266	271.81
648.471	284.81
648.676	263.81
648.88	261.81
649.085	269.81
649.289	250.81
649.494	245.81
649.698	248.81
649.903	246.81
650.107	262.81
650.312	257.81
650.516	248.81
650.721	258.81
650.925	253.81
651.13	245.81
651.334	257.81
651.539	259.81
651.743	226.81
651.947	261.81
652.152	232.81
652.356	224.81
652.56	225.81
652.764	216.81
652.969	218.81
653.173	224.81
653.377	228.81
653.581	223.81
653.785	222.81
653.99	234.81
654.194	210.81
654.398	221.81
654.602	229.81
654.806	220.81
655.01	224.81
655.214	216.81
655.418	239.81
655.622	228.81
655.826	227.81
656.03	253.81
656.234	259.81
656.438	266.81
656.642	259.81
656.846	265.81
657.049	233.81
657.253	228.81
657.457	204.81
657.661	189.81
657.865	188.81
658.068	165.81
658.272	175.81
658.476	164.81
658.68	160.81
658.883	148.81
659.087	164.81
659.291	149.81
659.494	136.81
659.698	132.81
659.901	128.81
660.105	129.81
660.309	128.81
660.512	136.81
660.716	121.81
660.919	123.81
661.123	116.81
661.326	108.81
661.53	118.81
661.733	115.81
661.936	107.81
662.14	95.81
662.343	96.81
662.546	94.81
662.75	107.81
662.953	96.81
663.156	75.81
663.36	84.81
663.563	87.81
663.766	92.81
663.969	89.81
664.173	91.81
664.376	84.81
664.579	84.81
664.782	72.81
664.985	90.81
665.188	69.81
665.391	79.81
665.594	72.81
665.797	77.81
666	99.81
666.203	91.81
666.406	91.81
666.609	83.81
666.812	80.81
667.015	75.81
667.218	97.81
667.421	95.81
667.624	76.81
667.827	85.81
668.03	89.81
668.232	87.81
668.435	96.81
668.638	67.81
668.841	75.81
669.043	77.81
669.246	67.81
669.449	69.81
669.651	87.81
669.854	75.81
670.057	73.81
670.259	74.81
670.462	82.81
670.665	65.81
670.867	83.81
671.07	84.81
671.272	90.81
671.475	78.81
671.677	79.81
671.88	84.81
672.082	77.81
672.284	74.81
672.487	67.81
672.689	84.81
672.892	89.81
