Data from WStandard_LampEnergy10_LIBS07252019.E.O._I.C._HRD10591_15-52-50-928.txt Node
Date: Thu Jul 25 15:52:50 EDT 2019
User: cochatt
Spectrometer: HR+D1059
Trigger mode: 1
Integration Time (sec): 1.000000E-1
Scans to average: 1
Electric dark correction enabled: true
Nonlinearity correction enabled: false
Boxcar width: 0
XAxis mode: Wavelengths
Number of Pixels in Spectrum: 2048
>>>>>Begin Spectral Data<<<<<
223.165	-8.94
223.4	-8.94
223.635	-8.94
223.869	-0.94
224.104	-26.94
224.338	-14.94
224.573	-9.94
224.808	-14.94
225.042	-8.94
225.277	-26.94
225.511	5.06
225.746	9.06
225.98	1.06
226.215	16.06
226.449	23.06
226.683	10.06
226.918	20.06
227.152	28.06
227.387	38.06
227.621	31.06
227.856	39.06
228.09	40.06
228.324	43.06
228.559	48.06
228.793	108.06
229.027	232.06
229.262	229.06
229.496	236.06
229.73	261.06
229.964	274.06
230.199	283.06
230.433	284.06
230.667	301.06
230.901	327.06
231.136	281.06
231.37	295.06
231.604	270.06
231.838	298.06
232.072	295.06
232.306	285.06
232.541	304.06
232.775	348.06
233.009	370.06
233.243	353.06
233.477	328.06
233.711	352.06
233.945	338.06
234.179	329.06
234.413	362.06
234.647	387.06
234.881	351.06
235.115	336.06
235.349	331.06
235.583	345.06
235.817	335.06
236.051	329.06
236.285	351.06
236.519	367.06
236.753	412.06
236.987	389.06
237.221	419.06
237.455	427.06
237.689	418.06
237.922	395.06
238.156	415.06
238.39	384.06
238.624	418.06
238.858	437.06
239.091	463.06
239.325	472.06
239.559	543.06
239.793	548.06
240.027	585.06
240.26	558.06
240.494	449.06
240.728	423.06
240.961	429.06
241.195	431.06
241.429	483.06
241.662	484.06
241.896	467.06
242.13	453.06
242.363	496.06
242.597	534.06
242.83	526.06
243.064	537.06
243.298	535.06
243.531	546.06
243.765	523.06
243.998	483.06
244.232	471.06
244.465	463.06
244.699	474.06
244.932	536.06
245.166	582.06
245.399	545.06
245.633	511.06
245.866	538.06
246.099	518.06
246.333	545.06
246.566	560.06
246.8	601.06
247.033	664.06
247.266	627.06
247.5	597.06
247.733	612.06
247.966	618.06
248.2	695.06
248.433	681.06
248.666	703.06
248.899	763.06
249.133	858.06
249.366	897.06
249.599	753.06
249.832	699.06
250.066	705.06
250.299	737.06
250.532	678.06
250.765	611.06
250.998	668.06
251.231	678.06
251.465	691.06
251.698	652.06
251.931	675.06
252.164	699.06
252.397	716.06
252.63	703.06
252.863	648.06
253.096	635.06
253.329	632.06
253.562	683.06
253.795	689.06
254.028	704.06
254.261	681.06
254.494	647.06
254.727	611.06
254.96	657.06
255.193	738.06
255.426	813.06
255.659	895.06
255.892	911.06
256.124	749.06
256.357	731.06
256.59	779.06
256.823	788.06
257.056	806.06
257.289	935.06
257.521	1015.06
257.754	937.06
257.987	880.06
258.22	954.06
258.452	927.06
258.685	769.06
258.918	779.06
259.151	780.06
259.383	752.06
259.616	658.06
259.849	716.06
260.081	793.06
260.314	869.06
260.547	953.06
260.779	938.06
261.012	865.06
261.244	819.06
261.477	783.06
261.71	805.06
261.942	809.06
262.175	770.06
262.407	802.06
262.64	757.06
262.872	721.06
263.105	709.06
263.337	730.06
263.57	737.06
263.802	708.06
264.035	666.06
264.267	647.06
264.499	659.06
264.732	703.06
264.964	755.06
265.197	776.06
265.429	837.06
265.661	888.06
265.894	980.06
266.126	977.06
266.358	915.06
266.591	928.06
266.823	1001.06
267.055	900.06
267.287	864.06
267.52	841.06
267.752	882.06
267.984	895.06
268.216	890.06
268.448	921.06
268.681	927.06
268.913	834.06
269.145	787.06
269.377	809.06
269.609	871.06
269.841	1032.06
270.073	1151.06
270.306	1270.06
270.538	1257.06
270.77	1079.06
271.002	973.06
271.234	919.06
271.466	936.06
271.698	1029.06
271.93	1207.06
272.162	1216.06
272.394	1075.06
272.626	1020.06
272.858	889.06
273.09	801.06
273.322	818.06
273.553	746.06
273.785	802.06
274.017	812.06
274.249	875.06
274.481	854.06
274.713	832.06
274.945	810.06
275.176	817.06
275.408	791.06
275.64	778.06
275.872	815.06
276.104	847.06
276.335	968.06
276.567	1039.06
276.799	1044.06
277.031	941.06
277.262	921.06
277.494	977.06
277.726	1051.06
277.957	1027.06
278.189	939.06
278.421	857.06
278.652	859.06
278.884	841.06
279.115	853.06
279.347	874.06
279.579	841.06
279.81	857.06
280.042	958.06
280.273	1004.06
280.505	1025.06
280.736	1019.06
280.968	970.06
281.199	857.06
281.431	825.06
281.662	837.06
281.894	864.06
282.125	841.06
282.356	885.06
282.588	890.06
282.819	924.06
283.051	991.06
283.282	1023.06
283.513	966.06
283.745	876.06
283.976	844.06
284.207	837.06
284.439	860.06
284.67	876.06
284.901	889.06
285.132	901.06
285.364	887.06
285.595	884.06
285.826	881.06
286.057	901.06
286.288	884.06
286.52	913.06
286.751	980.06
286.982	1011.06
287.213	917.06
287.444	862.06
287.675	831.06
287.906	932.06
288.138	934.06
288.369	930.06
288.6	897.06
288.831	884.06
289.062	835.06
289.293	854.06
289.524	869.06
289.755	915.06
289.986	899.06
290.217	856.06
290.448	870.06
290.679	897.06
290.91	909.06
291.141	935.06
291.371	951.06
291.602	967.06
291.833	937.06
292.064	987.06
292.295	990.06
292.526	968.06
292.757	1012.06
292.987	985.06
293.218	931.06
293.449	1059.06
293.68	1144.06
293.91	1191.06
294.141	1092.06
294.372	1069.06
294.603	1115.06
294.833	1101.06
295.064	1064.06
295.295	981.06
295.525	904.06
295.756	872.06
295.987	864.06
296.217	865.06
296.448	881.06
296.679	891.06
296.909	903.06
297.14	912.06
297.37	951.06
297.601	975.06
297.831	1046.06
298.062	1004.06
298.292	921.06
298.523	907.06
298.753	895.06
298.984	923.06
299.214	946.06
299.445	958.06
299.675	972.06
299.905	979.06
300.136	939.06
300.366	937.06
300.597	891.06
300.827	914.06
301.057	957.06
301.288	972.06
301.518	979.06
301.748	1019.06
301.979	1082.06
302.209	1105.06
302.439	1114.06
302.669	1165.06
302.9	1075.06
303.13	994.06
303.36	1001.06
303.59	1023.06
303.82	1007.06
304.051	960.06
304.281	1007.06
304.511	1033.06
304.741	1085.06
304.971	1184.06
305.201	1230.06
305.431	1120.06
305.661	939.06
305.891	854.06
306.121	899.06
306.352	917.06
306.582	970.06
306.812	1046.06
307.042	1096.06
307.272	1113.06
307.502	1125.06
307.731	1227.06
307.961	1258.06
308.191	1121.06
308.421	1039.06
308.651	973.06
308.881	956.06
309.111	963.06
309.341	946.06
309.571	971.06
309.8	974.06
310.03	971.06
310.26	943.06
310.49	970.06
310.72	1001.06
310.949	1023.06
311.179	1036.06
311.409	1007.06
311.639	971.06
311.868	996.06
312.098	972.06
312.328	994.06
312.557	979.06
312.787	1011.06
313.017	1008.06
313.246	1017.06
313.476	1037.06
313.706	1039.06
313.935	1041.06
314.165	1064.06
314.394	1066.06
314.624	1177.06
314.853	1239.06
315.083	1233.06
315.312	1260.06
315.542	1165.06
315.771	1049.06
316.001	1057.06
316.23	1157.06
316.46	1120.06
316.689	1063.06
316.919	1041.06
317.148	1011.06
317.377	1049.06
317.607	1114.06
317.836	1287.06
318.065	1252.06
318.295	1199.06
318.524	1162.06
318.753	1112.06
318.983	1099.06
319.212	1071.06
319.441	1087.06
319.67	1095.06
319.9	1102.06
320.129	1117.06
320.358	1183.06
320.587	1213.06
320.816	1199.06
321.046	1164.06
321.275	1139.06
321.504	1165.06
321.733	1243.06
321.962	1194.06
322.191	1101.06
322.42	1110.06
322.649	1098.06
322.878	1096.06
323.108	1130.06
323.337	1124.06
323.566	1131.06
323.795	1144.06
324.024	1111.06
324.253	1091.06
324.482	1074.06
324.71	1037.06
324.939	1019.06
325.168	1061.06
325.397	1075.06
325.626	1114.06
325.855	1113.06
326.084	1071.06
326.313	1089.06
326.542	1092.06
326.77	1126.06
326.999	1136.06
327.228	1025.06
327.457	1012.06
327.686	1023.06
327.914	1043.06
328.143	1084.06
328.372	1089.06
328.6	1044.06
328.829	1083.06
329.058	1066.06
329.287	1031.06
329.515	1090.06
329.744	1132.06
329.972	1165.06
330.201	1220.06
330.43	1175.06
330.658	1146.06
330.887	1122.06
331.115	1153.06
331.344	1161.06
331.572	1114.06
331.801	1141.06
332.03	1145.06
332.258	1155.06
332.486	1186.06
332.715	1171.06
332.943	1175.06
333.172	1119.06
333.4	1151.06
333.629	1205.06
333.857	1307.06
334.085	1412.06
334.314	1645.06
334.542	1683.06
334.771	1529.06
334.999	1369.06
335.227	1255.06
335.455	1238.06
335.684	1235.06
335.912	1247.06
336.14	1289.06
336.369	1222.06
336.597	1187.06
336.825	1168.06
337.053	1240.06
337.281	1271.06
337.51	1355.06
337.738	1341.06
337.966	1276.06
338.194	1177.06
338.422	1160.06
338.65	1131.06
338.878	1125.06
339.106	1096.06
339.334	1090.06
339.562	1068.06
339.79	1103.06
340.018	1194.06
340.246	1232.06
340.474	1213.06
340.702	1229.06
340.93	1174.06
341.158	1195.06
341.386	1148.06
341.614	1166.06
341.842	1144.06
342.07	1156.06
342.298	1159.06
342.526	1147.06
342.754	1149.06
342.981	1136.06
343.209	1108.06
343.437	1124.06
343.665	1122.06
343.893	1178.06
344.12	1207.06
344.348	1237.06
344.576	1156.06
344.804	1153.06
345.031	1151.06
345.259	1145.06
345.487	1091.06
345.714	1054.06
345.942	1024.06
346.17	1079.06
346.397	1085.06
346.625	1099.06
346.853	1047.06
347.08	1044.06
347.308	1027.06
347.535	1059.06
347.763	1122.06
347.99	1080.06
348.218	1049.06
348.445	1069.06
348.673	1050.06
348.9	1153.06
349.128	1135.06
349.355	1155.06
349.583	1128.06
349.81	1078.06
350.037	1001.06
350.265	989.06
350.492	1022.06
350.72	1057.06
350.947	1089.06
351.174	1103.06
351.402	1072.06
351.629	999.06
351.856	996.06
352.083	1007.06
352.311	1007.06
352.538	1047.06
352.765	1091.06
352.992	1101.06
353.22	1106.06
353.447	1071.06
353.674	1090.06
353.901	1084.06
354.128	1053.06
354.355	1049.06
354.583	1088.06
354.81	1105.06
355.037	1133.06
355.264	1076.06
355.491	1081.06
355.718	1108.06
355.945	1080.06
356.172	1045.06
356.399	1046.06
356.626	1052.06
356.853	1083.06
357.08	1205.06
357.307	1284.06
357.534	1236.06
357.761	1115.06
357.988	1032.06
358.215	1001.06
358.441	1036.06
358.668	1017.06
358.895	1023.06
359.122	1140.06
359.349	1239.06
359.576	1155.06
359.802	1078.06
360.029	1055.06
360.256	1041.06
360.483	1053.06
360.709	1095.06
360.936	1119.06
361.163	1157.06
361.39	1320.06
361.616	1353.06
361.843	1319.06
362.07	1187.06
362.296	1097.06
362.523	1059.06
362.749	1080.06
362.976	1107.06
363.203	1114.06
363.429	1060.06
363.656	1051.06
363.882	1135.06
364.109	1216.06
364.335	1261.06
364.562	1173.06
364.788	1126.06
365.015	1078.06
365.241	1046.06
365.468	1135.06
365.694	1147.06
365.92	1138.06
366.147	1099.06
366.373	1066.06
366.599	1042.06
366.826	1065.06
367.052	1061.06
367.278	1094.06
367.505	1075.06
367.731	1124.06
367.957	1100.06
368.184	1179.06
368.41	1240.06
368.636	1205.06
368.862	1249.06
369.089	1273.06
369.315	1171.06
369.541	1146.06
369.767	1135.06
369.993	1105.06
370.219	1121.06
370.445	1138.06
370.672	1211.06
370.898	1232.06
371.124	1204.06
371.35	1159.06
371.576	1212.06
371.802	1219.06
372.028	1176.06
372.254	1172.06
372.48	1118.06
372.706	1085.06
372.932	1064.06
373.158	1137.06
373.384	1153.06
373.61	1165.06
373.835	1237.06
374.061	1145.06
374.287	1154.06
374.513	1146.06
374.739	1145.06
374.965	1185.06
375.191	1186.06
375.416	1226.06
375.642	1207.06
375.868	1308.06
376.094	1295.06
376.319	1216.06
376.545	1190.06
376.771	1233.06
376.997	1263.06
377.222	1240.06
377.448	1245.06
377.674	1222.06
377.899	1242.06
378.125	1271.06
378.35	1288.06
378.576	1164.06
378.802	1128.06
379.027	1105.06
379.253	1154.06
379.478	1176.06
379.704	1173.06
379.929	1143.06
380.155	1161.06
380.38	1154.06
380.606	1208.06
380.831	1216.06
381.057	1244.06
381.282	1279.06
381.507	1241.06
381.733	1323.06
381.958	1372.06
382.184	1274.06
382.409	1227.06
382.634	1191.06
382.86	1233.06
383.085	1235.06
383.31	1250.06
383.535	1377.06
383.761	1434.06
383.986	1353.06
384.211	1332.06
384.436	1299.06
384.662	1391.06
384.887	1403.06
385.112	1373.06
385.337	1357.06
385.562	1354.06
385.787	1315.06
386.013	1391.06
386.238	1334.06
386.463	1380.06
386.688	1481.06
386.913	1533.06
387.138	1463.06
387.363	1404.06
387.588	1380.06
387.813	1376.06
388.038	1400.06
388.263	1421.06
388.488	1387.06
388.713	1299.06
388.938	1327.06
389.163	1273.06
389.387	1333.06
389.612	1310.06
389.837	1380.06
390.062	1381.06
390.287	1359.06
390.512	1331.06
390.736	1336.06
390.961	1307.06
391.186	1252.06
391.411	1337.06
391.636	1353.06
391.86	1364.06
392.085	1354.06
392.31	1333.06
392.534	1345.06
392.759	1349.06
392.984	1327.06
393.208	1358.06
393.433	1431.06
393.658	1487.06
393.882	1435.06
394.107	1376.06
394.331	1363.06
394.556	1341.06
394.78	1394.06
395.005	1423.06
395.229	1460.06
395.454	1569.06
395.678	1547.06
395.903	1467.06
396.127	1424.06
396.352	1453.06
396.576	1440.06
396.801	1466.06
397.025	1450.06
397.249	1501.06
397.474	1474.06
397.698	1480.06
397.922	1535.06
398.147	1546.06
398.371	1621.06
398.595	1622.06
398.82	1560.06
399.044	1573.06
399.268	1681.06
399.492	1718.06
399.717	1750.06
399.941	1793.06
400.165	1725.06
400.389	1704.06
400.613	1747.06
400.837	2001.06
401.062	2136.06
401.286	1785.06
401.51	1705.06
401.734	1813.06
401.958	1699.06
402.182	1591.06
402.406	1553.06
402.63	1506.06
402.854	1553.06
403.078	1554.06
403.302	1567.06
403.526	1608.06
403.75	1593.06
403.974	1669.06
404.198	1623.06
404.422	1705.06
404.645	1824.06
404.869	1698.06
405.093	1612.06
405.317	1528.06
405.541	1613.06
405.765	1651.06
405.988	1625.06
406.212	1645.06
406.436	1672.06
406.66	1766.06
406.883	1809.06
407.107	2035.06
407.331	2131.06
407.555	2279.06
407.778	1998.06
408.002	1738.06
408.226	1692.06
408.449	1669.06
408.673	1648.06
408.896	1648.06
409.12	1699.06
409.344	1643.06
409.567	1613.06
409.791	1640.06
410.014	1663.06
410.238	1798.06
410.461	1863.06
410.685	1662.06
410.908	1617.06
411.132	1654.06
411.355	1613.06
411.578	1594.06
411.802	1603.06
412.025	1631.06
412.249	1595.06
412.472	1571.06
412.695	1588.06
412.919	1567.06
413.142	1564.06
413.365	1589.06
413.589	1610.06
413.812	1696.06
414.035	1719.06
414.258	1609.06
414.482	1587.06
414.705	1572.06
414.928	1583.06
415.151	1555.06
415.374	1613.06
415.597	1617.06
415.821	1613.06
416.044	1646.06
416.267	1617.06
416.49	1545.06
416.713	1530.06
416.936	1607.06
417.159	1667.06
417.382	1681.06
417.605	1541.06
417.828	1592.06
418.051	1629.06
418.274	1583.06
418.497	1501.06
418.72	1563.06
418.943	1579.06
419.166	1604.06
419.389	1663.06
419.611	1660.06
419.834	1573.06
420.057	1595.06
420.28	1565.06
420.503	1555.06
420.726	1586.06
420.948	1576.06
421.171	1525.06
421.394	1609.06
421.617	1635.06
421.839	1624.06
422.062	1603.06
422.285	1545.06
422.507	1551.06
422.73	1513.06
422.953	1494.06
423.175	1482.06
423.398	1548.06
423.621	1560.06
423.843	1516.06
424.066	1616.06
424.288	1690.06
424.511	1768.06
424.733	1673.06
424.956	1519.06
425.178	1506.06
425.401	1559.06
425.623	1551.06
425.846	1539.06
426.068	1633.06
426.291	1617.06
426.513	1574.06
426.735	1631.06
426.958	1749.06
427.18	1773.06
427.402	1672.06
427.625	1713.06
427.847	1633.06
428.069	1549.06
428.292	1486.06
428.514	1495.06
428.736	1478.06
428.958	1510.06
429.181	1563.06
429.403	1801.06
429.625	2103.06
429.847	1765.06
430.069	1537.06
430.292	1763.06
430.514	1713.06
430.736	1621.06
430.958	1661.06
431.18	1532.06
431.402	1502.06
431.624	1459.06
431.846	1414.06
432.068	1344.06
432.29	1316.06
432.512	1441.06
432.734	1508.06
432.956	1553.06
433.178	1607.06
433.4	1600.06
433.622	1607.06
433.844	1556.06
434.066	1441.06
434.287	1412.06
434.509	1450.06
434.731	1507.06
434.953	1609.06
435.175	1595.06
435.397	1551.06
435.618	1532.06
435.84	1476.06
436.062	1473.06
436.284	1539.06
436.505	1567.06
436.727	1585.06
436.949	1549.06
437.17	1504.06
437.392	1503.06
437.614	1447.06
437.835	1418.06
438.057	1436.06
438.278	1519.06
438.5	1489.06
438.721	1532.06
438.943	1499.06
439.165	1527.06
439.386	1503.06
439.608	1523.06
439.829	1571.06
440.05	1559.06
440.272	1567.06
440.493	1522.06
440.715	1575.06
440.936	1665.06
441.158	1747.06
441.379	1684.06
441.6	1684.06
441.822	1658.06
442.043	1673.06
442.264	1608.06
442.486	1583.06
442.707	1529.06
442.928	1534.06
443.149	1592.06
443.371	1658.06
443.592	1697.06
443.813	1685.06
444.034	1668.06
444.255	1672.06
444.476	1683.06
444.698	1699.06
444.919	1711.06
445.14	1803.06
445.361	1737.06
445.582	1730.06
445.803	1753.06
446.024	1654.06
446.245	1763.06
446.466	1689.06
446.687	1676.06
446.908	1665.06
447.129	1597.06
447.35	1614.06
447.571	1605.06
447.792	1527.06
448.013	1506.06
448.234	1549.06
448.455	1585.06
448.675	1582.06
448.896	1519.06
449.117	1481.06
449.338	1484.06
449.559	1563.06
449.779	1619.06
450	1719.06
450.221	1777.06
450.442	1713.06
450.662	1560.06
450.883	1442.06
451.104	1448.06
451.324	1464.06
451.545	1489.06
451.766	1453.06
451.986	1382.06
452.207	1367.06
452.428	1318.06
452.648	1312.06
452.869	1391.06
453.089	1345.06
453.31	1357.06
453.53	1388.06
453.751	1311.06
453.971	1249.06
454.192	1279.06
454.412	1372.06
454.633	1351.06
454.853	1347.06
455.073	1274.06
455.294	1271.06
455.514	1293.06
455.734	1312.06
455.955	1273.06
456.175	1298.06
456.395	1284.06
456.616	1299.06
456.836	1308.06
457.056	1289.06
457.276	1281.06
457.497	1294.06
457.717	1196.06
457.937	1232.06
458.157	1255.06
458.377	1225.06
458.598	1196.06
458.818	1220.06
459.038	1309.06
459.258	1386.06
459.478	1363.06
459.698	1350.06
459.918	1343.06
460.138	1469.06
460.358	1471.06
460.578	1472.06
460.798	1540.06
461.018	1581.06
461.238	1526.06
461.458	1505.06
461.678	1482.06
461.898	1455.06
462.118	1449.06
462.338	1472.06
462.558	1495.06
462.777	1528.06
462.997	1577.06
463.217	1624.06
463.437	1603.06
463.657	1503.06
463.876	1472.06
464.096	1491.06
464.316	1514.06
464.536	1563.06
464.755	1578.06
464.975	1548.06
465.195	1541.06
465.414	1604.06
465.634	1507.06
465.854	1522.06
466.073	1676.06
466.293	1628.06
466.512	1461.06
466.732	1481.06
466.951	1545.06
467.171	1507.06
467.391	1477.06
467.61	1433.06
467.829	1476.06
468.049	1589.06
468.268	1779.06
468.488	1630.06
468.707	1538.06
468.927	1519.06
469.146	1457.06
469.365	1489.06
469.585	1526.06
469.804	1513.06
470.023	1535.06
470.243	1523.06
470.462	1528.06
470.681	1524.06
470.901	1520.06
471.12	1506.06
471.339	1531.06
471.558	1492.06
471.777	1476.06
471.997	1481.06
472.216	1424.06
472.435	1362.06
472.654	1361.06
472.873	1395.06
473.092	1481.06
473.311	1413.06
473.53	1394.06
473.749	1357.06
473.968	1423.06
474.187	1453.06
474.406	1489.06
474.625	1443.06
474.844	1456.06
475.063	1487.06
475.282	1460.06
475.501	1415.06
475.72	1460.06
475.939	1537.06
476.158	1482.06
476.377	1448.06
476.596	1477.06
476.814	1446.06
477.033	1443.06
477.252	1508.06
477.471	1571.06
477.69	1543.06
477.908	1543.06
478.127	1658.06
478.346	1702.06
478.564	1750.06
478.783	1706.06
479.002	1769.06
479.22	1728.06
479.439	1795.06
479.658	1889.06
479.876	1828.06
480.095	1621.06
480.313	1617.06
480.532	1546.06
480.751	1555.06
480.969	1520.06
481.188	1517.06
481.406	1451.06
481.624	1434.06
481.843	1523.06
482.061	1524.06
482.28	1544.06
482.498	1591.06
482.717	1539.06
482.935	1588.06
483.153	1657.06
483.372	1699.06
483.59	1636.06
483.808	1612.06
484.027	1629.06
484.245	1730.06
484.463	2092.06
484.681	2205.06
484.9	1774.06
485.118	1646.06
485.336	1608.06
485.554	1604.06
485.772	1630.06
485.99	1602.06
486.209	1652.06
486.427	1649.06
486.645	1683.06
486.863	1706.06
487.081	1772.06
487.299	1754.06
487.517	1753.06
487.735	1769.06
487.953	1864.06
488.171	1811.06
488.389	1815.06
488.607	1775.06
488.825	1939.06
489.043	1851.06
489.261	1688.06
489.479	1776.06
489.696	1780.06
489.914	1765.06
490.132	1749.06
490.35	1749.06
490.568	1889.06
490.786	1904.06
491.003	1873.06
491.221	1911.06
491.439	1975.06
491.657	2018.06
491.874	2048.06
492.092	2113.06
492.31	2162.06
492.527	2132.06
492.745	2056.06
492.963	2018.06
493.18	2023.06
493.398	2109.06
493.615	2105.06
493.833	1984.06
494.05	1955.06
494.268	1992.06
494.485	1988.06
494.703	1948.06
494.92	1905.06
495.138	1906.06
495.355	1971.06
495.573	2008.06
495.79	2108.06
496.008	2091.06
496.225	1981.06
496.442	1989.06
496.66	1992.06
496.877	1947.06
497.094	2011.06
497.312	1977.06
497.529	1976.06
497.746	2013.06
497.963	2204.06
498.181	2320.06
498.398	2235.06
498.615	2183.06
498.832	2102.06
499.049	2079.06
499.267	2116.06
499.484	2276.06
499.701	2419.06
499.918	2481.06
500.135	2660.06
500.352	2817.06
500.569	2815.06
500.786	3043.06
501.003	2825.06
501.22	2543.06
501.437	2448.06
501.654	2517.06
501.871	2356.06
502.088	2127.06
502.305	2081.06
502.522	2001.06
502.739	1907.06
502.956	1855.06
503.172	1848.06
503.389	1797.06
503.606	1778.06
503.823	1756.06
504.04	1782.06
504.256	1766.06
504.473	1757.06
504.69	1845.06
504.907	1747.06
505.123	1693.06
505.34	1873.06
505.557	2335.06
505.773	1938.06
505.99	1695.06
506.207	1575.06
506.423	1564.06
506.64	1535.06
506.856	1573.06
507.073	1764.06
507.289	1879.06
507.506	1796.06
507.722	1554.06
507.939	1495.06
508.155	1467.06
508.372	1518.06
508.588	1457.06
508.805	1417.06
509.021	1388.06
509.238	1351.06
509.454	1368.06
509.67	1339.06
509.887	1343.06
510.103	1349.06
510.319	1352.06
510.536	1438.06
510.752	1414.06
510.968	1374.06
511.184	1463.06
511.401	1471.06
511.617	1343.06
511.833	1258.06
512.049	1292.06
512.265	1309.06
512.481	1315.06
512.698	1350.06
512.914	1415.06
513.13	1371.06
513.346	1319.06
513.562	1271.06
513.778	1291.06
513.994	1399.06
514.21	1402.06
514.426	1405.06
514.642	1561.06
514.858	1440.06
515.074	1328.06
515.29	1302.06
515.506	1353.06
515.721	1349.06
515.937	1415.06
516.153	1487.06
516.369	1465.06
516.585	1407.06
516.801	1337.06
517.016	1378.06
517.232	1402.06
517.448	1430.06
517.664	1404.06
517.879	1455.06
518.095	1484.06
518.311	1427.06
518.527	1403.06
518.742	1370.06
518.958	1356.06
519.173	1349.06
519.389	1384.06
519.605	1395.06
519.82	1383.06
520.036	1411.06
520.251	1361.06
520.467	1382.06
520.682	1485.06
520.898	1425.06
521.113	1315.06
521.329	1294.06
521.544	1429.06
521.76	1323.06
521.975	1292.06
522.19	1294.06
522.406	1301.06
522.621	1641.06
522.836	1527.06
523.052	1276.06
523.267	1315.06
523.482	1321.06
523.698	1282.06
523.913	1255.06
524.128	1288.06
524.343	1361.06
524.559	1403.06
524.774	1315.06
524.989	1301.06
525.204	1304.06
525.419	1257.06
525.634	1271.06
525.849	1288.06
526.064	1251.06
526.28	1250.06
526.495	1188.06
526.71	1191.06
526.925	1164.06
527.14	1165.06
527.355	1130.06
527.57	1139.06
527.785	1199.06
527.999	1181.06
528.214	1147.06
528.429	1188.06
528.644	1254.06
528.859	1279.06
529.074	1304.06
529.289	1343.06
529.503	1372.06
529.718	1305.06
529.933	1219.06
530.148	1121.06
530.363	1151.06
530.577	1131.06
530.792	1157.06
531.007	1187.06
531.221	1149.06
531.436	1167.06
531.651	1183.06
531.865	1264.06
532.08	1187.06
532.295	1111.06
532.509	1101.06
532.724	1116.06
532.938	1188.06
533.153	1260.06
533.367	1229.06
533.582	1268.06
533.796	1221.06
534.011	1193.06
534.225	1153.06
534.44	1145.06
534.654	1151.06
534.868	1138.06
535.083	1215.06
535.297	1217.06
535.511	1184.06
535.726	1195.06
535.94	1205.06
536.154	1155.06
536.369	1116.06
536.583	1106.06
536.797	1083.06
537.011	1137.06
537.225	1086.06
537.44	1087.06
537.654	1142.06
537.868	1118.06
538.082	1067.06
538.296	1071.06
538.51	1079.06
538.724	1115.06
538.938	1151.06
539.153	1209.06
539.367	1182.06
539.581	1162.06
539.795	1191.06
540.009	1149.06
540.222	1116.06
540.436	1157.06
540.65	1320.06
540.864	1322.06
541.078	1289.06
541.292	1303.06
541.506	1304.06
541.72	1419.06
541.934	1489.06
542.147	1541.06
542.361	1468.06
542.575	1348.06
542.789	1311.06
543.002	1216.06
543.216	1193.06
543.43	1236.06
543.644	1296.06
543.857	1352.06
544.071	1377.06
544.285	1403.06
544.498	1356.06
544.712	1357.06
544.925	1393.06
545.139	1405.06
545.352	1388.06
545.566	1353.06
545.779	1328.06
545.993	1381.06
546.206	1405.06
546.42	1339.06
546.633	1357.06
546.847	1359.06
547.06	1365.06
547.274	1381.06
547.487	1400.06
547.7	1401.06
547.914	1374.06
548.127	1401.06
548.34	1387.06
548.554	1361.06
548.767	1385.06
548.98	1337.06
549.193	1372.06
549.407	1431.06
549.62	1405.06
549.833	1367.06
550.046	1354.06
550.259	1348.06
550.473	1309.06
550.686	1285.06
550.899	1236.06
551.112	1253.06
551.325	1196.06
551.538	1273.06
551.751	1365.06
551.964	1155.06
552.177	1148.06
552.39	1213.06
552.603	1236.06
552.816	1301.06
553.029	1355.06
553.242	1369.06
553.455	1338.06
553.667	1320.06
553.88	1310.06
554.093	1307.06
554.306	1256.06
554.519	1217.06
554.732	1220.06
554.944	1231.06
555.157	1240.06
555.37	1200.06
555.583	1184.06
555.795	1144.06
556.008	1128.06
556.221	1087.06
556.433	1075.06
556.646	1098.06
556.859	1099.06
557.071	1109.06
557.284	1109.06
557.496	1113.06
557.709	1097.06
557.921	1055.06
558.134	1087.06
558.346	1077.06
558.559	1083.06
558.771	1031.06
558.984	1025.06
559.196	1028.06
559.409	1016.06
559.621	978.06
559.833	1022.06
560.046	1034.06
560.258	1021.06
560.47	1033.06
560.683	1026.06
560.895	1025.06
561.107	1021.06
561.32	1005.06
561.532	1039.06
561.744	1003.06
561.956	1004.06
562.168	1001.06
562.381	961.06
562.593	982.06
562.805	966.06
563.017	959.06
563.229	978.06
563.441	986.06
563.653	969.06
563.865	972.06
564.077	936.06
564.289	951.06
564.501	961.06
564.713	965.06
564.925	996.06
565.137	1058.06
565.349	983.06
565.561	986.06
565.773	992.06
565.985	988.06
566.197	1036.06
566.408	1085.06
566.62	1092.06
566.832	1066.06
567.044	1114.06
567.255	1084.06
567.467	1073.06
567.679	1095.06
567.891	1120.06
568.102	1062.06
568.314	999.06
568.526	941.06
568.737	924.06
568.949	883.06
569.161	815.06
569.372	823.06
569.584	795.06
569.795	816.06
570.007	760.06
570.218	780.06
570.43	756.06
570.641	758.06
570.853	808.06
571.064	787.06
571.276	807.06
571.487	795.06
571.698	772.06
571.91	752.06
572.121	748.06
572.333	719.06
572.544	704.06
572.755	700.06
572.966	662.06
573.178	673.06
573.389	680.06
573.6	720.06
573.811	790.06
574.023	679.06
574.234	666.06
574.445	643.06
574.656	666.06
574.867	634.06
575.078	658.06
575.289	657.06
575.501	669.06
575.712	652.06
575.923	641.06
576.134	645.06
576.345	645.06
576.556	676.06
576.767	656.06
576.978	635.06
577.188	647.06
577.399	631.06
577.61	621.06
577.821	591.06
578.032	620.06
578.243	613.06
578.454	597.06
578.665	587.06
578.875	577.06
579.086	568.06
579.297	587.06
579.508	625.06
579.718	597.06
579.929	595.06
580.14	565.06
580.35	554.06
580.561	595.06
580.772	633.06
580.982	598.06
581.193	589.06
581.403	573.06
581.614	560.06
581.825	537.06
582.035	551.06
582.246	577.06
582.456	578.06
582.667	565.06
582.877	534.06
583.087	545.06
583.298	531.06
583.508	557.06
583.719	548.06
583.929	529.06
584.139	555.06
584.35	521.06
584.56	531.06
584.77	565.06
584.981	547.06
585.191	563.06
585.401	583.06
585.611	557.06
585.821	550.06
586.032	551.06
586.242	525.06
586.452	534.06
586.662	525.06
586.872	515.06
587.082	509.06
587.292	528.06
587.502	547.06
587.713	523.06
587.923	537.06
588.133	513.06
588.343	518.06
588.553	513.06
588.762	507.06
588.972	508.06
589.182	518.06
589.392	536.06
589.602	517.06
589.812	531.06
590.022	517.06
590.232	500.06
590.441	530.06
590.651	527.06
590.861	527.06
591.071	491.06
591.281	508.06
591.49	498.06
591.7	499.06
591.91	491.06
592.119	511.06
592.329	544.06
592.539	551.06
592.748	523.06
592.958	524.06
593.167	513.06
593.377	560.06
593.587	556.06
593.796	533.06
594.006	536.06
594.215	546.06
594.424	535.06
594.634	555.06
594.843	551.06
595.053	552.06
595.262	535.06
595.472	504.06
595.681	519.06
595.89	513.06
596.1	515.06
596.309	507.06
596.518	503.06
596.727	508.06
596.937	509.06
597.146	494.06
597.355	485.06
597.564	477.06
597.774	477.06
597.983	466.06
598.192	458.06
598.401	463.06
598.61	466.06
598.819	457.06
599.028	463.06
599.237	495.06
599.446	445.06
599.655	441.06
599.864	447.06
600.073	424.06
600.282	444.06
600.491	460.06
600.7	420.06
600.909	465.06
601.118	456.06
601.327	495.06
601.536	499.06
601.745	508.06
601.953	508.06
602.162	505.06
602.371	496.06
602.58	511.06
602.789	496.06
602.997	491.06
603.206	532.06
603.415	487.06
603.623	486.06
603.832	490.06
604.041	495.06
604.249	439.06
604.458	460.06
604.666	473.06
604.875	467.06
605.084	486.06
605.292	495.06
605.501	490.06
605.709	486.06
605.918	503.06
606.126	496.06
606.334	513.06
606.543	516.06
606.751	487.06
606.96	505.06
607.168	505.06
607.376	489.06
607.585	495.06
607.793	496.06
608.001	490.06
608.21	511.06
608.418	510.06
608.626	501.06
608.834	508.06
609.043	499.06
609.251	485.06
609.459	500.06
609.667	495.06
609.875	496.06
610.083	490.06
610.291	509.06
610.499	495.06
610.707	504.06
610.916	485.06
611.124	500.06
611.332	507.06
611.54	475.06
611.748	472.06
611.955	480.06
612.163	483.06
612.371	483.06
612.579	486.06
612.787	490.06
612.995	504.06
613.203	501.06
613.411	470.06
613.618	458.06
613.826	481.06
614.034	492.06
614.242	489.06
614.449	485.06
614.657	467.06
614.865	465.06
615.072	471.06
615.28	483.06
615.488	496.06
615.695	488.06
615.903	485.06
616.111	476.06
616.318	500.06
616.526	475.06
616.733	487.06
616.941	462.06
617.148	460.06
617.356	472.06
617.563	467.06
617.771	472.06
617.978	435.06
618.185	449.06
618.393	458.06
618.6	468.06
618.807	475.06
619.015	483.06
619.222	458.06
619.429	451.06
619.637	449.06
619.844	422.06
620.051	408.06
620.258	443.06
620.466	423.06
620.673	433.06
620.88	425.06
621.087	426.06
621.294	404.06
621.501	423.06
621.708	401.06
621.915	421.06
622.122	438.06
622.329	449.06
622.536	427.06
622.743	419.06
622.95	425.06
623.157	419.06
623.364	423.06
623.571	428.06
623.778	447.06
623.985	436.06
624.192	435.06
624.399	427.06
624.606	424.06
624.812	405.06
625.019	406.06
625.226	387.06
625.433	392.06
625.639	387.06
625.846	353.06
626.053	358.06
626.259	357.06
626.466	342.06
626.673	343.06
626.879	339.06
627.086	345.06
627.293	373.06
627.499	397.06
627.706	412.06
627.912	418.06
628.119	394.06
628.325	377.06
628.532	393.06
628.738	384.06
628.945	387.06
629.151	390.06
629.357	379.06
629.564	378.06
629.77	395.06
629.976	373.06
630.183	359.06
630.389	359.06
630.595	368.06
630.802	383.06
631.008	376.06
631.214	368.06
631.42	368.06
631.627	372.06
631.833	351.06
632.039	360.06
632.245	357.06
632.451	357.06
632.657	364.06
632.863	346.06
633.069	352.06
633.275	337.06
633.481	336.06
633.688	349.06
633.893	321.06
634.099	325.06
634.305	347.06
634.511	331.06
634.717	322.06
634.923	305.06
635.129	322.06
635.335	334.06
635.541	316.06
635.747	328.06
635.952	343.06
636.158	328.06
636.364	349.06
636.57	335.06
636.775	336.06
636.981	359.06
637.187	349.06
637.392	343.06
637.598	335.06
637.804	369.06
638.009	347.06
638.215	335.06
638.421	338.06
638.626	345.06
638.832	335.06
639.037	325.06
639.243	331.06
639.448	338.06
639.654	332.06
639.859	315.06
640.065	315.06
640.27	333.06
640.475	327.06
640.681	326.06
640.886	316.06
641.091	331.06
641.297	310.06
641.502	305.06
641.707	312.06
641.913	333.06
642.118	333.06
642.323	339.06
642.528	311.06
642.733	318.06
642.939	332.06
643.144	297.06
643.349	321.06
643.554	324.06
643.759	312.06
643.964	316.06
644.169	328.06
644.374	317.06
644.579	317.06
644.784	314.06
644.989	314.06
645.194	306.06
645.399	323.06
645.604	314.06
645.809	316.06
646.014	314.06
646.219	327.06
646.423	306.06
646.628	315.06
646.833	306.06
647.038	316.06
647.243	317.06
647.447	314.06
647.652	313.06
647.857	318.06
648.062	319.06
648.266	292.06
648.471	320.06
648.676	321.06
648.88	330.06
649.085	315.06
649.289	305.06
649.494	305.06
649.698	323.06
649.903	294.06
650.107	295.06
650.312	307.06
650.516	299.06
650.721	312.06
650.925	296.06
651.13	284.06
651.334	291.06
651.539	294.06
651.743	281.06
651.947	275.06
652.152	293.06
652.356	292.06
652.56	291.06
652.764	283.06
652.969	273.06
653.173	280.06
653.377	265.06
653.581	268.06
653.785	269.06
653.99	259.06
654.194	262.06
654.398	286.06
654.602	265.06
654.806	288.06
655.01	276.06
655.214	267.06
655.418	260.06
655.622	276.06
655.826	293.06
656.03	275.06
656.234	282.06
656.438	303.06
656.642	319.06
656.846	288.06
657.049	271.06
657.253	274.06
657.457	243.06
657.661	225.06
657.865	215.06
658.068	227.06
658.272	204.06
658.476	177.06
658.68	167.06
658.883	160.06
659.087	161.06
659.291	165.06
659.494	165.06
659.698	160.06
659.901	156.06
660.105	154.06
660.309	149.06
660.512	137.06
660.716	142.06
660.919	127.06
661.123	136.06
661.326	124.06
661.53	124.06
661.733	112.06
661.936	104.06
662.14	105.06
662.343	100.06
662.546	111.06
662.75	108.06
662.953	103.06
663.156	108.06
663.36	82.06
663.563	97.06
663.766	104.06
663.969	88.06
664.173	90.06
664.376	101.06
664.579	92.06
664.782	84.06
664.985	78.06
665.188	79.06
665.391	71.06
665.594	85.06
665.797	88.06
666	88.06
666.203	91.06
666.406	93.06
666.609	73.06
666.812	69.06
667.015	80.06
667.218	78.06
667.421	79.06
667.624	76.06
667.827	92.06
668.03	85.06
668.232	78.06
668.435	90.06
668.638	89.06
668.841	94.06
669.043	78.06
669.246	87.06
669.449	95.06
669.651	73.06
669.854	82.06
670.057	80.06
670.259	91.06
670.462	81.06
670.665	91.06
670.867	91.06
671.07	85.06
671.272	72.06
671.475	74.06
671.677	81.06
671.88	82.06
672.082	77.06
672.284	87.06
672.487	81.06
672.689	59.06
672.892	84.06
