Data from WStandard_LampEnergy5.5LIBS07252019.E.O._I.C._HRD10591_16-09-18-921.txt Node
Date: Thu Jul 25 16:09:18 EDT 2019
User: cochatt
Spectrometer: HR+D1059
Trigger mode: 1
Integration Time (sec): 1.000000E-1
Scans to average: 1
Electric dark correction enabled: true
Nonlinearity correction enabled: false
Boxcar width: 0
XAxis mode: Wavelengths
Number of Pixels in Spectrum: 2048
>>>>>Begin Spectral Data<<<<<
223.165	-15.38
223.4	-15.38
223.635	-15.38
223.869	-2.38
224.104	-8.38
224.338	-4.38
224.573	-26.38
224.808	-16.38
225.042	-7.38
225.277	1.62
225.511	2.62
225.746	2.62
225.98	-5.38
226.215	11.62
226.449	4.62
226.683	7.62
226.918	30.62
227.152	24.62
227.387	29.62
227.621	43.62
227.856	41.62
228.09	37.62
228.324	58.62
228.559	69.62
228.793	142.62
229.027	346.62
229.262	368.62
229.496	388.62
229.73	372.62
229.964	422.62
230.199	431.62
230.433	444.62
230.667	451.62
230.901	513.62
231.136	457.62
231.37	445.62
231.604	424.62
231.838	460.62
232.072	437.62
232.306	428.62
232.541	430.62
232.775	540.62
233.009	580.62
233.243	560.62
233.477	503.62
233.711	491.62
233.945	545.62
234.179	506.62
234.413	570.62
234.647	601.62
234.881	557.62
235.115	532.62
235.349	521.62
235.583	549.62
235.817	532.62
236.051	512.62
236.285	502.62
236.519	536.62
236.753	645.62
236.987	616.62
237.221	627.62
237.455	709.62
237.689	684.62
237.922	657.62
238.156	665.62
238.39	638.62
238.624	684.62
238.858	687.62
239.091	717.62
239.325	739.62
239.559	863.62
239.793	939.62
240.027	981.62
240.26	983.62
240.494	729.62
240.728	682.62
240.961	689.62
241.195	707.62
241.429	769.62
241.662	801.62
241.896	715.62
242.13	729.62
242.363	779.62
242.597	852.62
242.83	852.62
243.064	862.62
243.298	924.62
243.531	884.62
243.765	883.62
243.998	901.62
244.232	773.62
244.465	758.62
244.699	739.62
244.932	851.62
245.166	977.62
245.399	925.62
245.633	857.62
245.866	825.62
246.099	898.62
246.333	891.62
246.566	924.62
246.8	974.62
247.033	1092.62
247.266	1018.62
247.5	986.62
247.733	976.62
247.966	1047.62
248.2	1159.62
248.433	1122.62
248.666	1135.62
248.899	1242.62
249.133	1451.62
249.366	1659.62
249.599	1343.62
249.832	1153.62
250.066	1213.62
250.299	1228.62
250.532	1158.62
250.765	1013.62
250.998	1068.62
251.231	1169.62
251.465	1157.62
251.698	1119.62
251.931	1109.62
252.164	1144.62
252.397	1201.62
252.63	1157.62
252.863	1053.62
253.096	1029.62
253.329	1091.62
253.562	1122.62
253.795	1232.62
254.028	1191.62
254.261	1141.62
254.494	1108.62
254.727	1023.62
254.96	1081.62
255.193	1179.62
255.426	1361.62
255.659	1540.62
255.892	1607.62
256.124	1335.62
256.357	1244.62
256.59	1355.62
256.823	1356.62
257.056	1342.62
257.289	1624.62
257.521	1805.62
257.754	1603.62
257.987	1499.62
258.22	1701.62
258.452	1630.62
258.685	1314.62
258.918	1314.62
259.151	1290.62
259.383	1256.62
259.616	1092.62
259.849	1156.62
260.081	1319.62
260.314	1459.62
260.547	1603.62
260.779	1654.62
261.012	1501.62
261.244	1395.62
261.477	1269.62
261.71	1323.62
261.942	1343.62
262.175	1289.62
262.407	1391.62
262.64	1318.62
262.872	1265.62
263.105	1187.62
263.337	1211.62
263.57	1203.62
263.802	1239.62
264.035	1192.62
264.267	1132.62
264.499	1083.62
264.732	1161.62
264.964	1219.62
265.197	1271.62
265.429	1321.62
265.661	1493.62
265.894	1644.62
266.126	1701.62
266.358	1489.62
266.591	1553.62
266.823	1682.62
267.055	1518.62
267.287	1485.62
267.52	1508.62
267.752	1450.62
267.984	1443.62
268.216	1537.62
268.448	1568.62
268.681	1547.62
268.913	1432.62
269.145	1385.62
269.377	1297.62
269.609	1429.62
269.841	1672.62
270.073	1905.62
270.306	2157.62
270.538	2318.62
270.77	1927.62
271.002	1616.62
271.234	1594.62
271.466	1537.62
271.698	1713.62
271.93	2091.62
272.162	2062.62
272.394	1895.62
272.626	1799.62
272.858	1602.62
273.09	1395.62
273.322	1369.62
273.553	1341.62
273.785	1337.62
274.017	1356.62
274.249	1505.62
274.481	1508.62
274.713	1352.62
274.945	1327.62
275.176	1368.62
275.408	1361.62
275.64	1298.62
275.872	1302.62
276.104	1370.62
276.335	1586.62
276.567	1834.62
276.799	1809.62
277.031	1641.62
277.262	1515.62
277.494	1564.62
277.726	1759.62
277.957	1721.62
278.189	1577.62
278.421	1450.62
278.652	1432.62
278.884	1378.62
279.115	1359.62
279.347	1428.62
279.579	1388.62
279.81	1354.62
280.042	1546.62
280.273	1689.62
280.505	1688.62
280.736	1707.62
280.968	1633.62
281.199	1447.62
281.431	1367.62
281.662	1379.62
281.894	1393.62
282.125	1398.62
282.356	1457.62
282.588	1475.62
282.819	1446.62
283.051	1547.62
283.282	1729.62
283.513	1678.62
283.745	1434.62
283.976	1321.62
284.207	1367.62
284.439	1391.62
284.67	1405.62
284.901	1465.62
285.132	1505.62
285.364	1459.62
285.595	1458.62
285.826	1448.62
286.057	1400.62
286.288	1410.62
286.52	1484.62
286.751	1612.62
286.982	1633.62
287.213	1511.62
287.444	1383.62
287.675	1343.62
287.906	1483.62
288.138	1582.62
288.369	1535.62
288.6	1473.62
288.831	1389.62
289.062	1411.62
289.293	1447.62
289.524	1456.62
289.755	1477.62
289.986	1475.62
290.217	1383.62
290.448	1395.62
290.679	1485.62
290.91	1519.62
291.141	1499.62
291.371	1516.62
291.602	1509.62
291.833	1495.62
292.064	1537.62
292.295	1508.62
292.526	1560.62
292.757	1636.62
292.987	1605.62
293.218	1449.62
293.449	1578.62
293.68	1756.62
293.91	1871.62
294.141	1799.62
294.372	1652.62
294.603	1729.62
294.833	1885.62
295.064	1711.62
295.295	1542.62
295.525	1519.62
295.756	1451.62
295.987	1344.62
296.217	1390.62
296.448	1423.62
296.679	1457.62
296.909	1435.62
297.14	1417.62
297.37	1403.62
297.601	1515.62
297.831	1651.62
298.062	1633.62
298.292	1506.62
298.523	1455.62
298.753	1465.62
298.984	1499.62
299.214	1470.62
299.445	1494.62
299.675	1509.62
299.905	1553.62
300.136	1464.62
300.366	1444.62
300.597	1417.62
300.827	1425.62
301.057	1444.62
301.288	1552.62
301.518	1534.62
301.748	1561.62
301.979	1651.62
302.209	1665.62
302.439	1768.62
302.669	1876.62
302.9	1758.62
303.13	1548.62
303.36	1549.62
303.59	1547.62
303.82	1565.62
304.051	1590.62
304.281	1535.62
304.511	1537.62
304.741	1667.62
304.971	1791.62
305.201	1923.62
305.431	1841.62
305.661	1551.62
305.891	1383.62
306.121	1384.62
306.352	1430.62
306.582	1485.62
306.812	1587.62
307.042	1694.62
307.272	1719.62
307.502	1761.62
307.731	1866.62
307.961	2083.62
308.191	1861.62
308.421	1640.62
308.651	1500.62
308.881	1470.62
309.111	1496.62
309.341	1492.62
309.571	1474.62
309.8	1486.62
310.03	1507.62
310.26	1463.62
310.49	1475.62
310.72	1524.62
310.949	1565.62
311.179	1630.62
311.409	1553.62
311.639	1523.62
311.868	1491.62
312.098	1531.62
312.328	1527.62
312.557	1508.62
312.787	1527.62
313.017	1525.62
313.246	1572.62
313.476	1562.62
313.706	1604.62
313.935	1584.62
314.165	1540.62
314.394	1635.62
314.624	1754.62
314.853	1846.62
315.083	1912.62
315.312	1955.62
315.542	1795.62
315.771	1619.62
316.001	1627.62
316.23	1709.62
316.46	1694.62
316.689	1651.62
316.919	1592.62
317.148	1535.62
317.377	1517.62
317.607	1659.62
317.836	1820.62
318.065	1930.62
318.295	1840.62
318.524	1737.62
318.753	1717.62
318.983	1745.62
319.212	1688.62
319.441	1622.62
319.67	1641.62
319.9	1640.62
320.129	1737.62
320.358	1775.62
320.587	1854.62
320.816	1799.62
321.046	1778.62
321.275	1692.62
321.504	1642.62
321.733	1852.62
321.962	1847.62
322.191	1658.62
322.42	1663.62
322.649	1623.62
322.878	1632.62
323.108	1630.62
323.337	1691.62
323.566	1708.62
323.795	1698.62
324.024	1704.62
324.253	1667.62
324.482	1662.62
324.71	1635.62
324.939	1527.62
325.168	1549.62
325.397	1647.62
325.626	1715.62
325.855	1677.62
326.084	1623.62
326.313	1652.62
326.542	1667.62
326.77	1713.62
326.999	1714.62
327.228	1642.62
327.457	1547.62
327.686	1568.62
327.914	1596.62
328.143	1657.62
328.372	1616.62
328.6	1635.62
328.829	1618.62
329.058	1591.62
329.287	1616.62
329.515	1630.62
329.744	1640.62
329.972	1757.62
330.201	1814.62
330.43	1809.62
330.658	1746.62
330.887	1768.62
331.115	1724.62
331.344	1754.62
331.572	1686.62
331.801	1733.62
332.03	1736.62
332.258	1751.62
332.486	1760.62
332.715	1767.62
332.943	1788.62
333.172	1737.62
333.4	1748.62
333.629	1826.62
333.857	1860.62
334.085	2039.62
334.314	2305.62
334.542	2584.62
334.771	2369.62
334.999	2106.62
335.227	1984.62
335.455	1834.62
335.684	1843.62
335.912	1855.62
336.14	1944.62
336.369	1880.62
336.597	1743.62
336.825	1759.62
337.053	1817.62
337.281	1861.62
337.51	1959.62
337.738	2071.62
337.966	1988.62
338.194	1836.62
338.422	1735.62
338.65	1713.62
338.878	1691.62
339.106	1669.62
339.334	1640.62
339.562	1598.62
339.79	1671.62
340.018	1735.62
340.246	1819.62
340.474	1808.62
340.702	1778.62
340.93	1768.62
341.158	1749.62
341.386	1727.62
341.614	1699.62
341.842	1676.62
342.07	1689.62
342.298	1754.62
342.526	1687.62
342.754	1696.62
342.981	1672.62
343.209	1671.62
343.437	1694.62
343.665	1691.62
343.893	1717.62
344.12	1794.62
344.348	1857.62
344.576	1781.62
344.804	1703.62
345.031	1673.62
345.259	1705.62
345.487	1685.62
345.714	1602.62
345.942	1597.62
346.17	1591.62
346.397	1651.62
346.625	1640.62
346.853	1535.62
347.08	1551.62
347.308	1509.62
347.535	1579.62
347.763	1637.62
347.99	1619.62
348.218	1566.62
348.445	1539.62
348.673	1552.62
348.9	1633.62
349.128	1680.62
349.355	1734.62
349.583	1684.62
349.81	1636.62
350.037	1462.62
350.265	1478.62
350.492	1491.62
350.72	1525.62
350.947	1617.62
351.174	1614.62
351.402	1592.62
351.629	1483.62
351.856	1511.62
352.083	1440.62
352.311	1486.62
352.538	1543.62
352.765	1580.62
352.992	1654.62
353.22	1589.62
353.447	1504.62
353.674	1561.62
353.901	1583.62
354.128	1576.62
354.355	1529.62
354.583	1606.62
354.81	1632.62
355.037	1617.62
355.264	1641.62
355.491	1596.62
355.718	1612.62
355.945	1566.62
356.172	1545.62
356.399	1537.62
356.626	1523.62
356.853	1566.62
357.08	1689.62
357.307	1843.62
357.534	1844.62
357.761	1650.62
357.988	1538.62
358.215	1480.62
358.441	1511.62
358.668	1515.62
358.895	1498.62
359.122	1603.62
359.349	1805.62
359.576	1815.62
359.802	1575.62
360.029	1536.62
360.256	1488.62
360.483	1523.62
360.709	1569.62
360.936	1603.62
361.163	1623.62
361.39	1819.62
361.616	1995.62
361.843	1925.62
362.07	1866.62
362.296	1604.62
362.523	1559.62
362.749	1569.62
362.976	1582.62
363.203	1596.62
363.429	1595.62
363.656	1478.62
363.882	1581.62
364.109	1707.62
364.335	1920.62
364.562	1743.62
364.788	1657.62
365.015	1590.62
365.241	1546.62
365.468	1560.62
365.694	1620.62
365.92	1711.62
366.147	1639.62
366.373	1542.62
366.599	1528.62
366.826	1531.62
367.052	1544.62
367.278	1584.62
367.505	1606.62
367.731	1607.62
367.957	1598.62
368.184	1625.62
368.41	1717.62
368.636	1768.62
368.862	1739.62
369.089	1719.62
369.315	1731.62
369.541	1607.62
369.767	1549.62
369.993	1545.62
370.219	1562.62
370.445	1602.62
370.672	1665.62
370.898	1757.62
371.124	1743.62
371.35	1657.62
371.576	1680.62
371.802	1726.62
372.028	1691.62
372.254	1622.62
372.48	1634.62
372.706	1584.62
372.932	1587.62
373.158	1572.62
373.384	1636.62
373.61	1634.62
373.835	1709.62
374.061	1674.62
374.287	1660.62
374.513	1657.62
374.739	1655.62
374.965	1693.62
375.191	1682.62
375.416	1693.62
375.642	1682.62
375.868	1814.62
376.094	1836.62
376.319	1768.62
376.545	1626.62
376.771	1695.62
376.997	1779.62
377.222	1756.62
377.448	1706.62
377.674	1741.62
377.899	1707.62
378.125	1800.62
378.35	1827.62
378.576	1668.62
378.802	1556.62
379.027	1630.62
379.253	1625.62
379.478	1636.62
379.704	1628.62
379.929	1600.62
380.155	1629.62
380.38	1670.62
380.606	1699.62
380.831	1665.62
381.057	1715.62
381.282	1769.62
381.507	1707.62
381.733	1762.62
381.958	1869.62
382.184	1789.62
382.409	1713.62
382.634	1724.62
382.86	1696.62
383.085	1727.62
383.31	1750.62
383.535	1880.62
383.761	2035.62
383.986	1920.62
384.211	1825.62
384.436	1830.62
384.662	1924.62
384.887	2018.62
385.112	1880.62
385.337	1912.62
385.562	1876.62
385.787	1875.62
386.013	1898.62
386.238	1923.62
386.463	1843.62
386.688	1986.62
386.913	2162.62
387.138	2138.62
387.363	1944.62
387.588	1919.62
387.813	1943.62
388.038	1940.62
388.263	2041.62
388.488	1968.62
388.713	1777.62
388.938	1808.62
389.163	1797.62
389.387	1819.62
389.612	1884.62
389.837	1860.62
390.062	1904.62
390.287	1883.62
390.512	1927.62
390.736	1845.62
390.961	1812.62
391.186	1749.62
391.411	1859.62
391.636	1896.62
391.86	1888.62
392.085	1895.62
392.31	1865.62
392.534	1885.62
392.759	1869.62
392.984	1853.62
393.208	1883.62
393.433	1930.62
393.658	2007.62
393.882	2011.62
394.107	1952.62
394.331	1831.62
394.556	1867.62
394.78	1903.62
395.005	1959.62
395.229	2007.62
395.454	2173.62
395.678	2191.62
395.903	2034.62
396.127	1982.62
396.352	1952.62
396.576	2012.62
396.801	2070.62
397.025	2052.62
397.249	2081.62
397.474	2056.62
397.698	2005.62
397.922	2080.62
398.147	2141.62
398.371	2265.62
398.595	2227.62
398.82	2171.62
399.044	2198.62
399.268	2266.62
399.492	2437.62
399.717	2553.62
399.941	2516.62
400.165	2462.62
400.389	2380.62
400.613	2385.62
400.837	2603.62
401.062	2988.62
401.286	2597.62
401.51	2337.62
401.734	2428.62
401.958	2393.62
402.182	2201.62
402.406	2148.62
402.63	2172.62
402.854	2149.62
403.078	2145.62
403.302	2206.62
403.526	2267.62
403.75	2235.62
403.974	2230.62
404.198	2213.62
404.422	2337.62
404.645	2383.62
404.869	2387.62
405.093	2229.62
405.317	2214.62
405.541	2251.62
405.765	2267.62
405.988	2202.62
406.212	2285.62
406.436	2335.62
406.66	2384.62
406.883	2427.62
407.107	2663.62
407.331	2902.62
407.555	3108.62
407.778	2892.62
408.002	2453.62
408.226	2357.62
408.449	2399.62
408.673	2282.62
408.896	2267.62
409.12	2327.62
409.344	2270.62
409.567	2195.62
409.791	2269.62
410.014	2249.62
410.238	2364.62
410.461	2505.62
410.685	2325.62
410.908	2147.62
411.132	2209.62
411.355	2225.62
411.578	2156.62
411.802	2188.62
412.025	2254.62
412.249	2138.62
412.472	2167.62
412.695	2106.62
412.919	2143.62
413.142	2100.62
413.365	2139.62
413.589	2197.62
413.812	2280.62
414.035	2329.62
414.258	2172.62
414.482	2140.62
414.705	2136.62
414.928	2077.62
415.151	2136.62
415.374	2136.62
415.597	2151.62
415.821	2152.62
416.044	2268.62
416.267	2328.62
416.49	2047.62
416.713	2040.62
416.936	2092.62
417.159	2213.62
417.382	2183.62
417.605	2077.62
417.828	2180.62
418.051	2198.62
418.274	2134.62
418.497	2113.62
418.72	2099.62
418.943	2026.62
419.166	2232.62
419.389	2292.62
419.611	2200.62
419.834	2131.62
420.057	2130.62
420.28	2094.62
420.503	2070.62
420.726	2073.62
420.948	2125.62
421.171	2010.62
421.394	2087.62
421.617	2110.62
421.839	2116.62
422.062	2055.62
422.285	2032.62
422.507	2038.62
422.73	1954.62
422.953	1968.62
423.175	1985.62
423.398	2043.62
423.621	2049.62
423.843	2060.62
424.066	2139.62
424.288	2144.62
424.511	2215.62
424.733	2187.62
424.956	1965.62
425.178	1981.62
425.401	1984.62
425.623	2010.62
425.846	1976.62
426.068	2088.62
426.291	2130.62
426.513	2029.62
426.735	2059.62
426.958	2151.62
427.18	2343.62
427.402	2145.62
427.625	2220.62
427.847	2224.62
428.069	2068.62
428.292	2043.62
428.514	1941.62
428.736	1965.62
428.958	1970.62
429.181	1997.62
429.403	2213.62
429.625	2770.62
429.847	2441.62
430.069	2019.62
430.292	2272.62
430.514	2245.62
430.736	2139.62
430.958	2269.62
431.18	2155.62
431.402	2015.62
431.624	1944.62
431.846	1980.62
432.068	1961.62
432.29	1945.62
432.512	1987.62
432.734	2011.62
432.956	2064.62
433.178	2173.62
433.4	2149.62
433.622	2123.62
433.844	2069.62
434.066	2025.62
434.287	1928.62
434.509	2038.62
434.731	2165.62
434.953	2304.62
435.175	2274.62
435.397	2107.62
435.618	2122.62
435.84	2132.62
436.062	2064.62
436.284	2079.62
436.505	2115.62
436.727	2155.62
436.949	2050.62
437.17	2028.62
437.392	1991.62
437.614	2019.62
437.835	1952.62
438.057	2103.62
438.278	2177.62
438.5	2015.62
438.721	1975.62
438.943	2007.62
439.165	1963.62
439.386	1922.62
439.608	1996.62
439.829	2010.62
440.05	1992.62
440.272	1994.62
440.493	1931.62
440.715	1980.62
440.936	2095.62
441.158	2313.62
441.379	2284.62
441.6	2180.62
441.822	2140.62
442.043	2136.62
442.264	2079.62
442.486	2019.62
442.707	1943.62
442.928	1950.62
443.149	2073.62
443.371	2202.62
443.592	2212.62
443.813	2171.62
444.034	2172.62
444.255	2175.62
444.476	2201.62
444.698	2259.62
444.919	2207.62
445.14	2281.62
445.361	2298.62
445.582	2371.62
445.803	2274.62
446.024	2208.62
446.245	2284.62
446.466	2194.62
446.687	2062.62
446.908	2086.62
447.129	2018.62
447.35	2025.62
447.571	2019.62
447.792	1974.62
448.013	1963.62
448.234	2001.62
448.455	2047.62
448.675	2054.62
448.896	1921.62
449.117	1895.62
449.338	1971.62
449.559	2049.62
449.779	2131.62
450	2333.62
450.221	2565.62
450.442	2447.62
450.662	2156.62
450.883	1870.62
451.104	1877.62
451.324	1867.62
451.545	1975.62
451.766	1932.62
451.986	1878.62
452.207	1835.62
452.428	1800.62
452.648	1784.62
452.869	1846.62
453.089	1931.62
453.31	1951.62
453.53	2008.62
453.751	1905.62
453.971	1805.62
454.192	1832.62
454.412	1978.62
454.633	1870.62
454.853	1871.62
455.073	1736.62
455.294	1747.62
455.514	1745.62
455.734	1759.62
455.955	1813.62
456.175	1774.62
456.395	1839.62
456.616	1781.62
456.836	1881.62
457.056	1815.62
457.276	1832.62
457.497	1732.62
457.717	1720.62
457.937	1708.62
458.157	1801.62
458.377	1750.62
458.598	1787.62
458.818	1813.62
459.038	1875.62
459.258	2020.62
459.478	2001.62
459.698	1965.62
459.918	1996.62
460.138	2057.62
460.358	2116.62
460.578	2109.62
460.798	2176.62
461.018	2369.62
461.238	2236.62
461.458	2111.62
461.678	2146.62
461.898	2090.62
462.118	2050.62
462.338	2126.62
462.558	2156.62
462.777	2112.62
462.997	2276.62
463.217	2363.62
463.437	2327.62
463.657	2193.62
463.876	2154.62
464.096	2155.62
464.316	2143.62
464.536	2176.62
464.755	2197.62
464.975	2204.62
465.195	2172.62
465.414	2256.62
465.634	2267.62
465.854	2120.62
466.073	2235.62
466.293	2196.62
466.512	1958.62
466.732	1937.62
466.951	1997.62
467.171	2022.62
467.391	1929.62
467.61	1863.62
467.829	1912.62
468.049	2059.62
468.268	2268.62
468.488	2157.62
468.707	2051.62
468.927	1947.62
469.146	1957.62
469.365	1921.62
469.585	1940.62
469.804	1882.62
470.023	1913.62
470.243	1981.62
470.462	1933.62
470.681	1891.62
470.901	1952.62
471.12	1939.62
471.339	1898.62
471.558	1873.62
471.777	1886.62
471.997	1920.62
472.216	1933.62
472.435	1861.62
472.654	1906.62
472.873	1957.62
473.092	2120.62
473.311	1986.62
473.53	1861.62
473.749	1867.62
473.968	1882.62
474.187	1968.62
474.406	2130.62
474.625	1937.62
474.844	1945.62
475.063	1961.62
475.282	2032.62
475.501	1995.62
475.72	1988.62
475.939	2024.62
476.158	2012.62
476.377	1947.62
476.596	1968.62
476.814	2018.62
477.033	2041.62
477.252	2114.62
477.471	2144.62
477.69	2068.62
477.908	2071.62
478.127	2177.62
478.346	2336.62
478.564	2298.62
478.783	2272.62
479.002	2370.62
479.22	2301.62
479.439	2410.62
479.658	2707.62
479.876	2684.62
480.095	2388.62
480.313	2287.62
480.532	2170.62
480.751	2199.62
480.969	2231.62
481.188	2179.62
481.406	2156.62
481.624	2143.62
481.843	2153.62
482.061	2189.62
482.28	2230.62
482.498	2257.62
482.717	2269.62
482.935	2164.62
483.153	2150.62
483.372	2137.62
483.59	2140.62
483.808	2179.62
484.027	2227.62
484.245	2385.62
484.463	2701.62
484.681	3053.62
484.9	2451.62
485.118	2279.62
485.336	2200.62
485.554	2282.62
485.772	2393.62
485.99	2335.62
486.209	2354.62
486.427	2366.62
486.645	2360.62
486.863	2273.62
487.081	2334.62
487.299	2437.62
487.517	2406.62
487.735	2309.62
487.953	2276.62
488.171	2212.62
488.389	2251.62
488.607	2268.62
488.825	2453.62
489.043	2493.62
489.261	2277.62
489.479	2400.62
489.696	2474.62
489.914	2401.62
490.132	2406.62
490.35	2315.62
490.568	2408.62
490.786	2299.62
491.003	2195.62
491.221	2336.62
491.439	2386.62
491.657	2373.62
491.874	2338.62
492.092	2377.62
492.31	2329.62
492.527	2337.62
492.745	2345.62
492.963	2352.62
493.18	2425.62
493.398	2547.62
493.615	2619.62
493.833	2410.62
494.05	2299.62
494.268	2393.62
494.485	2481.62
494.703	2395.62
494.92	2372.62
495.138	2335.62
495.355	2347.62
495.573	2487.62
495.79	2586.62
496.008	2609.62
496.225	2515.62
496.442	2443.62
496.66	2559.62
496.877	2491.62
497.094	2594.62
497.312	2609.62
497.529	2583.62
497.746	2641.62
497.963	3055.62
498.181	3425.62
498.398	3160.62
498.615	3127.62
498.832	3048.62
499.049	2963.62
499.267	3018.62
499.484	3192.62
499.701	3455.62
499.918	3525.62
500.135	3784.62
500.352	4039.62
500.569	4010.62
500.786	4223.62
501.003	3977.62
501.22	3564.62
501.437	3472.62
501.654	3520.62
501.871	3379.62
502.088	2967.62
502.305	3042.62
502.522	2909.62
502.739	2677.62
502.956	2636.62
503.172	2645.62
503.389	2572.62
503.606	2517.62
503.823	2466.62
504.04	2517.62
504.256	2537.62
504.473	2507.62
504.69	2611.62
504.907	2467.62
505.123	2335.62
505.34	2468.62
505.557	3113.62
505.773	2671.62
505.99	2306.62
506.207	2188.62
506.423	2185.62
506.64	2078.62
506.856	2166.62
507.073	2394.62
507.289	2582.62
507.506	2470.62
507.722	2152.62
507.939	2065.62
508.155	2065.62
508.372	2090.62
508.588	2020.62
508.805	1938.62
509.021	1970.62
509.238	1906.62
509.454	1971.62
509.67	1979.62
509.887	1869.62
510.103	1919.62
510.319	1947.62
510.536	2048.62
510.752	2131.62
510.968	2081.62
511.184	2258.62
511.401	2201.62
511.617	1944.62
511.833	1887.62
512.049	1888.62
512.265	1895.62
512.481	1877.62
512.698	2001.62
512.914	2093.62
513.13	2006.62
513.346	1866.62
513.562	1900.62
513.778	1908.62
513.994	2036.62
514.21	2061.62
514.426	2099.62
514.642	2288.62
514.858	2148.62
515.074	1941.62
515.29	1898.62
515.506	2015.62
515.721	2032.62
515.937	1998.62
516.153	2255.62
516.369	2180.62
516.585	2133.62
516.801	1989.62
517.016	1951.62
517.232	2010.62
517.448	2089.62
517.664	2115.62
517.879	2084.62
518.095	2226.62
518.311	2153.62
518.527	2008.62
518.742	2032.62
518.958	1918.62
519.173	1927.62
519.389	1928.62
519.605	1933.62
519.82	1959.62
520.036	1994.62
520.251	1917.62
520.467	1921.62
520.682	2104.62
520.898	2170.62
521.113	1949.62
521.329	1865.62
521.544	2032.62
521.76	1955.62
521.975	1850.62
522.19	1795.62
522.406	1755.62
522.621	2149.62
522.836	2187.62
523.052	1826.62
523.267	1824.62
523.482	1800.62
523.698	1753.62
523.913	1650.62
524.128	1740.62
524.343	1896.62
524.559	1896.62
524.774	1792.62
524.989	1754.62
525.204	1733.62
525.419	1681.62
525.634	1689.62
525.849	1674.62
526.064	1742.62
526.28	1746.62
526.495	1699.62
526.71	1680.62
526.925	1702.62
527.14	1720.62
527.355	1674.62
527.57	1628.62
527.785	1731.62
527.999	1696.62
528.214	1634.62
528.429	1597.62
528.644	1628.62
528.859	1609.62
529.074	1608.62
529.289	1666.62
529.503	1655.62
529.718	1688.62
529.933	1649.62
530.148	1596.62
530.363	1608.62
530.577	1640.62
530.792	1635.62
531.007	1691.62
531.221	1634.62
531.436	1685.62
531.651	1739.62
531.865	1809.62
532.08	1738.62
532.295	1601.62
532.509	1541.62
532.724	1595.62
532.938	1679.62
533.153	1803.62
533.367	1704.62
533.582	1655.62
533.796	1632.62
534.011	1626.62
534.225	1651.62
534.44	1600.62
534.654	1601.62
534.868	1624.62
535.083	1691.62
535.297	1667.62
535.511	1623.62
535.726	1626.62
535.94	1629.62
536.154	1561.62
536.369	1576.62
536.583	1573.62
536.797	1558.62
537.011	1619.62
537.225	1571.62
537.44	1517.62
537.654	1606.62
537.868	1545.62
538.082	1480.62
538.296	1467.62
538.51	1464.62
538.724	1468.62
538.938	1455.62
539.153	1519.62
539.367	1529.62
539.581	1517.62
539.795	1610.62
540.009	1570.62
540.222	1549.62
540.436	1570.62
540.65	1700.62
540.864	1721.62
541.078	1605.62
541.292	1490.62
541.506	1517.62
541.72	1545.62
541.934	1530.62
542.147	1613.62
542.361	1547.62
542.575	1521.62
542.789	1442.62
543.002	1439.62
543.216	1462.62
543.43	1587.62
543.644	1636.62
543.857	1686.62
544.071	1571.62
544.285	1543.62
544.498	1536.62
544.712	1526.62
544.925	1523.62
545.139	1616.62
545.352	1483.62
545.566	1467.62
545.779	1420.62
545.993	1450.62
546.206	1519.62
546.42	1467.62
546.633	1416.62
546.847	1417.62
547.06	1449.62
547.274	1432.62
547.487	1464.62
547.7	1426.62
547.914	1492.62
548.127	1479.62
548.34	1509.62
548.554	1468.62
548.767	1488.62
548.98	1440.62
549.193	1472.62
549.407	1494.62
549.62	1536.62
549.833	1469.62
550.046	1432.62
550.259	1443.62
550.473	1463.62
550.686	1448.62
550.899	1403.62
551.112	1400.62
551.325	1378.62
551.538	1457.62
551.751	1731.62
551.964	1403.62
552.177	1387.62
552.39	1378.62
552.603	1424.62
552.816	1423.62
553.029	1532.62
553.242	1502.62
553.455	1467.62
553.667	1447.62
553.88	1443.62
554.093	1427.62
554.306	1341.62
554.519	1322.62
554.732	1292.62
554.944	1356.62
555.157	1368.62
555.37	1361.62
555.583	1318.62
555.795	1332.62
556.008	1266.62
556.221	1252.62
556.433	1240.62
556.646	1253.62
556.859	1251.62
557.071	1211.62
557.284	1248.62
557.496	1269.62
557.709	1195.62
557.921	1210.62
558.134	1213.62
558.346	1208.62
558.559	1215.62
558.771	1193.62
558.984	1185.62
559.196	1145.62
559.409	1160.62
559.621	1131.62
559.833	1185.62
560.046	1222.62
560.258	1209.62
560.47	1194.62
560.683	1182.62
560.895	1180.62
561.107	1183.62
561.32	1231.62
561.532	1220.62
561.744	1178.62
561.956	1189.62
562.168	1163.62
562.381	1132.62
562.593	1123.62
562.805	1163.62
563.017	1128.62
563.229	1151.62
563.441	1174.62
563.653	1132.62
563.865	1149.62
564.077	1162.62
564.289	1179.62
564.501	1166.62
564.713	1199.62
564.925	1217.62
565.137	1302.62
565.349	1229.62
565.561	1234.62
565.773	1257.62
565.985	1229.62
566.197	1324.62
566.408	1397.62
566.62	1411.62
566.832	1414.62
567.044	1436.62
567.255	1383.62
567.467	1415.62
567.679	1465.62
567.891	1500.62
568.102	1459.62
568.314	1396.62
568.526	1348.62
568.737	1307.62
568.949	1236.62
569.161	1179.62
569.372	1167.62
569.584	1119.62
569.795	1122.62
570.007	1115.62
570.218	1077.62
570.43	1041.62
570.641	1057.62
570.853	1063.62
571.064	1052.62
571.276	1063.62
571.487	1027.62
571.698	1012.62
571.91	997.62
572.121	987.62
572.333	954.62
572.544	976.62
572.755	948.62
572.966	950.62
573.178	950.62
573.389	935.62
573.6	975.62
573.811	1058.62
574.023	931.62
574.234	924.62
574.445	898.62
574.656	890.62
574.867	883.62
575.078	903.62
575.289	901.62
575.501	897.62
575.712	870.62
575.923	885.62
576.134	897.62
576.345	867.62
576.556	868.62
576.767	852.62
576.978	860.62
577.188	832.62
577.399	860.62
577.61	848.62
577.821	825.62
578.032	822.62
578.243	803.62
578.454	804.62
578.665	833.62
578.875	819.62
579.086	779.62
579.297	801.62
579.508	832.62
579.718	806.62
579.929	795.62
580.14	797.62
580.35	769.62
580.561	812.62
580.772	845.62
580.982	799.62
581.193	769.62
581.403	769.62
581.614	757.62
581.825	767.62
582.035	735.62
582.246	744.62
582.456	767.62
582.667	772.62
582.877	743.62
583.087	753.62
583.298	737.62
583.508	761.62
583.719	723.62
583.929	732.62
584.139	754.62
584.35	728.62
584.56	714.62
584.77	741.62
584.981	753.62
585.191	734.62
585.401	770.62
585.611	743.62
585.821	752.62
586.032	731.62
586.242	715.62
586.452	741.62
586.662	728.62
586.872	709.62
587.082	698.62
587.292	761.62
587.502	732.62
587.713	735.62
587.923	728.62
588.133	731.62
588.343	725.62
588.553	701.62
588.762	708.62
588.972	706.62
589.182	694.62
589.392	713.62
589.602	736.62
589.812	718.62
590.022	689.62
590.232	686.62
590.441	719.62
590.651	722.62
590.861	708.62
591.071	689.62
591.281	681.62
591.49	695.62
591.7	723.62
591.91	711.62
592.119	694.62
592.329	728.62
592.539	737.62
592.748	735.62
592.958	718.62
593.167	724.62
593.377	739.62
593.587	752.62
593.796	756.62
594.006	745.62
594.215	722.62
594.424	721.62
594.634	713.62
594.843	720.62
595.053	756.62
595.262	724.62
595.472	714.62
595.681	685.62
595.89	699.62
596.1	665.62
596.309	652.62
596.518	664.62
596.727	672.62
596.937	657.62
597.146	627.62
597.355	600.62
597.564	613.62
597.774	622.62
597.983	624.62
598.192	609.62
598.401	610.62
598.61	600.62
598.819	625.62
599.028	622.62
599.237	604.62
599.446	583.62
599.655	603.62
599.864	600.62
600.073	583.62
600.282	561.62
600.491	579.62
600.7	585.62
600.909	566.62
601.118	597.62
601.327	575.62
601.536	576.62
601.745	560.62
601.953	579.62
602.162	593.62
602.371	593.62
602.58	577.62
602.789	573.62
602.997	564.62
603.206	569.62
603.415	563.62
603.623	553.62
603.832	547.62
604.041	556.62
604.249	564.62
604.458	541.62
604.666	569.62
604.875	547.62
605.084	551.62
605.292	544.62
605.501	529.62
605.709	570.62
605.918	559.62
606.126	545.62
606.334	532.62
606.543	538.62
606.751	541.62
606.96	551.62
607.168	525.62
607.376	514.62
607.585	522.62
607.793	519.62
608.001	532.62
608.21	561.62
608.418	555.62
608.626	553.62
608.834	525.62
609.043	531.62
609.251	529.62
609.459	521.62
609.667	525.62
609.875	529.62
610.083	525.62
610.291	559.62
610.499	553.62
610.707	516.62
610.916	518.62
611.124	517.62
611.332	495.62
611.54	520.62
611.748	520.62
611.955	510.62
612.163	485.62
612.371	504.62
612.579	515.62
612.787	513.62
612.995	508.62
613.203	533.62
613.411	491.62
613.618	483.62
613.826	518.62
614.034	482.62
614.242	513.62
614.449	489.62
614.657	507.62
614.865	496.62
615.072	507.62
615.28	484.62
615.488	521.62
615.695	534.62
615.903	520.62
616.111	475.62
616.318	495.62
616.526	514.62
616.733	488.62
616.941	488.62
617.148	502.62
617.356	495.62
617.563	473.62
617.771	502.62
617.978	496.62
618.185	469.62
618.393	476.62
618.6	481.62
618.807	481.62
619.015	487.62
619.222	476.62
619.429	458.62
619.637	444.62
619.844	454.62
620.051	468.62
620.258	460.62
620.466	441.62
620.673	449.62
620.88	432.62
621.087	435.62
621.294	438.62
621.501	459.62
621.708	444.62
621.915	460.62
622.122	453.62
622.329	448.62
622.536	450.62
622.743	462.62
622.95	440.62
623.157	428.62
623.364	441.62
623.571	419.62
623.778	451.62
623.985	454.62
624.192	428.62
624.399	418.62
624.606	413.62
624.812	413.62
625.019	402.62
625.226	411.62
625.433	446.62
625.639	409.62
625.846	387.62
626.053	389.62
626.259	410.62
626.466	386.62
626.673	405.62
626.879	391.62
627.086	405.62
627.293	401.62
627.499	392.62
627.706	407.62
627.912	414.62
628.119	404.62
628.325	401.62
628.532	369.62
628.738	382.62
628.945	393.62
629.151	370.62
629.357	392.62
629.564	377.62
629.77	385.62
629.976	359.62
630.183	380.62
630.389	374.62
630.595	383.62
630.802	378.62
631.008	391.62
631.214	364.62
631.42	354.62
631.627	373.62
631.833	370.62
632.039	361.62
632.245	363.62
632.451	355.62
632.657	344.62
632.863	340.62
633.069	345.62
633.275	346.62
633.481	361.62
633.688	358.62
633.893	334.62
634.099	348.62
634.305	347.62
634.511	327.62
634.717	343.62
634.923	338.62
635.129	352.62
635.335	350.62
635.541	360.62
635.747	343.62
635.952	342.62
636.158	332.62
636.364	335.62
636.57	336.62
636.775	349.62
636.981	343.62
637.187	344.62
637.392	341.62
637.598	336.62
637.804	329.62
638.009	325.62
638.215	354.62
638.421	322.62
638.626	328.62
638.832	330.62
639.037	322.62
639.243	320.62
639.448	321.62
639.654	309.62
639.859	324.62
640.065	316.62
640.27	305.62
640.475	338.62
640.681	321.62
640.886	324.62
641.091	297.62
641.297	330.62
641.502	309.62
641.707	322.62
641.913	322.62
642.118	323.62
642.323	318.62
642.528	319.62
642.733	303.62
642.939	314.62
643.144	318.62
643.349	331.62
643.554	324.62
643.759	289.62
643.964	307.62
644.169	297.62
644.374	296.62
644.579	312.62
644.784	321.62
644.989	320.62
645.194	290.62
645.399	300.62
645.604	291.62
645.809	310.62
646.014	296.62
646.219	287.62
646.423	307.62
646.628	316.62
646.833	316.62
647.038	291.62
647.243	301.62
647.447	303.62
647.652	291.62
647.857	314.62
648.062	307.62
648.266	320.62
648.471	295.62
648.676	305.62
648.88	300.62
649.085	303.62
649.289	303.62
649.494	282.62
649.698	309.62
649.903	284.62
650.107	276.62
650.312	301.62
650.516	294.62
650.721	272.62
650.925	285.62
651.13	274.62
651.334	275.62
651.539	269.62
651.743	268.62
651.947	272.62
652.152	252.62
652.356	256.62
652.56	269.62
652.764	247.62
652.969	254.62
653.173	241.62
653.377	244.62
653.581	248.62
653.785	250.62
653.99	251.62
654.194	257.62
654.398	235.62
654.602	231.62
654.806	231.62
655.01	230.62
655.214	224.62
655.418	242.62
655.622	249.62
655.826	251.62
656.03	252.62
656.234	261.62
656.438	265.62
656.642	244.62
656.846	263.62
657.049	225.62
657.253	231.62
657.457	209.62
657.661	201.62
657.865	192.62
658.068	175.62
658.272	165.62
658.476	159.62
658.68	147.62
658.883	151.62
659.087	129.62
659.291	136.62
659.494	143.62
659.698	116.62
659.901	128.62
660.105	94.62
660.309	110.62
660.512	118.62
660.716	120.62
660.919	105.62
661.123	99.62
661.326	101.62
661.53	101.62
661.733	106.62
661.936	96.62
662.14	99.62
662.343	95.62
662.546	91.62
662.75	103.62
662.953	92.62
663.156	87.62
663.36	76.62
663.563	90.62
663.766	74.62
663.969	91.62
664.173	83.62
664.376	83.62
664.579	89.62
664.782	81.62
664.985	82.62
665.188	93.62
665.391	85.62
665.594	80.62
665.797	76.62
666	77.62
666.203	84.62
666.406	85.62
666.609	77.62
666.812	97.62
667.015	90.62
667.218	96.62
667.421	82.62
667.624	79.62
667.827	79.62
668.03	75.62
668.232	87.62
668.435	77.62
668.638	71.62
668.841	80.62
669.043	77.62
669.246	82.62
669.449	83.62
669.651	97.62
669.854	76.62
670.057	71.62
670.259	72.62
670.462	76.62
670.665	88.62
670.867	84.62
671.07	87.62
671.272	80.62
671.475	74.62
671.677	85.62
671.88	86.62
672.082	83.62
672.284	97.62
672.487	84.62
672.689	77.62
672.892	83.62
