Data from WStandard_LampEnergy8_LIBS07252019.E.O._I.C._HRD10591_16-00-06-929.txt Node
Date: Thu Jul 25 16:00:06 EDT 2019
User: cochatt
Spectrometer: HR+D1059
Trigger mode: 1
Integration Time (sec): 1.000000E-1
Scans to average: 1
Electric dark correction enabled: true
Nonlinearity correction enabled: false
Boxcar width: 0
XAxis mode: Wavelengths
Number of Pixels in Spectrum: 2048
>>>>>Begin Spectral Data<<<<<
223.165	-11.94
223.4	-11.94
223.635	-11.94
223.869	-10.94
224.104	-16.94
224.338	-7.94
224.573	-20.94
224.808	-13.94
225.042	-10.94
225.277	1.06
225.511	-0.94
225.746	-3.94
225.98	3.06
226.215	11.06
226.449	9.06
226.683	24.06
226.918	24.06
227.152	26.06
227.387	28.06
227.621	38.06
227.856	47.06
228.09	41.06
228.324	59.06
228.559	50.06
228.793	100.06
229.027	182.06
229.262	216.06
229.496	223.06
229.73	228.06
229.964	231.06
230.199	232.06
230.433	266.06
230.667	263.06
230.901	271.06
231.136	267.06
231.37	255.06
231.604	261.06
231.838	267.06
232.072	267.06
232.306	263.06
232.541	266.06
232.775	314.06
233.009	299.06
233.243	296.06
233.477	305.06
233.711	309.06
233.945	294.06
234.179	310.06
234.413	318.06
234.647	348.06
234.881	327.06
235.115	300.06
235.349	295.06
235.583	308.06
235.817	295.06
236.051	301.06
236.285	294.06
236.519	328.06
236.753	354.06
236.987	357.06
237.221	370.06
237.455	391.06
237.689	362.06
237.922	346.06
238.156	337.06
238.39	340.06
238.624	347.06
238.858	392.06
239.091	387.06
239.325	406.06
239.559	470.06
239.793	475.06
240.027	518.06
240.26	488.06
240.494	388.06
240.728	356.06
240.961	383.06
241.195	374.06
241.429	426.06
241.662	420.06
241.896	394.06
242.13	392.06
242.363	408.06
242.597	438.06
242.83	435.06
243.064	434.06
243.298	472.06
243.531	454.06
243.765	471.06
243.998	445.06
244.232	413.06
244.465	406.06
244.699	409.06
244.932	460.06
245.166	531.06
245.399	495.06
245.633	440.06
245.866	451.06
246.099	488.06
246.333	463.06
246.566	483.06
246.8	511.06
247.033	578.06
247.266	528.06
247.5	510.06
247.733	519.06
247.966	550.06
248.2	602.06
248.433	599.06
248.666	626.06
248.899	661.06
249.133	729.06
249.366	800.06
249.599	683.06
249.832	604.06
250.066	607.06
250.299	626.06
250.532	590.06
250.765	529.06
250.998	560.06
251.231	586.06
251.465	610.06
251.698	568.06
251.931	574.06
252.164	596.06
252.397	599.06
252.63	574.06
252.863	542.06
253.096	533.06
253.329	571.06
253.562	589.06
253.795	597.06
254.028	595.06
254.261	548.06
254.494	567.06
254.727	560.06
254.96	575.06
255.193	633.06
255.426	705.06
255.659	772.06
255.892	777.06
256.124	673.06
256.357	640.06
256.59	684.06
256.823	687.06
257.056	723.06
257.289	827.06
257.521	872.06
257.754	793.06
257.987	781.06
258.22	809.06
258.452	771.06
258.685	645.06
258.918	665.06
259.151	664.06
259.383	623.06
259.616	571.06
259.849	603.06
260.081	685.06
260.314	749.06
260.547	816.06
260.779	801.06
261.012	769.06
261.244	678.06
261.477	680.06
261.71	695.06
261.942	656.06
262.175	664.06
262.407	711.06
262.64	649.06
262.872	617.06
263.105	615.06
263.337	617.06
263.57	636.06
263.802	617.06
264.035	597.06
264.267	573.06
264.499	570.06
264.732	625.06
264.964	652.06
265.197	654.06
265.429	704.06
265.661	743.06
265.894	829.06
266.126	863.06
266.358	777.06
266.591	800.06
266.823	856.06
267.055	768.06
267.287	774.06
267.52	780.06
267.752	754.06
267.984	753.06
268.216	770.06
268.448	808.06
268.681	771.06
268.913	707.06
269.145	696.06
269.377	670.06
269.609	754.06
269.841	889.06
270.073	1007.06
270.306	1078.06
270.538	1095.06
270.77	939.06
271.002	846.06
271.234	811.06
271.466	793.06
271.698	923.06
271.93	1043.06
272.162	1026.06
272.394	932.06
272.626	866.06
272.858	769.06
273.09	689.06
273.322	699.06
273.553	644.06
273.785	683.06
274.017	714.06
274.249	751.06
274.481	753.06
274.713	685.06
274.945	683.06
275.176	676.06
275.408	689.06
275.64	677.06
275.872	659.06
276.104	730.06
276.335	821.06
276.567	897.06
276.799	910.06
277.031	815.06
277.262	815.06
277.494	820.06
277.726	901.06
277.957	872.06
278.189	773.06
278.421	752.06
278.652	756.06
278.884	729.06
279.115	730.06
279.347	738.06
279.579	738.06
279.81	722.06
280.042	813.06
280.273	881.06
280.505	874.06
280.736	908.06
280.968	823.06
281.199	720.06
281.431	707.06
281.662	718.06
281.894	726.06
282.125	733.06
282.356	741.06
282.588	760.06
282.819	749.06
283.051	822.06
283.282	848.06
283.513	829.06
283.745	736.06
283.976	712.06
284.207	704.06
284.439	742.06
284.67	757.06
284.901	765.06
285.132	796.06
285.364	770.06
285.595	757.06
285.826	753.06
286.057	768.06
286.288	758.06
286.52	814.06
286.751	841.06
286.982	851.06
287.213	766.06
287.444	723.06
287.675	752.06
287.906	795.06
288.138	841.06
288.369	813.06
288.6	738.06
288.831	736.06
289.062	747.06
289.293	739.06
289.524	756.06
289.755	795.06
289.986	773.06
290.217	746.06
290.448	744.06
290.679	750.06
290.91	769.06
291.141	811.06
291.371	819.06
291.602	821.06
291.833	808.06
292.064	823.06
292.295	837.06
292.526	861.06
292.757	843.06
292.987	833.06
293.218	787.06
293.449	853.06
293.68	954.06
293.91	1003.06
294.141	954.06
294.372	906.06
294.603	953.06
294.833	961.06
295.064	899.06
295.295	822.06
295.525	790.06
295.756	739.06
295.987	724.06
296.217	715.06
296.448	737.06
296.679	778.06
296.909	749.06
297.14	769.06
297.37	777.06
297.601	815.06
297.831	858.06
298.062	840.06
298.292	797.06
298.523	766.06
298.753	786.06
298.984	780.06
299.214	798.06
299.445	843.06
299.675	833.06
299.905	846.06
300.136	802.06
300.366	788.06
300.597	774.06
300.827	807.06
301.057	792.06
301.288	865.06
301.518	854.06
301.748	852.06
301.979	934.06
302.209	929.06
302.439	991.06
302.669	976.06
302.9	925.06
303.13	851.06
303.36	849.06
303.59	871.06
303.82	846.06
304.051	819.06
304.281	838.06
304.511	847.06
304.741	944.06
304.971	1029.06
305.201	1065.06
305.431	951.06
305.661	832.06
305.891	777.06
306.121	734.06
306.352	800.06
306.582	859.06
306.812	906.06
307.042	930.06
307.272	957.06
307.502	980.06
307.731	1061.06
307.961	1124.06
308.191	995.06
308.421	867.06
308.651	843.06
308.881	813.06
309.111	820.06
309.341	831.06
309.571	831.06
309.8	832.06
310.03	803.06
310.26	836.06
310.49	816.06
310.72	868.06
310.949	851.06
311.179	888.06
311.409	851.06
311.639	804.06
311.868	856.06
312.098	849.06
312.328	805.06
312.557	837.06
312.787	843.06
313.017	877.06
313.246	874.06
313.476	888.06
313.706	871.06
313.935	899.06
314.165	915.06
314.394	903.06
314.624	978.06
314.853	1002.06
315.083	1045.06
315.312	1052.06
315.542	976.06
315.771	937.06
316.001	903.06
316.23	961.06
316.46	927.06
316.689	913.06
316.919	854.06
317.148	855.06
317.377	891.06
317.607	977.06
317.836	1059.06
318.065	1094.06
318.295	1015.06
318.524	999.06
318.753	945.06
318.983	909.06
319.212	895.06
319.441	895.06
319.67	911.06
319.9	938.06
320.129	973.06
320.358	1003.06
320.587	1027.06
320.816	1034.06
321.046	985.06
321.275	952.06
321.504	1023.06
321.733	1042.06
321.962	989.06
322.191	954.06
322.42	941.06
322.649	913.06
322.878	901.06
323.108	906.06
323.337	944.06
323.566	967.06
323.795	971.06
324.024	957.06
324.253	912.06
324.482	927.06
324.71	896.06
324.939	881.06
325.168	905.06
325.397	926.06
325.626	958.06
325.855	952.06
326.084	925.06
326.313	947.06
326.542	934.06
326.77	981.06
326.999	953.06
327.228	901.06
327.457	863.06
327.686	853.06
327.914	900.06
328.143	925.06
328.372	907.06
328.6	904.06
328.829	902.06
329.058	920.06
329.287	923.06
329.515	953.06
329.744	962.06
329.972	964.06
330.201	1043.06
330.43	1010.06
330.658	963.06
330.887	981.06
331.115	974.06
331.344	986.06
331.572	952.06
331.801	970.06
332.03	975.06
332.258	973.06
332.486	998.06
332.715	986.06
332.943	1000.06
333.172	994.06
333.4	1018.06
333.629	1017.06
333.857	1105.06
334.085	1238.06
334.314	1386.06
334.542	1385.06
334.771	1290.06
334.999	1146.06
335.227	1081.06
335.455	1037.06
335.684	1064.06
335.912	1098.06
336.14	1117.06
336.369	1043.06
336.597	996.06
336.825	987.06
337.053	1028.06
337.281	1099.06
337.51	1146.06
337.738	1151.06
337.966	1083.06
338.194	996.06
338.422	977.06
338.65	957.06
338.878	970.06
339.106	954.06
339.334	950.06
339.562	904.06
339.79	965.06
340.018	1007.06
340.246	1023.06
340.474	1032.06
340.702	1014.06
340.93	1035.06
341.158	1027.06
341.386	1023.06
341.614	1004.06
341.842	985.06
342.07	990.06
342.298	1012.06
342.526	998.06
342.754	999.06
342.981	958.06
343.209	979.06
343.437	969.06
343.665	974.06
343.893	998.06
344.12	1076.06
344.348	1030.06
344.576	990.06
344.804	965.06
345.031	970.06
345.259	959.06
345.487	912.06
345.714	888.06
345.942	913.06
346.17	903.06
346.397	938.06
346.625	913.06
346.853	862.06
347.08	877.06
347.308	884.06
347.535	917.06
347.763	928.06
347.99	913.06
348.218	914.06
348.445	919.06
348.673	920.06
348.9	960.06
349.128	996.06
349.355	982.06
349.583	1004.06
349.81	933.06
350.037	853.06
350.265	836.06
350.492	873.06
350.72	925.06
350.947	949.06
351.174	931.06
351.402	881.06
351.629	861.06
351.856	855.06
352.083	850.06
352.311	879.06
352.538	920.06
352.765	931.06
352.992	942.06
353.22	917.06
353.447	886.06
353.674	897.06
353.901	923.06
354.128	898.06
354.355	892.06
354.583	975.06
354.81	958.06
355.037	948.06
355.264	957.06
355.491	957.06
355.718	929.06
355.945	933.06
356.172	889.06
356.399	894.06
356.626	895.06
356.853	942.06
357.08	1023.06
357.307	1107.06
357.534	1051.06
357.761	936.06
357.988	895.06
358.215	878.06
358.441	878.06
358.668	864.06
358.895	895.06
359.122	966.06
359.349	1027.06
359.576	986.06
359.802	946.06
360.029	906.06
360.256	872.06
360.483	889.06
360.709	970.06
360.936	963.06
361.163	1042.06
361.39	1114.06
361.616	1149.06
361.843	1117.06
362.07	1058.06
362.296	954.06
362.523	911.06
362.749	929.06
362.976	943.06
363.203	934.06
363.429	907.06
363.656	886.06
363.882	949.06
364.109	1040.06
364.335	1088.06
364.562	1009.06
364.788	973.06
365.015	913.06
365.241	909.06
365.468	933.06
365.694	1011.06
365.92	976.06
366.147	960.06
366.373	913.06
366.599	891.06
366.826	890.06
367.052	872.06
367.278	873.06
367.505	936.06
367.731	970.06
367.957	968.06
368.184	975.06
368.41	1033.06
368.636	1028.06
368.862	1041.06
369.089	1042.06
369.315	1034.06
369.541	966.06
369.767	914.06
369.993	911.06
370.219	935.06
370.445	924.06
370.672	1011.06
370.898	1050.06
371.124	1037.06
371.35	991.06
371.576	1017.06
371.802	1061.06
372.028	966.06
372.254	919.06
372.48	946.06
372.706	943.06
372.932	945.06
373.158	977.06
373.384	978.06
373.61	1009.06
373.835	1021.06
374.061	1026.06
374.287	992.06
374.513	990.06
374.739	990.06
374.965	1002.06
375.191	998.06
375.416	977.06
375.642	1036.06
375.868	1080.06
376.094	1107.06
376.319	1052.06
376.545	984.06
376.771	1032.06
376.997	1065.06
377.222	1057.06
377.448	1028.06
377.674	1038.06
377.899	1058.06
378.125	1107.06
378.35	1057.06
378.576	983.06
378.802	959.06
379.027	938.06
379.253	941.06
379.478	990.06
379.704	961.06
379.929	988.06
380.155	964.06
380.38	984.06
380.606	1010.06
380.831	1015.06
381.057	1049.06
381.282	1030.06
381.507	1067.06
381.733	1107.06
381.958	1128.06
382.184	1049.06
382.409	1000.06
382.634	1065.06
382.86	1016.06
383.085	1027.06
383.31	1082.06
383.535	1167.06
383.761	1211.06
383.986	1116.06
384.211	1099.06
384.436	1096.06
384.662	1159.06
384.887	1204.06
385.112	1098.06
385.337	1117.06
385.562	1105.06
385.787	1127.06
386.013	1153.06
386.238	1125.06
386.463	1123.06
386.688	1252.06
386.913	1305.06
387.138	1235.06
387.363	1162.06
387.588	1183.06
387.813	1142.06
388.038	1141.06
388.263	1164.06
388.488	1126.06
388.713	1075.06
388.938	1062.06
389.163	1077.06
389.387	1153.06
389.612	1128.06
389.837	1120.06
390.062	1168.06
390.287	1151.06
390.512	1111.06
390.736	1107.06
390.961	1089.06
391.186	1069.06
391.411	1097.06
391.636	1132.06
391.86	1131.06
392.085	1123.06
392.31	1096.06
392.534	1122.06
392.759	1122.06
392.984	1134.06
393.208	1149.06
393.433	1134.06
393.658	1219.06
393.882	1215.06
394.107	1153.06
394.331	1154.06
394.556	1147.06
394.78	1110.06
395.005	1193.06
395.229	1230.06
395.454	1306.06
395.678	1323.06
395.903	1230.06
396.127	1208.06
396.352	1229.06
396.576	1232.06
396.801	1237.06
397.025	1216.06
397.249	1237.06
397.474	1203.06
397.698	1191.06
397.922	1242.06
398.147	1323.06
398.371	1358.06
398.595	1337.06
398.82	1317.06
399.044	1288.06
399.268	1376.06
399.492	1442.06
399.717	1481.06
399.941	1486.06
400.165	1451.06
400.389	1457.06
400.613	1478.06
400.837	1692.06
401.062	1795.06
401.286	1522.06
401.51	1453.06
401.734	1448.06
401.958	1395.06
402.182	1297.06
402.406	1303.06
402.63	1243.06
402.854	1299.06
403.078	1300.06
403.302	1299.06
403.526	1340.06
403.75	1316.06
403.974	1401.06
404.198	1345.06
404.422	1419.06
404.645	1481.06
404.869	1395.06
405.093	1311.06
405.317	1321.06
405.541	1315.06
405.765	1357.06
405.988	1379.06
406.212	1370.06
406.436	1392.06
406.66	1425.06
406.883	1487.06
407.107	1666.06
407.331	1756.06
407.555	1878.06
407.778	1674.06
408.002	1444.06
408.226	1378.06
408.449	1422.06
408.673	1385.06
408.896	1342.06
409.12	1386.06
409.344	1318.06
409.567	1334.06
409.791	1335.06
410.014	1365.06
410.238	1462.06
410.461	1533.06
410.685	1360.06
410.908	1315.06
411.132	1333.06
411.355	1346.06
411.578	1320.06
411.802	1360.06
412.025	1358.06
412.249	1339.06
412.472	1290.06
412.695	1318.06
412.919	1327.06
413.142	1287.06
413.365	1322.06
413.589	1335.06
413.812	1420.06
414.035	1444.06
414.258	1312.06
414.482	1300.06
414.705	1342.06
414.928	1291.06
415.151	1290.06
415.374	1327.06
415.597	1329.06
415.821	1313.06
416.044	1329.06
416.267	1344.06
416.49	1266.06
416.713	1288.06
416.936	1337.06
417.159	1360.06
417.382	1385.06
417.605	1282.06
417.828	1307.06
418.051	1331.06
418.274	1291.06
418.497	1289.06
418.72	1265.06
418.943	1297.06
419.166	1348.06
419.389	1343.06
419.611	1318.06
419.834	1290.06
420.057	1272.06
420.28	1287.06
420.503	1298.06
420.726	1310.06
420.948	1322.06
421.171	1265.06
421.394	1286.06
421.617	1347.06
421.839	1329.06
422.062	1289.06
422.285	1267.06
422.507	1279.06
422.73	1256.06
422.953	1187.06
423.175	1234.06
423.398	1275.06
423.621	1271.06
423.843	1268.06
424.066	1315.06
424.288	1396.06
424.511	1413.06
424.733	1321.06
424.956	1265.06
425.178	1237.06
425.401	1273.06
425.623	1232.06
425.846	1242.06
426.068	1330.06
426.291	1320.06
426.513	1341.06
426.735	1333.06
426.958	1435.06
427.18	1471.06
427.402	1360.06
427.625	1393.06
427.847	1417.06
428.069	1253.06
428.292	1265.06
428.514	1203.06
428.736	1246.06
428.958	1240.06
429.181	1273.06
429.403	1482.06
429.625	1777.06
429.847	1492.06
430.069	1290.06
430.292	1455.06
430.514	1426.06
430.736	1362.06
430.958	1391.06
431.18	1281.06
431.402	1259.06
431.624	1183.06
431.846	1181.06
432.068	1143.06
432.29	1176.06
432.512	1186.06
432.734	1251.06
432.956	1270.06
433.178	1341.06
433.4	1321.06
433.622	1325.06
433.844	1250.06
434.066	1218.06
434.287	1222.06
434.509	1205.06
434.731	1279.06
434.953	1376.06
435.175	1325.06
435.397	1297.06
435.618	1254.06
435.84	1247.06
436.062	1188.06
436.284	1278.06
436.505	1278.06
436.727	1328.06
436.949	1245.06
437.17	1234.06
437.392	1216.06
437.614	1211.06
437.835	1177.06
438.057	1229.06
438.278	1258.06
438.5	1239.06
438.721	1230.06
438.943	1217.06
439.165	1226.06
439.386	1205.06
439.608	1257.06
439.829	1243.06
440.05	1231.06
440.272	1235.06
440.493	1248.06
440.715	1259.06
440.936	1363.06
441.158	1432.06
441.379	1369.06
441.6	1366.06
441.822	1365.06
442.043	1288.06
442.264	1334.06
442.486	1265.06
442.707	1242.06
442.928	1269.06
443.149	1302.06
443.371	1351.06
443.592	1382.06
443.813	1378.06
444.034	1356.06
444.255	1359.06
444.476	1355.06
444.698	1375.06
444.919	1400.06
445.14	1470.06
445.361	1440.06
445.582	1454.06
445.803	1417.06
446.024	1388.06
446.245	1397.06
446.466	1402.06
446.687	1315.06
446.908	1317.06
447.129	1296.06
447.35	1333.06
447.571	1293.06
447.792	1231.06
448.013	1222.06
448.234	1282.06
448.455	1314.06
448.675	1292.06
448.896	1178.06
449.117	1186.06
449.338	1230.06
449.559	1306.06
449.779	1317.06
450	1393.06
450.221	1473.06
450.442	1421.06
450.662	1289.06
450.883	1185.06
451.104	1169.06
451.324	1194.06
451.545	1229.06
451.766	1189.06
451.986	1154.06
452.207	1143.06
452.428	1091.06
452.648	1075.06
452.869	1126.06
453.089	1126.06
453.31	1154.06
453.53	1151.06
453.751	1112.06
453.971	1082.06
454.192	1093.06
454.412	1138.06
454.633	1133.06
454.853	1123.06
455.073	1055.06
455.294	1053.06
455.514	1049.06
455.734	1041.06
455.955	1066.06
456.175	1079.06
456.395	1091.06
456.616	1069.06
456.836	1094.06
457.056	1075.06
457.276	1098.06
457.497	1045.06
457.717	1028.06
457.937	1047.06
458.157	1053.06
458.377	1066.06
458.598	1025.06
458.818	1046.06
459.038	1098.06
459.258	1133.06
459.478	1153.06
459.698	1100.06
459.918	1157.06
460.138	1227.06
460.358	1236.06
460.578	1213.06
460.798	1299.06
461.018	1351.06
461.238	1264.06
461.458	1273.06
461.678	1264.06
461.898	1217.06
462.118	1213.06
462.338	1249.06
462.558	1261.06
462.777	1281.06
462.997	1330.06
463.217	1353.06
463.437	1367.06
463.657	1266.06
463.876	1234.06
464.096	1245.06
464.316	1247.06
464.536	1290.06
464.755	1284.06
464.975	1306.06
465.195	1252.06
465.414	1325.06
465.634	1285.06
465.854	1290.06
466.073	1364.06
466.293	1349.06
466.512	1237.06
466.732	1200.06
466.951	1235.06
467.171	1241.06
467.391	1172.06
467.61	1189.06
467.829	1199.06
468.049	1311.06
468.268	1458.06
468.488	1340.06
468.707	1259.06
468.927	1250.06
469.146	1190.06
469.365	1195.06
469.585	1216.06
469.804	1206.06
470.023	1248.06
470.243	1232.06
470.462	1223.06
470.681	1194.06
470.901	1228.06
471.12	1232.06
471.339	1253.06
471.558	1221.06
471.777	1207.06
471.997	1195.06
472.216	1177.06
472.435	1119.06
472.654	1118.06
472.873	1184.06
473.092	1249.06
473.311	1164.06
473.53	1146.06
473.749	1162.06
473.968	1141.06
474.187	1221.06
474.406	1235.06
474.625	1214.06
474.844	1237.06
475.063	1209.06
475.282	1234.06
475.501	1177.06
475.72	1162.06
475.939	1281.06
476.158	1251.06
476.377	1213.06
476.596	1219.06
476.814	1213.06
477.033	1201.06
477.252	1251.06
477.471	1310.06
477.69	1290.06
477.908	1254.06
478.127	1393.06
478.346	1431.06
478.564	1431.06
478.783	1414.06
479.002	1432.06
479.22	1417.06
479.439	1419.06
479.658	1586.06
479.876	1519.06
480.095	1385.06
480.313	1354.06
480.532	1315.06
480.751	1319.06
480.969	1299.06
481.188	1262.06
481.406	1263.06
481.624	1233.06
481.843	1266.06
482.061	1303.06
482.28	1336.06
482.498	1346.06
482.717	1289.06
482.935	1296.06
483.153	1329.06
483.372	1358.06
483.59	1368.06
483.808	1344.06
484.027	1345.06
484.245	1416.06
484.463	1723.06
484.681	1882.06
484.9	1451.06
485.118	1362.06
485.336	1335.06
485.554	1374.06
485.772	1395.06
485.99	1386.06
486.209	1381.06
486.427	1374.06
486.645	1392.06
486.863	1382.06
487.081	1450.06
487.299	1435.06
487.517	1443.06
487.735	1475.06
487.953	1491.06
488.171	1493.06
488.389	1471.06
488.607	1463.06
488.825	1571.06
489.043	1499.06
489.261	1395.06
489.479	1464.06
489.696	1498.06
489.914	1444.06
490.132	1403.06
490.35	1427.06
490.568	1497.06
490.786	1461.06
491.003	1466.06
491.221	1506.06
491.439	1588.06
491.657	1581.06
491.874	1649.06
492.092	1641.06
492.31	1725.06
492.527	1666.06
492.745	1608.06
492.963	1530.06
493.18	1620.06
493.398	1681.06
493.615	1688.06
493.833	1580.06
494.05	1562.06
494.268	1533.06
494.485	1567.06
494.703	1528.06
494.92	1553.06
495.138	1526.06
495.355	1555.06
495.573	1595.06
495.79	1666.06
496.008	1686.06
496.225	1579.06
496.442	1596.06
496.66	1630.06
496.877	1601.06
497.094	1629.06
497.312	1634.06
497.529	1598.06
497.746	1672.06
497.963	1837.06
498.181	1950.06
498.398	1869.06
498.615	1808.06
498.832	1776.06
499.049	1753.06
499.267	1802.06
499.484	1901.06
499.701	2037.06
499.918	2062.06
500.135	2173.06
500.352	2331.06
500.569	2351.06
500.786	2525.06
501.003	2325.06
501.22	2118.06
501.437	2055.06
501.654	2105.06
501.871	1976.06
502.088	1742.06
502.305	1732.06
502.522	1701.06
502.739	1610.06
502.956	1553.06
503.172	1569.06
503.389	1486.06
503.606	1455.06
503.823	1451.06
504.04	1484.06
504.256	1509.06
504.473	1483.06
504.69	1532.06
504.907	1449.06
505.123	1410.06
505.34	1539.06
505.557	2010.06
505.773	1654.06
505.99	1386.06
506.207	1329.06
506.423	1302.06
506.64	1293.06
506.856	1326.06
507.073	1509.06
507.289	1583.06
507.506	1524.06
507.722	1336.06
507.939	1218.06
508.155	1246.06
508.372	1268.06
508.588	1227.06
508.805	1165.06
509.021	1198.06
509.238	1189.06
509.454	1120.06
509.67	1168.06
509.887	1128.06
510.103	1130.06
510.319	1135.06
510.536	1191.06
510.752	1238.06
510.968	1193.06
511.184	1280.06
511.401	1233.06
511.617	1137.06
511.833	1076.06
512.049	1105.06
512.265	1113.06
512.481	1086.06
512.698	1153.06
512.914	1197.06
513.13	1151.06
513.346	1111.06
513.562	1093.06
513.778	1101.06
513.994	1166.06
514.21	1173.06
514.426	1205.06
514.642	1286.06
514.858	1225.06
515.074	1136.06
515.29	1145.06
515.506	1156.06
515.721	1157.06
515.937	1152.06
516.153	1321.06
516.369	1252.06
516.585	1179.06
516.801	1153.06
517.016	1151.06
517.232	1179.06
517.448	1205.06
517.664	1227.06
517.879	1201.06
518.095	1249.06
518.311	1234.06
518.527	1170.06
518.742	1159.06
518.958	1142.06
519.173	1152.06
519.389	1189.06
519.605	1178.06
519.82	1161.06
520.036	1186.06
520.251	1172.06
520.467	1182.06
520.682	1237.06
520.898	1237.06
521.113	1151.06
521.329	1110.06
521.544	1176.06
521.76	1145.06
521.975	1094.06
522.19	1089.06
522.406	1101.06
522.621	1358.06
522.836	1282.06
523.052	1077.06
523.267	1090.06
523.482	1109.06
523.698	1069.06
523.913	1085.06
524.128	1092.06
524.343	1145.06
524.559	1189.06
524.774	1104.06
524.989	1088.06
525.204	1083.06
525.419	1055.06
525.634	1072.06
525.849	1045.06
526.064	1046.06
526.28	1046.06
526.495	1008.06
526.71	994.06
526.925	986.06
527.14	965.06
527.355	967.06
527.57	974.06
527.785	1033.06
527.999	986.06
528.214	985.06
528.429	1050.06
528.644	1028.06
528.859	1077.06
529.074	1087.06
529.289	1091.06
529.503	1136.06
529.718	1067.06
529.933	1041.06
530.148	970.06
530.363	980.06
530.577	987.06
530.792	981.06
531.007	991.06
531.221	959.06
531.436	1002.06
531.651	1037.06
531.865	1072.06
532.08	1019.06
532.295	975.06
532.509	934.06
532.724	965.06
532.938	989.06
533.153	1056.06
533.367	1048.06
533.582	1030.06
533.796	1003.06
534.011	1003.06
534.225	987.06
534.44	934.06
534.654	951.06
534.868	977.06
535.083	1009.06
535.297	1061.06
535.511	989.06
535.726	979.06
535.94	950.06
536.154	969.06
536.369	937.06
536.583	935.06
536.797	925.06
537.011	959.06
537.225	938.06
537.44	930.06
537.654	989.06
537.868	933.06
538.082	879.06
538.296	887.06
538.51	933.06
538.724	923.06
538.938	961.06
539.153	1008.06
539.367	997.06
539.581	974.06
539.795	980.06
540.009	962.06
540.222	953.06
540.436	967.06
540.65	1051.06
540.864	1053.06
541.078	1014.06
541.292	1025.06
541.506	1065.06
541.72	1117.06
541.934	1143.06
542.147	1203.06
542.361	1126.06
542.575	1073.06
542.789	1009.06
543.002	950.06
543.216	977.06
543.43	1031.06
543.644	1048.06
543.857	1100.06
544.071	1109.06
544.285	1103.06
544.498	1079.06
544.712	1096.06
544.925	1129.06
545.139	1138.06
545.352	1082.06
545.566	1063.06
545.779	1078.06
545.993	1119.06
546.206	1088.06
546.42	1053.06
546.633	1040.06
546.847	1044.06
547.06	1055.06
547.274	1074.06
547.487	1075.06
547.7	1111.06
547.914	1079.06
548.127	1091.06
548.34	1061.06
548.554	1065.06
548.767	1035.06
548.98	1051.06
549.193	1046.06
549.407	1110.06
549.62	1110.06
549.833	1078.06
550.046	1038.06
550.259	1055.06
550.473	1015.06
550.686	1022.06
550.899	1017.06
551.112	990.06
551.325	1005.06
551.538	1061.06
551.751	1120.06
551.964	926.06
552.177	925.06
552.39	946.06
552.603	983.06
552.816	994.06
553.029	1075.06
553.242	1066.06
553.455	1053.06
553.667	1042.06
553.88	1023.06
554.093	1023.06
554.306	977.06
554.519	977.06
554.732	966.06
554.944	973.06
555.157	962.06
555.37	957.06
555.583	957.06
555.795	923.06
556.008	905.06
556.221	874.06
556.433	850.06
556.646	862.06
556.859	849.06
557.071	880.06
557.284	867.06
557.496	860.06
557.709	838.06
557.921	855.06
558.134	831.06
558.346	846.06
558.559	827.06
558.771	864.06
558.984	806.06
559.196	785.06
559.409	793.06
559.621	823.06
559.833	814.06
560.046	823.06
560.258	825.06
560.47	800.06
560.683	842.06
560.895	821.06
561.107	806.06
561.32	833.06
561.532	800.06
561.744	799.06
561.956	853.06
562.168	803.06
562.381	805.06
562.593	757.06
562.805	789.06
563.017	778.06
563.229	786.06
563.441	780.06
563.653	773.06
563.865	795.06
564.077	781.06
564.289	782.06
564.501	772.06
564.713	791.06
564.925	814.06
565.137	871.06
565.349	813.06
565.561	794.06
565.773	818.06
565.985	819.06
566.197	850.06
566.408	911.06
566.62	915.06
566.832	902.06
567.044	899.06
567.255	899.06
567.467	890.06
567.679	921.06
567.891	922.06
568.102	916.06
568.314	865.06
568.526	799.06
568.737	763.06
568.949	738.06
569.161	704.06
569.372	693.06
569.584	671.06
569.795	692.06
570.007	679.06
570.218	657.06
570.43	652.06
570.641	643.06
570.853	661.06
571.064	675.06
571.276	640.06
571.487	666.06
571.698	639.06
571.91	621.06
572.121	629.06
572.333	625.06
572.544	594.06
572.755	573.06
572.966	591.06
573.178	567.06
573.389	574.06
573.6	599.06
573.811	649.06
574.023	595.06
574.234	546.06
574.445	537.06
574.656	557.06
574.867	565.06
575.078	561.06
575.289	569.06
575.501	575.06
575.712	553.06
575.923	573.06
576.134	565.06
576.345	558.06
576.556	559.06
576.767	547.06
576.978	546.06
577.188	526.06
577.399	532.06
577.61	501.06
577.821	515.06
578.032	510.06
578.243	521.06
578.454	523.06
578.665	490.06
578.875	489.06
579.086	484.06
579.297	512.06
579.508	536.06
579.718	533.06
579.929	512.06
580.14	473.06
580.35	497.06
580.561	504.06
580.772	549.06
580.982	513.06
581.193	488.06
581.403	478.06
581.614	481.06
581.825	465.06
582.035	465.06
582.246	477.06
582.456	458.06
582.667	467.06
582.877	481.06
583.087	460.06
583.298	478.06
583.508	472.06
583.719	449.06
583.929	466.06
584.139	466.06
584.35	459.06
584.56	467.06
584.77	452.06
584.981	466.06
585.191	466.06
585.401	474.06
585.611	456.06
585.821	441.06
586.032	448.06
586.242	465.06
586.452	473.06
586.662	452.06
586.872	439.06
587.082	423.06
587.292	454.06
587.502	456.06
587.713	455.06
587.923	433.06
588.133	460.06
588.343	448.06
588.553	433.06
588.762	421.06
588.972	441.06
589.182	448.06
589.392	479.06
589.602	462.06
589.812	443.06
590.022	450.06
590.232	443.06
590.441	458.06
590.651	438.06
590.861	439.06
591.071	427.06
591.281	415.06
591.49	437.06
591.7	423.06
591.91	436.06
592.119	449.06
592.329	462.06
592.539	455.06
592.748	441.06
592.958	457.06
593.167	459.06
593.377	483.06
593.587	465.06
593.796	471.06
594.006	475.06
594.215	465.06
594.424	468.06
594.634	469.06
594.843	469.06
595.053	474.06
595.262	470.06
595.472	436.06
595.681	452.06
595.89	439.06
596.1	433.06
596.309	437.06
596.518	431.06
596.727	445.06
596.937	434.06
597.146	403.06
597.355	431.06
597.564	385.06
597.774	386.06
597.983	413.06
598.192	387.06
598.401	399.06
598.61	387.06
598.819	413.06
599.028	387.06
599.237	396.06
599.446	383.06
599.655	383.06
599.864	408.06
600.073	389.06
600.282	392.06
600.491	387.06
600.7	368.06
600.909	383.06
601.118	382.06
601.327	409.06
601.536	418.06
601.745	403.06
601.953	399.06
602.162	411.06
602.371	415.06
602.58	400.06
602.789	401.06
602.997	410.06
603.206	409.06
603.415	395.06
603.623	393.06
603.832	405.06
604.041	401.06
604.249	384.06
604.458	382.06
604.666	377.06
604.875	377.06
605.084	395.06
605.292	403.06
605.501	403.06
605.709	401.06
605.918	398.06
606.126	394.06
606.334	401.06
606.543	386.06
606.751	417.06
606.96	405.06
607.168	415.06
607.376	393.06
607.585	409.06
607.793	396.06
608.001	415.06
608.21	403.06
608.418	415.06
608.626	396.06
608.834	395.06
609.043	418.06
609.251	386.06
609.459	397.06
609.667	393.06
609.875	419.06
610.083	419.06
610.291	431.06
610.499	399.06
610.707	388.06
610.916	386.06
611.124	387.06
611.332	387.06
611.54	393.06
611.748	402.06
611.955	387.06
612.163	400.06
612.371	391.06
612.579	377.06
612.787	394.06
612.995	402.06
613.203	394.06
613.411	373.06
613.618	369.06
613.826	378.06
614.034	388.06
614.242	376.06
614.449	393.06
614.657	392.06
614.865	398.06
615.072	399.06
615.28	383.06
615.488	388.06
615.695	408.06
615.903	382.06
616.111	378.06
616.318	402.06
616.526	381.06
616.733	372.06
616.941	387.06
617.148	388.06
617.356	377.06
617.563	378.06
617.771	353.06
617.978	350.06
618.185	391.06
618.393	386.06
618.6	377.06
618.807	368.06
619.015	376.06
619.222	373.06
619.429	367.06
619.637	367.06
619.844	332.06
620.051	356.06
620.258	357.06
620.466	366.06
620.673	364.06
620.88	350.06
621.087	345.06
621.294	339.06
621.501	335.06
621.708	343.06
621.915	343.06
622.122	350.06
622.329	344.06
622.536	331.06
622.743	347.06
622.95	354.06
623.157	339.06
623.364	352.06
623.571	336.06
623.778	344.06
623.985	338.06
624.192	322.06
624.399	327.06
624.606	345.06
624.812	323.06
625.019	331.06
625.226	308.06
625.433	345.06
625.639	318.06
625.846	310.06
626.053	299.06
626.259	306.06
626.466	290.06
626.673	282.06
626.879	306.06
627.086	304.06
627.293	296.06
627.499	302.06
627.706	323.06
627.912	319.06
628.119	334.06
628.325	321.06
628.532	326.06
628.738	321.06
628.945	324.06
629.151	315.06
629.357	317.06
629.564	309.06
629.77	306.06
629.976	307.06
630.183	288.06
630.389	302.06
630.595	294.06
630.802	314.06
631.008	291.06
631.214	295.06
631.42	298.06
631.627	293.06
631.833	291.06
632.039	275.06
632.245	271.06
632.451	285.06
632.657	293.06
632.863	280.06
633.069	275.06
633.275	299.06
633.481	276.06
633.688	280.06
633.893	278.06
634.099	270.06
634.305	267.06
634.511	273.06
634.717	287.06
634.923	275.06
635.129	257.06
635.335	259.06
635.541	262.06
635.747	261.06
635.952	273.06
636.158	288.06
636.364	286.06
636.57	279.06
636.775	271.06
636.981	270.06
637.187	277.06
637.392	280.06
637.598	273.06
637.804	280.06
638.009	284.06
638.215	285.06
638.421	254.06
638.626	274.06
638.832	282.06
639.037	271.06
639.243	267.06
639.448	273.06
639.654	246.06
639.859	266.06
640.065	276.06
640.27	263.06
640.475	261.06
640.681	282.06
640.886	278.06
641.091	258.06
641.297	260.06
641.502	257.06
641.707	245.06
641.913	262.06
642.118	268.06
642.323	265.06
642.528	249.06
642.733	256.06
642.939	269.06
643.144	253.06
643.349	268.06
643.554	263.06
643.759	250.06
643.964	255.06
644.169	261.06
644.374	250.06
644.579	257.06
644.784	267.06
644.989	233.06
645.194	257.06
645.399	260.06
645.604	246.06
645.809	260.06
646.014	262.06
646.219	246.06
646.423	247.06
646.628	245.06
646.833	266.06
647.038	259.06
647.243	269.06
647.447	247.06
647.652	257.06
647.857	265.06
648.062	252.06
648.266	274.06
648.471	246.06
648.676	267.06
648.88	275.06
649.085	270.06
649.289	257.06
649.494	259.06
649.698	247.06
649.903	226.06
650.107	249.06
650.312	261.06
650.516	234.06
650.721	239.06
650.925	261.06
651.13	230.06
651.334	242.06
651.539	224.06
651.743	231.06
651.947	232.06
652.152	230.06
652.356	255.06
652.56	225.06
652.764	222.06
652.969	222.06
653.173	219.06
653.377	238.06
653.581	227.06
653.785	214.06
653.99	218.06
654.194	229.06
654.398	221.06
654.602	214.06
654.806	221.06
655.01	201.06
655.214	215.06
655.418	207.06
655.622	219.06
655.826	208.06
656.03	225.06
656.234	262.06
656.438	260.06
656.642	242.06
656.846	239.06
657.049	250.06
657.253	210.06
657.457	203.06
657.661	204.06
657.865	193.06
658.068	187.06
658.272	175.06
658.476	163.06
658.68	153.06
658.883	170.06
659.087	166.06
659.291	139.06
659.494	145.06
659.698	145.06
659.901	133.06
660.105	121.06
660.309	117.06
660.512	121.06
660.716	119.06
660.919	121.06
661.123	122.06
661.326	120.06
661.53	98.06
661.733	99.06
661.936	110.06
662.14	98.06
662.343	107.06
662.546	98.06
662.75	100.06
662.953	98.06
663.156	97.06
663.36	81.06
663.563	86.06
663.766	72.06
663.969	99.06
664.173	83.06
664.376	76.06
664.579	87.06
664.782	72.06
664.985	94.06
665.188	71.06
665.391	85.06
665.594	81.06
665.797	82.06
666	87.06
666.203	90.06
666.406	78.06
666.609	78.06
666.812	91.06
667.015	72.06
667.218	90.06
667.421	94.06
667.624	70.06
667.827	91.06
668.03	90.06
668.232	77.06
668.435	80.06
668.638	75.06
668.841	78.06
669.043	74.06
669.246	81.06
669.449	86.06
669.651	80.06
669.854	78.06
670.057	74.06
670.259	79.06
670.462	80.06
670.665	76.06
670.867	98.06
671.07	77.06
671.272	83.06
671.475	86.06
671.677	84.06
671.88	75.06
672.082	83.06
672.284	85.06
672.487	82.06
672.689	69.06
672.892	73.06
