Data from WStandard_LampEnergy10_LIBS07252019.E.O._I.C._HRD10591_15-54-06-928.txt Node
Date: Thu Jul 25 15:54:06 EDT 2019
User: cochatt
Spectrometer: HR+D1059
Trigger mode: 1
Integration Time (sec): 1.000000E-1
Scans to average: 1
Electric dark correction enabled: true
Nonlinearity correction enabled: false
Boxcar width: 0
XAxis mode: Wavelengths
Number of Pixels in Spectrum: 2048
>>>>>Begin Spectral Data<<<<<
223.165	-28.12
223.4	-28.12
223.635	-28.12
223.869	-26.12
224.104	-18.12
224.338	-6.12
224.573	-7.12
224.808	-6.12
225.042	-2.12
225.277	-8.12
225.511	-10.12
225.746	-8.12
225.98	15.88
226.215	11.88
226.449	26.88
226.683	9.88
226.918	25.88
227.152	29.88
227.387	45.88
227.621	32.88
227.856	42.88
228.09	43.88
228.324	52.88
228.559	58.88
228.793	82.88
229.027	141.88
229.262	139.88
229.496	148.88
229.73	153.88
229.964	166.88
230.199	164.88
230.433	180.88
230.667	179.88
230.901	200.88
231.136	180.88
231.37	188.88
231.604	186.88
231.838	187.88
232.072	181.88
232.306	162.88
232.541	176.88
232.775	207.88
233.009	207.88
233.243	214.88
233.477	206.88
233.711	208.88
233.945	194.88
234.179	203.88
234.413	207.88
234.647	216.88
234.881	198.88
235.115	194.88
235.349	196.88
235.583	189.88
235.817	189.88
236.051	199.88
236.285	223.88
236.519	215.88
236.753	232.88
236.987	219.88
237.221	231.88
237.455	241.88
237.689	237.88
237.922	232.88
238.156	227.88
238.39	229.88
238.624	240.88
238.858	233.88
239.091	259.88
239.325	269.88
239.559	288.88
239.793	306.88
240.027	299.88
240.26	286.88
240.494	244.88
240.728	243.88
240.961	224.88
241.195	246.88
241.429	276.88
241.662	256.88
241.896	235.88
242.13	250.88
242.363	260.88
242.597	282.88
242.83	280.88
243.064	280.88
243.298	272.88
243.531	294.88
243.765	286.88
243.998	269.88
244.232	244.88
244.465	254.88
244.699	231.88
244.932	280.88
245.166	303.88
245.399	293.88
245.633	279.88
245.866	294.88
246.099	301.88
246.333	310.88
246.566	291.88
246.8	311.88
247.033	347.88
247.266	325.88
247.5	348.88
247.733	308.88
247.966	336.88
248.2	344.88
248.433	366.88
248.666	362.88
248.899	380.88
249.133	434.88
249.366	462.88
249.599	399.88
249.832	347.88
250.066	367.88
250.299	363.88
250.532	368.88
250.765	334.88
250.998	336.88
251.231	339.88
251.465	358.88
251.698	341.88
251.931	342.88
252.164	354.88
252.397	353.88
252.63	352.88
252.863	326.88
253.096	342.88
253.329	341.88
253.562	358.88
253.795	379.88
254.028	370.88
254.261	344.88
254.494	340.88
254.727	325.88
254.96	350.88
255.193	384.88
255.426	401.88
255.659	445.88
255.892	460.88
256.124	378.88
256.357	379.88
256.59	408.88
256.823	431.88
257.056	421.88
257.289	473.88
257.521	491.88
257.754	455.88
257.987	451.88
258.22	474.88
258.452	459.88
258.685	399.88
258.918	381.88
259.151	398.88
259.383	368.88
259.616	350.88
259.849	376.88
260.081	394.88
260.314	437.88
260.547	465.88
260.779	438.88
261.012	442.88
261.244	414.88
261.477	380.88
261.71	409.88
261.942	399.88
262.175	400.88
262.407	404.88
262.64	383.88
262.872	366.88
263.105	370.88
263.337	382.88
263.57	377.88
263.802	375.88
264.035	352.88
264.267	354.88
264.499	358.88
264.732	373.88
264.964	394.88
265.197	399.88
265.429	415.88
265.661	470.88
265.894	492.88
266.126	486.88
266.358	460.88
266.591	476.88
266.823	498.88
267.055	440.88
267.287	439.88
267.52	440.88
267.752	460.88
267.984	463.88
268.216	473.88
268.448	479.88
268.681	465.88
268.913	432.88
269.145	411.88
269.377	410.88
269.609	470.88
269.841	521.88
270.073	595.88
270.306	617.88
270.538	631.88
270.77	538.88
271.002	470.88
271.234	476.88
271.466	495.88
271.698	533.88
271.93	598.88
272.162	587.88
272.394	555.88
272.626	502.88
272.858	461.88
273.09	419.88
273.322	413.88
273.553	400.88
273.785	401.88
274.017	443.88
274.249	428.88
274.481	457.88
274.713	420.88
274.945	410.88
275.176	411.88
275.408	404.88
275.64	420.88
275.872	409.88
276.104	440.88
276.335	482.88
276.567	557.88
276.799	516.88
277.031	505.88
277.262	478.88
277.494	505.88
277.726	512.88
277.957	515.88
278.189	495.88
278.421	445.88
278.652	430.88
278.884	430.88
279.115	449.88
279.347	450.88
279.579	439.88
279.81	432.88
280.042	480.88
280.273	530.88
280.505	518.88
280.736	508.88
280.968	474.88
281.199	424.88
281.431	413.88
281.662	435.88
281.894	434.88
282.125	445.88
282.356	470.88
282.588	472.88
282.819	470.88
283.051	529.88
283.282	495.88
283.513	500.88
283.745	459.88
283.976	440.88
284.207	441.88
284.439	443.88
284.67	436.88
284.901	466.88
285.132	466.88
285.364	460.88
285.595	463.88
285.826	439.88
286.057	456.88
286.288	462.88
286.52	463.88
286.751	517.88
286.982	498.88
287.213	477.88
287.444	422.88
287.675	442.88
287.906	458.88
288.138	487.88
288.369	501.88
288.6	455.88
288.831	430.88
289.062	453.88
289.293	454.88
289.524	449.88
289.755	462.88
289.986	472.88
290.217	434.88
290.448	460.88
290.679	457.88
290.91	480.88
291.141	465.88
291.371	504.88
291.602	519.88
291.833	478.88
292.064	524.88
292.295	500.88
292.526	514.88
292.757	517.88
292.987	500.88
293.218	498.88
293.449	548.88
293.68	598.88
293.91	603.88
294.141	573.88
294.372	568.88
294.603	575.88
294.833	581.88
295.064	522.88
295.295	506.88
295.525	467.88
295.756	454.88
295.987	440.88
296.217	455.88
296.448	465.88
296.679	449.88
296.909	474.88
297.14	483.88
297.37	482.88
297.601	520.88
297.831	530.88
298.062	542.88
298.292	482.88
298.523	483.88
298.753	476.88
298.984	498.88
299.214	480.88
299.445	500.88
299.675	500.88
299.905	506.88
300.136	499.88
300.366	467.88
300.597	489.88
300.827	470.88
301.057	512.88
301.288	519.88
301.518	518.88
301.748	530.88
301.979	574.88
302.209	582.88
302.439	594.88
302.669	612.88
302.9	542.88
303.13	514.88
303.36	522.88
303.59	524.88
303.82	524.88
304.051	515.88
304.281	536.88
304.511	555.88
304.741	588.88
304.971	610.88
305.201	637.88
305.431	594.88
305.661	495.88
305.891	444.88
306.121	473.88
306.352	488.88
306.582	504.88
306.812	528.88
307.042	565.88
307.272	576.88
307.502	596.88
307.731	632.88
307.961	639.88
308.191	568.88
308.421	522.88
308.651	524.88
308.881	512.88
309.111	519.88
309.341	490.88
309.571	526.88
309.8	492.88
310.03	497.88
310.26	490.88
310.49	503.88
310.72	517.88
310.949	528.88
311.179	523.88
311.409	516.88
311.639	519.88
311.868	516.88
312.098	514.88
312.328	518.88
312.557	483.88
312.787	486.88
313.017	538.88
313.246	521.88
313.476	511.88
313.706	544.88
313.935	547.88
314.165	536.88
314.394	573.88
314.624	623.88
314.853	608.88
315.083	611.88
315.312	646.88
315.542	578.88
315.771	554.88
316.001	543.88
316.23	600.88
316.46	569.88
316.689	560.88
316.919	542.88
317.148	538.88
317.377	537.88
317.607	590.88
317.836	662.88
318.065	626.88
318.295	636.88
318.524	579.88
318.753	578.88
318.983	578.88
319.212	564.88
319.441	579.88
319.67	568.88
319.9	581.88
320.129	623.88
320.358	629.88
320.587	589.88
320.816	626.88
321.046	600.88
321.275	621.88
321.504	607.88
321.733	626.88
321.962	610.88
322.191	573.88
322.42	553.88
322.649	575.88
322.878	569.88
323.108	569.88
323.337	586.88
323.566	598.88
323.795	587.88
324.024	603.88
324.253	594.88
324.482	571.88
324.71	520.88
324.939	527.88
325.168	580.88
325.397	581.88
325.626	602.88
325.855	583.88
326.084	578.88
326.313	573.88
326.542	554.88
326.77	576.88
326.999	572.88
327.228	528.88
327.457	551.88
327.686	554.88
327.914	572.88
328.143	562.88
328.372	555.88
328.6	539.88
328.829	548.88
329.058	547.88
329.287	559.88
329.515	564.88
329.744	607.88
329.972	631.88
330.201	648.88
330.43	597.88
330.658	588.88
330.887	591.88
331.115	605.88
331.344	603.88
331.572	591.88
331.801	574.88
332.03	597.88
332.258	602.88
332.486	602.88
332.715	609.88
332.943	600.88
333.172	609.88
333.4	613.88
333.629	639.88
333.857	694.88
334.085	766.88
334.314	832.88
334.542	845.88
334.771	762.88
334.999	686.88
335.227	647.88
335.455	628.88
335.684	650.88
335.912	633.88
336.14	651.88
336.369	634.88
336.597	599.88
336.825	614.88
337.053	648.88
337.281	697.88
337.51	736.88
337.738	723.88
337.966	669.88
338.194	597.88
338.422	614.88
338.65	589.88
338.878	595.88
339.106	566.88
339.334	593.88
339.562	604.88
339.79	579.88
340.018	638.88
340.246	632.88
340.474	654.88
340.702	638.88
340.93	624.88
341.158	601.88
341.386	619.88
341.614	589.88
341.842	609.88
342.07	607.88
342.298	619.88
342.526	595.88
342.754	599.88
342.981	586.88
343.209	599.88
343.437	603.88
343.665	622.88
343.893	630.88
344.12	636.88
344.348	645.88
344.576	623.88
344.804	634.88
345.031	611.88
345.259	607.88
345.487	582.88
345.714	562.88
345.942	564.88
346.17	576.88
346.397	576.88
346.625	590.88
346.853	572.88
347.08	548.88
347.308	551.88
347.535	578.88
347.763	613.88
347.99	571.88
348.218	545.88
348.445	576.88
348.673	596.88
348.9	590.88
349.128	618.88
349.355	616.88
349.583	584.88
349.81	556.88
350.037	557.88
350.265	547.88
350.492	544.88
350.72	582.88
350.947	596.88
351.174	587.88
351.402	553.88
351.629	555.88
351.856	526.88
352.083	525.88
352.311	550.88
352.538	570.88
352.765	594.88
352.992	610.88
353.22	586.88
353.447	574.88
353.674	576.88
353.901	579.88
354.128	518.88
354.355	582.88
354.583	602.88
354.81	600.88
355.037	591.88
355.264	584.88
355.491	605.88
355.718	587.88
355.945	586.88
356.172	562.88
356.399	563.88
356.626	576.88
356.853	623.88
357.08	646.88
357.307	711.88
357.534	682.88
357.761	591.88
357.988	581.88
358.215	535.88
358.441	532.88
358.668	542.88
358.895	556.88
359.122	611.88
359.349	639.88
359.576	618.88
359.802	572.88
360.029	549.88
360.256	557.88
360.483	595.88
360.709	583.88
360.936	624.88
361.163	633.88
361.39	683.88
361.616	706.88
361.843	721.88
362.07	652.88
362.296	572.88
362.523	574.88
362.749	576.88
362.976	597.88
363.203	612.88
363.429	579.88
363.656	559.88
363.882	582.88
364.109	656.88
364.335	670.88
364.562	658.88
364.788	603.88
365.015	572.88
365.241	580.88
365.468	600.88
365.694	638.88
365.92	628.88
366.147	598.88
366.373	590.88
366.599	563.88
366.826	572.88
367.052	571.88
367.278	577.88
367.505	601.88
367.731	616.88
367.957	626.88
368.184	655.88
368.41	678.88
368.636	670.88
368.862	686.88
369.089	688.88
369.315	649.88
369.541	621.88
369.767	576.88
369.993	597.88
370.219	596.88
370.445	618.88
370.672	654.88
370.898	712.88
371.124	687.88
371.35	655.88
371.576	686.88
371.802	651.88
372.028	650.88
372.254	628.88
372.48	611.88
372.706	598.88
372.932	603.88
373.158	608.88
373.384	656.88
373.61	677.88
373.835	679.88
374.061	645.88
374.287	652.88
374.513	623.88
374.739	624.88
374.965	659.88
375.191	658.88
375.416	651.88
375.642	680.88
375.868	708.88
376.094	729.88
376.319	690.88
376.545	636.88
376.771	660.88
376.997	699.88
377.222	701.88
377.448	679.88
377.674	692.88
377.899	698.88
378.125	725.88
378.35	699.88
378.576	644.88
378.802	632.88
379.027	633.88
379.253	659.88
379.478	656.88
379.704	660.88
379.929	642.88
380.155	639.88
380.38	672.88
380.606	666.88
380.831	678.88
381.057	711.88
381.282	708.88
381.507	705.88
381.733	733.88
381.958	758.88
382.184	708.88
382.409	684.88
382.634	699.88
382.86	683.88
383.085	706.88
383.31	709.88
383.535	782.88
383.761	784.88
383.986	771.88
384.211	741.88
384.436	755.88
384.662	773.88
384.887	777.88
385.112	752.88
385.337	722.88
385.562	741.88
385.787	727.88
386.013	774.88
386.238	762.88
386.463	758.88
386.688	853.88
386.913	885.88
387.138	837.88
387.363	782.88
387.588	778.88
387.813	780.88
388.038	788.88
388.263	834.88
388.488	770.88
388.713	724.88
388.938	751.88
389.163	740.88
389.387	744.88
389.612	767.88
389.837	799.88
390.062	783.88
390.287	792.88
390.512	760.88
390.736	761.88
390.961	755.88
391.186	720.88
391.411	756.88
391.636	765.88
391.86	759.88
392.085	747.88
392.31	788.88
392.534	760.88
392.759	760.88
392.984	770.88
393.208	803.88
393.433	822.88
393.658	838.88
393.882	825.88
394.107	787.88
394.331	770.88
394.556	765.88
394.78	790.88
395.005	822.88
395.229	862.88
395.454	912.88
395.678	880.88
395.903	853.88
396.127	811.88
396.352	823.88
396.576	868.88
396.801	863.88
397.025	848.88
397.249	845.88
397.474	841.88
397.698	847.88
397.922	855.88
398.147	899.88
398.371	932.88
398.595	923.88
398.82	870.88
399.044	886.88
399.268	930.88
399.492	980.88
399.717	997.88
399.941	1024.88
400.165	987.88
400.389	975.88
400.613	999.88
400.837	1144.88
401.062	1224.88
401.286	1054.88
401.51	998.88
401.734	994.88
401.958	945.88
402.182	898.88
402.406	851.88
402.63	888.88
402.854	889.88
403.078	882.88
403.302	908.88
403.526	937.88
403.75	948.88
403.974	954.88
404.198	964.88
404.422	979.88
404.645	1048.88
404.869	1044.88
405.093	902.88
405.317	917.88
405.541	944.88
405.765	947.88
405.988	924.88
406.212	977.88
406.436	984.88
406.66	1022.88
406.883	1060.88
407.107	1154.88
407.331	1264.88
407.555	1256.88
407.778	1114.88
408.002	997.88
408.226	978.88
408.449	971.88
408.673	960.88
408.896	953.88
409.12	969.88
409.344	948.88
409.567	918.88
409.791	958.88
410.014	974.88
410.238	1015.88
410.461	1080.88
410.685	963.88
410.908	937.88
411.132	954.88
411.355	971.88
411.578	927.88
411.802	952.88
412.025	959.88
412.249	950.88
412.472	939.88
412.695	924.88
412.919	911.88
413.142	938.88
413.365	932.88
413.589	971.88
413.812	1027.88
414.035	1015.88
414.258	951.88
414.482	948.88
414.705	903.88
414.928	949.88
415.151	964.88
415.374	938.88
415.597	953.88
415.821	968.88
416.044	971.88
416.267	959.88
416.49	935.88
416.713	917.88
416.936	969.88
417.159	995.88
417.382	1003.88
417.605	964.88
417.828	952.88
418.051	951.88
418.274	988.88
418.497	963.88
418.72	922.88
418.943	916.88
419.166	1004.88
419.389	987.88
419.611	968.88
419.834	948.88
420.057	949.88
420.28	963.88
420.503	949.88
420.726	942.88
420.948	960.88
421.171	936.88
421.394	956.88
421.617	993.88
421.839	996.88
422.062	1004.88
422.285	958.88
422.507	954.88
422.73	916.88
422.953	912.88
423.175	902.88
423.398	949.88
423.621	926.88
423.843	946.88
424.066	994.88
424.288	1043.88
424.511	1067.88
424.733	977.88
424.956	957.88
425.178	966.88
425.401	950.88
425.623	972.88
425.846	948.88
426.068	999.88
426.291	986.88
426.513	969.88
426.735	999.88
426.958	1076.88
427.18	1102.88
427.402	1021.88
427.625	1041.88
427.847	997.88
428.069	939.88
428.292	921.88
428.514	896.88
428.736	916.88
428.958	937.88
429.181	955.88
429.403	1109.88
429.625	1269.88
429.847	1085.88
430.069	997.88
430.292	1058.88
430.514	1057.88
430.736	995.88
430.958	990.88
431.18	948.88
431.402	911.88
431.624	869.88
431.846	801.88
432.068	743.88
432.29	748.88
432.512	826.88
432.734	902.88
432.956	930.88
433.178	952.88
433.4	977.88
433.622	967.88
433.844	933.88
434.066	854.88
434.287	807.88
434.509	800.88
434.731	821.88
434.953	938.88
435.175	925.88
435.397	934.88
435.618	885.88
435.84	874.88
436.062	830.88
436.284	899.88
436.505	960.88
436.727	937.88
436.949	928.88
437.17	922.88
437.392	909.88
437.614	844.88
437.835	787.88
438.057	813.88
438.278	834.88
438.5	875.88
438.721	896.88
438.943	910.88
439.165	960.88
439.386	914.88
439.608	971.88
439.829	958.88
440.05	948.88
440.272	953.88
440.493	975.88
440.715	978.88
440.936	1027.88
441.158	1067.88
441.379	1070.88
441.6	1067.88
441.822	1048.88
442.043	1040.88
442.264	1014.88
442.486	965.88
442.707	979.88
442.928	951.88
443.149	1012.88
443.371	1018.88
443.592	1051.88
443.813	1034.88
444.034	997.88
444.255	1023.88
444.476	1023.88
444.698	1039.88
444.919	1058.88
445.14	1154.88
445.361	1079.88
445.582	1101.88
445.803	1070.88
446.024	1078.88
446.245	1079.88
446.466	1055.88
446.687	1022.88
446.908	1089.88
447.129	1041.88
447.35	1008.88
447.571	1005.88
447.792	967.88
448.013	983.88
448.234	965.88
448.455	1011.88
448.675	981.88
448.896	927.88
449.117	917.88
449.338	940.88
449.559	922.88
449.779	989.88
450	1001.88
450.221	1047.88
450.442	1026.88
450.662	959.88
450.883	889.88
451.104	892.88
451.324	894.88
451.545	901.88
451.766	866.88
451.986	852.88
452.207	830.88
452.428	822.88
452.648	807.88
452.869	810.88
453.089	804.88
453.31	810.88
453.53	805.88
453.751	766.88
453.971	711.88
454.192	749.88
454.412	784.88
454.633	786.88
454.853	797.88
455.073	780.88
455.294	812.88
455.514	775.88
455.734	767.88
455.955	758.88
456.175	761.88
456.395	736.88
456.616	756.88
456.836	751.88
457.056	752.88
457.276	724.88
457.497	718.88
457.717	720.88
457.937	732.88
458.157	724.88
458.377	723.88
458.598	675.88
458.818	699.88
459.038	735.88
459.258	747.88
459.478	744.88
459.698	710.88
459.918	755.88
460.138	795.88
460.358	832.88
460.578	868.88
460.798	886.88
461.018	894.88
461.238	880.88
461.458	891.88
461.678	860.88
461.898	872.88
462.118	852.88
462.338	870.88
462.558	854.88
462.777	867.88
462.997	888.88
463.217	884.88
463.437	869.88
463.657	867.88
463.876	822.88
464.096	823.88
464.316	836.88
464.536	884.88
464.755	894.88
464.975	900.88
465.195	891.88
465.414	883.88
465.634	847.88
465.854	889.88
466.073	957.88
466.293	938.88
466.512	867.88
466.732	879.88
466.951	933.88
467.171	898.88
467.391	909.88
467.61	892.88
467.829	924.88
468.049	987.88
468.268	1042.88
468.488	994.88
468.707	927.88
468.927	908.88
469.146	894.88
469.365	948.88
469.585	922.88
469.804	946.88
470.023	957.88
470.243	975.88
470.462	942.88
470.681	953.88
470.901	935.88
471.12	926.88
471.339	949.88
471.558	910.88
471.777	907.88
471.997	923.88
472.216	882.88
472.435	785.88
472.654	774.88
472.873	804.88
473.092	858.88
473.311	840.88
473.53	822.88
473.749	834.88
473.968	843.88
474.187	857.88
474.406	849.88
474.625	890.88
474.844	886.88
475.063	879.88
475.282	871.88
475.501	840.88
475.72	845.88
475.939	931.88
476.158	904.88
476.377	877.88
476.596	884.88
476.814	859.88
477.033	838.88
477.252	860.88
477.471	898.88
477.69	922.88
477.908	943.88
478.127	1016.88
478.346	1011.88
478.564	1003.88
478.783	1010.88
479.002	1026.88
479.22	1034.88
479.439	1022.88
479.658	1044.88
479.876	992.88
480.095	911.88
480.313	928.88
480.532	894.88
480.751	894.88
480.969	837.88
481.188	808.88
481.406	784.88
481.624	805.88
481.843	798.88
482.061	821.88
482.28	899.88
482.498	898.88
482.717	887.88
482.935	892.88
483.153	1005.88
483.372	1022.88
483.59	1036.88
483.808	993.88
484.027	941.88
484.245	1013.88
484.463	1226.88
484.681	1280.88
484.9	1042.88
485.118	965.88
485.336	941.88
485.554	912.88
485.772	912.88
485.99	899.88
486.209	937.88
486.427	919.88
486.645	968.88
486.863	1022.88
487.081	1067.88
487.299	1067.88
487.517	1028.88
487.735	1124.88
487.953	1218.88
488.171	1191.88
488.389	1147.88
488.607	1095.88
488.825	1174.88
489.043	1098.88
489.261	994.88
489.479	1067.88
489.696	1053.88
489.914	1079.88
490.132	1067.88
490.35	1124.88
490.568	1165.88
490.786	1214.88
491.003	1199.88
491.221	1251.88
491.439	1276.88
491.657	1335.88
491.874	1357.88
492.092	1417.88
492.31	1538.88
492.527	1454.88
492.745	1375.88
492.963	1341.88
493.18	1327.88
493.398	1308.88
493.615	1356.88
493.833	1314.88
494.05	1224.88
494.268	1263.88
494.485	1240.88
494.703	1257.88
494.92	1260.88
495.138	1214.88
495.355	1245.88
495.573	1291.88
495.79	1300.88
496.008	1296.88
496.225	1243.88
496.442	1228.88
496.66	1252.88
496.877	1225.88
497.094	1270.88
497.312	1254.88
497.529	1215.88
497.746	1214.88
497.963	1305.88
498.181	1299.88
498.398	1230.88
498.615	1242.88
498.832	1198.88
499.049	1171.88
499.267	1210.88
499.484	1283.88
499.701	1373.88
499.918	1397.88
500.135	1470.88
500.352	1576.88
500.569	1592.88
500.786	1757.88
501.003	1573.88
501.22	1488.88
501.437	1439.88
501.654	1428.88
501.871	1368.88
502.088	1228.88
502.305	1190.88
502.522	1152.88
502.739	1128.88
502.956	1096.88
503.172	1063.88
503.389	1038.88
503.606	986.88
503.823	1014.88
504.04	1037.88
504.256	1029.88
504.473	1043.88
504.69	1046.88
504.907	1008.88
505.123	983.88
505.34	1094.88
505.557	1400.88
505.773	1145.88
505.99	972.88
506.207	900.88
506.423	901.88
506.64	871.88
506.856	898.88
507.073	1030.88
507.289	1116.88
507.506	1012.88
507.722	880.88
507.939	890.88
508.155	864.88
508.372	866.88
508.588	868.88
508.805	802.88
509.021	790.88
509.238	789.88
509.454	774.88
509.67	776.88
509.887	738.88
510.103	732.88
510.319	762.88
510.536	790.88
510.752	788.88
510.968	784.88
511.184	805.88
511.401	770.88
511.617	729.88
511.833	707.88
512.049	719.88
512.265	729.88
512.481	706.88
512.698	755.88
512.914	769.88
513.13	741.88
513.346	717.88
513.562	712.88
513.778	745.88
513.994	769.88
514.21	775.88
514.426	773.88
514.642	824.88
514.858	791.88
515.074	727.88
515.29	755.88
515.506	747.88
515.721	764.88
515.937	791.88
516.153	812.88
516.369	778.88
516.585	731.88
516.801	728.88
517.016	747.88
517.232	762.88
517.448	798.88
517.664	799.88
517.879	788.88
518.095	818.88
518.311	789.88
518.527	800.88
518.742	739.88
518.958	746.88
519.173	778.88
519.389	796.88
519.605	802.88
519.82	799.88
520.036	818.88
520.251	769.88
520.467	791.88
520.682	834.88
520.898	806.88
521.113	727.88
521.329	734.88
521.544	763.88
521.76	740.88
521.975	724.88
522.19	723.88
522.406	750.88
522.621	947.88
522.836	886.88
523.052	750.88
523.267	795.88
523.482	774.88
523.698	742.88
523.913	754.88
524.128	774.88
524.343	811.88
524.559	814.88
524.774	813.88
524.989	803.88
525.204	791.88
525.419	747.88
525.634	750.88
525.849	745.88
526.064	724.88
526.28	719.88
526.495	665.88
526.71	668.88
526.925	656.88
527.14	667.88
527.355	612.88
527.57	632.88
527.785	660.88
527.999	645.88
528.214	714.88
528.429	723.88
528.644	736.88
528.859	815.88
529.074	816.88
529.289	874.88
529.503	855.88
529.718	834.88
529.933	736.88
530.148	668.88
530.363	659.88
530.577	669.88
530.792	639.88
531.007	611.88
531.221	642.88
531.436	636.88
531.651	639.88
531.865	666.88
532.08	654.88
532.295	642.88
532.509	622.88
532.724	625.88
532.938	650.88
533.153	709.88
533.367	735.88
533.582	783.88
533.796	736.88
534.011	698.88
534.225	661.88
534.44	632.88
534.654	637.88
534.868	658.88
535.083	691.88
535.297	708.88
535.511	684.88
535.726	682.88
535.94	677.88
536.154	666.88
536.369	630.88
536.583	629.88
536.797	616.88
537.011	626.88
537.225	594.88
537.44	609.88
537.654	634.88
537.868	642.88
538.082	616.88
538.296	608.88
538.51	644.88
538.724	660.88
538.938	724.88
539.153	763.88
539.367	712.88
539.581	710.88
539.795	693.88
540.009	675.88
540.222	638.88
540.436	679.88
540.65	761.88
540.864	798.88
541.078	832.88
541.292	842.88
541.506	892.88
541.72	985.88
541.934	1060.88
542.147	1078.88
542.361	1033.88
542.575	912.88
542.789	860.88
543.002	762.88
543.216	719.88
543.43	757.88
543.644	813.88
543.857	887.88
544.071	929.88
544.285	939.88
544.498	948.88
544.712	948.88
544.925	961.88
545.139	970.88
545.352	952.88
545.566	947.88
545.779	963.88
545.993	946.88
546.206	964.88
546.42	947.88
546.633	968.88
546.847	957.88
547.06	981.88
547.274	971.88
547.487	996.88
547.7	1017.88
547.914	988.88
548.127	972.88
548.34	990.88
548.554	926.88
548.767	950.88
548.98	959.88
549.193	919.88
549.407	965.88
549.62	948.88
549.833	931.88
550.046	944.88
550.259	904.88
550.473	891.88
550.686	898.88
550.899	876.88
551.112	855.88
551.325	849.88
551.538	862.88
551.751	887.88
551.964	747.88
552.177	767.88
552.39	799.88
552.603	831.88
552.816	868.88
553.029	920.88
553.242	930.88
553.455	928.88
553.667	905.88
553.88	901.88
554.093	882.88
554.306	864.88
554.519	871.88
554.732	860.88
554.944	849.88
555.157	847.88
555.37	812.88
555.583	834.88
555.795	806.88
556.008	750.88
556.221	713.88
556.433	706.88
556.646	733.88
556.859	756.88
557.071	737.88
557.284	761.88
557.496	767.88
557.709	755.88
557.921	730.88
558.134	746.88
558.346	743.88
558.559	742.88
558.771	716.88
558.984	707.88
559.196	686.88
559.409	686.88
559.621	695.88
559.833	687.88
560.046	702.88
560.258	668.88
560.47	714.88
560.683	682.88
560.895	699.88
561.107	679.88
561.32	685.88
561.532	687.88
561.744	672.88
561.956	693.88
562.168	684.88
562.381	638.88
562.593	646.88
562.805	657.88
563.017	633.88
563.229	648.88
563.441	687.88
563.653	642.88
563.865	623.88
564.077	628.88
564.289	630.88
564.501	628.88
564.713	654.88
564.925	662.88
565.137	672.88
565.349	631.88
565.561	631.88
565.773	633.88
565.985	619.88
566.197	665.88
566.408	698.88
566.62	677.88
566.832	694.88
567.044	692.88
567.255	661.88
567.467	677.88
567.679	652.88
567.891	666.88
568.102	628.88
568.314	593.88
568.526	546.88
568.737	503.88
568.949	500.88
569.161	471.88
569.372	462.88
569.584	471.88
569.795	449.88
570.007	433.88
570.218	440.88
570.43	444.88
570.641	461.88
570.853	475.88
571.064	475.88
571.276	490.88
571.487	480.88
571.698	471.88
571.91	471.88
572.121	463.88
572.333	451.88
572.544	437.88
572.755	426.88
572.966	398.88
573.178	399.88
573.389	392.88
573.6	407.88
573.811	433.88
574.023	422.88
574.234	396.88
574.445	398.88
574.656	404.88
574.867	396.88
575.078	414.88
575.289	404.88
575.501	385.88
575.712	375.88
575.923	388.88
576.134	416.88
576.345	409.88
576.556	419.88
576.767	418.88
576.978	414.88
577.188	379.88
577.399	388.88
577.61	367.88
577.821	371.88
578.032	378.88
578.243	386.88
578.454	385.88
578.665	360.88
578.875	378.88
579.086	355.88
579.297	352.88
579.508	383.88
579.718	349.88
579.929	354.88
580.14	360.88
580.35	347.88
580.561	360.88
580.772	387.88
580.982	372.88
581.193	381.88
581.403	359.88
581.614	344.88
581.825	340.88
582.035	358.88
582.246	353.88
582.456	357.88
582.667	365.88
582.877	334.88
583.087	344.88
583.298	344.88
583.508	355.88
583.719	327.88
583.929	341.88
584.139	327.88
584.35	322.88
584.56	330.88
584.77	340.88
584.981	332.88
585.191	361.88
585.401	351.88
585.611	317.88
585.821	351.88
586.032	334.88
586.242	324.88
586.452	310.88
586.662	343.88
586.872	313.88
587.082	312.88
587.292	319.88
587.502	336.88
587.713	325.88
587.923	322.88
588.133	315.88
588.343	323.88
588.553	298.88
588.762	306.88
588.972	326.88
589.182	320.88
589.392	314.88
589.602	334.88
589.812	320.88
590.022	328.88
590.232	309.88
590.441	312.88
590.651	329.88
590.861	308.88
591.071	318.88
591.281	304.88
591.49	312.88
591.7	289.88
591.91	309.88
592.119	317.88
592.329	319.88
592.539	333.88
592.748	332.88
592.958	335.88
593.167	340.88
593.377	327.88
593.587	322.88
593.796	345.88
594.006	330.88
594.215	329.88
594.424	340.88
594.634	327.88
594.843	338.88
595.053	358.88
595.262	347.88
595.472	328.88
595.681	323.88
595.89	320.88
596.1	296.88
596.309	328.88
596.518	336.88
596.727	341.88
596.937	339.88
597.146	325.88
597.355	315.88
597.564	316.88
597.774	311.88
597.983	297.88
598.192	282.88
598.401	298.88
598.61	279.88
598.819	289.88
599.028	298.88
599.237	302.88
599.446	303.88
599.655	296.88
599.864	301.88
600.073	296.88
600.282	308.88
600.491	292.88
600.7	291.88
600.909	315.88
601.118	316.88
601.327	340.88
601.536	351.88
601.745	365.88
601.953	363.88
602.162	375.88
602.371	380.88
602.58	372.88
602.789	363.88
602.997	342.88
603.206	360.88
603.415	368.88
603.623	345.88
603.832	344.88
604.041	352.88
604.249	343.88
604.458	327.88
604.666	318.88
604.875	297.88
605.084	327.88
605.292	345.88
605.501	355.88
605.709	368.88
605.918	366.88
606.126	358.88
606.334	361.88
606.543	362.88
606.751	364.88
606.96	377.88
607.168	347.88
607.376	384.88
607.585	359.88
607.793	358.88
608.001	351.88
608.21	367.88
608.418	385.88
608.626	372.88
608.834	362.88
609.043	372.88
609.251	381.88
609.459	371.88
609.667	373.88
609.875	356.88
610.083	386.88
610.291	380.88
610.499	368.88
610.707	363.88
610.916	348.88
611.124	373.88
611.332	361.88
611.54	365.88
611.748	365.88
611.955	352.88
612.163	381.88
612.371	362.88
612.579	384.88
612.787	374.88
612.995	376.88
613.203	367.88
613.411	358.88
613.618	380.88
613.826	360.88
614.034	359.88
614.242	359.88
614.449	361.88
614.657	375.88
614.865	386.88
615.072	382.88
615.28	357.88
615.488	365.88
615.695	356.88
615.903	357.88
616.111	349.88
616.318	395.88
616.526	370.88
616.733	372.88
616.941	355.88
617.148	365.88
617.356	352.88
617.563	347.88
617.771	349.88
617.978	332.88
618.185	352.88
618.393	359.88
618.6	389.88
618.807	364.88
619.015	359.88
619.222	351.88
619.429	350.88
619.637	336.88
619.844	321.88
620.051	309.88
620.258	325.88
620.466	324.88
620.673	325.88
620.88	334.88
621.087	336.88
621.294	315.88
621.501	299.88
621.708	293.88
621.915	345.88
622.122	333.88
622.329	323.88
622.536	325.88
622.743	340.88
622.95	340.88
623.157	309.88
623.364	317.88
623.571	345.88
623.778	340.88
623.985	326.88
624.192	326.88
624.399	332.88
624.606	319.88
624.812	304.88
625.019	316.88
625.226	312.88
625.433	291.88
625.639	274.88
625.846	296.88
626.053	265.88
626.259	253.88
626.466	254.88
626.673	245.88
626.879	247.88
627.086	263.88
627.293	259.88
627.499	264.88
627.706	300.88
627.912	307.88
628.119	310.88
628.325	311.88
628.532	305.88
628.738	298.88
628.945	298.88
629.151	278.88
629.357	299.88
629.564	271.88
629.77	286.88
629.976	277.88
630.183	264.88
630.389	277.88
630.595	276.88
630.802	310.88
631.008	277.88
631.214	273.88
631.42	296.88
631.627	265.88
631.833	250.88
632.039	247.88
632.245	261.88
632.451	270.88
632.657	286.88
632.863	269.88
633.069	264.88
633.275	283.88
633.481	254.88
633.688	254.88
633.893	254.88
634.099	257.88
634.305	270.88
634.511	270.88
634.717	247.88
634.923	233.88
635.129	225.88
635.335	250.88
635.541	233.88
635.747	247.88
635.952	258.88
636.158	262.88
636.364	270.88
636.57	271.88
636.775	271.88
636.981	268.88
637.187	253.88
637.392	276.88
637.598	280.88
637.804	280.88
638.009	278.88
638.215	254.88
638.421	263.88
638.626	251.88
638.832	277.88
639.037	253.88
639.243	247.88
639.448	255.88
639.654	260.88
639.859	244.88
640.065	261.88
640.27	243.88
640.475	255.88
640.681	250.88
640.886	263.88
641.091	248.88
641.297	247.88
641.502	247.88
641.707	242.88
641.913	247.88
642.118	252.88
642.323	247.88
642.528	244.88
642.733	255.88
642.939	247.88
643.144	223.88
643.349	254.88
643.554	253.88
643.759	262.88
643.964	263.88
644.169	256.88
644.374	252.88
644.579	228.88
644.784	258.88
644.989	240.88
645.194	242.88
645.399	252.88
645.604	267.88
645.809	248.88
646.014	246.88
646.219	245.88
646.423	255.88
646.628	235.88
646.833	247.88
647.038	245.88
647.243	246.88
647.447	272.88
647.652	267.88
647.857	239.88
648.062	244.88
648.266	225.88
648.471	244.88
648.676	226.88
648.88	245.88
649.085	247.88
649.289	245.88
649.494	243.88
649.698	235.88
649.903	245.88
650.107	247.88
650.312	251.88
650.516	231.88
650.721	246.88
650.925	232.88
651.13	226.88
651.334	230.88
651.539	235.88
651.743	226.88
651.947	226.88
652.152	235.88
652.356	223.88
652.56	211.88
652.764	218.88
652.969	225.88
653.173	213.88
653.377	211.88
653.581	201.88
653.785	227.88
653.99	214.88
654.194	226.88
654.398	222.88
654.602	204.88
654.806	225.88
655.01	221.88
655.214	204.88
655.418	214.88
655.622	211.88
655.826	212.88
656.03	214.88
656.234	211.88
656.438	240.88
656.642	221.88
656.846	238.88
657.049	213.88
657.253	193.88
657.457	182.88
657.661	193.88
657.865	183.88
658.068	177.88
658.272	170.88
658.476	174.88
658.68	150.88
658.883	147.88
659.087	133.88
659.291	154.88
659.494	130.88
659.698	151.88
659.901	134.88
660.105	126.88
660.309	123.88
660.512	125.88
660.716	134.88
660.919	115.88
661.123	109.88
661.326	101.88
661.53	114.88
661.733	108.88
661.936	100.88
662.14	109.88
662.343	105.88
662.546	109.88
662.75	118.88
662.953	103.88
663.156	99.88
663.36	101.88
663.563	82.88
663.766	93.88
663.969	98.88
664.173	81.88
664.376	84.88
664.579	103.88
664.782	90.88
664.985	100.88
665.188	97.88
665.391	87.88
665.594	81.88
665.797	89.88
666	83.88
666.203	92.88
666.406	92.88
666.609	80.88
666.812	85.88
667.015	94.88
667.218	86.88
667.421	79.88
667.624	95.88
667.827	85.88
668.03	80.88
668.232	93.88
668.435	75.88
668.638	76.88
668.841	94.88
669.043	72.88
669.246	83.88
669.449	72.88
669.651	82.88
669.854	82.88
670.057	85.88
670.259	85.88
670.462	90.88
670.665	88.88
670.867	93.88
671.07	96.88
671.272	80.88
671.475	92.88
671.677	90.88
671.88	86.88
672.082	80.88
672.284	98.88
672.487	86.88
672.689	89.88
672.892	82.88
