Data from WStandard_LampEnergy8_LIBS07252019.E.O._I.C._HRD10591_15-58-35-929.txt Node
Date: Thu Jul 25 15:58:35 EDT 2019
User: cochatt
Spectrometer: HR+D1059
Trigger mode: 1
Integration Time (sec): 1.000000E-1
Scans to average: 1
Electric dark correction enabled: true
Nonlinearity correction enabled: false
Boxcar width: 0
XAxis mode: Wavelengths
Number of Pixels in Spectrum: 2048
>>>>>Begin Spectral Data<<<<<
223.165	-15.5
223.4	-15.5
223.635	-15.5
223.869	-17.5
224.104	-27.5
224.338	-13.5
224.573	-21.5
224.808	-9.5
225.042	-16.5
225.277	2.5
225.511	7.5
225.746	2.5
225.98	1.5
226.215	4.5
226.449	14.5
226.683	31.5
226.918	17.5
227.152	39.5
227.387	40.5
227.621	29.5
227.856	37.5
228.09	39.5
228.324	43.5
228.559	42.5
228.793	86.5
229.027	186.5
229.262	193.5
229.496	224.5
229.73	211.5
229.964	244.5
230.199	241.5
230.433	250.5
230.667	280.5
230.901	284.5
231.136	268.5
231.37	276.5
231.604	225.5
231.838	267.5
232.072	251.5
232.306	262.5
232.541	263.5
232.775	311.5
233.009	324.5
233.243	334.5
233.477	279.5
233.711	290.5
233.945	298.5
234.179	310.5
234.413	334.5
234.647	317.5
234.881	304.5
235.115	279.5
235.349	314.5
235.583	305.5
235.817	296.5
236.051	284.5
236.285	293.5
236.519	308.5
236.753	350.5
236.987	348.5
237.221	338.5
237.455	377.5
237.689	359.5
237.922	361.5
238.156	348.5
238.39	320.5
238.624	371.5
238.858	362.5
239.091	384.5
239.325	422.5
239.559	456.5
239.793	474.5
240.027	505.5
240.26	506.5
240.494	379.5
240.728	360.5
240.961	388.5
241.195	394.5
241.429	421.5
241.662	407.5
241.896	387.5
242.13	390.5
242.363	435.5
242.597	444.5
242.83	446.5
243.064	471.5
243.298	443.5
243.531	452.5
243.765	456.5
243.998	461.5
244.232	410.5
244.465	398.5
244.699	411.5
244.932	454.5
245.166	495.5
245.399	490.5
245.633	472.5
245.866	444.5
246.099	469.5
246.333	473.5
246.566	478.5
246.8	520.5
247.033	578.5
247.266	536.5
247.5	514.5
247.733	530.5
247.966	564.5
248.2	609.5
248.433	562.5
248.666	612.5
248.899	677.5
249.133	724.5
249.366	804.5
249.599	666.5
249.832	601.5
250.066	622.5
250.299	604.5
250.532	575.5
250.765	515.5
250.998	575.5
251.231	589.5
251.465	606.5
251.698	575.5
251.931	576.5
252.164	595.5
252.397	606.5
252.63	590.5
252.863	557.5
253.096	536.5
253.329	551.5
253.562	580.5
253.795	631.5
254.028	585.5
254.261	572.5
254.494	577.5
254.727	551.5
254.96	587.5
255.193	605.5
255.426	692.5
255.659	770.5
255.892	779.5
256.124	666.5
256.357	661.5
256.59	699.5
256.823	694.5
257.056	713.5
257.289	849.5
257.521	892.5
257.754	800.5
257.987	748.5
258.22	836.5
258.452	794.5
258.685	659.5
258.918	642.5
259.151	679.5
259.383	617.5
259.616	590.5
259.849	612.5
260.081	685.5
260.314	742.5
260.547	829.5
260.779	825.5
261.012	752.5
261.244	679.5
261.477	666.5
261.71	694.5
261.942	675.5
262.175	668.5
262.407	719.5
262.64	666.5
262.872	662.5
263.105	614.5
263.337	617.5
263.57	625.5
263.802	640.5
264.035	585.5
264.267	567.5
264.499	566.5
264.732	607.5
264.964	638.5
265.197	672.5
265.429	724.5
265.661	795.5
265.894	829.5
266.126	855.5
266.358	772.5
266.591	825.5
266.823	850.5
267.055	807.5
267.287	778.5
267.52	737.5
267.752	751.5
267.984	774.5
268.216	794.5
268.448	808.5
268.681	789.5
268.913	733.5
269.145	696.5
269.377	678.5
269.609	768.5
269.841	881.5
270.073	992.5
270.306	1090.5
270.538	1095.5
270.77	938.5
271.002	826.5
271.234	809.5
271.466	814.5
271.698	902.5
271.93	1054.5
272.162	1071.5
272.394	966.5
272.626	892.5
272.858	797.5
273.09	711.5
273.322	688.5
273.553	669.5
273.785	679.5
274.017	704.5
274.249	791.5
274.481	754.5
274.713	689.5
274.945	700.5
275.176	697.5
275.408	666.5
275.64	666.5
275.872	680.5
276.104	740.5
276.335	825.5
276.567	900.5
276.799	900.5
277.031	857.5
277.262	771.5
277.494	812.5
277.726	898.5
277.957	876.5
278.189	810.5
278.421	758.5
278.652	740.5
278.884	748.5
279.115	726.5
279.347	737.5
279.579	723.5
279.81	736.5
280.042	820.5
280.273	866.5
280.505	877.5
280.736	872.5
280.968	823.5
281.199	733.5
281.431	708.5
281.662	712.5
281.894	737.5
282.125	738.5
282.356	742.5
282.588	744.5
282.819	762.5
283.051	838.5
283.282	868.5
283.513	841.5
283.745	748.5
283.976	739.5
284.207	737.5
284.439	724.5
284.67	752.5
284.901	746.5
285.132	768.5
285.364	761.5
285.595	770.5
285.826	737.5
286.057	772.5
286.288	772.5
286.52	785.5
286.751	816.5
286.982	838.5
287.213	798.5
287.444	745.5
287.675	717.5
287.906	781.5
288.138	813.5
288.369	797.5
288.6	762.5
288.831	713.5
289.062	738.5
289.293	746.5
289.524	790.5
289.755	788.5
289.986	785.5
290.217	717.5
290.448	720.5
290.679	761.5
290.91	778.5
291.141	821.5
291.371	817.5
291.602	804.5
291.833	806.5
292.064	801.5
292.295	830.5
292.526	858.5
292.757	886.5
292.987	818.5
293.218	810.5
293.449	860.5
293.68	973.5
293.91	1014.5
294.141	964.5
294.372	907.5
294.603	953.5
294.833	956.5
295.064	896.5
295.295	854.5
295.525	823.5
295.756	743.5
295.987	701.5
296.217	755.5
296.448	787.5
296.679	770.5
296.909	757.5
297.14	731.5
297.37	796.5
297.601	850.5
297.831	887.5
298.062	872.5
298.292	812.5
298.523	782.5
298.753	783.5
298.984	826.5
299.214	802.5
299.445	804.5
299.675	836.5
299.905	833.5
300.136	812.5
300.366	790.5
300.597	771.5
300.827	758.5
301.057	816.5
301.288	841.5
301.518	848.5
301.748	874.5
301.979	901.5
302.209	907.5
302.439	974.5
302.669	990.5
302.9	929.5
303.13	854.5
303.36	850.5
303.59	838.5
303.82	846.5
304.051	860.5
304.281	842.5
304.511	879.5
304.741	916.5
304.971	1031.5
305.201	1085.5
305.431	977.5
305.661	799.5
305.891	771.5
306.121	760.5
306.352	823.5
306.582	865.5
306.812	891.5
307.042	940.5
307.272	985.5
307.502	999.5
307.731	1024.5
307.961	1100.5
308.191	994.5
308.421	885.5
308.651	812.5
308.881	800.5
309.111	810.5
309.341	816.5
309.571	831.5
309.8	854.5
310.03	813.5
310.26	814.5
310.49	821.5
310.72	829.5
310.949	888.5
311.179	871.5
311.409	873.5
311.639	824.5
311.868	845.5
312.098	860.5
312.328	839.5
312.557	835.5
312.787	824.5
313.017	871.5
313.246	872.5
313.476	884.5
313.706	881.5
313.935	891.5
314.165	873.5
314.394	920.5
314.624	961.5
314.853	1012.5
315.083	1054.5
315.312	1035.5
315.542	972.5
315.771	884.5
316.001	894.5
316.23	959.5
316.46	930.5
316.689	898.5
316.919	877.5
317.148	868.5
317.377	882.5
317.607	967.5
317.836	1031.5
318.065	1073.5
318.295	1027.5
318.524	989.5
318.753	944.5
318.983	901.5
319.212	908.5
319.441	901.5
319.67	906.5
319.9	944.5
320.129	1018.5
320.358	1044.5
320.587	1027.5
320.816	993.5
321.046	1008.5
321.275	950.5
321.504	992.5
321.733	1037.5
321.962	969.5
322.191	941.5
322.42	912.5
322.649	927.5
322.878	922.5
323.108	932.5
323.337	962.5
323.566	968.5
323.795	934.5
324.024	953.5
324.253	931.5
324.482	935.5
324.71	885.5
324.939	848.5
325.168	876.5
325.397	904.5
325.626	936.5
325.855	952.5
326.084	929.5
326.313	907.5
326.542	936.5
326.77	971.5
326.999	947.5
327.228	920.5
327.457	875.5
327.686	890.5
327.914	910.5
328.143	919.5
328.372	878.5
328.6	924.5
328.829	908.5
329.058	917.5
329.287	899.5
329.515	949.5
329.744	940.5
329.972	986.5
330.201	1045.5
330.43	984.5
330.658	967.5
330.887	984.5
331.115	1026.5
331.344	979.5
331.572	975.5
331.801	974.5
332.03	950.5
332.258	978.5
332.486	1005.5
332.715	987.5
332.943	1004.5
333.172	968.5
333.4	972.5
333.629	1037.5
333.857	1128.5
334.085	1247.5
334.314	1358.5
334.542	1418.5
334.771	1283.5
334.999	1145.5
335.227	1105.5
335.455	1055.5
335.684	1038.5
335.912	1077.5
336.14	1085.5
336.369	1049.5
336.597	986.5
336.825	1007.5
337.053	1010.5
337.281	1116.5
337.51	1168.5
337.738	1154.5
337.966	1102.5
338.194	1004.5
338.422	994.5
338.65	999.5
338.878	953.5
339.106	969.5
339.334	915.5
339.562	924.5
339.79	952.5
340.018	1018.5
340.246	1053.5
340.474	1033.5
340.702	1031.5
340.93	1041.5
341.158	980.5
341.386	1008.5
341.614	983.5
341.842	980.5
342.07	961.5
342.298	978.5
342.526	983.5
342.754	970.5
342.981	959.5
343.209	954.5
343.437	937.5
343.665	954.5
343.893	998.5
344.12	1068.5
344.348	1025.5
344.576	1005.5
344.804	965.5
345.031	984.5
345.259	971.5
345.487	937.5
345.714	909.5
345.942	880.5
346.17	933.5
346.397	939.5
346.625	913.5
346.853	890.5
347.08	883.5
347.308	905.5
347.535	901.5
347.763	970.5
347.99	906.5
348.218	900.5
348.445	921.5
348.673	908.5
348.9	947.5
349.128	982.5
349.355	1020.5
349.583	940.5
349.81	927.5
350.037	879.5
350.265	869.5
350.492	876.5
350.72	896.5
350.947	921.5
351.174	942.5
351.402	875.5
351.629	881.5
351.856	840.5
352.083	868.5
352.311	838.5
352.538	865.5
352.765	944.5
352.992	932.5
353.22	884.5
353.447	908.5
353.674	920.5
353.901	909.5
354.128	879.5
354.355	889.5
354.583	912.5
354.81	970.5
355.037	942.5
355.264	905.5
355.491	912.5
355.718	928.5
355.945	938.5
356.172	902.5
356.399	899.5
356.626	892.5
356.853	924.5
357.08	1033.5
357.307	1095.5
357.534	1060.5
357.761	942.5
357.988	892.5
358.215	872.5
358.441	871.5
358.668	871.5
358.895	893.5
359.122	949.5
359.349	1045.5
359.576	1006.5
359.802	898.5
360.029	892.5
360.256	895.5
360.483	910.5
360.709	919.5
360.936	950.5
361.163	1004.5
361.39	1102.5
361.616	1181.5
361.843	1122.5
362.07	1033.5
362.296	887.5
362.523	891.5
362.749	880.5
362.976	951.5
363.203	946.5
363.429	918.5
363.656	881.5
363.882	945.5
364.109	1066.5
364.335	1088.5
364.562	1008.5
364.788	970.5
365.015	907.5
365.241	902.5
365.468	928.5
365.694	954.5
365.92	959.5
366.147	936.5
366.373	927.5
366.599	902.5
366.826	896.5
367.052	908.5
367.278	910.5
367.505	918.5
367.731	942.5
367.957	961.5
368.184	993.5
368.41	1054.5
368.636	1073.5
368.862	1058.5
369.089	1039.5
369.315	993.5
369.541	963.5
369.767	936.5
369.993	882.5
370.219	916.5
370.445	959.5
370.672	978.5
370.898	1068.5
371.124	993.5
371.35	968.5
371.576	977.5
371.802	1061.5
372.028	1011.5
372.254	938.5
372.48	920.5
372.706	921.5
372.932	940.5
373.158	927.5
373.384	960.5
373.61	966.5
373.835	1004.5
374.061	992.5
374.287	978.5
374.513	947.5
374.739	979.5
374.965	1002.5
375.191	990.5
375.416	1001.5
375.642	1006.5
375.868	1085.5
376.094	1122.5
376.319	1027.5
376.545	966.5
376.771	1024.5
376.997	1061.5
377.222	1033.5
377.448	1004.5
377.674	1017.5
377.899	1034.5
378.125	1109.5
378.35	1087.5
378.576	978.5
378.802	928.5
379.027	914.5
379.253	947.5
379.478	977.5
379.704	949.5
379.929	966.5
380.155	985.5
380.38	986.5
380.606	986.5
380.831	997.5
381.057	1061.5
381.282	1054.5
381.507	1025.5
381.733	1078.5
381.958	1154.5
382.184	1048.5
382.409	1021.5
382.634	1030.5
382.86	1028.5
383.085	1015.5
383.31	1072.5
383.535	1168.5
383.761	1189.5
383.986	1123.5
384.211	1102.5
384.436	1094.5
384.662	1152.5
384.887	1166.5
385.112	1123.5
385.337	1140.5
385.562	1129.5
385.787	1114.5
386.013	1160.5
386.238	1137.5
386.463	1162.5
386.688	1233.5
386.913	1261.5
387.138	1237.5
387.363	1163.5
387.588	1136.5
387.813	1143.5
388.038	1209.5
388.263	1176.5
388.488	1118.5
388.713	1058.5
388.938	1051.5
389.163	1085.5
389.387	1120.5
389.612	1104.5
389.837	1101.5
390.062	1134.5
390.287	1102.5
390.512	1128.5
390.736	1082.5
390.961	1085.5
391.186	1052.5
391.411	1093.5
391.636	1120.5
391.86	1136.5
392.085	1113.5
392.31	1102.5
392.534	1113.5
392.759	1163.5
392.984	1152.5
393.208	1106.5
393.433	1144.5
393.658	1200.5
393.882	1206.5
394.107	1188.5
394.331	1154.5
394.556	1124.5
394.78	1160.5
395.005	1184.5
395.229	1218.5
395.454	1291.5
395.678	1329.5
395.903	1252.5
396.127	1198.5
396.352	1190.5
396.576	1191.5
396.801	1257.5
397.025	1236.5
397.249	1222.5
397.474	1196.5
397.698	1220.5
397.922	1270.5
398.147	1334.5
398.371	1353.5
398.595	1345.5
398.82	1250.5
399.044	1299.5
399.268	1377.5
399.492	1458.5
399.717	1438.5
399.941	1496.5
400.165	1455.5
400.389	1423.5
400.613	1442.5
400.837	1617.5
401.062	1790.5
401.286	1505.5
401.51	1424.5
401.734	1422.5
401.958	1405.5
402.182	1335.5
402.406	1304.5
402.63	1298.5
402.854	1242.5
403.078	1286.5
403.302	1326.5
403.526	1294.5
403.75	1336.5
403.974	1337.5
404.198	1347.5
404.422	1426.5
404.645	1466.5
404.869	1429.5
405.093	1285.5
405.317	1308.5
405.541	1322.5
405.765	1325.5
405.988	1349.5
406.212	1354.5
406.436	1368.5
406.66	1430.5
406.883	1455.5
407.107	1648.5
407.331	1794.5
407.555	1908.5
407.778	1668.5
408.002	1437.5
408.226	1398.5
408.449	1410.5
408.673	1362.5
408.896	1358.5
409.12	1382.5
409.344	1357.5
409.567	1306.5
409.791	1336.5
410.014	1343.5
410.238	1469.5
410.461	1518.5
410.685	1357.5
410.908	1356.5
411.132	1320.5
411.355	1327.5
411.578	1304.5
411.802	1337.5
412.025	1390.5
412.249	1305.5
412.472	1278.5
412.695	1290.5
412.919	1312.5
413.142	1280.5
413.365	1306.5
413.589	1361.5
413.812	1409.5
414.035	1383.5
414.258	1309.5
414.482	1329.5
414.705	1332.5
414.928	1322.5
415.151	1260.5
415.374	1284.5
415.597	1321.5
415.821	1357.5
416.044	1314.5
416.267	1334.5
416.49	1239.5
416.713	1252.5
416.936	1314.5
417.159	1365.5
417.382	1336.5
417.605	1273.5
417.828	1317.5
418.051	1285.5
418.274	1288.5
418.497	1278.5
418.72	1275.5
418.943	1255.5
419.166	1293.5
419.389	1349.5
419.611	1326.5
419.834	1276.5
420.057	1291.5
420.28	1290.5
420.503	1291.5
420.726	1333.5
420.948	1279.5
421.171	1240.5
421.394	1260.5
421.617	1313.5
421.839	1316.5
422.062	1338.5
422.285	1281.5
422.507	1278.5
422.73	1217.5
422.953	1188.5
423.175	1229.5
423.398	1248.5
423.621	1249.5
423.843	1271.5
424.066	1285.5
424.288	1364.5
424.511	1377.5
424.733	1337.5
424.956	1257.5
425.178	1238.5
425.401	1238.5
425.623	1246.5
425.846	1255.5
426.068	1318.5
426.291	1301.5
426.513	1342.5
426.735	1341.5
426.958	1447.5
427.18	1450.5
427.402	1394.5
427.625	1415.5
427.847	1358.5
428.069	1288.5
428.292	1244.5
428.514	1223.5
428.736	1209.5
428.958	1233.5
429.181	1268.5
429.403	1463.5
429.625	1720.5
429.847	1470.5
430.069	1285.5
430.292	1420.5
430.514	1426.5
430.736	1336.5
430.958	1352.5
431.18	1297.5
431.402	1214.5
431.624	1185.5
431.846	1171.5
432.068	1118.5
432.29	1144.5
432.512	1159.5
432.734	1231.5
432.956	1262.5
433.178	1297.5
433.4	1321.5
433.622	1313.5
433.844	1242.5
434.066	1183.5
434.287	1157.5
434.509	1216.5
434.731	1228.5
434.953	1362.5
435.175	1344.5
435.397	1267.5
435.618	1278.5
435.84	1236.5
436.062	1214.5
436.284	1250.5
436.505	1279.5
436.727	1296.5
436.949	1238.5
437.17	1220.5
437.392	1235.5
437.614	1181.5
437.835	1161.5
438.057	1222.5
438.278	1262.5
438.5	1235.5
438.721	1225.5
438.943	1226.5
439.165	1239.5
439.386	1214.5
439.608	1252.5
439.829	1251.5
440.05	1255.5
440.272	1185.5
440.493	1199.5
440.715	1232.5
440.936	1338.5
441.158	1417.5
441.379	1376.5
441.6	1368.5
441.822	1360.5
442.043	1317.5
442.264	1304.5
442.486	1235.5
442.707	1257.5
442.928	1222.5
443.149	1289.5
443.371	1374.5
443.592	1363.5
443.813	1372.5
444.034	1364.5
444.255	1353.5
444.476	1376.5
444.698	1396.5
444.919	1369.5
445.14	1488.5
445.361	1428.5
445.582	1437.5
445.803	1391.5
446.024	1376.5
446.245	1401.5
446.466	1381.5
446.687	1306.5
446.908	1324.5
447.129	1250.5
447.35	1291.5
447.571	1318.5
447.792	1263.5
448.013	1241.5
448.234	1239.5
448.455	1304.5
448.675	1312.5
448.896	1217.5
449.117	1189.5
449.338	1238.5
449.559	1269.5
449.779	1308.5
450	1418.5
450.221	1449.5
450.442	1390.5
450.662	1277.5
450.883	1183.5
451.104	1162.5
451.324	1169.5
451.545	1193.5
451.766	1184.5
451.986	1164.5
452.207	1146.5
452.428	1109.5
452.648	1071.5
452.869	1102.5
453.089	1112.5
453.31	1148.5
453.53	1172.5
453.751	1084.5
453.971	1046.5
454.192	1086.5
454.412	1140.5
454.633	1141.5
454.853	1104.5
455.073	1026.5
455.294	1034.5
455.514	1039.5
455.734	1067.5
455.955	1094.5
456.175	1048.5
456.395	1064.5
456.616	1056.5
456.836	1082.5
457.056	1086.5
457.276	1056.5
457.497	1038.5
457.717	1000.5
457.937	1045.5
458.157	1037.5
458.377	1010.5
458.598	1027.5
458.818	1040.5
459.038	1090.5
459.258	1096.5
459.478	1126.5
459.698	1102.5
459.918	1124.5
460.138	1225.5
460.358	1224.5
460.578	1225.5
460.798	1252.5
461.018	1328.5
461.238	1282.5
461.458	1253.5
461.678	1252.5
461.898	1190.5
462.118	1208.5
462.338	1225.5
462.558	1247.5
462.777	1251.5
462.997	1304.5
463.217	1350.5
463.437	1320.5
463.657	1277.5
463.876	1238.5
464.096	1245.5
464.316	1272.5
464.536	1300.5
464.755	1272.5
464.975	1304.5
465.195	1285.5
465.414	1299.5
465.634	1309.5
465.854	1292.5
466.073	1366.5
466.293	1315.5
466.512	1200.5
466.732	1209.5
466.951	1249.5
467.171	1214.5
467.391	1193.5
467.61	1182.5
467.829	1243.5
468.049	1350.5
468.268	1456.5
468.488	1320.5
468.707	1248.5
468.927	1225.5
469.146	1188.5
469.365	1204.5
469.585	1210.5
469.804	1198.5
470.023	1249.5
470.243	1232.5
470.462	1228.5
470.681	1215.5
470.901	1209.5
471.12	1230.5
471.339	1224.5
471.558	1177.5
471.777	1194.5
471.997	1185.5
472.216	1178.5
472.435	1102.5
472.654	1119.5
472.873	1160.5
473.092	1217.5
473.311	1179.5
473.53	1148.5
473.749	1136.5
473.968	1160.5
474.187	1208.5
474.406	1197.5
474.625	1199.5
474.844	1196.5
475.063	1197.5
475.282	1212.5
475.501	1180.5
475.72	1190.5
475.939	1265.5
476.158	1248.5
476.377	1216.5
476.596	1180.5
476.814	1213.5
477.033	1212.5
477.252	1254.5
477.471	1297.5
477.69	1235.5
477.908	1229.5
478.127	1351.5
478.346	1399.5
478.564	1384.5
478.783	1404.5
479.002	1424.5
479.22	1385.5
479.439	1453.5
479.658	1587.5
479.876	1495.5
480.095	1365.5
480.313	1328.5
480.532	1268.5
480.751	1297.5
480.969	1280.5
481.188	1255.5
481.406	1237.5
481.624	1225.5
481.843	1236.5
482.061	1269.5
482.28	1322.5
482.498	1289.5
482.717	1312.5
482.935	1286.5
483.153	1367.5
483.372	1342.5
483.59	1344.5
483.808	1330.5
484.027	1321.5
484.245	1444.5
484.463	1735.5
484.681	1892.5
484.9	1437.5
485.118	1359.5
485.336	1342.5
485.554	1354.5
485.772	1358.5
485.99	1342.5
486.209	1353.5
486.427	1353.5
486.645	1385.5
486.863	1393.5
487.081	1468.5
487.299	1443.5
487.517	1446.5
487.735	1416.5
487.953	1483.5
488.171	1488.5
488.389	1442.5
488.607	1440.5
488.825	1607.5
489.043	1541.5
489.261	1385.5
489.479	1486.5
489.696	1512.5
489.914	1475.5
490.132	1417.5
490.35	1440.5
490.568	1553.5
490.786	1555.5
491.003	1429.5
491.221	1533.5
491.439	1594.5
491.657	1573.5
491.874	1586.5
492.092	1646.5
492.31	1681.5
492.527	1637.5
492.745	1592.5
492.963	1578.5
493.18	1581.5
493.398	1695.5
493.615	1715.5
493.833	1578.5
494.05	1552.5
494.268	1525.5
494.485	1576.5
494.703	1540.5
494.92	1532.5
495.138	1518.5
495.355	1581.5
495.573	1616.5
495.79	1675.5
496.008	1700.5
496.225	1583.5
496.442	1601.5
496.66	1622.5
496.877	1580.5
497.094	1625.5
497.312	1618.5
497.529	1565.5
497.746	1634.5
497.963	1833.5
498.181	1987.5
498.398	1869.5
498.615	1829.5
498.832	1752.5
499.049	1710.5
499.267	1746.5
499.484	1900.5
499.701	2030.5
499.918	2030.5
500.135	2171.5
500.352	2303.5
500.569	2371.5
500.786	2497.5
501.003	2269.5
501.22	2061.5
501.437	2049.5
501.654	2036.5
501.871	1938.5
502.088	1748.5
502.305	1740.5
502.522	1690.5
502.739	1576.5
502.956	1530.5
503.172	1557.5
503.389	1523.5
503.606	1463.5
503.823	1460.5
504.04	1486.5
504.256	1495.5
504.473	1473.5
504.69	1517.5
504.907	1416.5
505.123	1374.5
505.34	1530.5
505.557	1978.5
505.773	1636.5
505.99	1398.5
506.207	1332.5
506.423	1286.5
506.64	1280.5
506.856	1335.5
507.073	1467.5
507.289	1574.5
507.506	1497.5
507.722	1260.5
507.939	1218.5
508.155	1208.5
508.372	1217.5
508.588	1184.5
508.805	1144.5
509.021	1141.5
509.238	1128.5
509.454	1154.5
509.67	1141.5
509.887	1113.5
510.103	1121.5
510.319	1141.5
510.536	1196.5
510.752	1197.5
510.968	1220.5
511.184	1275.5
511.401	1226.5
511.617	1108.5
511.833	1080.5
512.049	1075.5
512.265	1104.5
512.481	1090.5
512.698	1136.5
512.914	1180.5
513.13	1150.5
513.346	1093.5
513.562	1108.5
513.778	1121.5
513.994	1174.5
514.21	1199.5
514.426	1193.5
514.642	1273.5
514.858	1216.5
515.074	1167.5
515.29	1084.5
515.506	1145.5
515.721	1121.5
515.937	1185.5
516.153	1305.5
516.369	1236.5
516.585	1182.5
516.801	1142.5
517.016	1148.5
517.232	1164.5
517.448	1216.5
517.664	1200.5
517.879	1232.5
518.095	1248.5
518.311	1199.5
518.527	1183.5
518.742	1149.5
518.958	1121.5
519.173	1133.5
519.389	1170.5
519.605	1138.5
519.82	1174.5
520.036	1183.5
520.251	1132.5
520.467	1159.5
520.682	1234.5
520.898	1223.5
521.113	1140.5
521.329	1082.5
521.544	1194.5
521.76	1149.5
521.975	1084.5
522.19	1059.5
522.406	1124.5
522.621	1396.5
522.836	1283.5
523.052	1077.5
523.267	1102.5
523.482	1092.5
523.698	1081.5
523.913	1033.5
524.128	1056.5
524.343	1138.5
524.559	1140.5
524.774	1066.5
524.989	1089.5
525.204	1071.5
525.419	1012.5
525.634	1046.5
525.849	1062.5
526.064	1073.5
526.28	1079.5
526.495	1016.5
526.71	994.5
526.925	978.5
527.14	956.5
527.355	979.5
527.57	953.5
527.785	1019.5
527.999	967.5
528.214	972.5
528.429	980.5
528.644	1006.5
528.859	1035.5
529.074	1073.5
529.289	1095.5
529.503	1134.5
529.718	1097.5
529.933	1012.5
530.148	956.5
530.363	943.5
530.577	972.5
530.792	966.5
531.007	960.5
531.221	977.5
531.436	983.5
531.651	999.5
531.865	1020.5
532.08	1031.5
532.295	930.5
532.509	902.5
532.724	934.5
532.938	1009.5
533.153	1007.5
533.367	1022.5
533.582	1032.5
533.796	989.5
534.011	993.5
534.225	978.5
534.44	951.5
534.654	930.5
534.868	951.5
535.083	992.5
535.297	1007.5
535.511	985.5
535.726	1004.5
535.94	1014.5
536.154	954.5
536.369	952.5
536.583	910.5
536.797	924.5
537.011	946.5
537.225	913.5
537.44	921.5
537.654	945.5
537.868	925.5
538.082	907.5
538.296	889.5
538.51	935.5
538.724	920.5
538.938	956.5
539.153	984.5
539.367	970.5
539.581	968.5
539.795	973.5
540.009	957.5
540.222	904.5
540.436	952.5
540.65	1059.5
540.864	1089.5
541.078	1058.5
541.292	1009.5
541.506	1069.5
541.72	1086.5
541.934	1110.5
542.147	1204.5
542.361	1138.5
542.575	1053.5
542.789	998.5
543.002	953.5
543.216	941.5
543.43	985.5
543.644	1061.5
543.857	1106.5
544.071	1109.5
544.285	1085.5
544.498	1070.5
544.712	1063.5
544.925	1093.5
545.139	1097.5
545.352	1055.5
545.566	1042.5
545.779	1030.5
545.993	1059.5
546.206	1082.5
546.42	1048.5
546.633	1045.5
546.847	1046.5
547.06	1042.5
547.274	1058.5
547.487	1057.5
547.7	1095.5
547.914	1074.5
548.127	1081.5
548.34	1086.5
548.554	1079.5
548.767	1052.5
548.98	1050.5
549.193	1061.5
549.407	1097.5
549.62	1087.5
549.833	1085.5
550.046	1031.5
550.259	1058.5
550.473	1020.5
550.686	994.5
550.899	998.5
551.112	948.5
551.325	954.5
551.538	1030.5
551.751	1125.5
551.964	892.5
552.177	904.5
552.39	952.5
552.603	985.5
552.816	1000.5
553.029	1048.5
553.242	1040.5
553.455	1038.5
553.667	1004.5
553.88	1020.5
554.093	1005.5
554.306	956.5
554.519	960.5
554.732	936.5
554.944	954.5
555.157	964.5
555.37	967.5
555.583	955.5
555.795	926.5
556.008	890.5
556.221	847.5
556.433	903.5
556.646	862.5
556.859	866.5
557.071	873.5
557.284	885.5
557.496	885.5
557.709	861.5
557.921	825.5
558.134	868.5
558.346	840.5
558.559	853.5
558.771	852.5
558.984	813.5
559.196	801.5
559.409	791.5
559.621	787.5
559.833	790.5
560.046	817.5
560.258	855.5
560.47	816.5
560.683	798.5
560.895	813.5
561.107	803.5
561.32	841.5
561.532	833.5
561.744	821.5
561.956	805.5
562.168	788.5
562.381	767.5
562.593	776.5
562.805	779.5
563.017	741.5
563.229	774.5
563.441	793.5
563.653	785.5
563.865	775.5
564.077	757.5
564.289	773.5
564.501	797.5
564.713	791.5
564.925	826.5
565.137	871.5
565.349	791.5
565.561	790.5
565.773	795.5
565.985	808.5
566.197	835.5
566.408	880.5
566.62	876.5
566.832	886.5
567.044	881.5
567.255	881.5
567.467	892.5
567.679	913.5
567.891	924.5
568.102	886.5
568.314	840.5
568.526	772.5
568.737	764.5
568.949	713.5
569.161	704.5
569.372	669.5
569.584	674.5
569.795	680.5
570.007	663.5
570.218	645.5
570.43	666.5
570.641	641.5
570.853	668.5
571.064	642.5
571.276	644.5
571.487	646.5
571.698	633.5
571.91	629.5
572.121	610.5
572.333	608.5
572.544	611.5
572.755	578.5
572.966	560.5
573.178	580.5
573.389	596.5
573.6	589.5
573.811	622.5
574.023	604.5
574.234	569.5
574.445	557.5
574.656	545.5
574.867	564.5
575.078	553.5
575.289	577.5
575.501	561.5
575.712	532.5
575.923	548.5
576.134	550.5
576.345	527.5
576.556	543.5
576.767	526.5
576.978	530.5
577.188	513.5
577.399	514.5
577.61	522.5
577.821	519.5
578.032	532.5
578.243	512.5
578.454	522.5
578.665	494.5
578.875	498.5
579.086	482.5
579.297	480.5
579.508	526.5
579.718	498.5
579.929	507.5
580.14	485.5
580.35	468.5
580.561	514.5
580.772	544.5
580.982	541.5
581.193	502.5
581.403	484.5
581.614	486.5
581.825	458.5
582.035	462.5
582.246	492.5
582.456	486.5
582.667	476.5
582.877	481.5
583.087	469.5
583.298	452.5
583.508	465.5
583.719	452.5
583.929	476.5
584.139	457.5
584.35	462.5
584.56	454.5
584.77	465.5
584.981	458.5
585.191	493.5
585.401	466.5
585.611	466.5
585.821	480.5
586.032	436.5
586.242	438.5
586.452	433.5
586.662	450.5
586.872	436.5
587.082	433.5
587.292	449.5
587.502	465.5
587.713	462.5
587.923	441.5
588.133	444.5
588.343	446.5
588.553	469.5
588.762	453.5
588.972	440.5
589.182	447.5
589.392	451.5
589.602	448.5
589.812	453.5
590.022	444.5
590.232	417.5
590.441	446.5
590.651	458.5
590.861	456.5
591.071	449.5
591.281	432.5
591.49	443.5
591.7	430.5
591.91	437.5
592.119	439.5
592.329	445.5
592.539	467.5
592.748	457.5
592.958	459.5
593.167	462.5
593.377	445.5
593.587	457.5
593.796	467.5
594.006	463.5
594.215	471.5
594.424	458.5
594.634	461.5
594.843	458.5
595.053	464.5
595.262	438.5
595.472	450.5
595.681	455.5
595.89	436.5
596.1	421.5
596.309	430.5
596.518	430.5
596.727	457.5
596.937	416.5
597.146	411.5
597.355	403.5
597.564	422.5
597.774	415.5
597.983	374.5
598.192	378.5
598.401	371.5
598.61	387.5
598.819	385.5
599.028	395.5
599.237	380.5
599.446	401.5
599.655	398.5
599.864	375.5
600.073	398.5
600.282	414.5
600.491	385.5
600.7	383.5
600.909	398.5
601.118	400.5
601.327	414.5
601.536	419.5
601.745	405.5
601.953	391.5
602.162	411.5
602.371	415.5
602.58	401.5
602.789	399.5
602.997	407.5
603.206	408.5
603.415	406.5
603.623	411.5
603.832	409.5
604.041	400.5
604.249	383.5
604.458	386.5
604.666	372.5
604.875	360.5
605.084	394.5
605.292	402.5
605.501	409.5
605.709	419.5
605.918	392.5
606.126	403.5
606.334	400.5
606.543	409.5
606.751	398.5
606.96	412.5
607.168	401.5
607.376	396.5
607.585	385.5
607.793	370.5
608.001	375.5
608.21	399.5
608.418	399.5
608.626	397.5
608.834	395.5
609.043	380.5
609.251	372.5
609.459	402.5
609.667	383.5
609.875	406.5
610.083	406.5
610.291	388.5
610.499	405.5
610.707	388.5
610.916	399.5
611.124	388.5
611.332	389.5
611.54	390.5
611.748	392.5
611.955	401.5
612.163	412.5
612.371	385.5
612.579	383.5
612.787	381.5
612.995	394.5
613.203	402.5
613.411	385.5
613.618	356.5
613.826	386.5
614.034	387.5
614.242	386.5
614.449	394.5
614.657	378.5
614.865	377.5
615.072	392.5
615.28	383.5
615.488	370.5
615.695	385.5
615.903	387.5
616.111	382.5
616.318	382.5
616.526	384.5
616.733	367.5
616.941	376.5
617.148	379.5
617.356	377.5
617.563	378.5
617.771	375.5
617.978	368.5
618.185	357.5
618.393	370.5
618.6	368.5
618.807	362.5
619.015	380.5
619.222	361.5
619.429	343.5
619.637	344.5
619.844	350.5
620.051	350.5
620.258	356.5
620.466	345.5
620.673	338.5
620.88	352.5
621.087	346.5
621.294	374.5
621.501	362.5
621.708	356.5
621.915	366.5
622.122	361.5
622.329	348.5
622.536	350.5
622.743	353.5
622.95	334.5
623.157	348.5
623.364	342.5
623.571	349.5
623.778	345.5
623.985	352.5
624.192	339.5
624.399	336.5
624.606	320.5
624.812	340.5
625.019	336.5
625.226	328.5
625.433	324.5
625.639	303.5
625.846	306.5
626.053	292.5
626.259	300.5
626.466	303.5
626.673	262.5
626.879	274.5
627.086	278.5
627.293	298.5
627.499	308.5
627.706	311.5
627.912	316.5
628.119	310.5
628.325	314.5
628.532	304.5
628.738	307.5
628.945	312.5
629.151	314.5
629.357	308.5
629.564	313.5
629.77	313.5
629.976	297.5
630.183	282.5
630.389	291.5
630.595	309.5
630.802	306.5
631.008	308.5
631.214	295.5
631.42	291.5
631.627	278.5
631.833	292.5
632.039	264.5
632.245	298.5
632.451	297.5
632.657	278.5
632.863	276.5
633.069	288.5
633.275	273.5
633.481	279.5
633.688	275.5
633.893	291.5
634.099	276.5
634.305	273.5
634.511	262.5
634.717	264.5
634.923	255.5
635.129	253.5
635.335	277.5
635.541	257.5
635.747	267.5
635.952	295.5
636.158	287.5
636.364	281.5
636.57	282.5
636.775	279.5
636.981	287.5
637.187	269.5
637.392	285.5
637.598	266.5
637.804	278.5
638.009	288.5
638.215	280.5
638.421	270.5
638.626	257.5
638.832	246.5
639.037	266.5
639.243	254.5
639.448	270.5
639.654	261.5
639.859	267.5
640.065	270.5
640.27	280.5
640.475	263.5
640.681	278.5
640.886	271.5
641.091	253.5
641.297	276.5
641.502	252.5
641.707	285.5
641.913	261.5
642.118	253.5
642.323	245.5
642.528	263.5
642.733	240.5
642.939	262.5
643.144	243.5
643.349	253.5
643.554	279.5
643.759	249.5
643.964	232.5
644.169	260.5
644.374	265.5
644.579	260.5
644.784	265.5
644.989	259.5
645.194	242.5
645.399	257.5
645.604	244.5
645.809	238.5
646.014	241.5
646.219	254.5
646.423	263.5
646.628	255.5
646.833	261.5
647.038	262.5
647.243	260.5
647.447	261.5
647.652	246.5
647.857	260.5
648.062	254.5
648.266	253.5
648.471	261.5
648.676	248.5
648.88	256.5
649.085	249.5
649.289	233.5
649.494	255.5
649.698	228.5
649.903	240.5
650.107	244.5
650.312	257.5
650.516	248.5
650.721	246.5
650.925	263.5
651.13	246.5
651.334	231.5
651.539	230.5
651.743	242.5
651.947	230.5
652.152	214.5
652.356	246.5
652.56	208.5
652.764	212.5
652.969	224.5
653.173	231.5
653.377	225.5
653.581	221.5
653.785	227.5
653.99	216.5
654.194	212.5
654.398	219.5
654.602	223.5
654.806	210.5
655.01	221.5
655.214	204.5
655.418	206.5
655.622	229.5
655.826	211.5
656.03	238.5
656.234	240.5
656.438	249.5
656.642	250.5
656.846	232.5
657.049	222.5
657.253	216.5
657.457	192.5
657.661	181.5
657.865	168.5
658.068	153.5
658.272	161.5
658.476	158.5
658.68	160.5
658.883	157.5
659.087	151.5
659.291	132.5
659.494	117.5
659.698	135.5
659.901	132.5
660.105	134.5
660.309	119.5
660.512	113.5
660.716	100.5
660.919	131.5
661.123	112.5
661.326	105.5
661.53	117.5
661.733	105.5
661.936	103.5
662.14	100.5
662.343	104.5
662.546	74.5
662.75	92.5
662.953	103.5
663.156	72.5
663.36	91.5
663.563	97.5
663.766	98.5
663.969	99.5
664.173	90.5
664.376	94.5
664.579	88.5
664.782	78.5
664.985	73.5
665.188	82.5
665.391	80.5
665.594	82.5
665.797	96.5
666	83.5
666.203	65.5
666.406	80.5
666.609	82.5
666.812	84.5
667.015	103.5
667.218	91.5
667.421	93.5
667.624	73.5
667.827	88.5
668.03	73.5
668.232	76.5
668.435	81.5
668.638	82.5
668.841	78.5
669.043	77.5
669.246	64.5
669.449	76.5
669.651	87.5
669.854	90.5
670.057	79.5
670.259	71.5
670.462	78.5
670.665	78.5
670.867	87.5
671.07	83.5
671.272	90.5
671.475	86.5
671.677	94.5
671.88	73.5
672.082	84.5
672.284	80.5
672.487	79.5
672.689	82.5
672.892	86.5
