Data from WStandard_LampEnergy5.5LIBS07252019.E.O._I.C._HRD10591_16-07-56-920.txt Node
Date: Thu Jul 25 16:07:56 EDT 2019
User: cochatt
Spectrometer: HR+D1059
Trigger mode: 1
Integration Time (sec): 1.000000E-1
Scans to average: 1
Electric dark correction enabled: true
Nonlinearity correction enabled: false
Boxcar width: 0
XAxis mode: Wavelengths
Number of Pixels in Spectrum: 2048
>>>>>Begin Spectral Data<<<<<
223.165	-15.75
223.4	-15.75
223.635	-15.75
223.869	-25.75
224.104	-13.75
224.338	-12.75
224.573	-20.75
224.808	-15.75
225.042	0.25
225.277	-11.75
225.511	-4.75
225.746	9.25
225.98	1.25
226.215	6.25
226.449	17.25
226.683	15.25
226.918	26.25
227.152	45.25
227.387	38.25
227.621	33.25
227.856	30.25
228.09	34.25
228.324	45.25
228.559	56.25
228.793	136.25
229.027	364.25
229.262	375.25
229.496	385.25
229.73	410.25
229.964	443.25
230.199	473.25
230.433	454.25
230.667	480.25
230.901	532.25
231.136	486.25
231.37	441.25
231.604	476.25
231.838	474.25
232.072	474.25
232.306	444.25
232.541	494.25
232.775	563.25
233.009	617.25
233.243	586.25
233.477	521.25
233.711	526.25
233.945	580.25
234.179	547.25
234.413	579.25
234.647	617.25
234.881	609.25
235.115	559.25
235.349	557.25
235.583	576.25
235.817	582.25
236.051	561.25
236.285	553.25
236.519	601.25
236.753	663.25
236.987	694.25
237.221	659.25
237.455	727.25
237.689	733.25
237.922	683.25
238.156	668.25
238.39	675.25
238.624	716.25
238.858	751.25
239.091	749.25
239.325	794.25
239.559	924.25
239.793	977.25
240.027	1065.25
240.26	1027.25
240.494	776.25
240.728	696.25
240.961	741.25
241.195	746.25
241.429	810.25
241.662	803.25
241.896	744.25
242.13	781.25
242.363	859.25
242.597	937.25
242.83	878.25
243.064	871.25
243.298	943.25
243.531	924.25
243.765	936.25
243.998	956.25
244.232	809.25
244.465	773.25
244.699	807.25
244.932	904.25
245.166	1055.25
245.399	945.25
245.633	908.25
245.866	901.25
246.099	936.25
246.333	971.25
246.566	977.25
246.8	1045.25
247.033	1170.25
247.266	1059.25
247.5	1064.25
247.733	1043.25
247.966	1127.25
248.2	1272.25
248.433	1187.25
248.666	1222.25
248.899	1346.25
249.133	1536.25
249.366	1763.25
249.599	1426.25
249.832	1225.25
250.066	1311.25
250.299	1282.25
250.532	1195.25
250.765	1060.25
250.998	1148.25
251.231	1195.25
251.465	1227.25
251.698	1166.25
251.931	1175.25
252.164	1239.25
252.397	1269.25
252.63	1229.25
252.863	1112.25
253.096	1079.25
253.329	1155.25
253.562	1186.25
253.795	1289.25
254.028	1237.25
254.261	1185.25
254.494	1143.25
254.727	1115.25
254.96	1139.25
255.193	1252.25
255.426	1451.25
255.659	1608.25
255.892	1711.25
256.124	1394.25
256.357	1350.25
256.59	1432.25
256.823	1433.25
257.056	1378.25
257.289	1714.25
257.521	1924.25
257.754	1698.25
257.987	1577.25
258.22	1801.25
258.452	1771.25
258.685	1387.25
258.918	1360.25
259.151	1403.25
259.383	1323.25
259.616	1164.25
259.849	1225.25
260.081	1393.25
260.314	1547.25
260.547	1724.25
260.779	1754.25
261.012	1639.25
261.244	1448.25
261.477	1359.25
261.71	1436.25
261.942	1435.25
262.175	1375.25
262.407	1487.25
262.64	1385.25
262.872	1327.25
263.105	1245.25
263.337	1280.25
263.57	1289.25
263.802	1316.25
264.035	1220.25
264.267	1153.25
264.499	1112.25
264.732	1221.25
264.964	1298.25
265.197	1327.25
265.429	1407.25
265.661	1581.25
265.894	1754.25
266.126	1783.25
266.358	1573.25
266.591	1661.25
266.823	1862.25
267.055	1646.25
267.287	1589.25
267.52	1547.25
267.752	1515.25
267.984	1570.25
268.216	1594.25
268.448	1625.25
268.681	1616.25
268.913	1497.25
269.145	1425.25
269.377	1401.25
269.609	1506.25
269.841	1748.25
270.073	2040.25
270.306	2290.25
270.538	2456.25
270.77	2061.25
271.002	1743.25
271.234	1673.25
271.466	1636.25
271.698	1845.25
271.93	2203.25
272.162	2183.25
272.394	2007.25
272.626	1920.25
272.858	1719.25
273.09	1466.25
273.322	1474.25
273.553	1396.25
273.785	1388.25
274.017	1445.25
274.249	1557.25
274.481	1583.25
274.713	1453.25
274.945	1393.25
275.176	1463.25
275.408	1428.25
275.64	1398.25
275.872	1417.25
276.104	1440.25
276.335	1656.25
276.567	1889.25
276.799	1915.25
277.031	1711.25
277.262	1615.25
277.494	1654.25
277.726	1843.25
277.957	1836.25
278.189	1703.25
278.421	1544.25
278.652	1506.25
278.884	1510.25
279.115	1501.25
279.347	1503.25
279.579	1469.25
279.81	1446.25
280.042	1610.25
280.273	1765.25
280.505	1789.25
280.736	1845.25
280.968	1713.25
281.199	1526.25
281.431	1421.25
281.662	1456.25
281.894	1439.25
282.125	1523.25
282.356	1556.25
282.588	1566.25
282.819	1525.25
283.051	1674.25
283.282	1793.25
283.513	1784.25
283.745	1548.25
283.976	1453.25
284.207	1457.25
284.439	1482.25
284.67	1524.25
284.901	1525.25
285.132	1581.25
285.364	1516.25
285.595	1573.25
285.826	1523.25
286.057	1535.25
286.288	1497.25
286.52	1592.25
286.751	1684.25
286.982	1767.25
287.213	1615.25
287.444	1464.25
287.675	1465.25
287.906	1554.25
288.138	1653.25
288.369	1627.25
288.6	1532.25
288.831	1467.25
289.062	1481.25
289.293	1516.25
289.524	1523.25
289.755	1584.25
289.986	1619.25
290.217	1474.25
290.448	1479.25
290.679	1570.25
290.91	1583.25
291.141	1619.25
291.371	1685.25
291.602	1636.25
291.833	1607.25
292.064	1673.25
292.295	1613.25
292.526	1643.25
292.757	1757.25
292.987	1652.25
293.218	1583.25
293.449	1706.25
293.68	1858.25
293.91	2048.25
294.141	1890.25
294.372	1766.25
294.603	1845.25
294.833	1931.25
295.064	1800.25
295.295	1659.25
295.525	1629.25
295.756	1528.25
295.987	1433.25
296.217	1438.25
296.448	1483.25
296.679	1535.25
296.909	1506.25
297.14	1486.25
297.37	1488.25
297.601	1619.25
297.831	1732.25
298.062	1782.25
298.292	1613.25
298.523	1507.25
298.753	1556.25
298.984	1547.25
299.214	1552.25
299.445	1633.25
299.675	1648.25
299.905	1627.25
300.136	1572.25
300.366	1548.25
300.597	1484.25
300.827	1483.25
301.057	1561.25
301.288	1611.25
301.518	1639.25
301.748	1665.25
301.979	1771.25
302.209	1738.25
302.439	1895.25
302.669	1956.25
302.9	1803.25
303.13	1641.25
303.36	1647.25
303.59	1711.25
303.82	1646.25
304.051	1685.25
304.281	1658.25
304.511	1647.25
304.741	1734.25
304.971	1956.25
305.201	2053.25
305.431	1915.25
305.661	1618.25
305.891	1443.25
306.121	1449.25
306.352	1528.25
306.582	1568.25
306.812	1709.25
307.042	1833.25
307.272	1799.25
307.502	1860.25
307.731	1983.25
307.961	2153.25
308.191	2036.25
308.421	1708.25
308.651	1596.25
308.881	1587.25
309.111	1597.25
309.341	1570.25
309.571	1576.25
309.8	1603.25
310.03	1579.25
310.26	1578.25
310.49	1585.25
310.72	1613.25
310.949	1673.25
311.179	1677.25
311.409	1640.25
311.639	1625.25
311.868	1632.25
312.098	1648.25
312.328	1623.25
312.557	1594.25
312.787	1623.25
313.017	1665.25
313.246	1683.25
313.476	1693.25
313.706	1716.25
313.935	1656.25
314.165	1680.25
314.394	1737.25
314.624	1824.25
314.853	1922.25
315.083	1971.25
315.312	2041.25
315.542	1943.25
315.771	1725.25
316.001	1737.25
316.23	1816.25
316.46	1809.25
316.689	1741.25
316.919	1699.25
317.148	1651.25
317.377	1616.25
317.607	1758.25
317.836	2017.25
318.065	2103.25
318.295	1955.25
318.524	1874.25
318.753	1796.25
318.983	1769.25
319.212	1720.25
319.441	1715.25
319.67	1748.25
319.9	1741.25
320.129	1825.25
320.358	1891.25
320.587	1932.25
320.816	1925.25
321.046	1882.25
321.275	1755.25
321.504	1816.25
321.733	2002.25
321.962	1899.25
322.191	1745.25
322.42	1767.25
322.649	1734.25
322.878	1742.25
323.108	1746.25
323.337	1819.25
323.566	1827.25
323.795	1799.25
324.024	1811.25
324.253	1719.25
324.482	1783.25
324.71	1701.25
324.939	1661.25
325.168	1670.25
325.397	1724.25
325.626	1832.25
325.855	1843.25
326.084	1747.25
326.313	1773.25
326.542	1782.25
326.77	1835.25
326.999	1852.25
327.228	1745.25
327.457	1692.25
327.686	1627.25
327.914	1705.25
328.143	1759.25
328.372	1757.25
328.6	1732.25
328.829	1747.25
329.058	1731.25
329.287	1677.25
329.515	1752.25
329.744	1755.25
329.972	1851.25
330.201	1945.25
330.43	1893.25
330.658	1816.25
330.887	1851.25
331.115	1856.25
331.344	1896.25
331.572	1862.25
331.801	1826.25
332.03	1826.25
332.258	1836.25
332.486	1869.25
332.715	1877.25
332.943	1911.25
333.172	1848.25
333.4	1889.25
333.629	1900.25
333.857	2009.25
334.085	2242.25
334.314	2458.25
334.542	2736.25
334.771	2544.25
334.999	2229.25
335.227	2097.25
335.455	1981.25
335.684	1946.25
335.912	2001.25
336.14	2108.25
336.369	2022.25
336.597	1951.25
336.825	1903.25
337.053	1946.25
337.281	2021.25
337.51	2135.25
337.738	2245.25
337.966	2090.25
338.194	1890.25
338.422	1859.25
338.65	1816.25
338.878	1836.25
339.106	1779.25
339.334	1748.25
339.562	1733.25
339.79	1765.25
340.018	1888.25
340.246	1939.25
340.474	1951.25
340.702	1921.25
340.93	1949.25
341.158	1897.25
341.386	1848.25
341.614	1849.25
341.842	1812.25
342.07	1836.25
342.298	1849.25
342.526	1827.25
342.754	1795.25
342.981	1800.25
343.209	1809.25
343.437	1762.25
343.665	1780.25
343.893	1851.25
344.12	1963.25
344.348	1943.25
344.576	1885.25
344.804	1825.25
345.031	1824.25
345.259	1846.25
345.487	1784.25
345.714	1728.25
345.942	1685.25
346.17	1695.25
346.397	1719.25
346.625	1742.25
346.853	1650.25
347.08	1625.25
347.308	1599.25
347.535	1658.25
347.763	1745.25
347.99	1721.25
348.218	1629.25
348.445	1655.25
348.673	1700.25
348.9	1761.25
349.128	1776.25
349.355	1869.25
349.583	1823.25
349.81	1748.25
350.037	1582.25
350.265	1592.25
350.492	1593.25
350.72	1625.25
350.947	1710.25
351.174	1748.25
351.402	1647.25
351.629	1569.25
351.856	1582.25
352.083	1593.25
352.311	1588.25
352.538	1633.25
352.765	1708.25
352.992	1799.25
353.22	1705.25
353.447	1640.25
353.674	1641.25
353.901	1685.25
354.128	1630.25
354.355	1618.25
354.583	1706.25
354.81	1730.25
355.037	1716.25
355.264	1698.25
355.491	1712.25
355.718	1706.25
355.945	1669.25
356.172	1642.25
356.399	1634.25
356.626	1622.25
356.853	1661.25
357.08	1802.25
357.307	1975.25
357.534	2013.25
357.761	1778.25
357.988	1651.25
358.215	1593.25
358.441	1608.25
358.668	1576.25
358.895	1635.25
359.122	1684.25
359.349	1843.25
359.576	1847.25
359.802	1678.25
360.029	1596.25
360.256	1589.25
360.483	1607.25
360.709	1705.25
360.936	1754.25
361.163	1783.25
361.39	1967.25
361.616	2108.25
361.843	2075.25
362.07	1956.25
362.296	1728.25
362.523	1631.25
362.749	1640.25
362.976	1684.25
363.203	1697.25
363.429	1660.25
363.656	1602.25
363.882	1649.25
364.109	1855.25
364.335	2010.25
364.562	1839.25
364.788	1767.25
365.015	1741.25
365.241	1637.25
365.468	1687.25
365.694	1741.25
365.92	1812.25
366.147	1741.25
366.373	1670.25
366.599	1612.25
366.826	1621.25
367.052	1643.25
367.278	1642.25
367.505	1652.25
367.731	1684.25
367.957	1697.25
368.184	1721.25
368.41	1835.25
368.636	1880.25
368.862	1840.25
369.089	1891.25
369.315	1837.25
369.541	1752.25
369.767	1693.25
369.993	1657.25
370.219	1681.25
370.445	1693.25
370.672	1771.25
370.898	1885.25
371.124	1908.25
371.35	1762.25
371.576	1803.25
371.802	1919.25
372.028	1815.25
372.254	1785.25
372.48	1696.25
372.706	1681.25
372.932	1706.25
373.158	1708.25
373.384	1683.25
373.61	1750.25
373.835	1899.25
374.061	1769.25
374.287	1744.25
374.513	1793.25
374.739	1739.25
374.965	1792.25
375.191	1796.25
375.416	1826.25
375.642	1812.25
375.868	1905.25
376.094	1945.25
376.319	1898.25
376.545	1764.25
376.771	1832.25
376.997	1921.25
377.222	1859.25
377.448	1804.25
377.674	1856.25
377.899	1831.25
378.125	1910.25
378.35	1907.25
378.576	1748.25
378.802	1718.25
379.027	1662.25
379.253	1720.25
379.478	1736.25
379.704	1702.25
379.929	1734.25
380.155	1768.25
380.38	1780.25
380.606	1778.25
380.831	1810.25
381.057	1845.25
381.282	1897.25
381.507	1781.25
381.733	1935.25
381.958	2013.25
382.184	1879.25
382.409	1832.25
382.634	1835.25
382.86	1855.25
383.085	1845.25
383.31	1876.25
383.535	2003.25
383.761	2103.25
383.986	2068.25
384.211	1988.25
384.436	1939.25
384.662	2039.25
384.887	2143.25
385.112	2027.25
385.337	2037.25
385.562	2007.25
385.787	2002.25
386.013	2044.25
386.238	2085.25
386.463	2010.25
386.688	2155.25
386.913	2294.25
387.138	2233.25
387.363	2079.25
387.588	2087.25
387.813	2068.25
388.038	2067.25
388.263	2148.25
388.488	2069.25
388.713	1890.25
388.938	1918.25
389.163	1949.25
389.387	2021.25
389.612	1989.25
389.837	1989.25
390.062	2052.25
390.287	2009.25
390.512	2004.25
390.736	2005.25
390.961	1975.25
391.186	1906.25
391.411	1905.25
391.636	1949.25
391.86	2031.25
392.085	1981.25
392.31	1973.25
392.534	1991.25
392.759	2052.25
392.984	2003.25
393.208	2012.25
393.433	2072.25
393.658	2135.25
393.882	2175.25
394.107	2045.25
394.331	1970.25
394.556	1987.25
394.78	2015.25
395.005	2071.25
395.229	2163.25
395.454	2300.25
395.678	2338.25
395.903	2212.25
396.127	2085.25
396.352	2112.25
396.576	2166.25
396.801	2229.25
397.025	2175.25
397.249	2229.25
397.474	2156.25
397.698	2187.25
397.922	2228.25
398.147	2327.25
398.371	2392.25
398.595	2363.25
398.82	2280.25
399.044	2357.25
399.268	2414.25
399.492	2638.25
399.717	2715.25
399.941	2754.25
400.165	2643.25
400.389	2607.25
400.613	2570.25
400.837	2792.25
401.062	3159.25
401.286	2796.25
401.51	2483.25
401.734	2641.25
401.958	2516.25
402.182	2381.25
402.406	2280.25
402.63	2311.25
402.854	2296.25
403.078	2311.25
403.302	2368.25
403.526	2411.25
403.75	2371.25
403.974	2410.25
404.198	2414.25
404.422	2416.25
404.645	2560.25
404.869	2536.25
405.093	2346.25
405.317	2335.25
405.541	2403.25
405.765	2403.25
405.988	2389.25
406.212	2427.25
406.436	2464.25
406.66	2549.25
406.883	2553.25
407.107	2853.25
407.331	3112.25
407.555	3335.25
407.778	3116.25
408.002	2549.25
408.226	2550.25
408.449	2481.25
408.673	2410.25
408.896	2463.25
409.12	2474.25
409.344	2439.25
409.567	2366.25
409.791	2391.25
410.014	2441.25
410.238	2580.25
410.461	2713.25
410.685	2460.25
410.908	2337.25
411.132	2375.25
411.355	2376.25
411.578	2305.25
411.802	2315.25
412.025	2389.25
412.249	2313.25
412.472	2259.25
412.695	2299.25
412.919	2267.25
413.142	2309.25
413.365	2298.25
413.589	2362.25
413.812	2398.25
414.035	2497.25
414.258	2281.25
414.482	2223.25
414.705	2281.25
414.928	2211.25
415.151	2220.25
415.374	2330.25
415.597	2314.25
415.821	2355.25
416.044	2405.25
416.267	2427.25
416.49	2225.25
416.713	2161.25
416.936	2244.25
417.159	2340.25
417.382	2352.25
417.605	2229.25
417.828	2329.25
418.051	2318.25
418.274	2274.25
418.497	2122.25
418.72	2238.25
418.943	2183.25
419.166	2358.25
419.389	2448.25
419.611	2344.25
419.834	2233.25
420.057	2294.25
420.28	2179.25
420.503	2205.25
420.726	2257.25
420.948	2228.25
421.171	2140.25
421.394	2209.25
421.617	2263.25
421.839	2266.25
422.062	2208.25
422.285	2156.25
422.507	2191.25
422.73	2124.25
422.953	2138.25
423.175	2111.25
423.398	2189.25
423.621	2177.25
423.843	2156.25
424.066	2258.25
424.288	2323.25
424.511	2369.25
424.733	2303.25
424.956	2118.25
425.178	2045.25
425.401	2085.25
425.623	2134.25
425.846	2140.25
426.068	2215.25
426.291	2281.25
426.513	2218.25
426.735	2241.25
426.958	2321.25
427.18	2533.25
427.402	2321.25
427.625	2333.25
427.847	2387.25
428.069	2216.25
428.292	2143.25
428.514	2078.25
428.736	2085.25
428.958	2129.25
429.181	2168.25
429.403	2401.25
429.625	2968.25
429.847	2613.25
430.069	2213.25
430.292	2381.25
430.514	2448.25
430.736	2285.25
430.958	2406.25
431.18	2301.25
431.402	2087.25
431.624	2137.25
431.846	2107.25
432.068	2041.25
432.29	2109.25
432.512	2135.25
432.734	2133.25
432.956	2203.25
433.178	2324.25
433.4	2247.25
433.622	2261.25
433.844	2154.25
434.066	2088.25
434.287	2084.25
434.509	2135.25
434.731	2295.25
434.953	2464.25
435.175	2351.25
435.397	2231.25
435.618	2241.25
435.84	2272.25
436.062	2196.25
436.284	2246.25
436.505	2276.25
436.727	2297.25
436.949	2163.25
437.17	2155.25
437.392	2104.25
437.614	2109.25
437.835	2067.25
438.057	2213.25
438.278	2268.25
438.5	2133.25
438.721	2109.25
438.943	2085.25
439.165	2121.25
439.386	2087.25
439.608	2109.25
439.829	2102.25
440.05	2081.25
440.272	2064.25
440.493	2037.25
440.715	2116.25
440.936	2236.25
441.158	2450.25
441.379	2412.25
441.6	2315.25
441.822	2302.25
442.043	2288.25
442.264	2212.25
442.486	2082.25
442.707	2099.25
442.928	2073.25
443.149	2175.25
443.371	2319.25
443.592	2403.25
443.813	2344.25
444.034	2311.25
444.255	2336.25
444.476	2366.25
444.698	2377.25
444.919	2370.25
445.14	2469.25
445.361	2483.25
445.582	2532.25
445.803	2413.25
446.024	2341.25
446.245	2417.25
446.466	2302.25
446.687	2205.25
446.908	2170.25
447.129	2123.25
447.35	2190.25
447.571	2166.25
447.792	2088.25
448.013	2036.25
448.234	2073.25
448.455	2205.25
448.675	2193.25
448.896	1981.25
449.117	1976.25
449.338	2092.25
449.559	2134.25
449.779	2247.25
450	2493.25
450.221	2668.25
450.442	2606.25
450.662	2265.25
450.883	1995.25
451.104	1956.25
451.324	2048.25
451.545	2101.25
451.766	2080.25
451.986	1941.25
452.207	1933.25
452.428	1926.25
452.648	1868.25
452.869	1947.25
453.089	2034.25
453.31	2111.25
453.53	2152.25
453.751	2038.25
453.971	1960.25
454.192	1951.25
454.412	2109.25
454.633	2071.25
454.853	1980.25
455.073	1837.25
455.294	1825.25
455.514	1816.25
455.734	1875.25
455.955	1917.25
456.175	1855.25
456.395	1906.25
456.616	1976.25
456.836	1983.25
457.056	1931.25
457.276	1928.25
457.497	1859.25
457.717	1837.25
457.937	1856.25
458.157	1921.25
458.377	1907.25
458.598	1884.25
458.818	1891.25
459.038	1985.25
459.258	2127.25
459.478	2146.25
459.698	2083.25
459.918	2081.25
460.138	2171.25
460.358	2257.25
460.578	2247.25
460.798	2308.25
461.018	2513.25
461.238	2378.25
461.458	2278.25
461.678	2284.25
461.898	2221.25
462.118	2165.25
462.338	2266.25
462.558	2230.25
462.777	2277.25
462.997	2345.25
463.217	2525.25
463.437	2528.25
463.657	2300.25
463.876	2323.25
464.096	2300.25
464.316	2244.25
464.536	2345.25
464.755	2402.25
464.975	2409.25
465.195	2301.25
465.414	2387.25
465.634	2418.25
465.854	2284.25
466.073	2416.25
466.293	2336.25
466.512	2087.25
466.732	2105.25
466.951	2165.25
467.171	2174.25
467.391	2070.25
467.61	2017.25
467.829	2053.25
468.049	2223.25
468.268	2454.25
468.488	2320.25
468.707	2187.25
468.927	2075.25
469.146	2085.25
469.365	2014.25
469.585	2068.25
469.804	2040.25
470.023	2075.25
470.243	2118.25
470.462	2092.25
470.681	2040.25
470.901	2056.25
471.12	2076.25
471.339	2055.25
471.558	1985.25
471.777	1999.25
471.997	2015.25
472.216	2058.25
472.435	1947.25
472.654	2035.25
472.873	2101.25
473.092	2191.25
473.311	2115.25
473.53	1986.25
473.749	1960.25
473.968	2026.25
474.187	2113.25
474.406	2291.25
474.625	2141.25
474.844	2063.25
475.063	2065.25
475.282	2134.25
475.501	2071.25
475.72	2082.25
475.939	2221.25
476.158	2151.25
476.377	2069.25
476.596	2123.25
476.814	2145.25
477.033	2175.25
477.252	2244.25
477.471	2340.25
477.69	2216.25
477.908	2190.25
478.127	2278.25
478.346	2439.25
478.564	2550.25
478.783	2505.25
479.002	2552.25
479.22	2447.25
479.439	2584.25
479.658	2903.25
479.876	2917.25
480.095	2504.25
480.313	2384.25
480.532	2320.25
480.751	2314.25
480.969	2405.25
481.188	2368.25
481.406	2287.25
481.624	2253.25
481.843	2272.25
482.061	2340.25
482.28	2365.25
482.498	2446.25
482.717	2390.25
482.935	2323.25
483.153	2309.25
483.372	2323.25
483.59	2277.25
483.808	2299.25
484.027	2362.25
484.245	2472.25
484.463	2857.25
484.681	3339.25
484.9	2553.25
485.118	2380.25
485.336	2374.25
485.554	2480.25
485.772	2584.25
485.99	2519.25
486.209	2530.25
486.427	2503.25
486.645	2480.25
486.863	2430.25
487.081	2498.25
487.299	2563.25
487.517	2468.25
487.735	2422.25
487.953	2346.25
488.171	2402.25
488.389	2409.25
488.607	2423.25
488.825	2635.25
489.043	2679.25
489.261	2400.25
489.479	2581.25
489.696	2604.25
489.914	2611.25
490.132	2474.25
490.35	2428.25
490.568	2547.25
490.786	2396.25
491.003	2351.25
491.221	2449.25
491.439	2477.25
491.657	2468.25
491.874	2488.25
492.092	2497.25
492.31	2529.25
492.527	2481.25
492.745	2444.25
492.963	2523.25
493.18	2534.25
493.398	2729.25
493.615	2822.25
493.833	2559.25
494.05	2505.25
494.268	2520.25
494.485	2579.25
494.703	2543.25
494.92	2460.25
495.138	2523.25
495.355	2553.25
495.573	2577.25
495.79	2827.25
496.008	2855.25
496.225	2582.25
496.442	2647.25
496.66	2709.25
496.877	2608.25
497.094	2730.25
497.312	2749.25
497.529	2764.25
497.746	2790.25
497.963	3210.25
498.181	3626.25
498.398	3405.25
498.615	3320.25
498.832	3285.25
499.049	3192.25
499.267	3179.25
499.484	3413.25
499.701	3657.25
499.918	3737.25
500.135	4017.25
500.352	4324.25
500.569	4230.25
500.786	4521.25
501.003	4275.25
501.22	3864.25
501.437	3767.25
501.654	3735.25
501.871	3647.25
502.088	3129.25
502.305	3145.25
502.522	3066.25
502.739	2841.25
502.956	2779.25
503.172	2740.25
503.389	2702.25
503.606	2671.25
503.823	2697.25
504.04	2679.25
504.256	2615.25
504.473	2670.25
504.69	2785.25
504.907	2644.25
505.123	2515.25
505.34	2622.25
505.557	3366.25
505.773	2895.25
505.99	2454.25
506.207	2300.25
506.423	2277.25
506.64	2289.25
506.856	2299.25
507.073	2612.25
507.289	2786.25
507.506	2666.25
507.722	2279.25
507.939	2170.25
508.155	2241.25
508.372	2227.25
508.588	2149.25
508.805	2101.25
509.021	2116.25
509.238	2031.25
509.454	2057.25
509.67	2056.25
509.887	2049.25
510.103	2037.25
510.319	2047.25
510.536	2133.25
510.752	2248.25
510.968	2220.25
511.184	2380.25
511.401	2343.25
511.617	2022.25
511.833	2014.25
512.049	2018.25
512.265	2049.25
512.481	1946.25
512.698	2031.25
512.914	2179.25
513.13	2137.25
513.346	2015.25
513.562	1996.25
513.778	2041.25
513.994	2105.25
514.21	2216.25
514.426	2213.25
514.642	2471.25
514.858	2276.25
515.074	2086.25
515.29	2033.25
515.506	2139.25
515.721	2139.25
515.937	2136.25
516.153	2436.25
516.369	2385.25
516.585	2215.25
516.801	2071.25
517.016	2123.25
517.232	2140.25
517.448	2195.25
517.664	2202.25
517.879	2231.25
518.095	2347.25
518.311	2255.25
518.527	2100.25
518.742	2092.25
518.958	2034.25
519.173	2053.25
519.389	2064.25
519.605	2064.25
519.82	2090.25
520.036	2079.25
520.251	2061.25
520.467	2057.25
520.682	2210.25
520.898	2284.25
521.113	2031.25
521.329	2001.25
521.544	2159.25
521.76	2063.25
521.975	2018.25
522.19	1950.25
522.406	1912.25
522.621	2325.25
522.836	2342.25
523.052	1897.25
523.267	1920.25
523.482	1943.25
523.698	1851.25
523.913	1792.25
524.128	1867.25
524.343	1965.25
524.559	2033.25
524.774	1862.25
524.989	1828.25
525.204	1828.25
525.419	1799.25
525.634	1799.25
525.849	1847.25
526.064	1866.25
526.28	1859.25
526.495	1750.25
526.71	1775.25
526.925	1789.25
527.14	1807.25
527.355	1746.25
527.57	1756.25
527.785	1795.25
527.999	1745.25
528.214	1680.25
528.429	1691.25
528.644	1731.25
528.859	1755.25
529.074	1763.25
529.289	1766.25
529.503	1752.25
529.718	1779.25
529.933	1783.25
530.148	1682.25
530.363	1707.25
530.577	1731.25
530.792	1749.25
531.007	1768.25
531.221	1738.25
531.436	1748.25
531.651	1860.25
531.865	1895.25
532.08	1841.25
532.295	1729.25
532.509	1688.25
532.724	1685.25
532.938	1780.25
533.153	1857.25
533.367	1807.25
533.582	1752.25
533.796	1700.25
534.011	1701.25
534.225	1757.25
534.44	1691.25
534.654	1737.25
534.868	1700.25
535.083	1749.25
535.297	1803.25
535.511	1719.25
535.726	1724.25
535.94	1714.25
536.154	1727.25
536.369	1690.25
536.583	1660.25
536.797	1678.25
537.011	1725.25
537.225	1637.25
537.44	1635.25
537.654	1701.25
537.868	1669.25
538.082	1566.25
538.296	1544.25
538.51	1583.25
538.724	1580.25
538.938	1567.25
539.153	1630.25
539.367	1618.25
539.581	1622.25
539.795	1716.25
540.009	1687.25
540.222	1641.25
540.436	1655.25
540.65	1825.25
540.864	1864.25
541.078	1705.25
541.292	1643.25
541.506	1630.25
541.72	1629.25
541.934	1636.25
542.147	1674.25
542.361	1647.25
542.575	1583.25
542.789	1572.25
543.002	1561.25
543.216	1551.25
543.43	1631.25
543.644	1721.25
543.857	1795.25
544.071	1723.25
544.285	1678.25
544.498	1626.25
544.712	1641.25
544.925	1641.25
545.139	1663.25
545.352	1555.25
545.566	1489.25
545.779	1522.25
545.993	1579.25
546.206	1614.25
546.42	1505.25
546.633	1497.25
546.847	1513.25
547.06	1544.25
547.274	1519.25
547.487	1530.25
547.7	1504.25
547.914	1498.25
548.127	1588.25
548.34	1544.25
548.554	1570.25
548.767	1579.25
548.98	1540.25
549.193	1541.25
549.407	1601.25
549.62	1599.25
549.833	1559.25
550.046	1502.25
550.259	1580.25
550.473	1554.25
550.686	1500.25
550.899	1490.25
551.112	1474.25
551.325	1443.25
551.538	1505.25
551.751	1839.25
551.964	1493.25
552.177	1438.25
552.39	1450.25
552.603	1480.25
552.816	1556.25
553.029	1590.25
553.242	1614.25
553.455	1558.25
553.667	1510.25
553.88	1520.25
554.093	1529.25
554.306	1480.25
554.519	1417.25
554.732	1399.25
554.944	1438.25
555.157	1483.25
555.37	1440.25
555.583	1438.25
555.795	1374.25
556.008	1339.25
556.221	1326.25
556.433	1345.25
556.646	1321.25
556.859	1347.25
557.071	1301.25
557.284	1271.25
557.496	1323.25
557.709	1269.25
557.921	1244.25
558.134	1271.25
558.346	1272.25
558.559	1285.25
558.771	1268.25
558.984	1242.25
559.196	1211.25
559.409	1194.25
559.621	1215.25
559.833	1237.25
560.046	1298.25
560.258	1281.25
560.47	1269.25
560.683	1252.25
560.895	1267.25
561.107	1241.25
561.32	1241.25
561.532	1291.25
561.744	1251.25
561.956	1284.25
562.168	1248.25
562.381	1207.25
562.593	1214.25
562.805	1248.25
563.017	1248.25
563.229	1195.25
563.441	1260.25
563.653	1193.25
563.865	1237.25
564.077	1251.25
564.289	1231.25
564.501	1233.25
564.713	1287.25
564.925	1320.25
565.137	1403.25
565.349	1343.25
565.561	1281.25
565.773	1312.25
565.985	1352.25
566.197	1413.25
566.408	1484.25
566.62	1481.25
566.832	1494.25
567.044	1539.25
567.255	1461.25
567.467	1503.25
567.679	1543.25
567.891	1601.25
568.102	1560.25
568.314	1514.25
568.526	1445.25
568.737	1411.25
568.949	1324.25
569.161	1286.25
569.372	1207.25
569.584	1165.25
569.795	1165.25
570.007	1189.25
570.218	1129.25
570.43	1139.25
570.641	1136.25
570.853	1146.25
571.064	1131.25
571.276	1111.25
571.487	1091.25
571.698	1075.25
571.91	1044.25
572.121	1027.25
572.333	1011.25
572.544	1016.25
572.755	979.25
572.966	997.25
573.178	1003.25
573.389	1008.25
573.6	1034.25
573.811	1126.25
574.023	1017.25
574.234	970.25
574.445	939.25
574.656	952.25
574.867	947.25
575.078	952.25
575.289	943.25
575.501	940.25
575.712	920.25
575.923	933.25
576.134	936.25
576.345	927.25
576.556	888.25
576.767	879.25
576.978	896.25
577.188	909.25
577.399	864.25
577.61	890.25
577.821	874.25
578.032	830.25
578.243	867.25
578.454	846.25
578.665	849.25
578.875	826.25
579.086	824.25
579.297	858.25
579.508	883.25
579.718	827.25
579.929	874.25
580.14	820.25
580.35	828.25
580.561	841.25
580.772	914.25
580.982	846.25
581.193	835.25
581.403	809.25
581.614	829.25
581.825	799.25
582.035	799.25
582.246	817.25
582.456	834.25
582.667	834.25
582.877	785.25
583.087	808.25
583.298	786.25
583.508	787.25
583.719	782.25
583.929	807.25
584.139	780.25
584.35	781.25
584.56	778.25
584.77	780.25
584.981	801.25
585.191	787.25
585.401	806.25
585.611	782.25
585.821	791.25
586.032	779.25
586.242	759.25
586.452	758.25
586.662	772.25
586.872	771.25
587.082	737.25
587.292	767.25
587.502	786.25
587.713	779.25
587.923	759.25
588.133	778.25
588.343	812.25
588.553	732.25
588.762	781.25
588.972	734.25
589.182	756.25
589.392	749.25
589.602	778.25
589.812	797.25
590.022	752.25
590.232	733.25
590.441	735.25
590.651	763.25
590.861	751.25
591.071	738.25
591.281	739.25
591.49	732.25
591.7	708.25
591.91	740.25
592.119	733.25
592.329	746.25
592.539	793.25
592.748	757.25
592.958	767.25
593.167	793.25
593.377	777.25
593.587	799.25
593.796	797.25
594.006	775.25
594.215	782.25
594.424	772.25
594.634	757.25
594.843	744.25
595.053	756.25
595.262	737.25
595.472	748.25
595.681	743.25
595.89	747.25
596.1	710.25
596.309	703.25
596.518	698.25
596.727	723.25
596.937	694.25
597.146	652.25
597.355	678.25
597.564	651.25
597.774	661.25
597.983	657.25
598.192	641.25
598.401	640.25
598.61	644.25
598.819	642.25
599.028	603.25
599.237	642.25
599.446	636.25
599.655	635.25
599.864	623.25
600.073	615.25
600.282	628.25
600.491	597.25
600.7	586.25
600.909	611.25
601.118	596.25
601.327	624.25
601.536	600.25
601.745	591.25
601.953	583.25
602.162	601.25
602.371	615.25
602.58	618.25
602.789	617.25
602.997	593.25
603.206	613.25
603.415	595.25
603.623	606.25
603.832	578.25
604.041	587.25
604.249	593.25
604.458	582.25
604.666	595.25
604.875	597.25
605.084	593.25
605.292	595.25
605.501	575.25
605.709	581.25
605.918	568.25
606.126	569.25
606.334	554.25
606.543	543.25
606.751	562.25
606.96	595.25
607.168	576.25
607.376	548.25
607.585	569.25
607.793	536.25
608.001	552.25
608.21	540.25
608.418	553.25
608.626	556.25
608.834	552.25
609.043	550.25
609.251	573.25
609.459	540.25
609.667	549.25
609.875	555.25
610.083	554.25
610.291	563.25
610.499	560.25
610.707	561.25
610.916	526.25
611.124	545.25
611.332	530.25
611.54	554.25
611.748	546.25
611.955	532.25
612.163	526.25
612.371	535.25
612.579	514.25
612.787	497.25
612.995	540.25
613.203	545.25
613.411	526.25
613.618	524.25
613.826	541.25
614.034	531.25
614.242	549.25
614.449	520.25
614.657	546.25
614.865	503.25
615.072	531.25
615.28	521.25
615.488	512.25
615.695	555.25
615.903	516.25
616.111	509.25
616.318	517.25
616.526	504.25
616.733	505.25
616.941	517.25
617.148	538.25
617.356	502.25
617.563	524.25
617.771	511.25
617.978	501.25
618.185	519.25
618.393	487.25
618.6	514.25
618.807	475.25
619.015	513.25
619.222	493.25
619.429	476.25
619.637	489.25
619.844	483.25
620.051	468.25
620.258	495.25
620.466	487.25
620.673	457.25
620.88	469.25
621.087	457.25
621.294	477.25
621.501	465.25
621.708	455.25
621.915	499.25
622.122	470.25
622.329	469.25
622.536	467.25
622.743	467.25
622.95	459.25
623.157	448.25
623.364	446.25
623.571	445.25
623.778	459.25
623.985	449.25
624.192	464.25
624.399	457.25
624.606	455.25
624.812	450.25
625.019	449.25
625.226	455.25
625.433	436.25
625.639	440.25
625.846	437.25
626.053	423.25
626.259	409.25
626.466	445.25
626.673	442.25
626.879	408.25
627.086	405.25
627.293	417.25
627.499	422.25
627.706	421.25
627.912	406.25
628.119	425.25
628.325	416.25
628.532	404.25
628.738	426.25
628.945	416.25
629.151	412.25
629.357	420.25
629.564	425.25
629.77	410.25
629.976	391.25
630.183	410.25
630.389	421.25
630.595	401.25
630.802	391.25
631.008	387.25
631.214	395.25
631.42	383.25
631.627	370.25
631.833	412.25
632.039	386.25
632.245	386.25
632.451	382.25
632.657	375.25
632.863	390.25
633.069	369.25
633.275	383.25
633.481	373.25
633.688	371.25
633.893	376.25
634.099	387.25
634.305	352.25
634.511	364.25
634.717	361.25
634.923	358.25
635.129	356.25
635.335	360.25
635.541	361.25
635.747	372.25
635.952	333.25
636.158	352.25
636.364	351.25
636.57	343.25
636.775	359.25
636.981	343.25
637.187	350.25
637.392	340.25
637.598	356.25
637.804	359.25
638.009	358.25
638.215	353.25
638.421	356.25
638.626	350.25
638.832	335.25
639.037	338.25
639.243	332.25
639.448	335.25
639.654	350.25
639.859	345.25
640.065	331.25
640.27	334.25
640.475	350.25
640.681	321.25
640.886	340.25
641.091	330.25
641.297	348.25
641.502	338.25
641.707	333.25
641.913	343.25
642.118	332.25
642.323	354.25
642.528	319.25
642.733	332.25
642.939	323.25
643.144	317.25
643.349	329.25
643.554	324.25
643.759	315.25
643.964	317.25
644.169	312.25
644.374	322.25
644.579	326.25
644.784	311.25
644.989	317.25
645.194	281.25
645.399	322.25
645.604	307.25
645.809	322.25
646.014	298.25
646.219	311.25
646.423	323.25
646.628	320.25
646.833	309.25
647.038	310.25
647.243	323.25
647.447	312.25
647.652	347.25
647.857	327.25
648.062	312.25
648.266	332.25
648.471	318.25
648.676	321.25
648.88	338.25
649.085	322.25
649.289	337.25
649.494	324.25
649.698	292.25
649.903	313.25
650.107	299.25
650.312	300.25
650.516	293.25
650.721	299.25
650.925	306.25
651.13	282.25
651.334	272.25
651.539	275.25
651.743	299.25
651.947	268.25
652.152	297.25
652.356	274.25
652.56	295.25
652.764	266.25
652.969	252.25
653.173	270.25
653.377	258.25
653.581	244.25
653.785	235.25
653.99	246.25
654.194	252.25
654.398	254.25
654.602	246.25
654.806	245.25
655.01	251.25
655.214	240.25
655.418	235.25
655.622	243.25
655.826	260.25
656.03	269.25
656.234	267.25
656.438	272.25
656.642	279.25
656.846	260.25
657.049	224.25
657.253	236.25
657.457	215.25
657.661	204.25
657.865	183.25
658.068	177.25
658.272	180.25
658.476	170.25
658.68	179.25
658.883	147.25
659.087	140.25
659.291	146.25
659.494	127.25
659.698	137.25
659.901	131.25
660.105	126.25
660.309	141.25
660.512	120.25
660.716	120.25
660.919	129.25
661.123	122.25
661.326	100.25
661.53	109.25
661.733	112.25
661.936	94.25
662.14	99.25
662.343	91.25
662.546	103.25
662.75	110.25
662.953	82.25
663.156	82.25
663.36	87.25
663.563	97.25
663.766	95.25
663.969	86.25
664.173	88.25
664.376	67.25
664.579	81.25
664.782	76.25
664.985	84.25
665.188	103.25
665.391	83.25
665.594	87.25
665.797	77.25
666	93.25
666.203	85.25
666.406	80.25
666.609	77.25
666.812	82.25
667.015	87.25
667.218	97.25
667.421	88.25
667.624	79.25
667.827	88.25
668.03	78.25
668.232	81.25
668.435	79.25
668.638	79.25
668.841	91.25
669.043	87.25
669.246	89.25
669.449	72.25
669.651	89.25
669.854	86.25
670.057	76.25
670.259	78.25
670.462	70.25
670.665	79.25
670.867	83.25
671.07	85.25
671.272	80.25
671.475	81.25
671.677	73.25
671.88	81.25
672.082	80.25
672.284	83.25
672.487	88.25
672.689	87.25
672.892	77.25
