Data from WStandard_LampEnergy10_LIBS07252019.E.O._I.C._HRD10591_15-53-44-928.txt Node
Date: Thu Jul 25 15:53:44 EDT 2019
User: cochatt
Spectrometer: HR+D1059
Trigger mode: 1
Integration Time (sec): 1.000000E-1
Scans to average: 1
Electric dark correction enabled: true
Nonlinearity correction enabled: false
Boxcar width: 0
XAxis mode: Wavelengths
Number of Pixels in Spectrum: 2048
>>>>>Begin Spectral Data<<<<<
223.165	-13.62
223.4	-13.62
223.635	-13.62
223.869	-14.62
224.104	-13.62
224.338	-12.62
224.573	-16.62
224.808	-13.62
225.042	-9.62
225.277	-11.62
225.511	-11.62
225.746	0.38
225.98	-0.62
226.215	9.38
226.449	23.38
226.683	20.38
226.918	44.38
227.152	20.38
227.387	31.38
227.621	24.38
227.856	33.38
228.09	36.38
228.324	48.38
228.559	58.38
228.793	82.38
229.027	134.38
229.262	143.38
229.496	151.38
229.73	153.38
229.964	157.38
230.199	167.38
230.433	172.38
230.667	185.38
230.901	186.38
231.136	172.38
231.37	184.38
231.604	189.38
231.838	170.38
232.072	184.38
232.306	194.38
232.541	185.38
232.775	208.38
233.009	212.38
233.243	207.38
233.477	190.38
233.711	226.38
233.945	211.38
234.179	183.38
234.413	218.38
234.647	206.38
234.881	204.38
235.115	192.38
235.349	206.38
235.583	215.38
235.817	201.38
236.051	200.38
236.285	205.38
236.519	204.38
236.753	220.38
236.987	219.38
237.221	230.38
237.455	239.38
237.689	241.38
237.922	208.38
238.156	220.38
238.39	219.38
238.624	242.38
238.858	244.38
239.091	273.38
239.325	254.38
239.559	294.38
239.793	297.38
240.027	329.38
240.26	303.38
240.494	250.38
240.728	240.38
240.961	239.38
241.195	249.38
241.429	275.38
241.662	256.38
241.896	245.38
242.13	248.38
242.363	278.38
242.597	296.38
242.83	303.38
243.064	266.38
243.298	291.38
243.531	268.38
243.765	307.38
243.998	262.38
244.232	240.38
244.465	232.38
244.699	257.38
244.932	271.38
245.166	308.38
245.399	298.38
245.633	280.38
245.866	289.38
246.099	293.38
246.333	300.38
246.566	283.38
246.8	333.38
247.033	349.38
247.266	335.38
247.5	346.38
247.733	331.38
247.966	351.38
248.2	364.38
248.433	357.38
248.666	387.38
248.899	401.38
249.133	451.38
249.366	476.38
249.599	413.38
249.832	370.38
250.066	381.38
250.299	391.38
250.532	361.38
250.765	322.38
250.998	354.38
251.231	375.38
251.465	367.38
251.698	361.38
251.931	357.38
252.164	342.38
252.397	380.38
252.63	359.38
252.863	360.38
253.096	342.38
253.329	350.38
253.562	364.38
253.795	375.38
254.028	396.38
254.261	348.38
254.494	354.38
254.727	317.38
254.96	353.38
255.193	385.38
255.426	425.38
255.659	458.38
255.892	459.38
256.124	396.38
256.357	403.38
256.59	404.38
256.823	436.38
257.056	448.38
257.289	484.38
257.521	528.38
257.754	472.38
257.987	455.38
258.22	479.38
258.452	451.38
258.685	387.38
258.918	405.38
259.151	389.38
259.383	363.38
259.616	372.38
259.849	391.38
260.081	410.38
260.314	453.38
260.547	503.38
260.779	473.38
261.012	467.38
261.244	408.38
261.477	384.38
261.71	410.38
261.942	401.38
262.175	393.38
262.407	421.38
262.64	384.38
262.872	395.38
263.105	376.38
263.337	385.38
263.57	391.38
263.802	392.38
264.035	351.38
264.267	345.38
264.499	357.38
264.732	388.38
264.964	388.38
265.197	427.38
265.429	428.38
265.661	480.38
265.894	529.38
266.126	516.38
266.358	437.38
266.591	476.38
266.823	500.38
267.055	480.38
267.287	449.38
267.52	443.38
267.752	450.38
267.984	452.38
268.216	466.38
268.448	476.38
268.681	457.38
268.913	425.38
269.145	424.38
269.377	432.38
269.609	477.38
269.841	538.38
270.073	579.38
270.306	625.38
270.538	626.38
270.77	551.38
271.002	497.38
271.234	492.38
271.466	497.38
271.698	557.38
271.93	625.38
272.162	601.38
272.394	554.38
272.626	533.38
272.858	460.38
273.09	418.38
273.322	425.38
273.553	401.38
273.785	420.38
274.017	423.38
274.249	450.38
274.481	451.38
274.713	434.38
274.945	427.38
275.176	410.38
275.408	425.38
275.64	422.38
275.872	428.38
276.104	464.38
276.335	498.38
276.567	538.38
276.799	531.38
277.031	488.38
277.262	490.38
277.494	488.38
277.726	518.38
277.957	502.38
278.189	493.38
278.421	437.38
278.652	449.38
278.884	448.38
279.115	422.38
279.347	440.38
279.579	465.38
279.81	444.38
280.042	502.38
280.273	511.38
280.505	540.38
280.736	507.38
280.968	477.38
281.199	455.38
281.431	450.38
281.662	443.38
281.894	434.38
282.125	446.38
282.356	456.38
282.588	478.38
282.819	463.38
283.051	496.38
283.282	520.38
283.513	485.38
283.745	453.38
283.976	436.38
284.207	441.38
284.439	465.38
284.67	463.38
284.901	475.38
285.132	489.38
285.364	469.38
285.595	489.38
285.826	468.38
286.057	479.38
286.288	480.38
286.52	482.38
286.751	508.38
286.982	532.38
287.213	465.38
287.444	433.38
287.675	432.38
287.906	472.38
288.138	469.38
288.369	469.38
288.6	447.38
288.831	431.38
289.062	452.38
289.293	464.38
289.524	447.38
289.755	484.38
289.986	472.38
290.217	448.38
290.448	417.38
290.679	466.38
290.91	489.38
291.141	482.38
291.371	513.38
291.602	489.38
291.833	503.38
292.064	517.38
292.295	500.38
292.526	490.38
292.757	522.38
292.987	504.38
293.218	471.38
293.449	515.38
293.68	573.38
293.91	591.38
294.141	556.38
294.372	546.38
294.603	560.38
294.833	587.38
295.064	537.38
295.295	501.38
295.525	491.38
295.756	458.38
295.987	439.38
296.217	469.38
296.448	462.38
296.679	484.38
296.909	459.38
297.14	470.38
297.37	472.38
297.601	506.38
297.831	526.38
298.062	533.38
298.292	495.38
298.523	470.38
298.753	472.38
298.984	482.38
299.214	483.38
299.445	503.38
299.675	512.38
299.905	507.38
300.136	499.38
300.366	481.38
300.597	489.38
300.827	478.38
301.057	499.38
301.288	534.38
301.518	508.38
301.748	519.38
301.979	557.38
302.209	579.38
302.439	584.38
302.669	580.38
302.9	562.38
303.13	521.38
303.36	507.38
303.59	533.38
303.82	540.38
304.051	515.38
304.281	524.38
304.511	545.38
304.741	592.38
304.971	617.38
305.201	632.38
305.431	563.38
305.661	490.38
305.891	479.38
306.121	466.38
306.352	496.38
306.582	502.38
306.812	539.38
307.042	572.38
307.272	602.38
307.502	615.38
307.731	657.38
307.961	650.38
308.191	586.38
308.421	515.38
308.651	518.38
308.881	502.38
309.111	479.38
309.341	487.38
309.571	519.38
309.8	511.38
310.03	470.38
310.26	478.38
310.49	498.38
310.72	499.38
310.949	537.38
311.179	540.38
311.409	521.38
311.639	516.38
311.868	525.38
312.098	520.38
312.328	512.38
312.557	496.38
312.787	523.38
313.017	529.38
313.246	537.38
313.476	529.38
313.706	547.38
313.935	539.38
314.165	569.38
314.394	558.38
314.624	611.38
314.853	631.38
315.083	634.38
315.312	636.38
315.542	590.38
315.771	541.38
316.001	543.38
316.23	599.38
316.46	597.38
316.689	560.38
316.919	533.38
317.148	525.38
317.377	564.38
317.607	602.38
317.836	639.38
318.065	630.38
318.295	614.38
318.524	589.38
318.753	579.38
318.983	555.38
319.212	576.38
319.441	552.38
319.67	548.38
319.9	576.38
320.129	619.38
320.358	629.38
320.587	645.38
320.816	620.38
321.046	616.38
321.275	604.38
321.504	617.38
321.733	644.38
321.962	596.38
322.191	572.38
322.42	587.38
322.649	543.38
322.878	544.38
323.108	580.38
323.337	585.38
323.566	598.38
323.795	568.38
324.024	591.38
324.253	568.38
324.482	577.38
324.71	523.38
324.939	528.38
325.168	563.38
325.397	553.38
325.626	570.38
325.855	579.38
326.084	561.38
326.313	567.38
326.542	589.38
326.77	625.38
326.999	610.38
327.228	540.38
327.457	536.38
327.686	547.38
327.914	549.38
328.143	583.38
328.372	564.38
328.6	560.38
328.829	560.38
329.058	575.38
329.287	550.38
329.515	584.38
329.744	604.38
329.972	616.38
330.201	647.38
330.43	608.38
330.658	599.38
330.887	607.38
331.115	606.38
331.344	583.38
331.572	609.38
331.801	584.38
332.03	580.38
332.258	606.38
332.486	601.38
332.715	598.38
332.943	601.38
333.172	584.38
333.4	616.38
333.629	629.38
333.857	674.38
334.085	741.38
334.314	851.38
334.542	857.38
334.771	776.38
334.999	697.38
335.227	671.38
335.455	650.38
335.684	645.38
335.912	667.38
336.14	653.38
336.369	637.38
336.597	620.38
336.825	623.38
337.053	643.38
337.281	685.38
337.51	693.38
337.738	715.38
337.966	653.38
338.194	586.38
338.422	602.38
338.65	591.38
338.878	604.38
339.106	573.38
339.334	556.38
339.562	575.38
339.79	602.38
340.018	625.38
340.246	636.38
340.474	635.38
340.702	612.38
340.93	622.38
341.158	632.38
341.386	609.38
341.614	602.38
341.842	588.38
342.07	593.38
342.298	610.38
342.526	597.38
342.754	578.38
342.981	599.38
343.209	587.38
343.437	586.38
343.665	586.38
343.893	616.38
344.12	645.38
344.348	657.38
344.576	630.38
344.804	607.38
345.031	589.38
345.259	591.38
345.487	573.38
345.714	579.38
345.942	586.38
346.17	584.38
346.397	584.38
346.625	575.38
346.853	562.38
347.08	553.38
347.308	552.38
347.535	572.38
347.763	579.38
347.99	565.38
348.218	568.38
348.445	567.38
348.673	555.38
348.9	596.38
349.128	620.38
349.355	630.38
349.583	616.38
349.81	570.38
350.037	528.38
350.265	531.38
350.492	528.38
350.72	563.38
350.947	599.38
351.174	593.38
351.402	535.38
351.629	552.38
351.856	528.38
352.083	520.38
352.311	549.38
352.538	559.38
352.765	595.38
352.992	587.38
353.22	555.38
353.447	564.38
353.674	554.38
353.901	600.38
354.128	559.38
354.355	581.38
354.583	564.38
354.81	587.38
355.037	596.38
355.264	577.38
355.491	573.38
355.718	584.38
355.945	564.38
356.172	551.38
356.399	536.38
356.626	563.38
356.853	601.38
357.08	658.38
357.307	706.38
357.534	657.38
357.761	580.38
357.988	553.38
358.215	531.38
358.441	557.38
358.668	551.38
358.895	552.38
359.122	625.38
359.349	641.38
359.576	621.38
359.802	553.38
360.029	564.38
360.256	565.38
360.483	555.38
360.709	603.38
360.936	598.38
361.163	644.38
361.39	699.38
361.616	721.38
361.843	721.38
362.07	640.38
362.296	576.38
362.523	557.38
362.749	577.38
362.976	599.38
363.203	603.38
363.429	551.38
363.656	579.38
363.882	611.38
364.109	686.38
364.335	701.38
364.562	651.38
364.788	636.38
365.015	549.38
365.241	584.38
365.468	578.38
365.694	627.38
365.92	619.38
366.147	600.38
366.373	560.38
366.599	564.38
366.826	556.38
367.052	561.38
367.278	568.38
367.505	576.38
367.731	588.38
367.957	631.38
368.184	634.38
368.41	671.38
368.636	689.38
368.862	691.38
369.089	684.38
369.315	640.38
369.541	614.38
369.767	581.38
369.993	584.38
370.219	577.38
370.445	629.38
370.672	650.38
370.898	699.38
371.124	679.38
371.35	655.38
371.576	655.38
371.802	676.38
372.028	635.38
372.254	619.38
372.48	620.38
372.706	592.38
372.932	595.38
373.158	620.38
373.384	639.38
373.61	645.38
373.835	664.38
374.061	618.38
374.287	641.38
374.513	636.38
374.739	649.38
374.965	643.38
375.191	639.38
375.416	648.38
375.642	663.38
375.868	704.38
376.094	739.38
376.319	667.38
376.545	647.38
376.771	685.38
376.997	704.38
377.222	694.38
377.448	689.38
377.674	679.38
377.899	714.38
378.125	728.38
378.35	708.38
378.576	654.38
378.802	630.38
379.027	644.38
379.253	641.38
379.478	639.38
379.704	644.38
379.929	634.38
380.155	637.38
380.38	659.38
380.606	683.38
380.831	681.38
381.057	718.38
381.282	691.38
381.507	694.38
381.733	719.38
381.958	744.38
382.184	696.38
382.409	665.38
382.634	689.38
382.86	672.38
383.085	698.38
383.31	716.38
383.535	778.38
383.761	795.38
383.986	765.38
384.211	735.38
384.436	752.38
384.662	799.38
384.887	788.38
385.112	721.38
385.337	735.38
385.562	757.38
385.787	727.38
386.013	800.38
386.238	775.38
386.463	764.38
386.688	818.38
386.913	884.38
387.138	829.38
387.363	767.38
387.588	765.38
387.813	779.38
388.038	785.38
388.263	812.38
388.488	780.38
388.713	741.38
388.938	741.38
389.163	738.38
389.387	751.38
389.612	734.38
389.837	771.38
390.062	765.38
390.287	736.38
390.512	767.38
390.736	743.38
390.961	723.38
391.186	729.38
391.411	732.38
391.636	754.38
391.86	763.38
392.085	784.38
392.31	762.38
392.534	745.38
392.759	785.38
392.984	757.38
393.208	842.38
393.433	835.38
393.658	836.38
393.882	827.38
394.107	787.38
394.331	781.38
394.556	763.38
394.78	803.38
395.005	807.38
395.229	857.38
395.454	895.38
395.678	840.38
395.903	820.38
396.127	841.38
396.352	838.38
396.576	844.38
396.801	850.38
397.025	832.38
397.249	845.38
397.474	844.38
397.698	848.38
397.922	847.38
398.147	890.38
398.371	920.38
398.595	925.38
398.82	891.38
399.044	871.38
399.268	927.38
399.492	979.38
399.717	1017.38
399.941	995.38
400.165	979.38
400.389	977.38
400.613	1004.38
400.837	1132.38
401.062	1161.38
401.286	1030.38
401.51	965.38
401.734	995.38
401.958	949.38
402.182	898.38
402.406	872.38
402.63	860.38
402.854	903.38
403.078	907.38
403.302	893.38
403.526	904.38
403.75	919.38
403.974	950.38
404.198	948.38
404.422	982.38
404.645	1004.38
404.869	975.38
405.093	907.38
405.317	915.38
405.541	928.38
405.765	942.38
405.988	933.38
406.212	956.38
406.436	961.38
406.66	991.38
406.883	1032.38
407.107	1164.38
407.331	1221.38
407.555	1332.38
407.778	1124.38
408.002	992.38
408.226	976.38
408.449	983.38
408.673	951.38
408.896	947.38
409.12	975.38
409.344	949.38
409.567	925.38
409.791	946.38
410.014	975.38
410.238	1038.38
410.461	1066.38
410.685	973.38
410.908	951.38
411.132	939.38
411.355	952.38
411.578	945.38
411.802	959.38
412.025	953.38
412.249	933.38
412.472	935.38
412.695	916.38
412.919	936.38
413.142	932.38
413.365	943.38
413.589	955.38
413.812	1010.38
414.035	981.38
414.258	949.38
414.482	936.38
414.705	935.38
414.928	940.38
415.151	935.38
415.374	951.38
415.597	946.38
415.821	950.38
416.044	952.38
416.267	940.38
416.49	923.38
416.713	933.38
416.936	961.38
417.159	994.38
417.382	983.38
417.605	959.38
417.828	961.38
418.051	980.38
418.274	970.38
418.497	961.38
418.72	963.38
418.943	945.38
419.166	981.38
419.389	992.38
419.611	972.38
419.834	939.38
420.057	959.38
420.28	943.38
420.503	983.38
420.726	976.38
420.948	966.38
421.171	930.38
421.394	940.38
421.617	1010.38
421.839	1015.38
422.062	958.38
422.285	923.38
422.507	937.38
422.73	887.38
422.953	891.38
423.175	905.38
423.398	919.38
423.621	923.38
423.843	946.38
424.066	984.38
424.288	1042.38
424.511	1069.38
424.733	1029.38
424.956	950.38
425.178	918.38
425.401	966.38
425.623	974.38
425.846	942.38
426.068	970.38
426.291	969.38
426.513	944.38
426.735	977.38
426.958	1040.38
427.18	1083.38
427.402	987.38
427.625	1058.38
427.847	1011.38
428.069	938.38
428.292	931.38
428.514	920.38
428.736	909.38
428.958	928.38
429.181	925.38
429.403	1081.38
429.625	1218.38
429.847	1057.38
430.069	950.38
430.292	1067.38
430.514	1043.38
430.736	992.38
430.958	1000.38
431.18	931.38
431.402	889.38
431.624	854.38
431.846	781.38
432.068	746.38
432.29	746.38
432.512	796.38
432.734	883.38
432.956	929.38
433.178	971.38
433.4	966.38
433.622	984.38
433.844	938.38
434.066	857.38
434.287	802.38
434.509	791.38
434.731	844.38
434.953	945.38
435.175	940.38
435.397	945.38
435.618	891.38
435.84	855.38
436.062	858.38
436.284	952.38
436.505	935.38
436.727	994.38
436.949	943.38
437.17	936.38
437.392	876.38
437.614	865.38
437.835	796.38
438.057	822.38
438.278	897.38
438.5	891.38
438.721	908.38
438.943	931.38
439.165	896.38
439.386	932.38
439.608	948.38
439.829	973.38
440.05	985.38
440.272	945.38
440.493	979.38
440.715	1003.38
440.936	1036.38
441.158	1052.38
441.379	1060.38
441.6	1073.38
441.822	1027.38
442.043	1016.38
442.264	1024.38
442.486	957.38
442.707	967.38
442.928	976.38
443.149	987.38
443.371	982.38
443.592	1018.38
443.813	1023.38
444.034	1015.38
444.255	1041.38
444.476	1040.38
444.698	1066.38
444.919	1051.38
445.14	1135.38
445.361	1107.38
445.582	1077.38
445.803	1079.38
446.024	1049.38
446.245	1096.38
446.466	1068.38
446.687	1069.38
446.908	1082.38
447.129	1023.38
447.35	1041.38
447.571	1012.38
447.792	972.38
448.013	974.38
448.234	991.38
448.455	992.38
448.675	980.38
448.896	941.38
449.117	926.38
449.338	901.38
449.559	975.38
449.779	1000.38
450	1061.38
450.221	1081.38
450.442	1052.38
450.662	953.38
450.883	888.38
451.104	861.38
451.324	890.38
451.545	886.38
451.766	870.38
451.986	855.38
452.207	830.38
452.428	817.38
452.648	806.38
452.869	803.38
453.089	802.38
453.31	780.38
453.53	785.38
453.751	728.38
453.971	735.38
454.192	737.38
454.412	794.38
454.633	800.38
454.853	821.38
455.073	759.38
455.294	786.38
455.514	766.38
455.734	768.38
455.955	743.38
456.175	749.38
456.395	743.38
456.616	754.38
456.836	763.38
457.056	738.38
457.276	716.38
457.497	701.38
457.717	693.38
457.937	698.38
458.157	719.38
458.377	720.38
458.598	691.38
458.818	674.38
459.038	687.38
459.258	715.38
459.478	706.38
459.698	705.38
459.918	753.38
460.138	815.38
460.358	848.38
460.578	839.38
460.798	869.38
461.018	899.38
461.238	876.38
461.458	876.38
461.678	859.38
461.898	840.38
462.118	826.38
462.338	847.38
462.558	816.38
462.777	834.38
462.997	870.38
463.217	876.38
463.437	890.38
463.657	877.38
463.876	853.38
464.096	820.38
464.316	829.38
464.536	891.38
464.755	900.38
464.975	873.38
465.195	884.38
465.414	881.38
465.634	869.38
465.854	905.38
466.073	981.38
466.293	913.38
466.512	885.38
466.732	868.38
466.951	943.38
467.171	899.38
467.391	896.38
467.61	877.38
467.829	914.38
468.049	981.38
468.268	1062.38
468.488	964.38
468.707	943.38
468.927	941.38
469.146	920.38
469.365	949.38
469.585	936.38
469.804	924.38
470.023	936.38
470.243	929.38
470.462	939.38
470.681	932.38
470.901	960.38
471.12	973.38
471.339	938.38
471.558	951.38
471.777	905.38
471.997	902.38
472.216	838.38
472.435	800.38
472.654	802.38
472.873	788.38
473.092	860.38
473.311	833.38
473.53	839.38
473.749	820.38
473.968	835.38
474.187	856.38
474.406	856.38
474.625	883.38
474.844	906.38
475.063	896.38
475.282	905.38
475.501	842.38
475.72	853.38
475.939	919.38
476.158	869.38
476.377	863.38
476.596	861.38
476.814	852.38
477.033	836.38
477.252	868.38
477.471	882.38
477.69	904.38
477.908	947.38
478.127	988.38
478.346	989.38
478.564	992.38
478.783	1049.38
479.002	1074.38
479.22	1039.38
479.439	1041.38
479.658	1080.38
479.876	1000.38
480.095	894.38
480.313	915.38
480.532	891.38
480.751	883.38
480.969	840.38
481.188	816.38
481.406	802.38
481.624	767.38
481.843	811.38
482.061	839.38
482.28	890.38
482.498	901.38
482.717	859.38
482.935	908.38
483.153	995.38
483.372	1053.38
483.59	1049.38
483.808	999.38
484.027	971.38
484.245	1023.38
484.463	1250.38
484.681	1302.38
484.9	1028.38
485.118	1005.38
485.336	969.38
485.554	893.38
485.772	905.38
485.99	887.38
486.209	914.38
486.427	928.38
486.645	956.38
486.863	1017.38
487.081	1035.38
487.299	1001.38
487.517	1012.38
487.735	1124.38
487.953	1229.38
488.171	1170.38
488.389	1139.38
488.607	1119.38
488.825	1149.38
489.043	1045.38
489.261	972.38
489.479	1050.38
489.696	1051.38
489.914	1054.38
490.132	1057.38
490.35	1093.38
490.568	1158.38
490.786	1183.38
491.003	1239.38
491.221	1254.38
491.439	1294.38
491.657	1361.38
491.874	1397.38
492.092	1450.38
492.31	1498.38
492.527	1473.38
492.745	1391.38
492.963	1313.38
493.18	1345.38
493.398	1377.38
493.615	1357.38
493.833	1318.38
494.05	1256.38
494.268	1233.38
494.485	1260.38
494.703	1239.38
494.92	1231.38
495.138	1229.38
495.355	1264.38
495.573	1257.38
495.79	1295.38
496.008	1320.38
496.225	1223.38
496.442	1255.38
496.66	1269.38
496.877	1256.38
497.094	1251.38
497.312	1216.38
497.529	1199.38
497.746	1223.38
497.963	1311.38
498.181	1331.38
498.398	1255.38
498.615	1218.38
498.832	1178.38
499.049	1157.38
499.267	1224.38
499.484	1277.38
499.701	1321.38
499.918	1378.38
500.135	1514.38
500.352	1603.38
500.569	1617.38
500.786	1718.38
501.003	1584.38
501.22	1467.38
501.437	1408.38
501.654	1439.38
501.871	1364.38
502.088	1218.38
502.305	1211.38
502.522	1148.38
502.739	1097.38
502.956	1091.38
503.172	1065.38
503.389	1043.38
503.606	1033.38
503.823	1039.38
504.04	998.38
504.256	1029.38
504.473	1024.38
504.69	1053.38
504.907	1002.38
505.123	965.38
505.34	1057.38
505.557	1379.38
505.773	1144.38
505.99	975.38
506.207	919.38
506.423	894.38
506.64	915.38
506.856	900.38
507.073	1045.38
507.289	1107.38
507.506	1050.38
507.722	919.38
507.939	870.38
508.155	887.38
508.372	856.38
508.588	817.38
508.805	834.38
509.021	803.38
509.238	770.38
509.454	760.38
509.67	751.38
509.887	737.38
510.103	751.38
510.319	737.38
510.536	764.38
510.752	781.38
510.968	781.38
511.184	785.38
511.401	788.38
511.617	717.38
511.833	731.38
512.049	707.38
512.265	723.38
512.481	722.38
512.698	753.38
512.914	792.38
513.13	777.38
513.346	739.38
513.562	711.38
513.778	737.38
513.994	767.38
514.21	762.38
514.426	808.38
514.642	860.38
514.858	795.38
515.074	752.38
515.29	731.38
515.506	755.38
515.721	778.38
515.937	756.38
516.153	832.38
516.369	796.38
516.585	755.38
516.801	700.38
517.016	728.38
517.232	767.38
517.448	799.38
517.664	785.38
517.879	805.38
518.095	829.38
518.311	809.38
518.527	765.38
518.742	766.38
518.958	762.38
519.173	776.38
519.389	768.38
519.605	804.38
519.82	818.38
520.036	813.38
520.251	796.38
520.467	776.38
520.682	839.38
520.898	811.38
521.113	750.38
521.329	724.38
521.544	776.38
521.76	743.38
521.975	737.38
522.19	729.38
522.406	756.38
522.621	953.38
522.836	875.38
523.052	741.38
523.267	741.38
523.482	770.38
523.698	762.38
523.913	733.38
524.128	771.38
524.343	823.38
524.559	852.38
524.774	792.38
524.989	756.38
525.204	767.38
525.419	765.38
525.634	768.38
525.849	730.38
526.064	733.38
526.28	747.38
526.495	698.38
526.71	640.38
526.925	646.38
527.14	654.38
527.355	650.38
527.57	635.38
527.785	655.38
527.999	673.38
528.214	659.38
528.429	701.38
528.644	744.38
528.859	813.38
529.074	860.38
529.289	901.38
529.503	905.38
529.718	828.38
529.933	749.38
530.148	681.38
530.363	652.38
530.577	643.38
530.792	634.38
531.007	647.38
531.221	636.38
531.436	649.38
531.651	665.38
531.865	696.38
532.08	672.38
532.295	639.38
532.509	631.38
532.724	611.38
532.938	659.38
533.153	719.38
533.367	739.38
533.582	760.38
533.796	752.38
534.011	719.38
534.225	659.38
534.44	635.38
534.654	660.38
534.868	674.38
535.083	703.38
535.297	722.38
535.511	682.38
535.726	705.38
535.94	666.38
536.154	664.38
536.369	641.38
536.583	618.38
536.797	618.38
537.011	638.38
537.225	631.38
537.44	604.38
537.654	631.38
537.868	641.38
538.082	627.38
538.296	617.38
538.51	618.38
538.724	679.38
538.938	729.38
539.153	758.38
539.367	768.38
539.581	700.38
539.795	677.38
540.009	643.38
540.222	659.38
540.436	699.38
540.65	785.38
540.864	821.38
541.078	803.38
541.292	859.38
541.506	914.38
541.72	970.38
541.934	1054.38
542.147	1082.38
542.361	1011.38
542.575	884.38
542.789	850.38
543.002	773.38
543.216	765.38
543.43	756.38
543.644	815.38
543.857	916.38
544.071	900.38
544.285	963.38
544.498	913.38
544.712	933.38
544.925	943.38
545.139	968.38
545.352	937.38
545.566	944.38
545.779	939.38
545.993	974.38
546.206	969.38
546.42	989.38
546.633	938.38
546.847	957.38
547.06	989.38
547.274	994.38
547.487	1003.38
547.7	999.38
547.914	991.38
548.127	943.38
548.34	957.38
548.554	936.38
548.767	949.38
548.98	915.38
549.193	930.38
549.407	948.38
549.62	950.38
549.833	917.38
550.046	931.38
550.259	912.38
550.473	912.38
550.686	890.38
550.899	870.38
551.112	842.38
551.325	810.38
551.538	825.38
551.751	857.38
551.964	699.38
552.177	751.38
552.39	804.38
552.603	856.38
552.816	851.38
553.029	920.38
553.242	979.38
553.455	925.38
553.667	917.38
553.88	916.38
554.093	883.38
554.306	867.38
554.519	877.38
554.732	840.38
554.944	834.38
555.157	838.38
555.37	834.38
555.583	818.38
555.795	807.38
556.008	777.38
556.221	725.38
556.433	755.38
556.646	732.38
556.859	733.38
557.071	738.38
557.284	765.38
557.496	765.38
557.709	748.38
557.921	742.38
558.134	748.38
558.346	760.38
558.559	733.38
558.771	744.38
558.984	737.38
559.196	688.38
559.409	694.38
559.621	665.38
559.833	664.38
560.046	661.38
560.258	714.38
560.47	689.38
560.683	674.38
560.895	697.38
561.107	687.38
561.32	697.38
561.532	710.38
561.744	677.38
561.956	687.38
562.168	668.38
562.381	663.38
562.593	648.38
562.805	656.38
563.017	631.38
563.229	632.38
563.441	658.38
563.653	627.38
563.865	625.38
564.077	626.38
564.289	628.38
564.501	637.38
564.713	636.38
564.925	646.38
565.137	684.38
565.349	637.38
565.561	641.38
565.773	630.38
565.985	641.38
566.197	649.38
566.408	660.38
566.62	683.38
566.832	684.38
567.044	688.38
567.255	659.38
567.467	645.38
567.679	676.38
567.891	672.38
568.102	619.38
568.314	595.38
568.526	557.38
568.737	531.38
568.949	503.38
569.161	473.38
569.372	456.38
569.584	460.38
569.795	449.38
570.007	451.38
570.218	453.38
570.43	443.38
570.641	466.38
570.853	473.38
571.064	483.38
571.276	495.38
571.487	483.38
571.698	475.38
571.91	488.38
572.121	473.38
572.333	461.38
572.544	462.38
572.755	417.38
572.966	422.38
573.178	401.38
573.389	406.38
573.6	407.38
573.811	440.38
574.023	408.38
574.234	395.38
574.445	401.38
574.656	397.38
574.867	409.38
575.078	389.38
575.289	400.38
575.501	420.38
575.712	399.38
575.923	403.38
576.134	403.38
576.345	399.38
576.556	394.38
576.767	410.38
576.978	407.38
577.188	395.38
577.399	401.38
577.61	401.38
577.821	390.38
578.032	379.38
578.243	364.38
578.454	377.38
578.665	379.38
578.875	346.38
579.086	344.38
579.297	358.38
579.508	374.38
579.718	356.38
579.929	363.38
580.14	342.38
580.35	344.38
580.561	353.38
580.772	397.38
580.982	370.38
581.193	348.38
581.403	355.38
581.614	372.38
581.825	343.38
582.035	344.38
582.246	349.38
582.456	364.38
582.667	340.38
582.877	336.38
583.087	347.38
583.298	323.38
583.508	339.38
583.719	332.38
583.929	325.38
584.139	346.38
584.35	333.38
584.56	318.38
584.77	339.38
584.981	328.38
585.191	332.38
585.401	348.38
585.611	343.38
585.821	320.38
586.032	336.38
586.242	300.38
586.452	294.38
586.662	319.38
586.872	316.38
587.082	312.38
587.292	318.38
587.502	314.38
587.713	318.38
587.923	327.38
588.133	323.38
588.343	323.38
588.553	316.38
588.762	328.38
588.972	310.38
589.182	322.38
589.392	322.38
589.602	307.38
589.812	308.38
590.022	313.38
590.232	303.38
590.441	300.38
590.651	320.38
590.861	331.38
591.071	308.38
591.281	321.38
591.49	313.38
591.7	300.38
591.91	325.38
592.119	331.38
592.329	310.38
592.539	339.38
592.748	334.38
592.958	313.38
593.167	323.38
593.377	335.38
593.587	331.38
593.796	349.38
594.006	327.38
594.215	333.38
594.424	348.38
594.634	339.38
594.843	362.38
595.053	359.38
595.262	336.38
595.472	309.38
595.681	314.38
595.89	325.38
596.1	308.38
596.309	335.38
596.518	323.38
596.727	324.38
596.937	344.38
597.146	325.38
597.355	310.38
597.564	295.38
597.774	288.38
597.983	299.38
598.192	283.38
598.401	299.38
598.61	292.38
598.819	285.38
599.028	309.38
599.237	315.38
599.446	312.38
599.655	301.38
599.864	285.38
600.073	288.38
600.282	290.38
600.491	280.38
600.7	284.38
600.909	307.38
601.118	311.38
601.327	339.38
601.536	346.38
601.745	330.38
601.953	359.38
602.162	345.38
602.371	353.38
602.58	347.38
602.789	342.38
602.997	360.38
603.206	356.38
603.415	357.38
603.623	358.38
603.832	341.38
604.041	330.38
604.249	328.38
604.458	317.38
604.666	308.38
604.875	306.38
605.084	333.38
605.292	324.38
605.501	350.38
605.709	363.38
605.918	361.38
606.126	369.38
606.334	347.38
606.543	369.38
606.751	365.38
606.96	379.38
607.168	379.38
607.376	357.38
607.585	356.38
607.793	352.38
608.001	362.38
608.21	375.38
608.418	391.38
608.626	375.38
608.834	357.38
609.043	354.38
609.251	357.38
609.459	349.38
609.667	375.38
609.875	373.38
610.083	406.38
610.291	379.38
610.499	375.38
610.707	364.38
610.916	365.38
611.124	377.38
611.332	359.38
611.54	385.38
611.748	376.38
611.955	347.38
612.163	362.38
612.371	371.38
612.579	366.38
612.787	370.38
612.995	394.38
613.203	361.38
613.411	357.38
613.618	371.38
613.826	383.38
614.034	363.38
614.242	379.38
614.449	335.38
614.657	377.38
614.865	363.38
615.072	366.38
615.28	356.38
615.488	359.38
615.695	377.38
615.903	371.38
616.111	378.38
616.318	382.38
616.526	361.38
616.733	360.38
616.941	352.38
617.148	368.38
617.356	352.38
617.563	346.38
617.771	355.38
617.978	337.38
618.185	336.38
618.393	331.38
618.6	353.38
618.807	354.38
619.015	332.38
619.222	342.38
619.429	337.38
619.637	320.38
619.844	291.38
620.051	298.38
620.258	331.38
620.466	295.38
620.673	344.38
620.88	299.38
621.087	324.38
621.294	311.38
621.501	309.38
621.708	279.38
621.915	297.38
622.122	327.38
622.329	338.38
622.536	335.38
622.743	329.38
622.95	326.38
623.157	315.38
623.364	322.38
623.571	348.38
623.778	333.38
623.985	323.38
624.192	317.38
624.399	322.38
624.606	312.38
624.812	310.38
625.019	294.38
625.226	297.38
625.433	296.38
625.639	294.38
625.846	261.38
626.053	256.38
626.259	235.38
626.466	243.38
626.673	239.38
626.879	225.38
627.086	257.38
627.293	249.38
627.499	262.38
627.706	293.38
627.912	301.38
628.119	309.38
628.325	323.38
628.532	321.38
628.738	309.38
628.945	311.38
629.151	295.38
629.357	292.38
629.564	290.38
629.77	283.38
629.976	267.38
630.183	259.38
630.389	273.38
630.595	279.38
630.802	295.38
631.008	268.38
631.214	283.38
631.42	261.38
631.627	248.38
631.833	251.38
632.039	264.38
632.245	269.38
632.451	259.38
632.657	256.38
632.863	274.38
633.069	258.38
633.275	262.38
633.481	292.38
633.688	246.38
633.893	261.38
634.099	252.38
634.305	259.38
634.511	255.38
634.717	233.38
634.923	245.38
635.129	236.38
635.335	234.38
635.541	241.38
635.747	241.38
635.952	242.38
636.158	257.38
636.364	263.38
636.57	272.38
636.775	260.38
636.981	266.38
637.187	266.38
637.392	269.38
637.598	269.38
637.804	258.38
638.009	232.38
638.215	257.38
638.421	255.38
638.626	261.38
638.832	247.38
639.037	250.38
639.243	257.38
639.448	244.38
639.654	256.38
639.859	244.38
640.065	245.38
640.27	248.38
640.475	233.38
640.681	250.38
640.886	266.38
641.091	265.38
641.297	248.38
641.502	244.38
641.707	255.38
641.913	275.38
642.118	253.38
642.323	274.38
642.528	276.38
642.733	252.38
642.939	232.38
643.144	240.38
643.349	242.38
643.554	226.38
643.759	227.38
643.964	243.38
644.169	242.38
644.374	239.38
644.579	233.38
644.784	266.38
644.989	241.38
645.194	249.38
645.399	241.38
645.604	243.38
645.809	257.38
646.014	230.38
646.219	257.38
646.423	258.38
646.628	232.38
646.833	248.38
647.038	234.38
647.243	253.38
647.447	249.38
647.652	242.38
647.857	228.38
648.062	254.38
648.266	243.38
648.471	252.38
648.676	234.38
648.88	251.38
649.085	256.38
649.289	226.38
649.494	256.38
649.698	224.38
649.903	230.38
650.107	235.38
650.312	237.38
650.516	231.38
650.721	232.38
650.925	233.38
651.13	211.38
651.334	216.38
651.539	229.38
651.743	223.38
651.947	227.38
652.152	206.38
652.356	225.38
652.56	216.38
652.764	205.38
652.969	205.38
653.173	211.38
653.377	224.38
653.581	209.38
653.785	194.38
653.99	204.38
654.194	211.38
654.398	195.38
654.602	196.38
654.806	201.38
655.01	205.38
655.214	203.38
655.418	213.38
655.622	209.38
655.826	210.38
656.03	213.38
656.234	219.38
656.438	238.38
656.642	243.38
656.846	234.38
657.049	209.38
657.253	196.38
657.457	188.38
657.661	180.38
657.865	175.38
658.068	177.38
658.272	177.38
658.476	143.38
658.68	152.38
658.883	160.38
659.087	158.38
659.291	129.38
659.494	143.38
659.698	136.38
659.901	147.38
660.105	129.38
660.309	129.38
660.512	129.38
660.716	136.38
660.919	116.38
661.123	98.38
661.326	120.38
661.53	97.38
661.733	111.38
661.936	104.38
662.14	108.38
662.343	100.38
662.546	96.38
662.75	108.38
662.953	89.38
663.156	102.38
663.36	82.38
663.563	80.38
663.766	83.38
663.969	100.38
664.173	85.38
664.376	99.38
664.579	77.38
664.782	80.38
664.985	91.38
665.188	79.38
665.391	87.38
665.594	75.38
665.797	73.38
666	83.38
666.203	82.38
666.406	78.38
666.609	90.38
666.812	88.38
667.015	88.38
667.218	77.38
667.421	73.38
667.624	77.38
667.827	84.38
668.03	74.38
668.232	85.38
668.435	76.38
668.638	95.38
668.841	89.38
669.043	83.38
669.246	91.38
669.449	81.38
669.651	68.38
669.854	85.38
670.057	78.38
670.259	89.38
670.462	81.38
670.665	81.38
670.867	77.38
671.07	77.38
671.272	79.38
671.475	90.38
671.677	90.38
671.88	70.38
672.082	86.38
672.284	90.38
672.487	83.38
672.689	89.38
672.892	92.38
