Data from WStandard_LampEnergy5.5LIBS07252019.E.O._I.C._HRD10591_16-06-51-922.txt Node
Date: Thu Jul 25 16:06:51 EDT 2019
User: cochatt
Spectrometer: HR+D1059
Trigger mode: 1
Integration Time (sec): 1.000000E-1
Scans to average: 1
Electric dark correction enabled: true
Nonlinearity correction enabled: false
Boxcar width: 0
XAxis mode: Wavelengths
Number of Pixels in Spectrum: 2048
>>>>>Begin Spectral Data<<<<<
223.165	-18.38
223.4	-18.38
223.635	-18.38
223.869	-12.38
224.104	-5.38
224.338	-8.38
224.573	-18.38
224.808	-15.38
225.042	-4.38
225.277	-8.38
225.511	-1.38
225.746	7.62
225.98	7.62
226.215	6.62
226.449	12.62
226.683	15.62
226.918	12.62
227.152	29.62
227.387	23.62
227.621	49.62
227.856	44.62
228.09	62.62
228.324	46.62
228.559	65.62
228.793	165.62
229.027	372.62
229.262	379.62
229.496	383.62
229.73	408.62
229.964	446.62
230.199	467.62
230.433	484.62
230.667	501.62
230.901	521.62
231.136	489.62
231.37	489.62
231.604	461.62
231.838	478.62
232.072	478.62
232.306	463.62
232.541	476.62
232.775	554.62
233.009	593.62
233.243	583.62
233.477	533.62
233.711	567.62
233.945	592.62
234.179	560.62
234.413	592.62
234.647	664.62
234.881	599.62
235.115	546.62
235.349	558.62
235.583	579.62
235.817	557.62
236.051	538.62
236.285	583.62
236.519	585.62
236.753	690.62
236.987	693.62
237.221	682.62
237.455	765.62
237.689	730.62
237.922	697.62
238.156	655.62
238.39	693.62
238.624	743.62
238.858	743.62
239.091	790.62
239.325	819.62
239.559	925.62
239.793	993.62
240.027	1073.62
240.26	1046.62
240.494	775.62
240.728	743.62
240.961	733.62
241.195	717.62
241.429	825.62
241.662	844.62
241.896	782.62
242.13	772.62
242.363	861.62
242.597	937.62
242.83	895.62
243.064	874.62
243.298	965.62
243.531	959.62
243.765	962.62
243.998	942.62
244.232	838.62
244.465	810.62
244.699	800.62
244.932	905.62
245.166	1090.62
245.399	971.62
245.633	913.62
245.866	879.62
246.099	949.62
246.333	969.62
246.566	945.62
246.8	1076.62
247.033	1192.62
247.266	1117.62
247.5	1097.62
247.733	1069.62
247.966	1143.62
248.2	1270.62
248.433	1166.62
248.666	1226.62
248.899	1365.62
249.133	1553.62
249.366	1771.62
249.599	1423.62
249.832	1266.62
250.066	1310.62
250.299	1321.62
250.532	1225.62
250.765	1098.62
250.998	1171.62
251.231	1233.62
251.465	1262.62
251.698	1207.62
251.931	1197.62
252.164	1226.62
252.397	1313.62
252.63	1282.62
252.863	1125.62
253.096	1102.62
253.329	1174.62
253.562	1178.62
253.795	1319.62
254.028	1253.62
254.261	1183.62
254.494	1193.62
254.727	1112.62
254.96	1151.62
255.193	1279.62
255.426	1451.62
255.659	1632.62
255.892	1748.62
256.124	1429.62
256.357	1333.62
256.59	1474.62
256.823	1457.62
257.056	1427.62
257.289	1733.62
257.521	1923.62
257.754	1741.62
257.987	1619.62
258.22	1834.62
258.452	1804.62
258.685	1403.62
258.918	1401.62
259.151	1405.62
259.383	1328.62
259.616	1201.62
259.849	1250.62
260.081	1428.62
260.314	1581.62
260.547	1717.62
260.779	1749.62
261.012	1656.62
261.244	1474.62
261.477	1405.62
261.71	1456.62
261.942	1438.62
262.175	1383.62
262.407	1500.62
262.64	1400.62
262.872	1314.62
263.105	1237.62
263.337	1313.62
263.57	1330.62
263.802	1315.62
264.035	1232.62
264.267	1185.62
264.499	1180.62
264.732	1233.62
264.964	1300.62
265.197	1327.62
265.429	1420.62
265.661	1585.62
265.894	1754.62
266.126	1825.62
266.358	1609.62
266.591	1688.62
266.823	1870.62
267.055	1658.62
267.287	1630.62
267.52	1585.62
267.752	1599.62
267.984	1587.62
268.216	1642.62
268.448	1725.62
268.681	1681.62
268.913	1533.62
269.145	1461.62
269.377	1433.62
269.609	1555.62
269.841	1730.62
270.073	2059.62
270.306	2344.62
270.538	2531.62
270.77	2088.62
271.002	1789.62
271.234	1677.62
271.466	1640.62
271.698	1867.62
271.93	2274.62
272.162	2292.62
272.394	2024.62
272.626	1917.62
272.858	1685.62
273.09	1472.62
273.322	1456.62
273.553	1393.62
273.785	1398.62
274.017	1487.62
274.249	1576.62
274.481	1586.62
274.713	1471.62
274.945	1442.62
275.176	1451.62
275.408	1430.62
275.64	1393.62
275.872	1384.62
276.104	1489.62
276.335	1670.62
276.567	1910.62
276.799	1920.62
277.031	1702.62
277.262	1636.62
277.494	1670.62
277.726	1834.62
277.957	1854.62
278.189	1722.62
278.421	1589.62
278.652	1510.62
278.884	1504.62
279.115	1474.62
279.347	1541.62
279.579	1454.62
279.81	1467.62
280.042	1639.62
280.273	1819.62
280.505	1771.62
280.736	1833.62
280.968	1768.62
281.199	1558.62
281.431	1447.62
281.662	1481.62
281.894	1413.62
282.125	1448.62
282.356	1544.62
282.588	1557.62
282.819	1517.62
283.051	1663.62
283.282	1803.62
283.513	1777.62
283.745	1523.62
283.976	1411.62
284.207	1419.62
284.439	1466.62
284.67	1502.62
284.901	1542.62
285.132	1593.62
285.364	1535.62
285.595	1545.62
285.826	1517.62
286.057	1535.62
286.288	1526.62
286.52	1581.62
286.751	1730.62
286.982	1751.62
287.213	1610.62
287.444	1457.62
287.675	1487.62
287.906	1557.62
288.138	1643.62
288.369	1603.62
288.6	1545.62
288.831	1507.62
289.062	1475.62
289.293	1515.62
289.524	1514.62
289.755	1574.62
289.986	1591.62
290.217	1438.62
290.448	1469.62
290.679	1494.62
290.91	1537.62
291.141	1589.62
291.371	1640.62
291.602	1619.62
291.833	1583.62
292.064	1664.62
292.295	1637.62
292.526	1665.62
292.757	1765.62
292.987	1676.62
293.218	1587.62
293.449	1698.62
293.68	1901.62
293.91	2089.62
294.141	1917.62
294.372	1745.62
294.603	1815.62
294.833	1921.62
295.064	1827.62
295.295	1646.62
295.525	1653.62
295.756	1518.62
295.987	1418.62
296.217	1458.62
296.448	1495.62
296.679	1494.62
296.909	1513.62
297.14	1480.62
297.37	1514.62
297.601	1574.62
297.831	1776.62
298.062	1764.62
298.292	1604.62
298.523	1510.62
298.753	1493.62
298.984	1542.62
299.214	1555.62
299.445	1558.62
299.675	1632.62
299.905	1621.62
300.136	1601.62
300.366	1518.62
300.597	1485.62
300.827	1481.62
301.057	1545.62
301.288	1635.62
301.518	1620.62
301.748	1667.62
301.979	1738.62
302.209	1713.62
302.439	1875.62
302.669	2018.62
302.9	1874.62
303.13	1666.62
303.36	1621.62
303.59	1699.62
303.82	1652.62
304.051	1674.62
304.281	1627.62
304.511	1653.62
304.741	1716.62
304.971	1914.62
305.201	2103.62
305.431	1960.62
305.661	1625.62
305.891	1486.62
306.121	1413.62
306.352	1523.62
306.582	1601.62
306.812	1656.62
307.042	1870.62
307.272	1837.62
307.502	1852.62
307.731	1995.62
307.961	2189.62
308.191	2037.62
308.421	1775.62
308.651	1594.62
308.881	1599.62
309.111	1611.62
309.341	1562.62
309.571	1597.62
309.8	1571.62
310.03	1579.62
310.26	1549.62
310.49	1539.62
310.72	1606.62
310.949	1670.62
311.179	1719.62
311.409	1703.62
311.639	1651.62
311.868	1586.62
312.098	1596.62
312.328	1590.62
312.557	1525.62
312.787	1618.62
313.017	1657.62
313.246	1655.62
313.476	1637.62
313.706	1689.62
313.935	1669.62
314.165	1719.62
314.394	1758.62
314.624	1820.62
314.853	1903.62
315.083	1986.62
315.312	2083.62
315.542	1968.62
315.771	1702.62
316.001	1711.62
316.23	1828.62
316.46	1803.62
316.689	1768.62
316.919	1682.62
317.148	1619.62
317.377	1607.62
317.607	1769.62
317.836	1981.62
318.065	2069.62
318.295	2006.62
318.524	1915.62
318.753	1818.62
318.983	1805.62
319.212	1773.62
319.441	1722.62
319.67	1701.62
319.9	1720.62
320.129	1827.62
320.358	1918.62
320.587	1971.62
320.816	1957.62
321.046	1934.62
321.275	1789.62
321.504	1767.62
321.733	1986.62
321.962	1911.62
322.191	1745.62
322.42	1747.62
322.649	1742.62
322.878	1715.62
323.108	1711.62
323.337	1818.62
323.566	1798.62
323.795	1758.62
324.024	1801.62
324.253	1738.62
324.482	1797.62
324.71	1731.62
324.939	1652.62
325.168	1657.62
325.397	1730.62
325.626	1819.62
325.855	1850.62
326.084	1706.62
326.313	1739.62
326.542	1759.62
326.77	1790.62
326.999	1839.62
327.228	1737.62
327.457	1614.62
327.686	1644.62
327.914	1675.62
328.143	1705.62
328.372	1738.62
328.6	1735.62
328.829	1742.62
329.058	1696.62
329.287	1710.62
329.515	1781.62
329.744	1798.62
329.972	1856.62
330.201	1906.62
330.43	1882.62
330.658	1808.62
330.887	1864.62
331.115	1833.62
331.344	1860.62
331.572	1813.62
331.801	1810.62
332.03	1834.62
332.258	1832.62
332.486	1891.62
332.715	1888.62
332.943	1887.62
333.172	1832.62
333.4	1863.62
333.629	1916.62
333.857	2010.62
334.085	2211.62
334.314	2475.62
334.542	2814.62
334.771	2528.62
334.999	2243.62
335.227	2123.62
335.455	1985.62
335.684	1947.62
335.912	1970.62
336.14	2105.62
336.369	1992.62
336.597	1888.62
336.825	1863.62
337.053	1917.62
337.281	2042.62
337.51	2109.62
337.738	2189.62
337.966	2097.62
338.194	1898.62
338.422	1843.62
338.65	1847.62
338.878	1779.62
339.106	1758.62
339.334	1721.62
339.562	1740.62
339.79	1725.62
340.018	1871.62
340.246	1952.62
340.474	1960.62
340.702	1901.62
340.93	1913.62
341.158	1868.62
341.386	1789.62
341.614	1837.62
341.842	1809.62
342.07	1777.62
342.298	1860.62
342.526	1817.62
342.754	1806.62
342.981	1745.62
343.209	1798.62
343.437	1795.62
343.665	1788.62
343.893	1829.62
344.12	1920.62
344.348	1970.62
344.576	1927.62
344.804	1803.62
345.031	1783.62
345.259	1818.62
345.487	1735.62
345.714	1685.62
345.942	1679.62
346.17	1658.62
346.397	1706.62
346.625	1753.62
346.853	1636.62
347.08	1618.62
347.308	1596.62
347.535	1680.62
347.763	1749.62
347.99	1721.62
348.218	1592.62
348.445	1603.62
348.673	1647.62
348.9	1734.62
349.128	1778.62
349.355	1840.62
349.583	1794.62
349.81	1726.62
350.037	1583.62
350.265	1587.62
350.492	1568.62
350.72	1616.62
350.947	1693.62
351.174	1751.62
351.402	1653.62
351.629	1557.62
351.856	1541.62
352.083	1547.62
352.311	1564.62
352.538	1615.62
352.765	1680.62
352.992	1722.62
353.22	1690.62
353.447	1634.62
353.674	1645.62
353.901	1653.62
354.128	1642.62
354.355	1578.62
354.583	1686.62
354.81	1707.62
355.037	1704.62
355.264	1730.62
355.491	1665.62
355.718	1674.62
355.945	1653.62
356.172	1627.62
356.399	1595.62
356.626	1626.62
356.853	1668.62
357.08	1751.62
357.307	1989.62
357.534	2030.62
357.761	1763.62
357.988	1643.62
358.215	1542.62
358.441	1571.62
358.668	1571.62
358.895	1586.62
359.122	1713.62
359.349	1899.62
359.576	1868.62
359.802	1669.62
360.029	1598.62
360.256	1591.62
360.483	1602.62
360.709	1680.62
360.936	1729.62
361.163	1777.62
361.39	1941.62
361.616	2093.62
361.843	1976.62
362.07	1908.62
362.296	1695.62
362.523	1628.62
362.749	1653.62
362.976	1674.62
363.203	1707.62
363.429	1637.62
363.656	1593.62
363.882	1703.62
364.109	1831.62
364.335	2037.62
364.562	1816.62
364.788	1801.62
365.015	1690.62
365.241	1608.62
365.468	1645.62
365.694	1722.62
365.92	1791.62
366.147	1761.62
366.373	1629.62
366.599	1594.62
366.826	1605.62
367.052	1611.62
367.278	1628.62
367.505	1697.62
367.731	1674.62
367.957	1715.62
368.184	1719.62
368.41	1860.62
368.636	1866.62
368.862	1844.62
369.089	1880.62
369.315	1794.62
369.541	1777.62
369.767	1698.62
369.993	1599.62
370.219	1637.62
370.445	1664.62
370.672	1747.62
370.898	1868.62
371.124	1886.62
371.35	1747.62
371.576	1809.62
371.802	1861.62
372.028	1786.62
372.254	1692.62
372.48	1672.62
372.706	1617.62
372.932	1682.62
373.158	1695.62
373.384	1709.62
373.61	1758.62
373.835	1866.62
374.061	1778.62
374.287	1744.62
374.513	1681.62
374.739	1722.62
374.965	1758.62
375.191	1780.62
375.416	1758.62
375.642	1782.62
375.868	1890.62
376.094	1982.62
376.319	1887.62
376.545	1725.62
376.771	1761.62
376.997	1861.62
377.222	1830.62
377.448	1765.62
377.674	1816.62
377.899	1797.62
378.125	1890.62
378.35	1947.62
378.576	1723.62
378.802	1672.62
379.027	1693.62
379.253	1722.62
379.478	1743.62
379.704	1709.62
379.929	1739.62
380.155	1736.62
380.38	1744.62
380.606	1756.62
380.831	1738.62
381.057	1854.62
381.282	1881.62
381.507	1791.62
381.733	1905.62
381.958	1996.62
382.184	1823.62
382.409	1791.62
382.634	1819.62
382.86	1836.62
383.085	1809.62
383.31	1812.62
383.535	1955.62
383.761	2163.62
383.986	2036.62
384.211	1943.62
384.436	1937.62
384.662	1994.62
384.887	2113.62
385.112	1998.62
385.337	2020.62
385.562	1985.62
385.787	1960.62
386.013	2024.62
386.238	2059.62
386.463	2035.62
386.688	2110.62
386.913	2246.62
387.138	2237.62
387.363	2039.62
387.588	2070.62
387.813	2042.62
388.038	2048.62
388.263	2133.62
388.488	2025.62
388.713	1874.62
388.938	1903.62
389.163	1903.62
389.387	1936.62
389.612	1933.62
389.837	2020.62
390.062	2045.62
390.287	1979.62
390.512	1944.62
390.736	1965.62
390.961	1899.62
391.186	1881.62
391.411	1882.62
391.636	1913.62
391.86	1969.62
392.085	1985.62
392.31	1942.62
392.534	1961.62
392.759	2004.62
392.984	1989.62
393.208	2056.62
393.433	2105.62
393.658	2143.62
393.882	2152.62
394.107	2045.62
394.331	1931.62
394.556	1974.62
394.78	2048.62
395.005	2055.62
395.229	2110.62
395.454	2266.62
395.678	2292.62
395.903	2199.62
396.127	2071.62
396.352	2056.62
396.576	2190.62
396.801	2170.62
397.025	2177.62
397.249	2165.62
397.474	2130.62
397.698	2106.62
397.922	2123.62
398.147	2233.62
398.371	2347.62
398.595	2355.62
398.82	2259.62
399.044	2321.62
399.268	2413.62
399.492	2552.62
399.717	2611.62
399.941	2649.62
400.165	2620.62
400.389	2552.62
400.613	2536.62
400.837	2706.62
401.062	3099.62
401.286	2686.62
401.51	2399.62
401.734	2616.62
401.958	2530.62
402.182	2327.62
402.406	2239.62
402.63	2183.62
402.854	2235.62
403.078	2297.62
403.302	2282.62
403.526	2354.62
403.75	2327.62
403.974	2387.62
404.198	2356.62
404.422	2406.62
404.645	2548.62
404.869	2505.62
405.093	2282.62
405.317	2276.62
405.541	2328.62
405.765	2370.62
405.988	2357.62
406.212	2414.62
406.436	2443.62
406.66	2517.62
406.883	2514.62
407.107	2823.62
407.331	3093.62
407.555	3333.62
407.778	3073.62
408.002	2538.62
408.226	2444.62
408.449	2503.62
408.673	2379.62
408.896	2380.62
409.12	2461.62
409.344	2368.62
409.567	2337.62
409.791	2358.62
410.014	2387.62
410.238	2493.62
410.461	2643.62
410.685	2389.62
410.908	2262.62
411.132	2341.62
411.355	2333.62
411.578	2244.62
411.802	2289.62
412.025	2331.62
412.249	2281.62
412.472	2189.62
412.695	2200.62
412.919	2229.62
413.142	2269.62
413.365	2215.62
413.589	2332.62
413.812	2403.62
414.035	2465.62
414.258	2286.62
414.482	2245.62
414.705	2277.62
414.928	2228.62
415.151	2225.62
415.374	2268.62
415.597	2278.62
415.821	2322.62
416.044	2357.62
416.267	2358.62
416.49	2181.62
416.713	2127.62
416.936	2234.62
417.159	2308.62
417.382	2333.62
417.605	2229.62
417.828	2308.62
418.051	2366.62
418.274	2265.62
418.497	2185.62
418.72	2186.62
418.943	2150.62
419.166	2296.62
419.389	2425.62
419.611	2288.62
419.834	2181.62
420.057	2267.62
420.28	2166.62
420.503	2152.62
420.726	2215.62
420.948	2198.62
421.171	2161.62
421.394	2132.62
421.617	2201.62
421.839	2236.62
422.062	2182.62
422.285	2165.62
422.507	2134.62
422.73	2036.62
422.953	2039.62
423.175	2089.62
423.398	2137.62
423.621	2164.62
423.843	2168.62
424.066	2216.62
424.288	2249.62
424.511	2300.62
424.733	2258.62
424.956	2078.62
425.178	2039.62
425.401	2045.62
425.623	2150.62
425.846	2059.62
426.068	2232.62
426.291	2250.62
426.513	2232.62
426.735	2225.62
426.958	2274.62
427.18	2479.62
427.402	2254.62
427.625	2327.62
427.847	2394.62
428.069	2189.62
428.292	2133.62
428.514	2081.62
428.736	2097.62
428.958	2100.62
429.181	2072.62
429.403	2326.62
429.625	2961.62
429.847	2613.62
430.069	2165.62
430.292	2363.62
430.514	2427.62
430.736	2240.62
430.958	2355.62
431.18	2305.62
431.402	2101.62
431.624	2071.62
431.846	2109.62
432.068	2045.62
432.29	2081.62
432.512	2122.62
432.734	2129.62
432.956	2176.62
433.178	2233.62
433.4	2271.62
433.622	2288.62
433.844	2173.62
434.066	2020.62
434.287	2087.62
434.509	2103.62
434.731	2229.62
434.953	2394.62
435.175	2356.62
435.397	2205.62
435.618	2181.62
435.84	2231.62
436.062	2204.62
436.284	2191.62
436.505	2182.62
436.727	2262.62
436.949	2184.62
437.17	2095.62
437.392	2056.62
437.614	2112.62
437.835	2037.62
438.057	2197.62
438.278	2307.62
438.5	2151.62
438.721	2082.62
438.943	2127.62
439.165	2026.62
439.386	2058.62
439.608	2066.62
439.829	2087.62
440.05	2090.62
440.272	2042.62
440.493	1985.62
440.715	2073.62
440.936	2195.62
441.158	2449.62
441.379	2439.62
441.6	2349.62
441.822	2283.62
442.043	2253.62
442.264	2241.62
442.486	2080.62
442.707	2048.62
442.928	2084.62
443.149	2146.62
443.371	2295.62
443.592	2355.62
443.813	2251.62
444.034	2255.62
444.255	2273.62
444.476	2337.62
444.698	2367.62
444.919	2337.62
445.14	2423.62
445.361	2433.62
445.582	2455.62
445.803	2377.62
446.024	2287.62
446.245	2405.62
446.466	2283.62
446.687	2179.62
446.908	2202.62
447.129	2106.62
447.35	2151.62
447.571	2127.62
447.792	2068.62
448.013	2064.62
448.234	2117.62
448.455	2201.62
448.675	2268.62
448.896	2019.62
449.117	1981.62
449.338	2061.62
449.559	2099.62
449.779	2272.62
450	2462.62
450.221	2679.62
450.442	2613.62
450.662	2275.62
450.883	1985.62
451.104	1961.62
451.324	1989.62
451.545	2121.62
451.766	2027.62
451.986	1944.62
452.207	1955.62
452.428	1882.62
452.648	1849.62
452.869	1935.62
453.089	2053.62
453.31	2060.62
453.53	2155.62
453.751	2047.62
453.971	1892.62
454.192	1904.62
454.412	2090.62
454.633	2031.62
454.853	1966.62
455.073	1847.62
455.294	1795.62
455.514	1813.62
455.734	1859.62
455.955	1896.62
456.175	1874.62
456.395	1872.62
456.616	1930.62
456.836	1995.62
457.056	1925.62
457.276	1936.62
457.497	1875.62
457.717	1789.62
457.937	1849.62
458.157	1899.62
458.377	1850.62
458.598	1894.62
458.818	1885.62
459.038	2018.62
459.258	2157.62
459.478	2121.62
459.698	2035.62
459.918	2105.62
460.138	2225.62
460.358	2243.62
460.578	2198.62
460.798	2307.62
461.018	2470.62
461.238	2329.62
461.458	2207.62
461.678	2245.62
461.898	2198.62
462.118	2138.62
462.338	2261.62
462.558	2266.62
462.777	2242.62
462.997	2351.62
463.217	2471.62
463.437	2447.62
463.657	2296.62
463.876	2263.62
464.096	2229.62
464.316	2221.62
464.536	2354.62
464.755	2371.62
464.975	2375.62
465.195	2288.62
465.414	2375.62
465.634	2383.62
465.854	2218.62
466.073	2391.62
466.293	2349.62
466.512	2059.62
466.732	2080.62
466.951	2170.62
467.171	2159.62
467.391	2049.62
467.61	1974.62
467.829	2027.62
468.049	2166.62
468.268	2437.62
468.488	2283.62
468.707	2178.62
468.927	2091.62
469.146	2043.62
469.365	2017.62
469.585	2037.62
469.804	2033.62
470.023	2039.62
470.243	2062.62
470.462	2072.62
470.681	2011.62
470.901	2078.62
471.12	2057.62
471.339	2034.62
471.558	2015.62
471.777	1940.62
471.997	2025.62
472.216	2029.62
472.435	1942.62
472.654	1976.62
472.873	2031.62
473.092	2194.62
473.311	2047.62
473.53	1923.62
473.749	1983.62
473.968	2002.62
474.187	2074.62
474.406	2243.62
474.625	2045.62
474.844	2079.62
475.063	2059.62
475.282	2114.62
475.501	2068.62
475.72	2088.62
475.939	2192.62
476.158	2130.62
476.377	2085.62
476.596	2105.62
476.814	2161.62
477.033	2163.62
477.252	2275.62
477.471	2325.62
477.69	2200.62
477.908	2176.62
478.127	2281.62
478.346	2487.62
478.564	2491.62
478.783	2399.62
479.002	2517.62
479.22	2440.62
479.439	2514.62
479.658	2880.62
479.876	2816.62
480.095	2499.62
480.313	2418.62
480.532	2290.62
480.751	2308.62
480.969	2376.62
481.188	2330.62
481.406	2308.62
481.624	2257.62
481.843	2248.62
482.061	2353.62
482.28	2322.62
482.498	2403.62
482.717	2399.62
482.935	2271.62
483.153	2264.62
483.372	2247.62
483.59	2291.62
483.808	2310.62
484.027	2359.62
484.245	2481.62
484.463	2812.62
484.681	3337.62
484.9	2529.62
485.118	2371.62
485.336	2291.62
485.554	2433.62
485.772	2536.62
485.99	2443.62
486.209	2499.62
486.427	2422.62
486.645	2473.62
486.863	2430.62
487.081	2448.62
487.299	2560.62
487.517	2451.62
487.735	2367.62
487.953	2397.62
488.171	2365.62
488.389	2363.62
488.607	2336.62
488.825	2620.62
489.043	2699.62
489.261	2383.62
489.479	2517.62
489.696	2554.62
489.914	2533.62
490.132	2464.62
490.35	2415.62
490.568	2543.62
490.786	2435.62
491.003	2323.62
491.221	2391.62
491.439	2481.62
491.657	2467.62
491.874	2491.62
492.092	2503.62
492.31	2512.62
492.527	2481.62
492.745	2434.62
492.963	2421.62
493.18	2512.62
493.398	2719.62
493.615	2765.62
493.833	2577.62
494.05	2497.62
494.268	2494.62
494.485	2590.62
494.703	2551.62
494.92	2405.62
495.138	2441.62
495.355	2481.62
495.573	2557.62
495.79	2787.62
496.008	2784.62
496.225	2589.62
496.442	2559.62
496.66	2666.62
496.877	2628.62
497.094	2751.62
497.312	2690.62
497.529	2666.62
497.746	2789.62
497.963	3211.62
498.181	3609.62
498.398	3417.62
498.615	3314.62
498.832	3214.62
499.049	3119.62
499.267	3191.62
499.484	3353.62
499.701	3610.62
499.918	3655.62
500.135	3939.62
500.352	4240.62
500.569	4145.62
500.786	4436.62
501.003	4216.62
501.22	3802.62
501.437	3615.62
501.654	3661.62
501.871	3657.62
502.088	3165.62
502.305	3122.62
502.522	3101.62
502.739	2789.62
502.956	2748.62
503.172	2677.62
503.389	2632.62
503.606	2615.62
503.823	2635.62
504.04	2636.62
504.256	2636.62
504.473	2686.62
504.69	2743.62
504.907	2563.62
505.123	2477.62
505.34	2616.62
505.557	3357.62
505.773	2903.62
505.99	2406.62
506.207	2319.62
506.423	2268.62
506.64	2215.62
506.856	2232.62
507.073	2582.62
507.289	2755.62
507.506	2648.62
507.722	2245.62
507.939	2173.62
508.155	2172.62
508.372	2192.62
508.588	2105.62
508.805	2063.62
509.021	2083.62
509.238	2061.62
509.454	2054.62
509.67	2057.62
509.887	2026.62
510.103	2035.62
510.319	2032.62
510.536	2143.62
510.752	2211.62
510.968	2251.62
511.184	2361.62
511.401	2352.62
511.617	2055.62
511.833	1992.62
512.049	2015.62
512.265	1983.62
512.481	1959.62
512.698	2045.62
512.914	2214.62
513.13	2106.62
513.346	1961.62
513.562	1975.62
513.778	1982.62
513.994	2115.62
514.21	2173.62
514.426	2179.62
514.642	2459.62
514.858	2256.62
515.074	2086.62
515.29	2030.62
515.506	2110.62
515.721	2161.62
515.937	2125.62
516.153	2365.62
516.369	2318.62
516.585	2167.62
516.801	2066.62
517.016	2071.62
517.232	2133.62
517.448	2173.62
517.664	2212.62
517.879	2211.62
518.095	2288.62
518.311	2235.62
518.527	2101.62
518.742	2050.62
518.958	1974.62
519.173	1972.62
519.389	1987.62
519.605	2073.62
519.82	2047.62
520.036	2122.62
520.251	2002.62
520.467	2041.62
520.682	2207.62
520.898	2303.62
521.113	2034.62
521.329	1990.62
521.544	2147.62
521.76	2085.62
521.975	1935.62
522.19	1932.62
522.406	1919.62
522.621	2342.62
522.836	2343.62
523.052	1914.62
523.267	1884.62
523.482	1894.62
523.698	1776.62
523.913	1756.62
524.128	1878.62
524.343	1923.62
524.559	1997.62
524.774	1837.62
524.989	1839.62
525.204	1844.62
525.419	1778.62
525.634	1808.62
525.849	1845.62
526.064	1824.62
526.28	1850.62
526.495	1769.62
526.71	1755.62
526.925	1782.62
527.14	1751.62
527.355	1697.62
527.57	1727.62
527.785	1790.62
527.999	1727.62
528.214	1705.62
528.429	1698.62
528.644	1705.62
528.859	1748.62
529.074	1685.62
529.289	1713.62
529.503	1738.62
529.718	1778.62
529.933	1721.62
530.148	1717.62
530.363	1635.62
530.577	1739.62
530.792	1702.62
531.007	1765.62
531.221	1729.62
531.436	1754.62
531.651	1825.62
531.865	1907.62
532.08	1774.62
532.295	1721.62
532.509	1656.62
532.724	1687.62
532.938	1728.62
533.153	1917.62
533.367	1775.62
533.582	1719.62
533.796	1687.62
534.011	1726.62
534.225	1718.62
534.44	1682.62
534.654	1633.62
534.868	1685.62
535.083	1789.62
535.297	1780.62
535.511	1722.62
535.726	1725.62
535.94	1701.62
536.154	1667.62
536.369	1679.62
536.583	1639.62
536.797	1607.62
537.011	1675.62
537.225	1656.62
537.44	1607.62
537.654	1689.62
537.868	1601.62
538.082	1554.62
538.296	1530.62
538.51	1555.62
538.724	1529.62
538.938	1547.62
539.153	1603.62
539.367	1630.62
539.581	1591.62
539.795	1693.62
540.009	1671.62
540.222	1642.62
540.436	1658.62
540.65	1807.62
540.864	1831.62
541.078	1731.62
541.292	1568.62
541.506	1625.62
541.72	1639.62
541.934	1625.62
542.147	1656.62
542.361	1587.62
542.575	1574.62
542.789	1509.62
543.002	1548.62
543.216	1555.62
543.43	1633.62
543.644	1713.62
543.857	1736.62
544.071	1695.62
544.285	1591.62
544.498	1593.62
544.712	1556.62
544.925	1616.62
545.139	1650.62
545.352	1581.62
545.566	1531.62
545.779	1475.62
545.993	1565.62
546.206	1591.62
546.42	1496.62
546.633	1496.62
546.847	1488.62
547.06	1493.62
547.274	1499.62
547.487	1522.62
547.7	1517.62
547.914	1532.62
548.127	1554.62
548.34	1603.62
548.554	1532.62
548.767	1553.62
548.98	1554.62
549.193	1522.62
549.407	1579.62
549.62	1632.62
549.833	1497.62
550.046	1523.62
550.259	1495.62
550.473	1509.62
550.686	1502.62
550.899	1443.62
551.112	1459.62
551.325	1447.62
551.538	1506.62
551.751	1816.62
551.964	1483.62
552.177	1411.62
552.39	1462.62
552.603	1466.62
552.816	1481.62
553.029	1581.62
553.242	1594.62
553.455	1517.62
553.667	1487.62
553.88	1497.62
554.093	1507.62
554.306	1454.62
554.519	1409.62
554.732	1397.62
554.944	1429.62
555.157	1433.62
555.37	1429.62
555.583	1420.62
555.795	1406.62
556.008	1353.62
556.221	1321.62
556.433	1307.62
556.646	1309.62
556.859	1312.62
557.071	1294.62
557.284	1321.62
557.496	1306.62
557.709	1266.62
557.921	1254.62
558.134	1263.62
558.346	1274.62
558.559	1244.62
558.771	1265.62
558.984	1217.62
559.196	1203.62
559.409	1195.62
559.621	1250.62
559.833	1241.62
560.046	1292.62
560.258	1258.62
560.47	1203.62
560.683	1247.62
560.895	1230.62
561.107	1228.62
561.32	1242.62
561.532	1300.62
561.744	1234.62
561.956	1230.62
562.168	1234.62
562.381	1145.62
562.593	1185.62
562.805	1185.62
563.017	1201.62
563.229	1182.62
563.441	1229.62
563.653	1205.62
563.865	1216.62
564.077	1194.62
564.289	1214.62
564.501	1236.62
564.713	1252.62
564.925	1242.62
565.137	1403.62
565.349	1296.62
565.561	1306.62
565.773	1318.62
565.985	1338.62
566.197	1384.62
566.408	1492.62
566.62	1441.62
566.832	1441.62
567.044	1457.62
567.255	1434.62
567.467	1466.62
567.679	1551.62
567.891	1576.62
568.102	1526.62
568.314	1458.62
568.526	1363.62
568.737	1349.62
568.949	1266.62
569.161	1242.62
569.372	1204.62
569.584	1194.62
569.795	1144.62
570.007	1174.62
570.218	1128.62
570.43	1119.62
570.641	1083.62
570.853	1120.62
571.064	1138.62
571.276	1082.62
571.487	1084.62
571.698	1017.62
571.91	998.62
572.121	1039.62
572.333	992.62
572.544	1014.62
572.755	980.62
572.966	961.62
573.178	958.62
573.389	995.62
573.6	1028.62
573.811	1072.62
574.023	1005.62
574.234	973.62
574.445	953.62
574.656	929.62
574.867	887.62
575.078	922.62
575.289	916.62
575.501	923.62
575.712	906.62
575.923	905.62
576.134	949.62
576.345	894.62
576.556	905.62
576.767	860.62
576.978	873.62
577.188	863.62
577.399	850.62
577.61	852.62
577.821	863.62
578.032	839.62
578.243	862.62
578.454	838.62
578.665	839.62
578.875	835.62
579.086	813.62
579.297	836.62
579.508	857.62
579.718	840.62
579.929	838.62
580.14	829.62
580.35	799.62
580.561	827.62
580.772	919.62
580.982	866.62
581.193	801.62
581.403	770.62
581.614	782.62
581.825	787.62
582.035	765.62
582.246	806.62
582.456	809.62
582.667	797.62
582.877	786.62
583.087	777.62
583.298	783.62
583.508	789.62
583.719	783.62
583.929	811.62
584.139	783.62
584.35	753.62
584.56	743.62
584.77	755.62
584.981	777.62
585.191	775.62
585.401	800.62
585.611	761.62
585.821	759.62
586.032	745.62
586.242	761.62
586.452	767.62
586.662	791.62
586.872	774.62
587.082	736.62
587.292	759.62
587.502	789.62
587.713	777.62
587.923	754.62
588.133	733.62
588.343	747.62
588.553	733.62
588.762	721.62
588.972	728.62
589.182	754.62
589.392	751.62
589.602	742.62
589.812	745.62
590.022	731.62
590.232	718.62
590.441	742.62
590.651	777.62
590.861	742.62
591.071	719.62
591.281	703.62
591.49	726.62
591.7	742.62
591.91	724.62
592.119	719.62
592.329	766.62
592.539	746.62
592.748	765.62
592.958	757.62
593.167	785.62
593.377	765.62
593.587	776.62
593.796	773.62
594.006	763.62
594.215	785.62
594.424	765.62
594.634	728.62
594.843	714.62
595.053	755.62
595.262	735.62
595.472	721.62
595.681	727.62
595.89	723.62
596.1	689.62
596.309	695.62
596.518	676.62
596.727	685.62
596.937	678.62
597.146	642.62
597.355	661.62
597.564	663.62
597.774	648.62
597.983	651.62
598.192	633.62
598.401	619.62
598.61	627.62
598.819	618.62
599.028	640.62
599.237	643.62
599.446	608.62
599.655	623.62
599.864	588.62
600.073	621.62
600.282	621.62
600.491	597.62
600.7	594.62
600.909	587.62
601.118	597.62
601.327	587.62
601.536	615.62
601.745	627.62
601.953	600.62
602.162	583.62
602.371	609.62
602.58	588.62
602.789	595.62
602.997	608.62
603.206	598.62
603.415	594.62
603.623	574.62
603.832	584.62
604.041	571.62
604.249	569.62
604.458	564.62
604.666	583.62
604.875	575.62
605.084	577.62
605.292	604.62
605.501	578.62
605.709	555.62
605.918	588.62
606.126	547.62
606.334	555.62
606.543	557.62
606.751	561.62
606.96	557.62
607.168	557.62
607.376	549.62
607.585	536.62
607.793	554.62
608.001	542.62
608.21	553.62
608.418	555.62
608.626	539.62
608.834	538.62
609.043	516.62
609.251	567.62
609.459	546.62
609.667	557.62
609.875	529.62
610.083	578.62
610.291	557.62
610.499	558.62
610.707	543.62
610.916	518.62
611.124	536.62
611.332	542.62
611.54	536.62
611.748	538.62
611.955	537.62
612.163	539.62
612.371	515.62
612.579	531.62
612.787	521.62
612.995	514.62
613.203	537.62
613.411	532.62
613.618	526.62
613.826	511.62
614.034	510.62
614.242	516.62
614.449	511.62
614.657	533.62
614.865	531.62
615.072	531.62
615.28	510.62
615.488	517.62
615.695	563.62
615.903	522.62
616.111	500.62
616.318	538.62
616.526	531.62
616.733	522.62
616.941	496.62
617.148	514.62
617.356	514.62
617.563	498.62
617.771	490.62
617.978	495.62
618.185	489.62
618.393	480.62
618.6	464.62
618.807	483.62
619.015	492.62
619.222	501.62
619.429	465.62
619.637	490.62
619.844	463.62
620.051	503.62
620.258	463.62
620.466	433.62
620.673	462.62
620.88	435.62
621.087	448.62
621.294	453.62
621.501	452.62
621.708	491.62
621.915	463.62
622.122	466.62
622.329	481.62
622.536	483.62
622.743	466.62
622.95	464.62
623.157	441.62
623.364	455.62
623.571	444.62
623.778	457.62
623.985	424.62
624.192	437.62
624.399	445.62
624.606	448.62
624.812	451.62
625.019	438.62
625.226	446.62
625.433	451.62
625.639	441.62
625.846	420.62
626.053	414.62
626.259	420.62
626.466	410.62
626.673	392.62
626.879	401.62
627.086	427.62
627.293	419.62
627.499	407.62
627.706	392.62
627.912	417.62
628.119	396.62
628.325	409.62
628.532	389.62
628.738	433.62
628.945	415.62
629.151	388.62
629.357	419.62
629.564	402.62
629.77	395.62
629.976	387.62
630.183	386.62
630.389	405.62
630.595	397.62
630.802	412.62
631.008	385.62
631.214	362.62
631.42	379.62
631.627	372.62
631.833	376.62
632.039	367.62
632.245	386.62
632.451	391.62
632.657	355.62
632.863	353.62
633.069	382.62
633.275	373.62
633.481	356.62
633.688	374.62
633.893	372.62
634.099	359.62
634.305	341.62
634.511	383.62
634.717	357.62
634.923	331.62
635.129	345.62
635.335	346.62
635.541	349.62
635.747	371.62
635.952	355.62
636.158	351.62
636.364	354.62
636.57	323.62
636.775	357.62
636.981	367.62
637.187	354.62
637.392	348.62
637.598	346.62
637.804	346.62
638.009	365.62
638.215	363.62
638.421	340.62
638.626	330.62
638.832	334.62
639.037	340.62
639.243	325.62
639.448	343.62
639.654	348.62
639.859	339.62
640.065	337.62
640.27	319.62
640.475	335.62
640.681	329.62
640.886	325.62
641.091	347.62
641.297	321.62
641.502	318.62
641.707	310.62
641.913	323.62
642.118	322.62
642.323	331.62
642.528	310.62
642.733	303.62
642.939	313.62
643.144	321.62
643.349	319.62
643.554	304.62
643.759	303.62
643.964	317.62
644.169	322.62
644.374	333.62
644.579	318.62
644.784	325.62
644.989	311.62
645.194	292.62
645.399	319.62
645.604	319.62
645.809	326.62
646.014	290.62
646.219	301.62
646.423	300.62
646.628	293.62
646.833	295.62
647.038	324.62
647.243	310.62
647.447	330.62
647.652	312.62
647.857	319.62
648.062	309.62
648.266	328.62
648.471	331.62
648.676	315.62
648.88	320.62
649.085	321.62
649.289	323.62
649.494	302.62
649.698	294.62
649.903	297.62
650.107	295.62
650.312	291.62
650.516	297.62
650.721	299.62
650.925	279.62
651.13	289.62
651.334	277.62
651.539	286.62
651.743	270.62
651.947	279.62
652.152	275.62
652.356	258.62
652.56	270.62
652.764	249.62
652.969	258.62
653.173	264.62
653.377	258.62
653.581	263.62
653.785	243.62
653.99	242.62
654.194	242.62
654.398	253.62
654.602	236.62
654.806	239.62
655.01	242.62
655.214	234.62
655.418	239.62
655.622	222.62
655.826	246.62
656.03	262.62
656.234	260.62
656.438	254.62
656.642	254.62
656.846	245.62
657.049	228.62
657.253	203.62
657.457	217.62
657.661	192.62
657.865	189.62
658.068	187.62
658.272	170.62
658.476	156.62
658.68	158.62
658.883	147.62
659.087	127.62
659.291	124.62
659.494	123.62
659.698	134.62
659.901	122.62
660.105	133.62
660.309	124.62
660.512	131.62
660.716	109.62
660.919	117.62
661.123	102.62
661.326	101.62
661.53	96.62
661.733	110.62
661.936	119.62
662.14	97.62
662.343	109.62
662.546	94.62
662.75	83.62
662.953	106.62
663.156	93.62
663.36	106.62
663.563	85.62
663.766	87.62
663.969	79.62
664.173	100.62
664.376	79.62
664.579	84.62
664.782	81.62
664.985	81.62
665.188	59.62
665.391	91.62
665.594	74.62
665.797	82.62
666	77.62
666.203	98.62
666.406	76.62
666.609	89.62
666.812	81.62
667.015	71.62
667.218	77.62
667.421	93.62
667.624	81.62
667.827	86.62
668.03	93.62
668.232	85.62
668.435	78.62
668.638	89.62
668.841	75.62
669.043	75.62
669.246	74.62
669.449	78.62
669.651	83.62
669.854	73.62
670.057	74.62
670.259	76.62
670.462	78.62
670.665	80.62
670.867	85.62
671.07	78.62
671.272	82.62
671.475	86.62
671.677	77.62
671.88	87.62
672.082	86.62
672.284	72.62
672.487	81.62
672.689	72.62
672.892	74.62
