Data from WStandard_LampEnergy5.5LIBS07252019.E.O._I.C._HRD10591_16-07-41-919.txt Node
Date: Thu Jul 25 16:07:41 EDT 2019
User: cochatt
Spectrometer: HR+D1059
Trigger mode: 1
Integration Time (sec): 1.000000E-1
Scans to average: 1
Electric dark correction enabled: true
Nonlinearity correction enabled: false
Boxcar width: 0
XAxis mode: Wavelengths
Number of Pixels in Spectrum: 2048
>>>>>Begin Spectral Data<<<<<
223.165	-21.94
223.4	-21.94
223.635	-21.94
223.869	-17.94
224.104	-20.94
224.338	-13.94
224.573	-16.94
224.808	-11.94
225.042	-13.94
225.277	-2.94
225.511	13.06
225.746	5.06
225.98	0.06
226.215	12.06
226.449	29.06
226.683	16.06
226.918	33.06
227.152	12.06
227.387	31.06
227.621	36.06
227.856	42.06
228.09	41.06
228.324	57.06
228.559	56.06
228.793	143.06
229.027	356.06
229.262	367.06
229.496	391.06
229.73	398.06
229.964	455.06
230.199	470.06
230.433	498.06
230.667	509.06
230.901	549.06
231.136	517.06
231.37	474.06
231.604	462.06
231.838	474.06
232.072	488.06
232.306	442.06
232.541	497.06
232.775	580.06
233.009	647.06
233.243	596.06
233.477	552.06
233.711	574.06
233.945	585.06
234.179	572.06
234.413	593.06
234.647	673.06
234.881	608.06
235.115	555.06
235.349	568.06
235.583	586.06
235.817	580.06
236.051	562.06
236.285	556.06
236.519	607.06
236.753	684.06
236.987	718.06
237.221	687.06
237.455	800.06
237.689	775.06
237.922	697.06
238.156	668.06
238.39	693.06
238.624	730.06
238.858	791.06
239.091	788.06
239.325	843.06
239.559	961.06
239.793	1011.06
240.027	1065.06
240.26	1073.06
240.494	791.06
240.728	739.06
240.961	785.06
241.195	774.06
241.429	843.06
241.662	866.06
241.896	793.06
242.13	779.06
242.363	866.06
242.597	924.06
242.83	930.06
243.064	917.06
243.298	1009.06
243.531	967.06
243.765	984.06
243.998	938.06
244.232	846.06
244.465	807.06
244.699	818.06
244.932	927.06
245.166	1073.06
245.399	1008.06
245.633	945.06
245.866	928.06
246.099	993.06
246.333	1018.06
246.566	1003.06
246.8	1104.06
247.033	1235.06
247.266	1161.06
247.5	1090.06
247.733	1071.06
247.966	1159.06
248.2	1281.06
248.433	1227.06
248.666	1267.06
248.899	1363.06
249.133	1583.06
249.366	1821.06
249.599	1475.06
249.832	1268.06
250.066	1297.06
250.299	1354.06
250.532	1269.06
250.765	1116.06
250.998	1173.06
251.231	1237.06
251.465	1265.06
251.698	1221.06
251.931	1213.06
252.164	1266.06
252.397	1317.06
252.63	1303.06
252.863	1161.06
253.096	1124.06
253.329	1196.06
253.562	1208.06
253.795	1336.06
254.028	1344.06
254.261	1249.06
254.494	1203.06
254.727	1139.06
254.96	1153.06
255.193	1299.06
255.426	1449.06
255.659	1675.06
255.892	1766.06
256.124	1446.06
256.357	1353.06
256.59	1478.06
256.823	1467.06
257.056	1465.06
257.289	1727.06
257.521	2004.06
257.754	1761.06
257.987	1646.06
258.22	1791.06
258.452	1824.06
258.685	1458.06
258.918	1411.06
259.151	1424.06
259.383	1355.06
259.616	1186.06
259.849	1256.06
260.081	1429.06
260.314	1593.06
260.547	1752.06
260.779	1802.06
261.012	1658.06
261.244	1493.06
261.477	1428.06
261.71	1448.06
261.942	1447.06
262.175	1399.06
262.407	1521.06
262.64	1442.06
262.872	1353.06
263.105	1261.06
263.337	1324.06
263.57	1329.06
263.802	1359.06
264.035	1277.06
264.267	1211.06
264.499	1160.06
264.732	1240.06
264.964	1329.06
265.197	1391.06
265.429	1457.06
265.661	1617.06
265.894	1802.06
266.126	1845.06
266.358	1654.06
266.591	1719.06
266.823	1860.06
267.055	1667.06
267.287	1667.06
267.52	1627.06
267.752	1624.06
267.984	1580.06
268.216	1649.06
268.448	1734.06
268.681	1715.06
268.913	1567.06
269.145	1455.06
269.377	1436.06
269.609	1551.06
269.841	1809.06
270.073	2083.06
270.306	2357.06
270.538	2575.06
270.77	2100.06
271.002	1770.06
271.234	1689.06
271.466	1674.06
271.698	1881.06
271.93	2279.06
272.162	2307.06
272.394	2031.06
272.626	1988.06
272.858	1746.06
273.09	1531.06
273.322	1493.06
273.553	1405.06
273.785	1407.06
274.017	1464.06
274.249	1603.06
274.481	1629.06
274.713	1499.06
274.945	1441.06
275.176	1447.06
275.408	1439.06
275.64	1428.06
275.872	1393.06
276.104	1501.06
276.335	1701.06
276.567	1918.06
276.799	1988.06
277.031	1757.06
277.262	1679.06
277.494	1735.06
277.726	1916.06
277.957	1908.06
278.189	1731.06
278.421	1575.06
278.652	1562.06
278.884	1514.06
279.115	1499.06
279.347	1588.06
279.579	1508.06
279.81	1488.06
280.042	1676.06
280.273	1845.06
280.505	1841.06
280.736	1874.06
280.968	1741.06
281.199	1565.06
281.431	1496.06
281.662	1464.06
281.894	1491.06
282.125	1498.06
282.356	1565.06
282.588	1610.06
282.819	1605.06
283.051	1680.06
283.282	1865.06
283.513	1815.06
283.745	1556.06
283.976	1453.06
284.207	1463.06
284.439	1527.06
284.67	1512.06
284.901	1561.06
285.132	1588.06
285.364	1594.06
285.595	1590.06
285.826	1552.06
286.057	1565.06
286.288	1520.06
286.52	1589.06
286.751	1728.06
286.982	1785.06
287.213	1653.06
287.444	1530.06
287.675	1474.06
287.906	1585.06
288.138	1666.06
288.369	1629.06
288.6	1538.06
288.831	1505.06
289.062	1510.06
289.293	1583.06
289.524	1561.06
289.755	1645.06
289.986	1642.06
290.217	1485.06
290.448	1509.06
290.679	1621.06
290.91	1589.06
291.141	1636.06
291.371	1715.06
291.602	1651.06
291.833	1621.06
292.064	1764.06
292.295	1632.06
292.526	1740.06
292.757	1793.06
292.987	1668.06
293.218	1584.06
293.449	1681.06
293.68	1912.06
293.91	2090.06
294.141	1936.06
294.372	1816.06
294.603	1885.06
294.833	1997.06
295.064	1881.06
295.295	1702.06
295.525	1644.06
295.756	1519.06
295.987	1411.06
296.217	1481.06
296.448	1506.06
296.679	1567.06
296.909	1572.06
297.14	1507.06
297.37	1542.06
297.601	1638.06
297.831	1786.06
298.062	1825.06
298.292	1642.06
298.523	1556.06
298.753	1550.06
298.984	1619.06
299.214	1608.06
299.445	1616.06
299.675	1644.06
299.905	1641.06
300.136	1595.06
300.366	1584.06
300.597	1548.06
300.827	1525.06
301.057	1612.06
301.288	1666.06
301.518	1681.06
301.748	1685.06
301.979	1773.06
302.209	1800.06
302.439	1937.06
302.669	2026.06
302.9	1866.06
303.13	1687.06
303.36	1699.06
303.59	1731.06
303.82	1719.06
304.051	1708.06
304.281	1701.06
304.511	1660.06
304.741	1791.06
304.971	1949.06
305.201	2140.06
305.431	2018.06
305.661	1655.06
305.891	1495.06
306.121	1467.06
306.352	1548.06
306.582	1634.06
306.812	1717.06
307.042	1878.06
307.272	1865.06
307.502	1941.06
307.731	2079.06
307.961	2220.06
308.191	2080.06
308.421	1775.06
308.651	1647.06
308.881	1612.06
309.111	1619.06
309.341	1598.06
309.571	1604.06
309.8	1584.06
310.03	1607.06
310.26	1618.06
310.49	1606.06
310.72	1655.06
310.949	1689.06
311.179	1731.06
311.409	1694.06
311.639	1655.06
311.868	1629.06
312.098	1665.06
312.328	1663.06
312.557	1589.06
312.787	1669.06
313.017	1688.06
313.246	1719.06
313.476	1668.06
313.706	1779.06
313.935	1740.06
314.165	1736.06
314.394	1766.06
314.624	1861.06
314.853	1950.06
315.083	2085.06
315.312	2147.06
315.542	1956.06
315.771	1765.06
316.001	1733.06
316.23	1850.06
316.46	1846.06
316.689	1808.06
316.919	1689.06
317.148	1677.06
317.377	1653.06
317.607	1761.06
317.836	1998.06
318.065	2088.06
318.295	2010.06
318.524	1954.06
318.753	1825.06
318.983	1841.06
319.212	1833.06
319.441	1768.06
319.67	1744.06
319.9	1770.06
320.129	1862.06
320.358	1927.06
320.587	2034.06
320.816	1959.06
321.046	1964.06
321.275	1818.06
321.504	1825.06
321.733	2009.06
321.962	1944.06
322.191	1775.06
322.42	1752.06
322.649	1747.06
322.878	1759.06
323.108	1753.06
323.337	1836.06
323.566	1872.06
323.795	1814.06
324.024	1824.06
324.253	1782.06
324.482	1843.06
324.71	1767.06
324.939	1656.06
325.168	1704.06
325.397	1749.06
325.626	1806.06
325.855	1831.06
326.084	1773.06
326.313	1764.06
326.542	1804.06
326.77	1830.06
326.999	1849.06
327.228	1778.06
327.457	1692.06
327.686	1705.06
327.914	1731.06
328.143	1785.06
328.372	1767.06
328.6	1785.06
328.829	1775.06
329.058	1711.06
329.287	1698.06
329.515	1769.06
329.744	1794.06
329.972	1876.06
330.201	1997.06
330.43	1930.06
330.658	1878.06
330.887	1833.06
331.115	1885.06
331.344	1915.06
331.572	1835.06
331.801	1839.06
332.03	1843.06
332.258	1883.06
332.486	1948.06
332.715	1888.06
332.943	1929.06
333.172	1867.06
333.4	1902.06
333.629	1913.06
333.857	2039.06
334.085	2239.06
334.314	2488.06
334.542	2792.06
334.771	2585.06
334.999	2233.06
335.227	2111.06
335.455	2006.06
335.684	1988.06
335.912	2010.06
336.14	2118.06
336.369	2026.06
336.597	1921.06
336.825	1907.06
337.053	1959.06
337.281	2057.06
337.51	2110.06
337.738	2236.06
337.966	2144.06
338.194	1911.06
338.422	1878.06
338.65	1858.06
338.878	1831.06
339.106	1796.06
339.334	1732.06
339.562	1733.06
339.79	1728.06
340.018	1891.06
340.246	1967.06
340.474	1981.06
340.702	1954.06
340.93	1967.06
341.158	1922.06
341.386	1833.06
341.614	1858.06
341.842	1822.06
342.07	1829.06
342.298	1861.06
342.526	1862.06
342.754	1844.06
342.981	1830.06
343.209	1822.06
343.437	1788.06
343.665	1851.06
343.893	1868.06
344.12	1948.06
344.348	2016.06
344.576	1920.06
344.804	1857.06
345.031	1828.06
345.259	1858.06
345.487	1791.06
345.714	1727.06
345.942	1664.06
346.17	1739.06
346.397	1713.06
346.625	1785.06
346.853	1686.06
347.08	1613.06
347.308	1670.06
347.535	1699.06
347.763	1798.06
347.99	1742.06
348.218	1661.06
348.445	1661.06
348.673	1713.06
348.9	1759.06
349.128	1789.06
349.355	1873.06
349.583	1804.06
349.81	1726.06
350.037	1609.06
350.265	1585.06
350.492	1617.06
350.72	1661.06
350.947	1735.06
351.174	1764.06
351.402	1689.06
351.629	1599.06
351.856	1578.06
352.083	1575.06
352.311	1566.06
352.538	1662.06
352.765	1706.06
352.992	1757.06
353.22	1685.06
353.447	1642.06
353.674	1662.06
353.901	1707.06
354.128	1691.06
354.355	1613.06
354.583	1728.06
354.81	1753.06
355.037	1760.06
355.264	1777.06
355.491	1694.06
355.718	1724.06
355.945	1705.06
356.172	1649.06
356.399	1621.06
356.626	1660.06
356.853	1696.06
357.08	1805.06
357.307	1983.06
357.534	2002.06
357.761	1766.06
357.988	1628.06
358.215	1609.06
358.441	1601.06
358.668	1611.06
358.895	1598.06
359.122	1685.06
359.349	1918.06
359.576	1881.06
359.802	1685.06
360.029	1654.06
360.256	1610.06
360.483	1659.06
360.709	1675.06
360.936	1768.06
361.163	1831.06
361.39	1940.06
361.616	2159.06
361.843	2065.06
362.07	1947.06
362.296	1721.06
362.523	1655.06
362.749	1671.06
362.976	1705.06
363.203	1728.06
363.429	1663.06
363.656	1645.06
363.882	1700.06
364.109	1860.06
364.335	2049.06
364.562	1864.06
364.788	1816.06
365.015	1743.06
365.241	1657.06
365.468	1676.06
365.694	1698.06
365.92	1821.06
366.147	1779.06
366.373	1636.06
366.599	1610.06
366.826	1608.06
367.052	1692.06
367.278	1665.06
367.505	1706.06
367.731	1722.06
367.957	1707.06
368.184	1782.06
368.41	1847.06
368.636	1872.06
368.862	1859.06
369.089	1922.06
369.315	1804.06
369.541	1782.06
369.767	1706.06
369.993	1639.06
370.219	1657.06
370.445	1714.06
370.672	1802.06
370.898	1904.06
371.124	1917.06
371.35	1768.06
371.576	1784.06
371.802	1893.06
372.028	1820.06
372.254	1720.06
372.48	1706.06
372.706	1686.06
372.932	1715.06
373.158	1695.06
373.384	1727.06
373.61	1803.06
373.835	1835.06
374.061	1792.06
374.287	1743.06
374.513	1741.06
374.739	1789.06
374.965	1786.06
375.191	1819.06
375.416	1850.06
375.642	1827.06
375.868	1925.06
376.094	1980.06
376.319	1941.06
376.545	1752.06
376.771	1767.06
376.997	1891.06
377.222	1870.06
377.448	1828.06
377.674	1844.06
377.899	1848.06
378.125	1934.06
378.35	1959.06
378.576	1800.06
378.802	1745.06
379.027	1728.06
379.253	1716.06
379.478	1771.06
379.704	1784.06
379.929	1741.06
380.155	1758.06
380.38	1759.06
380.606	1806.06
380.831	1787.06
381.057	1875.06
381.282	1854.06
381.507	1849.06
381.733	1961.06
381.958	2035.06
382.184	1893.06
382.409	1810.06
382.634	1851.06
382.86	1830.06
383.085	1838.06
383.31	1852.06
383.535	2010.06
383.761	2148.06
383.986	2062.06
384.211	1970.06
384.436	1956.06
384.662	2048.06
384.887	2136.06
385.112	2073.06
385.337	2088.06
385.562	2009.06
385.787	2048.06
386.013	2101.06
386.238	2051.06
386.463	2064.06
386.688	2168.06
386.913	2324.06
387.138	2307.06
387.363	2058.06
387.588	2087.06
387.813	2088.06
388.038	2080.06
388.263	2173.06
388.488	2096.06
388.713	1885.06
388.938	1923.06
389.163	1920.06
389.387	1994.06
389.612	1974.06
389.837	2042.06
390.062	2029.06
390.287	2012.06
390.512	2004.06
390.736	1982.06
390.961	1921.06
391.186	1916.06
391.411	1916.06
391.636	1988.06
391.86	2024.06
392.085	2021.06
392.31	1973.06
392.534	2027.06
392.759	2021.06
392.984	2012.06
393.208	2073.06
393.433	2102.06
393.658	2170.06
393.882	2203.06
394.107	2052.06
394.331	1985.06
394.556	1991.06
394.78	2033.06
395.005	2100.06
395.229	2154.06
395.454	2337.06
395.678	2329.06
395.903	2241.06
396.127	2107.06
396.352	2186.06
396.576	2145.06
396.801	2220.06
397.025	2157.06
397.249	2248.06
397.474	2177.06
397.698	2150.06
397.922	2219.06
398.147	2307.06
398.371	2408.06
398.595	2387.06
398.82	2266.06
399.044	2355.06
399.268	2412.06
399.492	2613.06
399.717	2702.06
399.941	2701.06
400.165	2710.06
400.389	2571.06
400.613	2548.06
400.837	2779.06
401.062	3199.06
401.286	2821.06
401.51	2538.06
401.734	2648.06
401.958	2557.06
402.182	2394.06
402.406	2254.06
402.63	2257.06
402.854	2257.06
403.078	2278.06
403.302	2385.06
403.526	2402.06
403.75	2409.06
403.974	2382.06
404.198	2406.06
404.422	2506.06
404.645	2577.06
404.869	2562.06
405.093	2359.06
405.317	2333.06
405.541	2440.06
405.765	2447.06
405.988	2377.06
406.212	2463.06
406.436	2492.06
406.66	2539.06
406.883	2578.06
407.107	2848.06
407.331	3173.06
407.555	3334.06
407.778	3158.06
408.002	2609.06
408.226	2526.06
408.449	2526.06
408.673	2452.06
408.896	2494.06
409.12	2521.06
409.344	2489.06
409.567	2323.06
409.791	2401.06
410.014	2430.06
410.238	2585.06
410.461	2697.06
410.685	2502.06
410.908	2316.06
411.132	2359.06
411.355	2343.06
411.578	2344.06
411.802	2385.06
412.025	2350.06
412.249	2350.06
412.472	2292.06
412.695	2270.06
412.919	2261.06
413.142	2241.06
413.365	2305.06
413.589	2369.06
413.812	2445.06
414.035	2533.06
414.258	2323.06
414.482	2259.06
414.705	2279.06
414.928	2280.06
415.151	2292.06
415.374	2266.06
415.597	2327.06
415.821	2349.06
416.044	2428.06
416.267	2449.06
416.49	2217.06
416.713	2169.06
416.936	2273.06
417.159	2391.06
417.382	2402.06
417.605	2224.06
417.828	2337.06
418.051	2388.06
418.274	2297.06
418.497	2212.06
418.72	2195.06
418.943	2181.06
419.166	2359.06
419.389	2508.06
419.611	2301.06
419.834	2256.06
420.057	2304.06
420.28	2210.06
420.503	2191.06
420.726	2282.06
420.948	2266.06
421.171	2169.06
421.394	2198.06
421.617	2273.06
421.839	2268.06
422.062	2201.06
422.285	2160.06
422.507	2163.06
422.73	2156.06
422.953	2061.06
423.175	2101.06
423.398	2207.06
423.621	2206.06
423.843	2195.06
424.066	2260.06
424.288	2316.06
424.511	2335.06
424.733	2296.06
424.956	2047.06
425.178	2082.06
425.401	2137.06
425.623	2121.06
425.846	2149.06
426.068	2254.06
426.291	2271.06
426.513	2225.06
426.735	2276.06
426.958	2395.06
427.18	2567.06
427.402	2307.06
427.625	2409.06
427.847	2398.06
428.069	2275.06
428.292	2186.06
428.514	2107.06
428.736	2079.06
428.958	2146.06
429.181	2125.06
429.403	2440.06
429.625	3010.06
429.847	2621.06
430.069	2177.06
430.292	2361.06
430.514	2492.06
430.736	2299.06
430.958	2400.06
431.18	2321.06
431.402	2129.06
431.624	2135.06
431.846	2150.06
432.068	2068.06
432.29	2089.06
432.512	2120.06
432.734	2199.06
432.956	2179.06
433.178	2316.06
433.4	2293.06
433.622	2319.06
433.844	2169.06
434.066	2109.06
434.287	2106.06
434.509	2199.06
434.731	2282.06
434.953	2434.06
435.175	2431.06
435.397	2238.06
435.618	2237.06
435.84	2272.06
436.062	2259.06
436.284	2263.06
436.505	2236.06
436.727	2276.06
436.949	2226.06
437.17	2168.06
437.392	2150.06
437.614	2185.06
437.835	2117.06
438.057	2261.06
438.278	2357.06
438.5	2163.06
438.721	2129.06
438.943	2144.06
439.165	2135.06
439.386	2093.06
439.608	2116.06
439.829	2115.06
440.05	2124.06
440.272	2071.06
440.493	2073.06
440.715	2086.06
440.936	2291.06
441.158	2536.06
441.379	2425.06
441.6	2411.06
441.822	2283.06
442.043	2289.06
442.264	2243.06
442.486	2136.06
442.707	2163.06
442.928	2085.06
443.149	2168.06
443.371	2334.06
443.592	2415.06
443.813	2360.06
444.034	2351.06
444.255	2334.06
444.476	2356.06
444.698	2440.06
444.919	2429.06
445.14	2481.06
445.361	2481.06
445.582	2585.06
445.803	2422.06
446.024	2347.06
446.245	2422.06
446.466	2351.06
446.687	2275.06
446.908	2229.06
447.129	2170.06
447.35	2174.06
447.571	2209.06
447.792	2113.06
448.013	2058.06
448.234	2115.06
448.455	2201.06
448.675	2258.06
448.896	2079.06
449.117	2009.06
449.338	2074.06
449.559	2154.06
449.779	2335.06
450	2521.06
450.221	2764.06
450.442	2646.06
450.662	2332.06
450.883	2007.06
451.104	1961.06
451.324	2045.06
451.545	2134.06
451.766	2079.06
451.986	1996.06
452.207	1989.06
452.428	1945.06
452.648	1882.06
452.869	1963.06
453.089	2079.06
453.31	2117.06
453.53	2138.06
453.751	2055.06
453.971	1905.06
454.192	1992.06
454.412	2121.06
454.633	2070.06
454.853	2008.06
455.073	1856.06
455.294	1833.06
455.514	1882.06
455.734	1891.06
455.955	1901.06
456.175	1929.06
456.395	1942.06
456.616	1991.06
456.836	1975.06
457.056	1938.06
457.276	1977.06
457.497	1899.06
457.717	1873.06
457.937	1917.06
458.157	1934.06
458.377	1892.06
458.598	1921.06
458.818	1889.06
459.038	2035.06
459.258	2206.06
459.478	2127.06
459.698	2102.06
459.918	2154.06
460.138	2231.06
460.358	2315.06
460.578	2309.06
460.798	2375.06
461.018	2482.06
461.238	2364.06
461.458	2298.06
461.678	2325.06
461.898	2289.06
462.118	2148.06
462.338	2297.06
462.558	2277.06
462.777	2262.06
462.997	2349.06
463.217	2552.06
463.437	2526.06
463.657	2311.06
463.876	2343.06
464.096	2268.06
464.316	2282.06
464.536	2386.06
464.755	2394.06
464.975	2385.06
465.195	2269.06
465.414	2444.06
465.634	2466.06
465.854	2275.06
466.073	2407.06
466.293	2430.06
466.512	2105.06
466.732	2093.06
466.951	2184.06
467.171	2181.06
467.391	2069.06
467.61	2034.06
467.829	2073.06
468.049	2184.06
468.268	2475.06
468.488	2364.06
468.707	2243.06
468.927	2153.06
469.146	2107.06
469.365	2055.06
469.585	2092.06
469.804	2058.06
470.023	2063.06
470.243	2101.06
470.462	2071.06
470.681	2028.06
470.901	2091.06
471.12	2081.06
471.339	2064.06
471.558	1977.06
471.777	1951.06
471.997	2040.06
472.216	2035.06
472.435	1978.06
472.654	2004.06
472.873	2092.06
473.092	2244.06
473.311	2182.06
473.53	1953.06
473.749	1962.06
473.968	2050.06
474.187	2167.06
474.406	2286.06
474.625	2167.06
474.844	2121.06
475.063	2084.06
475.282	2170.06
475.501	2080.06
475.72	2139.06
475.939	2253.06
476.158	2199.06
476.377	2069.06
476.596	2151.06
476.814	2179.06
477.033	2183.06
477.252	2284.06
477.471	2331.06
477.69	2199.06
477.908	2214.06
478.127	2276.06
478.346	2518.06
478.564	2508.06
478.783	2514.06
479.002	2529.06
479.22	2540.06
479.439	2592.06
479.658	2977.06
479.876	2906.06
480.095	2545.06
480.313	2447.06
480.532	2355.06
480.751	2367.06
480.969	2417.06
481.188	2370.06
481.406	2390.06
481.624	2302.06
481.843	2298.06
482.061	2407.06
482.28	2410.06
482.498	2444.06
482.717	2471.06
482.935	2360.06
483.153	2315.06
483.372	2381.06
483.59	2289.06
483.808	2339.06
484.027	2350.06
484.245	2542.06
484.463	2875.06
484.681	3349.06
484.9	2567.06
485.118	2387.06
485.336	2337.06
485.554	2432.06
485.772	2577.06
485.99	2500.06
486.209	2587.06
486.427	2501.06
486.645	2516.06
486.863	2472.06
487.081	2505.06
487.299	2592.06
487.517	2529.06
487.735	2436.06
487.953	2403.06
488.171	2372.06
488.389	2393.06
488.607	2446.06
488.825	2658.06
489.043	2704.06
489.261	2417.06
489.479	2595.06
489.696	2583.06
489.914	2563.06
490.132	2521.06
490.35	2472.06
490.568	2556.06
490.786	2493.06
491.003	2348.06
491.221	2435.06
491.439	2559.06
491.657	2529.06
491.874	2513.06
492.092	2563.06
492.31	2561.06
492.527	2514.06
492.745	2485.06
492.963	2491.06
493.18	2555.06
493.398	2769.06
493.615	2807.06
493.833	2602.06
494.05	2543.06
494.268	2532.06
494.485	2623.06
494.703	2564.06
494.92	2483.06
495.138	2484.06
495.355	2575.06
495.573	2599.06
495.79	2782.06
496.008	2845.06
496.225	2661.06
496.442	2667.06
496.66	2736.06
496.877	2696.06
497.094	2784.06
497.312	2780.06
497.529	2732.06
497.746	2815.06
497.963	3228.06
498.181	3700.06
498.398	3415.06
498.615	3381.06
498.832	3282.06
499.049	3242.06
499.267	3266.06
499.484	3423.06
499.701	3731.06
499.918	3789.06
500.135	4040.06
500.352	4317.06
500.569	4291.06
500.786	4615.06
501.003	4217.06
501.22	3863.06
501.437	3746.06
501.654	3761.06
501.871	3681.06
502.088	3234.06
502.305	3247.06
502.522	3158.06
502.739	2928.06
502.956	2853.06
503.172	2833.06
503.389	2715.06
503.606	2645.06
503.823	2698.06
504.04	2688.06
504.256	2678.06
504.473	2679.06
504.69	2790.06
504.907	2663.06
505.123	2518.06
505.34	2624.06
505.557	3427.06
505.773	2943.06
505.99	2468.06
506.207	2357.06
506.423	2295.06
506.64	2255.06
506.856	2276.06
507.073	2594.06
507.289	2808.06
507.506	2692.06
507.722	2335.06
507.939	2195.06
508.155	2228.06
508.372	2227.06
508.588	2169.06
508.805	2093.06
509.021	2068.06
509.238	2117.06
509.454	2063.06
509.67	2071.06
509.887	2067.06
510.103	2066.06
510.319	2139.06
510.536	2188.06
510.752	2258.06
510.968	2231.06
511.184	2411.06
511.401	2424.06
511.617	2092.06
511.833	2015.06
512.049	1997.06
512.265	2012.06
512.481	2012.06
512.698	2108.06
512.914	2256.06
513.13	2151.06
513.346	2038.06
513.562	1980.06
513.778	2022.06
513.994	2155.06
514.21	2234.06
514.426	2286.06
514.642	2501.06
514.858	2351.06
515.074	2107.06
515.29	2058.06
515.506	2141.06
515.721	2184.06
515.937	2151.06
516.153	2481.06
516.369	2397.06
516.585	2203.06
516.801	2128.06
517.016	2137.06
517.232	2174.06
517.448	2217.06
517.664	2252.06
517.879	2244.06
518.095	2361.06
518.311	2236.06
518.527	2173.06
518.742	2116.06
518.958	2070.06
519.173	2071.06
519.389	2091.06
519.605	2064.06
519.82	2069.06
520.036	2141.06
520.251	2105.06
520.467	2085.06
520.682	2238.06
520.898	2303.06
521.113	2123.06
521.329	2013.06
521.544	2204.06
521.76	2052.06
521.975	1975.06
522.19	1961.06
522.406	1898.06
522.621	2313.06
522.836	2416.06
523.052	1943.06
523.267	1913.06
523.482	1961.06
523.698	1874.06
523.913	1820.06
524.128	1886.06
524.343	2008.06
524.559	2002.06
524.774	1868.06
524.989	1864.06
525.204	1861.06
525.419	1808.06
525.634	1827.06
525.849	1867.06
526.064	1846.06
526.28	1835.06
526.495	1816.06
526.71	1823.06
526.925	1834.06
527.14	1781.06
527.355	1779.06
527.57	1763.06
527.785	1808.06
527.999	1795.06
528.214	1772.06
528.429	1724.06
528.644	1749.06
528.859	1769.06
529.074	1792.06
529.289	1768.06
529.503	1809.06
529.718	1799.06
529.933	1785.06
530.148	1678.06
530.363	1691.06
530.577	1746.06
530.792	1807.06
531.007	1754.06
531.221	1788.06
531.436	1821.06
531.651	1851.06
531.865	1920.06
532.08	1869.06
532.295	1741.06
532.509	1669.06
532.724	1732.06
532.938	1780.06
533.153	1917.06
533.367	1818.06
533.582	1775.06
533.796	1700.06
534.011	1751.06
534.225	1756.06
534.44	1713.06
534.654	1756.06
534.868	1692.06
535.083	1778.06
535.297	1811.06
535.511	1760.06
535.726	1732.06
535.94	1728.06
536.154	1714.06
536.369	1724.06
536.583	1664.06
536.797	1664.06
537.011	1729.06
537.225	1683.06
537.44	1652.06
537.654	1712.06
537.868	1667.06
538.082	1600.06
538.296	1562.06
538.51	1600.06
538.724	1592.06
538.938	1567.06
539.153	1643.06
539.367	1673.06
539.581	1644.06
539.795	1750.06
540.009	1711.06
540.222	1682.06
540.436	1711.06
540.65	1810.06
540.864	1867.06
541.078	1726.06
541.292	1612.06
541.506	1612.06
541.72	1656.06
541.934	1642.06
542.147	1692.06
542.361	1673.06
542.575	1621.06
542.789	1595.06
543.002	1560.06
543.216	1578.06
543.43	1670.06
543.644	1714.06
543.857	1798.06
544.071	1756.06
544.285	1687.06
544.498	1633.06
544.712	1612.06
544.925	1641.06
545.139	1662.06
545.352	1576.06
545.566	1567.06
545.779	1562.06
545.993	1546.06
546.206	1573.06
546.42	1538.06
546.633	1515.06
546.847	1545.06
547.06	1549.06
547.274	1537.06
547.487	1526.06
547.7	1522.06
547.914	1549.06
548.127	1597.06
548.34	1578.06
548.554	1604.06
548.767	1545.06
548.98	1572.06
549.193	1561.06
549.407	1607.06
549.62	1635.06
549.833	1574.06
550.046	1561.06
550.259	1537.06
550.473	1537.06
550.686	1493.06
550.899	1494.06
551.112	1507.06
551.325	1480.06
551.538	1591.06
551.751	1845.06
551.964	1489.06
552.177	1446.06
552.39	1495.06
552.603	1500.06
552.816	1527.06
553.029	1579.06
553.242	1653.06
553.455	1548.06
553.667	1525.06
553.88	1572.06
554.093	1520.06
554.306	1464.06
554.519	1439.06
554.732	1442.06
554.944	1440.06
555.157	1491.06
555.37	1449.06
555.583	1433.06
555.795	1425.06
556.008	1394.06
556.221	1325.06
556.433	1322.06
556.646	1343.06
556.859	1315.06
557.071	1315.06
557.284	1315.06
557.496	1341.06
557.709	1291.06
557.921	1307.06
558.134	1300.06
558.346	1293.06
558.559	1304.06
558.771	1302.06
558.984	1254.06
559.196	1250.06
559.409	1208.06
559.621	1301.06
559.833	1266.06
560.046	1288.06
560.258	1303.06
560.47	1252.06
560.683	1239.06
560.895	1272.06
561.107	1267.06
561.32	1281.06
561.532	1322.06
561.744	1257.06
561.956	1271.06
562.168	1239.06
562.381	1239.06
562.593	1228.06
562.805	1229.06
563.017	1217.06
563.229	1245.06
563.441	1289.06
563.653	1248.06
563.865	1231.06
564.077	1218.06
564.289	1228.06
564.501	1267.06
564.713	1288.06
564.925	1335.06
565.137	1377.06
565.349	1333.06
565.561	1289.06
565.773	1323.06
565.985	1334.06
566.197	1420.06
566.408	1472.06
566.62	1521.06
566.832	1449.06
567.044	1522.06
567.255	1473.06
567.467	1486.06
567.679	1525.06
567.891	1611.06
568.102	1585.06
568.314	1507.06
568.526	1411.06
568.737	1376.06
568.949	1318.06
569.161	1289.06
569.372	1233.06
569.584	1189.06
569.795	1188.06
570.007	1206.06
570.218	1111.06
570.43	1127.06
570.641	1140.06
570.853	1107.06
571.064	1102.06
571.276	1115.06
571.487	1101.06
571.698	1077.06
571.91	1050.06
572.121	1082.06
572.333	1056.06
572.544	1045.06
572.755	994.06
572.966	988.06
573.178	1026.06
573.389	1033.06
573.6	1033.06
573.811	1095.06
574.023	1027.06
574.234	1015.06
574.445	959.06
574.656	923.06
574.867	943.06
575.078	953.06
575.289	962.06
575.501	907.06
575.712	924.06
575.923	956.06
576.134	966.06
576.345	922.06
576.556	943.06
576.767	911.06
576.978	898.06
577.188	869.06
577.399	900.06
577.61	920.06
577.821	865.06
578.032	817.06
578.243	861.06
578.454	875.06
578.665	848.06
578.875	863.06
579.086	851.06
579.297	850.06
579.508	871.06
579.718	885.06
579.929	856.06
580.14	849.06
580.35	822.06
580.561	858.06
580.772	944.06
580.982	871.06
581.193	830.06
581.403	810.06
581.614	837.06
581.825	815.06
582.035	805.06
582.246	780.06
582.456	817.06
582.667	831.06
582.877	791.06
583.087	788.06
583.298	812.06
583.508	781.06
583.719	776.06
583.929	785.06
584.139	801.06
584.35	785.06
584.56	778.06
584.77	800.06
584.981	795.06
585.191	804.06
585.401	819.06
585.611	785.06
585.821	776.06
586.032	775.06
586.242	769.06
586.452	777.06
586.662	803.06
586.872	773.06
587.082	739.06
587.292	787.06
587.502	783.06
587.713	767.06
587.923	781.06
588.133	783.06
588.343	784.06
588.553	767.06
588.762	767.06
588.972	775.06
589.182	792.06
589.392	771.06
589.602	779.06
589.812	778.06
590.022	740.06
590.232	717.06
590.441	731.06
590.651	743.06
590.861	754.06
591.071	721.06
591.281	748.06
591.49	728.06
591.7	752.06
591.91	736.06
592.119	740.06
592.329	752.06
592.539	783.06
592.748	758.06
592.958	803.06
593.167	794.06
593.377	779.06
593.587	786.06
593.796	799.06
594.006	783.06
594.215	786.06
594.424	786.06
594.634	753.06
594.843	767.06
595.053	777.06
595.262	772.06
595.472	755.06
595.681	760.06
595.89	707.06
596.1	721.06
596.309	728.06
596.518	704.06
596.727	703.06
596.937	709.06
597.146	687.06
597.355	667.06
597.564	680.06
597.774	663.06
597.983	660.06
598.192	639.06
598.401	660.06
598.61	647.06
598.819	669.06
599.028	645.06
599.237	652.06
599.446	631.06
599.655	648.06
599.864	630.06
600.073	630.06
600.282	627.06
600.491	601.06
600.7	604.06
600.909	617.06
601.118	611.06
601.327	609.06
601.536	632.06
601.745	607.06
601.953	607.06
602.162	615.06
602.371	634.06
602.58	615.06
602.789	615.06
602.997	605.06
603.206	595.06
603.415	587.06
603.623	614.06
603.832	627.06
604.041	568.06
604.249	582.06
604.458	583.06
604.666	587.06
604.875	571.06
605.084	593.06
605.292	624.06
605.501	559.06
605.709	556.06
605.918	583.06
606.126	572.06
606.334	567.06
606.543	577.06
606.751	557.06
606.96	571.06
607.168	559.06
607.376	555.06
607.585	568.06
607.793	544.06
608.001	573.06
608.21	559.06
608.418	562.06
608.626	553.06
608.834	534.06
609.043	573.06
609.251	566.06
609.459	541.06
609.667	569.06
609.875	565.06
610.083	557.06
610.291	571.06
610.499	563.06
610.707	562.06
610.916	532.06
611.124	534.06
611.332	543.06
611.54	559.06
611.748	536.06
611.955	527.06
612.163	522.06
612.371	546.06
612.579	543.06
612.787	527.06
612.995	528.06
613.203	543.06
613.411	529.06
613.618	553.06
613.826	543.06
614.034	552.06
614.242	549.06
614.449	507.06
614.657	541.06
614.865	535.06
615.072	525.06
615.28	518.06
615.488	528.06
615.695	561.06
615.903	535.06
616.111	529.06
616.318	523.06
616.526	519.06
616.733	537.06
616.941	532.06
617.148	487.06
617.356	505.06
617.563	509.06
617.771	501.06
617.978	498.06
618.185	504.06
618.393	513.06
618.6	528.06
618.807	524.06
619.015	505.06
619.222	487.06
619.429	497.06
619.637	492.06
619.844	515.06
620.051	471.06
620.258	481.06
620.466	468.06
620.673	461.06
620.88	468.06
621.087	449.06
621.294	453.06
621.501	465.06
621.708	458.06
621.915	464.06
622.122	475.06
622.329	482.06
622.536	471.06
622.743	469.06
622.95	473.06
623.157	467.06
623.364	474.06
623.571	471.06
623.778	436.06
623.985	467.06
624.192	451.06
624.399	454.06
624.606	457.06
624.812	440.06
625.019	433.06
625.226	451.06
625.433	457.06
625.639	442.06
625.846	431.06
626.053	421.06
626.259	421.06
626.466	426.06
626.673	425.06
626.879	425.06
627.086	398.06
627.293	421.06
627.499	419.06
627.706	406.06
627.912	400.06
628.119	423.06
628.325	432.06
628.532	405.06
628.738	432.06
628.945	420.06
629.151	396.06
629.357	419.06
629.564	415.06
629.77	410.06
629.976	409.06
630.183	389.06
630.389	402.06
630.595	404.06
630.802	416.06
631.008	388.06
631.214	404.06
631.42	386.06
631.627	379.06
631.833	387.06
632.039	389.06
632.245	383.06
632.451	397.06
632.657	378.06
632.863	377.06
633.069	372.06
633.275	377.06
633.481	372.06
633.688	377.06
633.893	377.06
634.099	364.06
634.305	379.06
634.511	361.06
634.717	358.06
634.923	360.06
635.129	347.06
635.335	341.06
635.541	371.06
635.747	389.06
635.952	371.06
636.158	363.06
636.364	362.06
636.57	348.06
636.775	362.06
636.981	343.06
637.187	353.06
637.392	351.06
637.598	361.06
637.804	348.06
638.009	363.06
638.215	365.06
638.421	345.06
638.626	340.06
638.832	345.06
639.037	340.06
639.243	330.06
639.448	344.06
639.654	337.06
639.859	322.06
640.065	333.06
640.27	360.06
640.475	349.06
640.681	327.06
640.886	332.06
641.091	321.06
641.297	337.06
641.502	321.06
641.707	321.06
641.913	326.06
642.118	322.06
642.323	323.06
642.528	308.06
642.733	337.06
642.939	315.06
643.144	314.06
643.349	346.06
643.554	329.06
643.759	309.06
643.964	323.06
644.169	314.06
644.374	336.06
644.579	317.06
644.784	328.06
644.989	325.06
645.194	314.06
645.399	304.06
645.604	305.06
645.809	326.06
646.014	322.06
646.219	330.06
646.423	335.06
646.628	319.06
646.833	328.06
647.038	323.06
647.243	323.06
647.447	326.06
647.652	341.06
647.857	313.06
648.062	309.06
648.266	324.06
648.471	325.06
648.676	338.06
648.88	316.06
649.085	324.06
649.289	313.06
649.494	304.06
649.698	313.06
649.903	294.06
650.107	299.06
650.312	304.06
650.516	294.06
650.721	306.06
650.925	284.06
651.13	292.06
651.334	284.06
651.539	285.06
651.743	285.06
651.947	288.06
652.152	266.06
652.356	270.06
652.56	264.06
652.764	243.06
652.969	241.06
653.173	255.06
653.377	254.06
653.581	257.06
653.785	259.06
653.99	244.06
654.194	241.06
654.398	248.06
654.602	252.06
654.806	239.06
655.01	248.06
655.214	232.06
655.418	259.06
655.622	230.06
655.826	255.06
656.03	251.06
656.234	255.06
656.438	281.06
656.642	277.06
656.846	259.06
657.049	239.06
657.253	219.06
657.457	210.06
657.661	208.06
657.865	191.06
658.068	173.06
658.272	168.06
658.476	164.06
658.68	148.06
658.883	160.06
659.087	146.06
659.291	151.06
659.494	138.06
659.698	124.06
659.901	137.06
660.105	130.06
660.309	133.06
660.512	116.06
660.716	119.06
660.919	131.06
661.123	124.06
661.326	119.06
661.53	97.06
661.733	112.06
661.936	100.06
662.14	101.06
662.343	98.06
662.546	90.06
662.75	99.06
662.953	78.06
663.156	89.06
663.36	67.06
663.563	96.06
663.766	91.06
663.969	91.06
664.173	99.06
664.376	86.06
664.579	84.06
664.782	84.06
664.985	81.06
665.188	78.06
665.391	67.06
665.594	77.06
665.797	87.06
666	83.06
666.203	89.06
666.406	82.06
666.609	69.06
666.812	85.06
667.015	82.06
667.218	77.06
667.421	73.06
667.624	84.06
667.827	90.06
668.03	71.06
668.232	70.06
668.435	72.06
668.638	77.06
668.841	105.06
669.043	78.06
669.246	85.06
669.449	86.06
669.651	76.06
669.854	82.06
670.057	95.06
670.259	91.06
670.462	88.06
670.665	87.06
670.867	86.06
671.07	83.06
671.272	99.06
671.475	100.06
671.677	89.06
671.88	74.06
672.082	79.06
672.284	86.06
672.487	86.06
672.689	81.06
672.892	81.06
