Data from WStandard_LampEnergy8_LIBS07252019.E.O._I.C._HRD10591_16-00-59-930.txt Node
Date: Thu Jul 25 16:00:59 EDT 2019
User: cochatt
Spectrometer: HR+D1059
Trigger mode: 1
Integration Time (sec): 1.000000E-1
Scans to average: 1
Electric dark correction enabled: true
Nonlinearity correction enabled: false
Boxcar width: 0
XAxis mode: Wavelengths
Number of Pixels in Spectrum: 2048
>>>>>Begin Spectral Data<<<<<
223.165	-13.88
223.4	-13.88
223.635	-13.88
223.869	-17.88
224.104	-14.88
224.338	-19.88
224.573	-22.88
224.808	-10.88
225.042	-1.88
225.277	-7.88
225.511	7.12
225.746	1.12
225.98	10.12
226.215	9.12
226.449	19.12
226.683	17.12
226.918	23.12
227.152	23.12
227.387	34.12
227.621	39.12
227.856	41.12
228.09	31.12
228.324	53.12
228.559	66.12
228.793	74.12
229.027	198.12
229.262	196.12
229.496	219.12
229.73	216.12
229.964	232.12
230.199	242.12
230.433	255.12
230.667	269.12
230.901	269.12
231.136	281.12
231.37	258.12
231.604	259.12
231.838	265.12
232.072	258.12
232.306	245.12
232.541	276.12
232.775	287.12
233.009	317.12
233.243	307.12
233.477	282.12
233.711	290.12
233.945	310.12
234.179	303.12
234.413	327.12
234.647	335.12
234.881	343.12
235.115	294.12
235.349	288.12
235.583	315.12
235.817	304.12
236.051	293.12
236.285	304.12
236.519	303.12
236.753	363.12
236.987	363.12
237.221	321.12
237.455	351.12
237.689	365.12
237.922	335.12
238.156	325.12
238.39	358.12
238.624	375.12
238.858	381.12
239.091	402.12
239.325	398.12
239.559	461.12
239.793	470.12
240.027	506.12
240.26	482.12
240.494	375.12
240.728	363.12
240.961	357.12
241.195	380.12
241.429	403.12
241.662	408.12
241.896	381.12
242.13	379.12
242.363	424.12
242.597	458.12
242.83	437.12
243.064	461.12
243.298	483.12
243.531	451.12
243.765	464.12
243.998	447.12
244.232	411.12
244.465	379.12
244.699	417.12
244.932	450.12
245.166	468.12
245.399	481.12
245.633	458.12
245.866	437.12
246.099	468.12
246.333	475.12
246.566	480.12
246.8	499.12
247.033	550.12
247.266	517.12
247.5	522.12
247.733	517.12
247.966	543.12
248.2	581.12
248.433	579.12
248.666	610.12
248.899	651.12
249.133	706.12
249.366	795.12
249.599	657.12
249.832	626.12
250.066	616.12
250.299	610.12
250.532	585.12
250.765	549.12
250.998	554.12
251.231	567.12
251.465	570.12
251.698	557.12
251.931	560.12
252.164	562.12
252.397	628.12
252.63	585.12
252.863	540.12
253.096	529.12
253.329	567.12
253.562	559.12
253.795	608.12
254.028	598.12
254.261	550.12
254.494	563.12
254.727	553.12
254.96	572.12
255.193	615.12
255.426	691.12
255.659	769.12
255.892	785.12
256.124	663.12
256.357	640.12
256.59	680.12
256.823	668.12
257.056	707.12
257.289	803.12
257.521	879.12
257.754	774.12
257.987	747.12
258.22	822.12
258.452	783.12
258.685	644.12
258.918	641.12
259.151	645.12
259.383	611.12
259.616	589.12
259.849	608.12
260.081	684.12
260.314	745.12
260.547	797.12
260.779	791.12
261.012	748.12
261.244	682.12
261.477	657.12
261.71	695.12
261.942	674.12
262.175	649.12
262.407	687.12
262.64	645.12
262.872	621.12
263.105	611.12
263.337	631.12
263.57	610.12
263.802	608.12
264.035	607.12
264.267	562.12
264.499	555.12
264.732	617.12
264.964	649.12
265.197	650.12
265.429	677.12
265.661	767.12
265.894	844.12
266.126	831.12
266.358	752.12
266.591	786.12
266.823	839.12
267.055	761.12
267.287	747.12
267.52	771.12
267.752	743.12
267.984	772.12
268.216	791.12
268.448	801.12
268.681	789.12
268.913	706.12
269.145	671.12
269.377	677.12
269.609	725.12
269.841	838.12
270.073	1014.12
270.306	1053.12
270.538	1084.12
270.77	911.12
271.002	818.12
271.234	793.12
271.466	803.12
271.698	913.12
271.93	1023.12
272.162	998.12
272.394	913.12
272.626	884.12
272.858	776.12
273.09	713.12
273.322	685.12
273.553	651.12
273.785	689.12
274.017	694.12
274.249	760.12
274.481	763.12
274.713	692.12
274.945	689.12
275.176	683.12
275.408	665.12
275.64	667.12
275.872	677.12
276.104	760.12
276.335	821.12
276.567	908.12
276.799	915.12
277.031	807.12
277.262	802.12
277.494	804.12
277.726	887.12
277.957	859.12
278.189	775.12
278.421	729.12
278.652	732.12
278.884	717.12
279.115	711.12
279.347	736.12
279.579	721.12
279.81	735.12
280.042	815.12
280.273	860.12
280.505	856.12
280.736	876.12
280.968	804.12
281.199	737.12
281.431	718.12
281.662	703.12
281.894	698.12
282.125	723.12
282.356	746.12
282.588	762.12
282.819	786.12
283.051	818.12
283.282	895.12
283.513	833.12
283.745	736.12
283.976	712.12
284.207	717.12
284.439	739.12
284.67	740.12
284.901	770.12
285.132	803.12
285.364	761.12
285.595	773.12
285.826	721.12
286.057	732.12
286.288	744.12
286.52	823.12
286.751	835.12
286.982	847.12
287.213	796.12
287.444	744.12
287.675	707.12
287.906	781.12
288.138	811.12
288.369	800.12
288.6	768.12
288.831	731.12
289.062	732.12
289.293	723.12
289.524	770.12
289.755	748.12
289.986	802.12
290.217	720.12
290.448	732.12
290.679	746.12
290.91	770.12
291.141	785.12
291.371	823.12
291.602	809.12
291.833	808.12
292.064	828.12
292.295	793.12
292.526	852.12
292.757	844.12
292.987	848.12
293.218	805.12
293.449	871.12
293.68	953.12
293.91	971.12
294.141	932.12
294.372	913.12
294.603	930.12
294.833	931.12
295.064	907.12
295.295	804.12
295.525	783.12
295.756	745.12
295.987	735.12
296.217	753.12
296.448	770.12
296.679	771.12
296.909	785.12
297.14	763.12
297.37	777.12
297.601	835.12
297.831	857.12
298.062	860.12
298.292	804.12
298.523	758.12
298.753	784.12
298.984	757.12
299.214	801.12
299.445	827.12
299.675	835.12
299.905	828.12
300.136	791.12
300.366	795.12
300.597	766.12
300.827	773.12
301.057	779.12
301.288	855.12
301.518	851.12
301.748	880.12
301.979	910.12
302.209	903.12
302.439	957.12
302.669	1001.12
302.9	926.12
303.13	840.12
303.36	842.12
303.59	858.12
303.82	854.12
304.051	865.12
304.281	837.12
304.511	863.12
304.741	960.12
304.971	1001.12
305.201	1049.12
305.431	956.12
305.661	802.12
305.891	757.12
306.121	756.12
306.352	789.12
306.582	833.12
306.812	868.12
307.042	925.12
307.272	961.12
307.502	980.12
307.731	1029.12
307.961	1041.12
308.191	973.12
308.421	871.12
308.651	820.12
308.881	821.12
309.111	848.12
309.341	806.12
309.571	853.12
309.8	815.12
310.03	818.12
310.26	819.12
310.49	827.12
310.72	818.12
310.949	900.12
311.179	900.12
311.409	858.12
311.639	837.12
311.868	830.12
312.098	821.12
312.328	834.12
312.557	814.12
312.787	841.12
313.017	871.12
313.246	865.12
313.476	847.12
313.706	874.12
313.935	882.12
314.165	915.12
314.394	919.12
314.624	964.12
314.853	989.12
315.083	1026.12
315.312	1041.12
315.542	971.12
315.771	897.12
316.001	904.12
316.23	947.12
316.46	931.12
316.689	914.12
316.919	850.12
317.148	851.12
317.377	892.12
317.607	951.12
317.836	1036.12
318.065	1053.12
318.295	1023.12
318.524	1015.12
318.753	925.12
318.983	976.12
319.212	920.12
319.441	903.12
319.67	901.12
319.9	952.12
320.129	968.12
320.358	1021.12
320.587	1009.12
320.816	1034.12
321.046	1007.12
321.275	955.12
321.504	971.12
321.733	1044.12
321.962	1009.12
322.191	921.12
322.42	918.12
322.649	897.12
322.878	908.12
323.108	924.12
323.337	969.12
323.566	936.12
323.795	927.12
324.024	958.12
324.253	904.12
324.482	936.12
324.71	883.12
324.939	849.12
325.168	891.12
325.397	913.12
325.626	950.12
325.855	959.12
326.084	914.12
326.313	929.12
326.542	937.12
326.77	984.12
326.999	956.12
327.228	912.12
327.457	893.12
327.686	884.12
327.914	912.12
328.143	930.12
328.372	907.12
328.6	895.12
328.829	895.12
329.058	883.12
329.287	907.12
329.515	924.12
329.744	933.12
329.972	987.12
330.201	1035.12
330.43	978.12
330.658	968.12
330.887	964.12
331.115	993.12
331.344	973.12
331.572	959.12
331.801	972.12
332.03	969.12
332.258	953.12
332.486	992.12
332.715	987.12
332.943	989.12
333.172	961.12
333.4	996.12
333.629	1029.12
333.857	1058.12
334.085	1242.12
334.314	1375.12
334.542	1388.12
334.771	1285.12
334.999	1153.12
335.227	1079.12
335.455	1041.12
335.684	1066.12
335.912	1082.12
336.14	1098.12
336.369	1058.12
336.597	1015.12
336.825	992.12
337.053	1004.12
337.281	1066.12
337.51	1121.12
337.738	1131.12
337.966	1079.12
338.194	981.12
338.422	980.12
338.65	945.12
338.878	963.12
339.106	921.12
339.334	912.12
339.562	939.12
339.79	952.12
340.018	986.12
340.246	1025.12
340.474	1002.12
340.702	1007.12
340.93	1018.12
341.158	981.12
341.386	992.12
341.614	970.12
341.842	994.12
342.07	956.12
342.298	985.12
342.526	984.12
342.754	975.12
342.981	984.12
343.209	949.12
343.437	923.12
343.665	985.12
343.893	992.12
344.12	1062.12
344.348	1040.12
344.576	995.12
344.804	970.12
345.031	977.12
345.259	969.12
345.487	941.12
345.714	905.12
345.942	928.12
346.17	930.12
346.397	955.12
346.625	914.12
346.853	865.12
347.08	891.12
347.308	883.12
347.535	926.12
347.763	945.12
347.99	923.12
348.218	892.12
348.445	919.12
348.673	914.12
348.9	964.12
349.128	979.12
349.355	992.12
349.583	975.12
349.81	900.12
350.037	839.12
350.265	873.12
350.492	861.12
350.72	903.12
350.947	932.12
351.174	952.12
351.402	953.12
351.629	862.12
351.856	827.12
352.083	858.12
352.311	830.12
352.538	895.12
352.765	912.12
352.992	946.12
353.22	907.12
353.447	895.12
353.674	893.12
353.901	912.12
354.128	912.12
354.355	899.12
354.583	962.12
354.81	937.12
355.037	938.12
355.264	959.12
355.491	910.12
355.718	925.12
355.945	906.12
356.172	871.12
356.399	874.12
356.626	875.12
356.853	946.12
357.08	1021.12
357.307	1088.12
357.534	1033.12
357.761	937.12
357.988	868.12
358.215	845.12
358.441	874.12
358.668	858.12
358.895	918.12
359.122	949.12
359.349	1054.12
359.576	966.12
359.802	899.12
360.029	895.12
360.256	904.12
360.483	878.12
360.709	907.12
360.936	993.12
361.163	1000.12
361.39	1039.12
361.616	1159.12
361.843	1140.12
362.07	1035.12
362.296	910.12
362.523	899.12
362.749	908.12
362.976	936.12
363.203	965.12
363.429	939.12
363.656	888.12
363.882	951.12
364.109	1042.12
364.335	1051.12
364.562	1008.12
364.788	971.12
365.015	945.12
365.241	885.12
365.468	945.12
365.694	975.12
365.92	992.12
366.147	929.12
366.373	911.12
366.599	864.12
366.826	917.12
367.052	900.12
367.278	898.12
367.505	939.12
367.731	958.12
367.957	988.12
368.184	982.12
368.41	1042.12
368.636	1049.12
368.862	1073.12
369.089	1064.12
369.315	968.12
369.541	949.12
369.767	932.12
369.993	917.12
370.219	921.12
370.445	963.12
370.672	1015.12
370.898	1073.12
371.124	1027.12
371.35	973.12
371.576	1032.12
371.802	1030.12
372.028	972.12
372.254	966.12
372.48	942.12
372.706	927.12
372.932	945.12
373.158	944.12
373.384	976.12
373.61	977.12
373.835	1026.12
374.061	974.12
374.287	963.12
374.513	994.12
374.739	961.12
374.965	965.12
375.191	1005.12
375.416	995.12
375.642	1032.12
375.868	1088.12
376.094	1102.12
376.319	1032.12
376.545	1021.12
376.771	1031.12
376.997	1059.12
377.222	1037.12
377.448	1025.12
377.674	1052.12
377.899	1049.12
378.125	1066.12
378.35	1058.12
378.576	953.12
378.802	945.12
379.027	938.12
379.253	974.12
379.478	986.12
379.704	983.12
379.929	985.12
380.155	952.12
380.38	991.12
380.606	1014.12
380.831	1010.12
381.057	1058.12
381.282	1051.12
381.507	1040.12
381.733	1109.12
381.958	1129.12
382.184	1060.12
382.409	1033.12
382.634	1057.12
382.86	1005.12
383.085	1022.12
383.31	1073.12
383.535	1137.12
383.761	1205.12
383.986	1126.12
384.211	1114.12
384.436	1086.12
384.662	1147.12
384.887	1200.12
385.112	1099.12
385.337	1135.12
385.562	1130.12
385.787	1098.12
386.013	1183.12
386.238	1157.12
386.463	1173.12
386.688	1223.12
386.913	1290.12
387.138	1265.12
387.363	1158.12
387.588	1157.12
387.813	1119.12
388.038	1171.12
388.263	1203.12
388.488	1160.12
388.713	1092.12
388.938	1088.12
389.163	1083.12
389.387	1123.12
389.612	1105.12
389.837	1175.12
390.062	1117.12
390.287	1144.12
390.512	1132.12
390.736	1089.12
390.961	1099.12
391.186	1082.12
391.411	1104.12
391.636	1102.12
391.86	1090.12
392.085	1136.12
392.31	1092.12
392.534	1085.12
392.759	1133.12
392.984	1121.12
393.208	1138.12
393.433	1175.12
393.658	1200.12
393.882	1241.12
394.107	1133.12
394.331	1146.12
394.556	1137.12
394.78	1155.12
395.005	1179.12
395.229	1210.12
395.454	1297.12
395.678	1300.12
395.903	1237.12
396.127	1189.12
396.352	1206.12
396.576	1235.12
396.801	1234.12
397.025	1256.12
397.249	1203.12
397.474	1198.12
397.698	1189.12
397.922	1259.12
398.147	1339.12
398.371	1331.12
398.595	1317.12
398.82	1268.12
399.044	1317.12
399.268	1372.12
399.492	1449.12
399.717	1480.12
399.941	1458.12
400.165	1442.12
400.389	1449.12
400.613	1457.12
400.837	1663.12
401.062	1803.12
401.286	1572.12
401.51	1425.12
401.734	1427.12
401.958	1388.12
402.182	1288.12
402.406	1263.12
402.63	1262.12
402.854	1271.12
403.078	1330.12
403.302	1314.12
403.526	1333.12
403.75	1335.12
403.974	1352.12
404.198	1386.12
404.422	1430.12
404.645	1457.12
404.869	1444.12
405.093	1342.12
405.317	1332.12
405.541	1339.12
405.765	1379.12
405.988	1349.12
406.212	1379.12
406.436	1380.12
406.66	1420.12
406.883	1460.12
407.107	1648.12
407.331	1811.12
407.555	1918.12
407.778	1677.12
408.002	1477.12
408.226	1401.12
408.449	1419.12
408.673	1385.12
408.896	1341.12
409.12	1403.12
409.344	1333.12
409.567	1337.12
409.791	1355.12
410.014	1381.12
410.238	1444.12
410.461	1479.12
410.685	1381.12
410.908	1305.12
411.132	1353.12
411.355	1306.12
411.578	1316.12
411.802	1354.12
412.025	1351.12
412.249	1327.12
412.472	1279.12
412.695	1313.12
412.919	1277.12
413.142	1300.12
413.365	1312.12
413.589	1366.12
413.812	1409.12
414.035	1421.12
414.258	1336.12
414.482	1285.12
414.705	1301.12
414.928	1284.12
415.151	1260.12
415.374	1283.12
415.597	1322.12
415.821	1336.12
416.044	1335.12
416.267	1329.12
416.49	1260.12
416.713	1223.12
416.936	1326.12
417.159	1367.12
417.382	1328.12
417.605	1280.12
417.828	1300.12
418.051	1317.12
418.274	1292.12
418.497	1242.12
418.72	1271.12
418.943	1283.12
419.166	1309.12
419.389	1358.12
419.611	1309.12
419.834	1299.12
420.057	1291.12
420.28	1259.12
420.503	1264.12
420.726	1307.12
420.948	1270.12
421.171	1256.12
421.394	1281.12
421.617	1320.12
421.839	1292.12
422.062	1315.12
422.285	1259.12
422.507	1243.12
422.73	1247.12
422.953	1221.12
423.175	1195.12
423.398	1254.12
423.621	1261.12
423.843	1279.12
424.066	1324.12
424.288	1327.12
424.511	1399.12
424.733	1346.12
424.956	1249.12
425.178	1208.12
425.401	1243.12
425.623	1232.12
425.846	1245.12
426.068	1308.12
426.291	1294.12
426.513	1299.12
426.735	1303.12
426.958	1413.12
427.18	1459.12
427.402	1352.12
427.625	1403.12
427.847	1372.12
428.069	1277.12
428.292	1260.12
428.514	1231.12
428.736	1213.12
428.958	1233.12
429.181	1245.12
429.403	1437.12
429.625	1731.12
429.847	1469.12
430.069	1306.12
430.292	1409.12
430.514	1431.12
430.736	1332.12
430.958	1350.12
431.18	1288.12
431.402	1211.12
431.624	1200.12
431.846	1197.12
432.068	1146.12
432.29	1138.12
432.512	1204.12
432.734	1253.12
432.956	1259.12
433.178	1312.12
433.4	1314.12
433.622	1287.12
433.844	1232.12
434.066	1211.12
434.287	1151.12
434.509	1195.12
434.731	1260.12
434.953	1362.12
435.175	1332.12
435.397	1265.12
435.618	1252.12
435.84	1247.12
436.062	1213.12
436.284	1272.12
436.505	1301.12
436.727	1305.12
436.949	1264.12
437.17	1242.12
437.392	1217.12
437.614	1203.12
437.835	1172.12
438.057	1230.12
438.278	1235.12
438.5	1217.12
438.721	1208.12
438.943	1197.12
439.165	1207.12
439.386	1236.12
439.608	1236.12
439.829	1235.12
440.05	1258.12
440.272	1253.12
440.493	1248.12
440.715	1274.12
440.936	1334.12
441.158	1409.12
441.379	1401.12
441.6	1344.12
441.822	1319.12
442.043	1331.12
442.264	1299.12
442.486	1226.12
442.707	1267.12
442.928	1252.12
443.149	1265.12
443.371	1339.12
443.592	1398.12
443.813	1362.12
444.034	1330.12
444.255	1375.12
444.476	1372.12
444.698	1402.12
444.919	1397.12
445.14	1465.12
445.361	1398.12
445.582	1428.12
445.803	1414.12
446.024	1368.12
446.245	1421.12
446.466	1373.12
446.687	1319.12
446.908	1360.12
447.129	1294.12
447.35	1281.12
447.571	1276.12
447.792	1248.12
448.013	1249.12
448.234	1237.12
448.455	1309.12
448.675	1309.12
448.896	1183.12
449.117	1214.12
449.338	1230.12
449.559	1265.12
449.779	1295.12
450	1393.12
450.221	1459.12
450.442	1415.12
450.662	1255.12
450.883	1169.12
451.104	1182.12
451.324	1187.12
451.545	1200.12
451.766	1155.12
451.986	1147.12
452.207	1104.12
452.428	1105.12
452.648	1066.12
452.869	1077.12
453.089	1103.12
453.31	1139.12
453.53	1117.12
453.751	1091.12
453.971	1075.12
454.192	1087.12
454.412	1151.12
454.633	1105.12
454.853	1119.12
455.073	1059.12
455.294	1031.12
455.514	1051.12
455.734	1041.12
455.955	1073.12
456.175	1067.12
456.395	1055.12
456.616	1089.12
456.836	1091.12
457.056	1095.12
457.276	1076.12
457.497	1062.12
457.717	989.12
457.937	1017.12
458.157	1049.12
458.377	1023.12
458.598	1006.12
458.818	1035.12
459.038	1106.12
459.258	1124.12
459.478	1148.12
459.698	1096.12
459.918	1138.12
460.138	1216.12
460.358	1224.12
460.578	1224.12
460.798	1276.12
461.018	1291.12
461.238	1282.12
461.458	1269.12
461.678	1258.12
461.898	1215.12
462.118	1194.12
462.338	1239.12
462.558	1243.12
462.777	1239.12
462.997	1301.12
463.217	1354.12
463.437	1323.12
463.657	1252.12
463.876	1270.12
464.096	1253.12
464.316	1298.12
464.536	1315.12
464.755	1321.12
464.975	1284.12
465.195	1272.12
465.414	1315.12
465.634	1289.12
465.854	1276.12
466.073	1371.12
466.293	1314.12
466.512	1200.12
466.732	1193.12
466.951	1247.12
467.171	1219.12
467.391	1216.12
467.61	1172.12
467.829	1220.12
468.049	1330.12
468.268	1431.12
468.488	1313.12
468.707	1265.12
468.927	1210.12
469.146	1190.12
469.365	1209.12
469.585	1251.12
469.804	1171.12
470.023	1235.12
470.243	1234.12
470.462	1232.12
470.681	1208.12
470.901	1206.12
471.12	1234.12
471.339	1199.12
471.558	1218.12
471.777	1209.12
471.997	1170.12
472.216	1153.12
472.435	1124.12
472.654	1135.12
472.873	1152.12
473.092	1208.12
473.311	1160.12
473.53	1119.12
473.749	1119.12
473.968	1132.12
474.187	1197.12
474.406	1245.12
474.625	1208.12
474.844	1187.12
475.063	1207.12
475.282	1206.12
475.501	1166.12
475.72	1180.12
475.939	1252.12
476.158	1224.12
476.377	1187.12
476.596	1184.12
476.814	1185.12
477.033	1227.12
477.252	1299.12
477.471	1302.12
477.69	1283.12
477.908	1286.12
478.127	1349.12
478.346	1433.12
478.564	1377.12
478.783	1395.12
479.002	1437.12
479.22	1419.12
479.439	1448.12
479.658	1572.12
479.876	1475.12
480.095	1377.12
480.313	1351.12
480.532	1275.12
480.751	1289.12
480.969	1272.12
481.188	1249.12
481.406	1223.12
481.624	1212.12
481.843	1221.12
482.061	1278.12
482.28	1315.12
482.498	1327.12
482.717	1285.12
482.935	1273.12
483.153	1365.12
483.372	1382.12
483.59	1363.12
483.808	1327.12
484.027	1372.12
484.245	1386.12
484.463	1672.12
484.681	1870.12
484.9	1448.12
485.118	1359.12
485.336	1327.12
485.554	1345.12
485.772	1375.12
485.99	1348.12
486.209	1417.12
486.427	1340.12
486.645	1370.12
486.863	1426.12
487.081	1447.12
487.299	1467.12
487.517	1447.12
487.735	1477.12
487.953	1465.12
488.171	1471.12
488.389	1459.12
488.607	1447.12
488.825	1607.12
489.043	1525.12
489.261	1389.12
489.479	1456.12
489.696	1469.12
489.914	1439.12
490.132	1435.12
490.35	1493.12
490.568	1545.12
490.786	1478.12
491.003	1448.12
491.221	1547.12
491.439	1557.12
491.657	1572.12
491.874	1578.12
492.092	1672.12
492.31	1700.12
492.527	1665.12
492.745	1587.12
492.963	1575.12
493.18	1603.12
493.398	1659.12
493.615	1695.12
493.833	1555.12
494.05	1546.12
494.268	1569.12
494.485	1583.12
494.703	1512.12
494.92	1531.12
495.138	1520.12
495.355	1539.12
495.573	1611.12
495.79	1617.12
496.008	1676.12
496.225	1567.12
496.442	1605.12
496.66	1602.12
496.877	1582.12
497.094	1594.12
497.312	1616.12
497.529	1622.12
497.746	1643.12
497.963	1865.12
498.181	1955.12
498.398	1893.12
498.615	1830.12
498.832	1788.12
499.049	1723.12
499.267	1698.12
499.484	1887.12
499.701	2012.12
499.918	1999.12
500.135	2213.12
500.352	2316.12
500.569	2323.12
500.786	2496.12
501.003	2277.12
501.22	2061.12
501.437	2054.12
501.654	2105.12
501.871	1961.12
502.088	1769.12
502.305	1787.12
502.522	1708.12
502.739	1593.12
502.956	1567.12
503.172	1557.12
503.389	1484.12
503.606	1461.12
503.823	1489.12
504.04	1471.12
504.256	1469.12
504.473	1488.12
504.69	1557.12
504.907	1473.12
505.123	1422.12
505.34	1518.12
505.557	1967.12
505.773	1617.12
505.99	1356.12
506.207	1291.12
506.423	1290.12
506.64	1269.12
506.856	1270.12
507.073	1504.12
507.289	1568.12
507.506	1503.12
507.722	1292.12
507.939	1245.12
508.155	1249.12
508.372	1247.12
508.588	1207.12
508.805	1166.12
509.021	1164.12
509.238	1157.12
509.454	1145.12
509.67	1144.12
509.887	1137.12
510.103	1120.12
510.319	1153.12
510.536	1207.12
510.752	1211.12
510.968	1194.12
511.184	1267.12
511.401	1213.12
511.617	1107.12
511.833	1102.12
512.049	1081.12
512.265	1107.12
512.481	1081.12
512.698	1144.12
512.914	1183.12
513.13	1149.12
513.346	1105.12
513.562	1068.12
513.778	1097.12
513.994	1165.12
514.21	1175.12
514.426	1172.12
514.642	1294.12
514.858	1237.12
515.074	1131.12
515.29	1139.12
515.506	1145.12
515.721	1173.12
515.937	1158.12
516.153	1299.12
516.369	1249.12
516.585	1185.12
516.801	1148.12
517.016	1166.12
517.232	1185.12
517.448	1200.12
517.664	1188.12
517.879	1218.12
518.095	1237.12
518.311	1210.12
518.527	1165.12
518.742	1153.12
518.958	1124.12
519.173	1143.12
519.389	1153.12
519.605	1180.12
519.82	1163.12
520.036	1201.12
520.251	1152.12
520.467	1160.12
520.682	1229.12
520.898	1227.12
521.113	1094.12
521.329	1089.12
521.544	1171.12
521.76	1153.12
521.975	1079.12
522.19	1102.12
522.406	1079.12
522.621	1386.12
522.836	1302.12
523.052	1098.12
523.267	1087.12
523.482	1106.12
523.698	1068.12
523.913	1091.12
524.128	1055.12
524.343	1139.12
524.559	1153.12
524.774	1071.12
524.989	1081.12
525.204	1061.12
525.419	1007.12
525.634	1048.12
525.849	1055.12
526.064	1069.12
526.28	1064.12
526.495	1007.12
526.71	1022.12
526.925	994.12
527.14	986.12
527.355	955.12
527.57	969.12
527.785	994.12
527.999	1002.12
528.214	997.12
528.429	975.12
528.644	1024.12
528.859	1057.12
529.074	1060.12
529.289	1067.12
529.503	1128.12
529.718	1084.12
529.933	1029.12
530.148	973.12
530.363	936.12
530.577	965.12
530.792	989.12
531.007	970.12
531.221	953.12
531.436	980.12
531.651	1011.12
531.865	1049.12
532.08	1008.12
532.295	932.12
532.509	945.12
532.724	952.12
532.938	982.12
533.153	1064.12
533.367	1000.12
533.582	1035.12
533.796	1008.12
534.011	1010.12
534.225	986.12
534.44	959.12
534.654	941.12
534.868	966.12
535.083	1024.12
535.297	1020.12
535.511	1013.12
535.726	988.12
535.94	981.12
536.154	964.12
536.369	916.12
536.583	928.12
536.797	925.12
537.011	935.12
537.225	923.12
537.44	945.12
537.654	963.12
537.868	929.12
538.082	902.12
538.296	903.12
538.51	908.12
538.724	918.12
538.938	978.12
539.153	1023.12
539.367	991.12
539.581	959.12
539.795	973.12
540.009	959.12
540.222	943.12
540.436	953.12
540.65	1030.12
540.864	1090.12
541.078	1048.12
541.292	1025.12
541.506	1083.12
541.72	1072.12
541.934	1131.12
542.147	1174.12
542.361	1119.12
542.575	1076.12
542.789	991.12
543.002	976.12
543.216	948.12
543.43	994.12
543.644	1064.12
543.857	1115.12
544.071	1074.12
544.285	1107.12
544.498	1079.12
544.712	1085.12
544.925	1109.12
545.139	1113.12
545.352	1082.12
545.566	1046.12
545.779	1050.12
545.993	1072.12
546.206	1087.12
546.42	1088.12
546.633	1058.12
546.847	1021.12
547.06	1049.12
547.274	1072.12
547.487	1082.12
547.7	1089.12
547.914	1078.12
548.127	1114.12
548.34	1079.12
548.554	1051.12
548.767	1030.12
548.98	1041.12
549.193	1017.12
549.407	1109.12
549.62	1081.12
549.833	1041.12
550.046	1050.12
550.259	1069.12
550.473	1009.12
550.686	1012.12
550.899	1016.12
551.112	997.12
551.325	967.12
551.538	1038.12
551.751	1126.12
551.964	941.12
552.177	924.12
552.39	957.12
552.603	1023.12
552.816	1011.12
553.029	1045.12
553.242	1060.12
553.455	1047.12
553.667	1027.12
553.88	1020.12
554.093	1030.12
554.306	993.12
554.519	962.12
554.732	963.12
554.944	979.12
555.157	967.12
555.37	933.12
555.583	932.12
555.795	917.12
556.008	919.12
556.221	901.12
556.433	844.12
556.646	889.12
556.859	866.12
557.071	857.12
557.284	860.12
557.496	856.12
557.709	861.12
557.921	862.12
558.134	856.12
558.346	868.12
558.559	847.12
558.771	823.12
558.984	823.12
559.196	833.12
559.409	800.12
559.621	811.12
559.833	836.12
560.046	815.12
560.258	802.12
560.47	826.12
560.683	827.12
560.895	808.12
561.107	823.12
561.32	817.12
561.532	819.12
561.744	817.12
561.956	833.12
562.168	802.12
562.381	773.12
562.593	756.12
562.805	782.12
563.017	780.12
563.229	772.12
563.441	807.12
563.653	794.12
563.865	769.12
564.077	759.12
564.289	768.12
564.501	764.12
564.713	808.12
564.925	835.12
565.137	868.12
565.349	795.12
565.561	806.12
565.773	794.12
565.985	805.12
566.197	849.12
566.408	887.12
566.62	915.12
566.832	881.12
567.044	900.12
567.255	881.12
567.467	903.12
567.679	913.12
567.891	931.12
568.102	897.12
568.314	804.12
568.526	793.12
568.737	751.12
568.949	705.12
569.161	720.12
569.372	673.12
569.584	683.12
569.795	680.12
570.007	684.12
570.218	652.12
570.43	647.12
570.641	657.12
570.853	654.12
571.064	655.12
571.276	658.12
571.487	673.12
571.698	647.12
571.91	652.12
572.121	607.12
572.333	604.12
572.544	618.12
572.755	583.12
572.966	574.12
573.178	553.12
573.389	573.12
573.6	609.12
573.811	635.12
574.023	611.12
574.234	589.12
574.445	556.12
574.656	573.12
574.867	574.12
575.078	585.12
575.289	567.12
575.501	562.12
575.712	534.12
575.923	573.12
576.134	561.12
576.345	536.12
576.556	548.12
576.767	545.12
576.978	543.12
577.188	520.12
577.399	529.12
577.61	513.12
577.821	514.12
578.032	522.12
578.243	475.12
578.454	545.12
578.665	496.12
578.875	493.12
579.086	479.12
579.297	496.12
579.508	511.12
579.718	489.12
579.929	489.12
580.14	492.12
580.35	484.12
580.561	514.12
580.772	561.12
580.982	511.12
581.193	493.12
581.403	483.12
581.614	476.12
581.825	479.12
582.035	459.12
582.246	483.12
582.456	499.12
582.667	467.12
582.877	493.12
583.087	479.12
583.298	461.12
583.508	458.12
583.719	463.12
583.929	498.12
584.139	465.12
584.35	465.12
584.56	460.12
584.77	455.12
584.981	474.12
585.191	469.12
585.401	479.12
585.611	473.12
585.821	465.12
586.032	449.12
586.242	429.12
586.452	440.12
586.662	453.12
586.872	447.12
587.082	435.12
587.292	449.12
587.502	464.12
587.713	439.12
587.923	447.12
588.133	458.12
588.343	455.12
588.553	435.12
588.762	448.12
588.972	443.12
589.182	455.12
589.392	443.12
589.602	458.12
589.812	450.12
590.022	454.12
590.232	442.12
590.441	455.12
590.651	469.12
590.861	461.12
591.071	424.12
591.281	420.12
591.49	445.12
591.7	424.12
591.91	437.12
592.119	451.12
592.329	450.12
592.539	464.12
592.748	447.12
592.958	467.12
593.167	448.12
593.377	448.12
593.587	466.12
593.796	468.12
594.006	483.12
594.215	457.12
594.424	458.12
594.634	457.12
594.843	459.12
595.053	469.12
595.262	455.12
595.472	445.12
595.681	435.12
595.89	438.12
596.1	426.12
596.309	438.12
596.518	426.12
596.727	434.12
596.937	435.12
597.146	428.12
597.355	433.12
597.564	409.12
597.774	403.12
597.983	385.12
598.192	391.12
598.401	383.12
598.61	378.12
598.819	394.12
599.028	386.12
599.237	397.12
599.446	395.12
599.655	382.12
599.864	396.12
600.073	376.12
600.282	396.12
600.491	395.12
600.7	398.12
600.909	395.12
601.118	407.12
601.327	411.12
601.536	403.12
601.745	388.12
601.953	395.12
602.162	409.12
602.371	422.12
602.58	401.12
602.789	402.12
602.997	412.12
603.206	408.12
603.415	415.12
603.623	399.12
603.832	402.12
604.041	405.12
604.249	375.12
604.458	378.12
604.666	386.12
604.875	384.12
605.084	405.12
605.292	414.12
605.501	422.12
605.709	407.12
605.918	426.12
606.126	410.12
606.334	406.12
606.543	406.12
606.751	408.12
606.96	381.12
607.168	398.12
607.376	408.12
607.585	406.12
607.793	379.12
608.001	391.12
608.21	397.12
608.418	400.12
608.626	388.12
608.834	386.12
609.043	396.12
609.251	408.12
609.459	387.12
609.667	397.12
609.875	396.12
610.083	401.12
610.291	424.12
610.499	412.12
610.707	398.12
610.916	389.12
611.124	393.12
611.332	390.12
611.54	390.12
611.748	391.12
611.955	393.12
612.163	383.12
612.371	384.12
612.579	372.12
612.787	375.12
612.995	393.12
613.203	403.12
613.411	402.12
613.618	385.12
613.826	383.12
614.034	376.12
614.242	367.12
614.449	391.12
614.657	379.12
614.865	385.12
615.072	404.12
615.28	405.12
615.488	416.12
615.695	407.12
615.903	398.12
616.111	398.12
616.318	393.12
616.526	385.12
616.733	384.12
616.941	381.12
617.148	388.12
617.356	367.12
617.563	376.12
617.771	370.12
617.978	367.12
618.185	364.12
618.393	371.12
618.6	385.12
618.807	378.12
619.015	376.12
619.222	378.12
619.429	377.12
619.637	354.12
619.844	339.12
620.051	371.12
620.258	336.12
620.466	350.12
620.673	352.12
620.88	338.12
621.087	361.12
621.294	323.12
621.501	337.12
621.708	339.12
621.915	339.12
622.122	344.12
622.329	389.12
622.536	377.12
622.743	341.12
622.95	339.12
623.157	343.12
623.364	346.12
623.571	356.12
623.778	340.12
623.985	344.12
624.192	348.12
624.399	327.12
624.606	335.12
624.812	334.12
625.019	335.12
625.226	331.12
625.433	312.12
625.639	313.12
625.846	331.12
626.053	299.12
626.259	288.12
626.466	289.12
626.673	285.12
626.879	291.12
627.086	296.12
627.293	311.12
627.499	328.12
627.706	344.12
627.912	316.12
628.119	324.12
628.325	321.12
628.532	317.12
628.738	317.12
628.945	326.12
629.151	308.12
629.357	298.12
629.564	321.12
629.77	301.12
629.976	324.12
630.183	319.12
630.389	298.12
630.595	286.12
630.802	321.12
631.008	321.12
631.214	307.12
631.42	305.12
631.627	287.12
631.833	272.12
632.039	284.12
632.245	296.12
632.451	306.12
632.657	275.12
632.863	314.12
633.069	282.12
633.275	287.12
633.481	279.12
633.688	290.12
633.893	288.12
634.099	279.12
634.305	284.12
634.511	288.12
634.717	277.12
634.923	273.12
635.129	291.12
635.335	266.12
635.541	277.12
635.747	266.12
635.952	268.12
636.158	293.12
636.364	266.12
636.57	276.12
636.775	283.12
636.981	282.12
637.187	288.12
637.392	284.12
637.598	271.12
637.804	279.12
638.009	260.12
638.215	265.12
638.421	274.12
638.626	277.12
638.832	275.12
639.037	265.12
639.243	287.12
639.448	293.12
639.654	277.12
639.859	269.12
640.065	257.12
640.27	257.12
640.475	268.12
640.681	260.12
640.886	257.12
641.091	264.12
641.297	265.12
641.502	262.12
641.707	249.12
641.913	270.12
642.118	266.12
642.323	270.12
642.528	275.12
642.733	259.12
642.939	269.12
643.144	253.12
643.349	264.12
643.554	258.12
643.759	247.12
643.964	265.12
644.169	265.12
644.374	263.12
644.579	278.12
644.784	265.12
644.989	247.12
645.194	242.12
645.399	242.12
645.604	247.12
645.809	243.12
646.014	267.12
646.219	276.12
646.423	261.12
646.628	260.12
646.833	254.12
647.038	255.12
647.243	279.12
647.447	252.12
647.652	247.12
647.857	249.12
648.062	245.12
648.266	265.12
648.471	264.12
648.676	248.12
648.88	269.12
649.085	266.12
649.289	259.12
649.494	256.12
649.698	265.12
649.903	256.12
650.107	257.12
650.312	251.12
650.516	242.12
650.721	239.12
650.925	247.12
651.13	235.12
651.334	228.12
651.539	251.12
651.743	235.12
651.947	239.12
652.152	212.12
652.356	222.12
652.56	222.12
652.764	224.12
652.969	227.12
653.173	226.12
653.377	232.12
653.581	235.12
653.785	228.12
653.99	219.12
654.194	221.12
654.398	203.12
654.602	222.12
654.806	223.12
655.01	225.12
655.214	234.12
655.418	220.12
655.622	234.12
655.826	225.12
656.03	256.12
656.234	263.12
656.438	254.12
656.642	260.12
656.846	245.12
657.049	232.12
657.253	218.12
657.457	205.12
657.661	191.12
657.865	194.12
658.068	179.12
658.272	175.12
658.476	164.12
658.68	177.12
658.883	152.12
659.087	159.12
659.291	141.12
659.494	127.12
659.698	151.12
659.901	131.12
660.105	133.12
660.309	131.12
660.512	130.12
660.716	117.12
660.919	127.12
661.123	132.12
661.326	108.12
661.53	105.12
661.733	101.12
661.936	122.12
662.14	101.12
662.343	102.12
662.546	98.12
662.75	88.12
662.953	95.12
663.156	99.12
663.36	89.12
663.563	99.12
663.766	81.12
663.969	88.12
664.173	88.12
664.376	80.12
664.579	79.12
664.782	88.12
664.985	88.12
665.188	92.12
665.391	89.12
665.594	97.12
665.797	88.12
666	82.12
666.203	71.12
666.406	84.12
666.609	77.12
666.812	76.12
667.015	103.12
667.218	82.12
667.421	93.12
667.624	93.12
667.827	81.12
668.03	80.12
668.232	82.12
668.435	102.12
668.638	93.12
668.841	83.12
669.043	92.12
669.246	74.12
669.449	72.12
669.651	83.12
669.854	79.12
670.057	72.12
670.259	84.12
670.462	74.12
670.665	92.12
670.867	87.12
671.07	91.12
671.272	91.12
671.475	72.12
671.677	85.12
671.88	80.12
672.082	82.12
672.284	95.12
672.487	91.12
672.689	92.12
672.892	87.12
