Data from WStandard_LampEnergy8_LIBS07252019.E.O._I.C._HRD10591_15-58-59-929.txt Node
Date: Thu Jul 25 15:58:59 EDT 2019
User: cochatt
Spectrometer: HR+D1059
Trigger mode: 1
Integration Time (sec): 1.000000E-1
Scans to average: 1
Electric dark correction enabled: true
Nonlinearity correction enabled: false
Boxcar width: 0
XAxis mode: Wavelengths
Number of Pixels in Spectrum: 2048
>>>>>Begin Spectral Data<<<<<
223.165	-10.12
223.4	-10.12
223.635	-10.12
223.869	-26.12
224.104	-10.12
224.338	-13.12
224.573	-27.12
224.808	-14.12
225.042	-2.12
225.277	-0.12
225.511	9.88
225.746	-3.12
225.98	9.88
226.215	9.88
226.449	22.88
226.683	10.88
226.918	28.88
227.152	13.88
227.387	26.88
227.621	34.88
227.856	22.88
228.09	35.88
228.324	48.88
228.559	53.88
228.793	85.88
229.027	196.88
229.262	201.88
229.496	207.88
229.73	215.88
229.964	252.88
230.199	250.88
230.433	256.88
230.667	285.88
230.901	297.88
231.136	282.88
231.37	264.88
231.604	244.88
231.838	266.88
232.072	265.88
232.306	262.88
232.541	264.88
232.775	311.88
233.009	335.88
233.243	303.88
233.477	293.88
233.711	287.88
233.945	322.88
234.179	305.88
234.413	313.88
234.647	335.88
234.881	314.88
235.115	282.88
235.349	309.88
235.583	292.88
235.817	303.88
236.051	284.88
236.285	316.88
236.519	312.88
236.753	368.88
236.987	343.88
237.221	329.88
237.455	370.88
237.689	353.88
237.922	357.88
238.156	334.88
238.39	355.88
238.624	372.88
238.858	380.88
239.091	413.88
239.325	433.88
239.559	468.88
239.793	465.88
240.027	514.88
240.26	492.88
240.494	394.88
240.728	369.88
240.961	388.88
241.195	396.88
241.429	422.88
241.662	422.88
241.896	408.88
242.13	412.88
242.363	442.88
242.597	468.88
242.83	469.88
243.064	462.88
243.298	484.88
243.531	469.88
243.765	454.88
243.998	463.88
244.232	436.88
244.465	389.88
244.699	429.88
244.932	471.88
245.166	516.88
245.399	512.88
245.633	465.88
245.866	457.88
246.099	479.88
246.333	466.88
246.566	522.88
246.8	553.88
247.033	592.88
247.266	539.88
247.5	553.88
247.733	552.88
247.966	576.88
248.2	614.88
248.433	621.88
248.666	660.88
248.899	681.88
249.133	781.88
249.366	819.88
249.599	704.88
249.832	609.88
250.066	632.88
250.299	644.88
250.532	578.88
250.765	550.88
250.998	556.88
251.231	593.88
251.465	610.88
251.698	594.88
251.931	577.88
252.164	608.88
252.397	609.88
252.63	617.88
252.863	575.88
253.096	561.88
253.329	614.88
253.562	615.88
253.795	621.88
254.028	634.88
254.261	577.88
254.494	581.88
254.727	570.88
254.96	602.88
255.193	618.88
255.426	730.88
255.659	806.88
255.892	809.88
256.124	691.88
256.357	657.88
256.59	746.88
256.823	707.88
257.056	741.88
257.289	863.88
257.521	896.88
257.754	836.88
257.987	793.88
258.22	838.88
258.452	817.88
258.685	687.88
258.918	686.88
259.151	673.88
259.383	641.88
259.616	589.88
259.849	634.88
260.081	715.88
260.314	773.88
260.547	829.88
260.779	812.88
261.012	757.88
261.244	704.88
261.477	683.88
261.71	695.88
261.942	690.88
262.175	695.88
262.407	714.88
262.64	677.88
262.872	633.88
263.105	613.88
263.337	624.88
263.57	644.88
263.802	631.88
264.035	606.88
264.267	574.88
264.499	577.88
264.732	610.88
264.964	664.88
265.197	657.88
265.429	740.88
265.661	786.88
265.894	870.88
266.126	871.88
266.358	813.88
266.591	808.88
266.823	875.88
267.055	796.88
267.287	770.88
267.52	772.88
267.752	745.88
267.984	755.88
268.216	806.88
268.448	815.88
268.681	775.88
268.913	753.88
269.145	692.88
269.377	693.88
269.609	802.88
269.841	896.88
270.073	1005.88
270.306	1123.88
270.538	1155.88
270.77	973.88
271.002	817.88
271.234	820.88
271.466	842.88
271.698	954.88
271.93	1092.88
272.162	1052.88
272.394	970.88
272.626	903.88
272.858	825.88
273.09	704.88
273.322	712.88
273.553	676.88
273.785	662.88
274.017	727.88
274.249	774.88
274.481	786.88
274.713	724.88
274.945	704.88
275.176	708.88
275.408	697.88
275.64	672.88
275.872	690.88
276.104	764.88
276.335	856.88
276.567	944.88
276.799	918.88
277.031	836.88
277.262	816.88
277.494	884.88
277.726	944.88
277.957	882.88
278.189	838.88
278.421	782.88
278.652	778.88
278.884	736.88
279.115	736.88
279.347	738.88
279.579	727.88
279.81	758.88
280.042	817.88
280.273	882.88
280.505	876.88
280.736	898.88
280.968	821.88
281.199	762.88
281.431	709.88
281.662	713.88
281.894	709.88
282.125	737.88
282.356	758.88
282.588	808.88
282.819	793.88
283.051	862.88
283.282	904.88
283.513	853.88
283.745	788.88
283.976	715.88
284.207	755.88
284.439	734.88
284.67	756.88
284.901	796.88
285.132	806.88
285.364	758.88
285.595	753.88
285.826	761.88
286.057	751.88
286.288	784.88
286.52	821.88
286.751	834.88
286.982	858.88
287.213	833.88
287.444	740.88
287.675	737.88
287.906	800.88
288.138	817.88
288.369	822.88
288.6	793.88
288.831	748.88
289.062	778.88
289.293	793.88
289.524	772.88
289.755	787.88
289.986	771.88
290.217	724.88
290.448	762.88
290.679	790.88
290.91	776.88
291.141	820.88
291.371	811.88
291.602	827.88
291.833	819.88
292.064	850.88
292.295	842.88
292.526	847.88
292.757	865.88
292.987	846.88
293.218	828.88
293.449	906.88
293.68	993.88
293.91	1028.88
294.141	955.88
294.372	909.88
294.603	928.88
294.833	956.88
295.064	929.88
295.295	830.88
295.525	797.88
295.756	770.88
295.987	744.88
296.217	743.88
296.448	798.88
296.679	793.88
296.909	754.88
297.14	777.88
297.37	793.88
297.601	863.88
297.831	898.88
298.062	886.88
298.292	854.88
298.523	785.88
298.753	800.88
298.984	804.88
299.214	832.88
299.445	801.88
299.675	854.88
299.905	873.88
300.136	828.88
300.366	804.88
300.597	770.88
300.827	752.88
301.057	821.88
301.288	848.88
301.518	855.88
301.748	855.88
301.979	927.88
302.209	932.88
302.439	982.88
302.669	1028.88
302.9	930.88
303.13	829.88
303.36	869.88
303.59	892.88
303.82	869.88
304.051	878.88
304.281	852.88
304.511	887.88
304.741	962.88
304.971	1038.88
305.201	1044.88
305.431	960.88
305.661	820.88
305.891	734.88
306.121	788.88
306.352	794.88
306.582	853.88
306.812	934.88
307.042	991.88
307.272	960.88
307.502	1030.88
307.731	1061.88
307.961	1114.88
308.191	976.88
308.421	901.88
308.651	856.88
308.881	861.88
309.111	868.88
309.341	839.88
309.571	852.88
309.8	848.88
310.03	849.88
310.26	816.88
310.49	840.88
310.72	873.88
310.949	882.88
311.179	896.88
311.409	864.88
311.639	873.88
311.868	868.88
312.098	855.88
312.328	860.88
312.557	841.88
312.787	892.88
313.017	870.88
313.246	869.88
313.476	878.88
313.706	890.88
313.935	913.88
314.165	885.88
314.394	942.88
314.624	993.88
314.853	1036.88
315.083	1072.88
315.312	1073.88
315.542	1011.88
315.771	897.88
316.001	949.88
316.23	964.88
316.46	971.88
316.689	946.88
316.919	894.88
317.148	841.88
317.377	882.88
317.607	967.88
317.836	1088.88
318.065	1089.88
318.295	1056.88
318.524	1005.88
318.753	1000.88
318.983	981.88
319.212	947.88
319.441	916.88
319.67	920.88
319.9	966.88
320.129	1000.88
320.358	1046.88
320.587	1074.88
320.816	1029.88
321.046	1021.88
321.275	974.88
321.504	983.88
321.733	1069.88
321.962	1000.88
322.191	941.88
322.42	947.88
322.649	944.88
322.878	959.88
323.108	952.88
323.337	1002.88
323.566	966.88
323.795	993.88
324.024	964.88
324.253	960.88
324.482	946.88
324.71	919.88
324.939	857.88
325.168	898.88
325.397	914.88
325.626	983.88
325.855	964.88
326.084	950.88
326.313	943.88
326.542	948.88
326.77	981.88
326.999	971.88
327.228	918.88
327.457	871.88
327.686	892.88
327.914	918.88
328.143	926.88
328.372	925.88
328.6	965.88
328.829	910.88
329.058	908.88
329.287	917.88
329.515	918.88
329.744	960.88
329.972	1032.88
330.201	1094.88
330.43	1026.88
330.658	978.88
330.887	978.88
331.115	1009.88
331.344	1002.88
331.572	980.88
331.801	982.88
332.03	989.88
332.258	1016.88
332.486	1028.88
332.715	1005.88
332.943	993.88
333.172	988.88
333.4	1028.88
333.629	1044.88
333.857	1125.88
334.085	1209.88
334.314	1428.88
334.542	1448.88
334.771	1347.88
334.999	1136.88
335.227	1102.88
335.455	1049.88
335.684	1076.88
335.912	1084.88
336.14	1103.88
336.369	1087.88
336.597	1020.88
336.825	1014.88
337.053	1032.88
337.281	1105.88
337.51	1170.88
337.738	1168.88
337.966	1105.88
338.194	1038.88
338.422	1020.88
338.65	990.88
338.878	969.88
339.106	962.88
339.334	948.88
339.562	946.88
339.79	983.88
340.018	1043.88
340.246	1046.88
340.474	1070.88
340.702	1029.88
340.93	1028.88
341.158	1017.88
341.386	1015.88
341.614	996.88
341.842	1017.88
342.07	980.88
342.298	1014.88
342.526	1010.88
342.754	986.88
342.981	983.88
343.209	994.88
343.437	981.88
343.665	991.88
343.893	1006.88
344.12	1061.88
344.348	1032.88
344.576	995.88
344.804	1010.88
345.031	1002.88
345.259	994.88
345.487	948.88
345.714	914.88
345.942	882.88
346.17	948.88
346.397	989.88
346.625	969.88
346.853	897.88
347.08	906.88
347.308	906.88
347.535	934.88
347.763	945.88
347.99	919.88
348.218	935.88
348.445	918.88
348.673	958.88
348.9	973.88
349.128	986.88
349.355	1022.88
349.583	980.88
349.81	948.88
350.037	842.88
350.265	856.88
350.492	889.88
350.72	910.88
350.947	966.88
351.174	945.88
351.402	900.88
351.629	864.88
351.856	882.88
352.083	865.88
352.311	889.88
352.538	910.88
352.765	946.88
352.992	948.88
353.22	932.88
353.447	904.88
353.674	911.88
353.901	934.88
354.128	912.88
354.355	920.88
354.583	960.88
354.81	999.88
355.037	952.88
355.264	975.88
355.491	935.88
355.718	931.88
355.945	923.88
356.172	896.88
356.399	918.88
356.626	890.88
356.853	946.88
357.08	1046.88
357.307	1125.88
357.534	1087.88
357.761	969.88
357.988	902.88
358.215	868.88
358.441	892.88
358.668	867.88
358.895	924.88
359.122	1017.88
359.349	1064.88
359.576	1023.88
359.802	926.88
360.029	929.88
360.256	886.88
360.483	922.88
360.709	964.88
360.936	989.88
361.163	1044.88
361.39	1105.88
361.616	1189.88
361.843	1164.88
362.07	1076.88
362.296	925.88
362.523	936.88
362.749	932.88
362.976	950.88
363.203	946.88
363.429	899.88
363.656	927.88
363.882	957.88
364.109	1046.88
364.335	1120.88
364.562	1046.88
364.788	1010.88
365.015	931.88
365.241	898.88
365.468	916.88
365.694	990.88
365.92	1001.88
366.147	961.88
366.373	924.88
366.599	889.88
366.826	918.88
367.052	924.88
367.278	913.88
367.505	950.88
367.731	988.88
367.957	973.88
368.184	992.88
368.41	1061.88
368.636	1076.88
368.862	1057.88
369.089	1080.88
369.315	1040.88
369.541	1005.88
369.767	947.88
369.993	936.88
370.219	955.88
370.445	993.88
370.672	1053.88
370.898	1072.88
371.124	1049.88
371.35	983.88
371.576	1080.88
371.802	1089.88
372.028	1014.88
372.254	970.88
372.48	965.88
372.706	962.88
372.932	922.88
373.158	970.88
373.384	995.88
373.61	1019.88
373.835	1078.88
374.061	1011.88
374.287	988.88
374.513	1004.88
374.739	993.88
374.965	993.88
375.191	1026.88
375.416	997.88
375.642	1049.88
375.868	1109.88
376.094	1141.88
376.319	1053.88
376.545	994.88
376.771	1046.88
376.997	1074.88
377.222	1054.88
377.448	1030.88
377.674	1074.88
377.899	1049.88
378.125	1091.88
378.35	1095.88
378.576	1003.88
378.802	966.88
379.027	957.88
379.253	986.88
379.478	1014.88
379.704	974.88
379.929	983.88
380.155	1018.88
380.38	984.88
380.606	1021.88
380.831	1026.88
381.057	1076.88
381.282	1068.88
381.507	1064.88
381.733	1132.88
381.958	1134.88
382.184	1044.88
382.409	1014.88
382.634	1037.88
382.86	1072.88
383.085	1089.88
383.31	1083.88
383.535	1199.88
383.761	1207.88
383.986	1180.88
384.211	1150.88
384.436	1137.88
384.662	1180.88
384.887	1194.88
385.112	1120.88
385.337	1145.88
385.562	1110.88
385.787	1136.88
386.013	1144.88
386.238	1150.88
386.463	1185.88
386.688	1264.88
386.913	1283.88
387.138	1257.88
387.363	1188.88
387.588	1175.88
387.813	1162.88
388.038	1186.88
388.263	1244.88
388.488	1178.88
388.713	1095.88
388.938	1104.88
389.163	1085.88
389.387	1127.88
389.612	1135.88
389.837	1160.88
390.062	1163.88
390.287	1161.88
390.512	1147.88
390.736	1106.88
390.961	1122.88
391.186	1077.88
391.411	1073.88
391.636	1116.88
391.86	1158.88
392.085	1132.88
392.31	1125.88
392.534	1136.88
392.759	1128.88
392.984	1128.88
393.208	1160.88
393.433	1169.88
393.658	1233.88
393.882	1226.88
394.107	1137.88
394.331	1163.88
394.556	1160.88
394.78	1142.88
395.005	1202.88
395.229	1217.88
395.454	1365.88
395.678	1307.88
395.903	1214.88
396.127	1196.88
396.352	1236.88
396.576	1282.88
396.801	1250.88
397.025	1237.88
397.249	1249.88
397.474	1217.88
397.698	1203.88
397.922	1288.88
398.147	1337.88
398.371	1364.88
398.595	1369.88
398.82	1335.88
399.044	1375.88
399.268	1418.88
399.492	1486.88
399.717	1500.88
399.941	1493.88
400.165	1472.88
400.389	1455.88
400.613	1478.88
400.837	1702.88
401.062	1838.88
401.286	1563.88
401.51	1438.88
401.734	1472.88
401.958	1429.88
402.182	1356.88
402.406	1278.88
402.63	1299.88
402.854	1315.88
403.078	1336.88
403.302	1340.88
403.526	1389.88
403.75	1359.88
403.974	1385.88
404.198	1342.88
404.422	1424.88
404.645	1476.88
404.869	1434.88
405.093	1371.88
405.317	1318.88
405.541	1340.88
405.765	1360.88
405.988	1390.88
406.212	1384.88
406.436	1418.88
406.66	1485.88
406.883	1504.88
407.107	1695.88
407.331	1853.88
407.555	1908.88
407.778	1676.88
408.002	1445.88
408.226	1452.88
408.449	1427.88
408.673	1396.88
408.896	1398.88
409.12	1437.88
409.344	1400.88
409.567	1393.88
409.791	1376.88
410.014	1404.88
410.238	1495.88
410.461	1559.88
410.685	1432.88
410.908	1355.88
411.132	1389.88
411.355	1324.88
411.578	1330.88
411.802	1379.88
412.025	1351.88
412.249	1319.88
412.472	1307.88
412.695	1340.88
412.919	1320.88
413.142	1316.88
413.365	1314.88
413.589	1359.88
413.812	1414.88
414.035	1481.88
414.258	1338.88
414.482	1324.88
414.705	1326.88
414.928	1302.88
415.151	1292.88
415.374	1311.88
415.597	1338.88
415.821	1332.88
416.044	1324.88
416.267	1369.88
416.49	1251.88
416.713	1290.88
416.936	1334.88
417.159	1410.88
417.382	1379.88
417.605	1328.88
417.828	1342.88
418.051	1332.88
418.274	1304.88
418.497	1300.88
418.72	1295.88
418.943	1284.88
419.166	1367.88
419.389	1389.88
419.611	1311.88
419.834	1322.88
420.057	1324.88
420.28	1304.88
420.503	1304.88
420.726	1316.88
420.948	1308.88
421.171	1277.88
421.394	1290.88
421.617	1322.88
421.839	1341.88
422.062	1310.88
422.285	1273.88
422.507	1276.88
422.73	1250.88
422.953	1196.88
423.175	1242.88
423.398	1291.88
423.621	1292.88
423.843	1294.88
424.066	1325.88
424.288	1346.88
424.511	1397.88
424.733	1370.88
424.956	1250.88
425.178	1243.88
425.401	1260.88
425.623	1294.88
425.846	1265.88
426.068	1374.88
426.291	1360.88
426.513	1348.88
426.735	1334.88
426.958	1471.88
427.18	1518.88
427.402	1364.88
427.625	1413.88
427.847	1400.88
428.069	1284.88
428.292	1290.88
428.514	1253.88
428.736	1230.88
428.958	1259.88
429.181	1279.88
429.403	1510.88
429.625	1772.88
429.847	1519.88
430.069	1314.88
430.292	1426.88
430.514	1430.88
430.736	1376.88
430.958	1404.88
431.18	1304.88
431.402	1246.88
431.624	1221.88
431.846	1206.88
432.068	1135.88
432.29	1152.88
432.512	1178.88
432.734	1242.88
432.956	1303.88
433.178	1343.88
433.4	1340.88
433.622	1311.88
433.844	1286.88
434.066	1214.88
434.287	1196.88
434.509	1222.88
434.731	1294.88
434.953	1381.88
435.175	1361.88
435.397	1286.88
435.618	1274.88
435.84	1281.88
436.062	1226.88
436.284	1276.88
436.505	1287.88
436.727	1320.88
436.949	1276.88
437.17	1278.88
437.392	1226.88
437.614	1219.88
437.835	1189.88
438.057	1228.88
438.278	1294.88
438.5	1226.88
438.721	1239.88
438.943	1267.88
439.165	1219.88
439.386	1204.88
439.608	1260.88
439.829	1241.88
440.05	1282.88
440.272	1275.88
440.493	1212.88
440.715	1280.88
440.936	1372.88
441.158	1463.88
441.379	1422.88
441.6	1389.88
441.822	1355.88
442.043	1345.88
442.264	1326.88
442.486	1258.88
442.707	1280.88
442.928	1300.88
443.149	1292.88
443.371	1354.88
443.592	1374.88
443.813	1363.88
444.034	1376.88
444.255	1384.88
444.476	1394.88
444.698	1396.88
444.919	1429.88
445.14	1491.88
445.361	1450.88
445.582	1476.88
445.803	1404.88
446.024	1387.88
446.245	1406.88
446.466	1370.88
446.687	1313.88
446.908	1347.88
447.129	1334.88
447.35	1295.88
447.571	1300.88
447.792	1260.88
448.013	1226.88
448.234	1238.88
448.455	1334.88
448.675	1330.88
448.896	1196.88
449.117	1233.88
449.338	1208.88
449.559	1288.88
449.779	1381.88
450	1414.88
450.221	1505.88
450.442	1445.88
450.662	1310.88
450.883	1190.88
451.104	1167.88
451.324	1175.88
451.545	1228.88
451.766	1224.88
451.986	1141.88
452.207	1129.88
452.428	1140.88
452.648	1096.88
452.869	1119.88
453.089	1141.88
453.31	1159.88
453.53	1158.88
453.751	1114.88
453.971	1072.88
454.192	1080.88
454.412	1172.88
454.633	1154.88
454.853	1145.88
455.073	1060.88
455.294	1070.88
455.514	1076.88
455.734	1077.88
455.955	1118.88
456.175	1093.88
456.395	1050.88
456.616	1115.88
456.836	1106.88
457.056	1122.88
457.276	1091.88
457.497	1043.88
457.717	1001.88
457.937	1044.88
458.157	1058.88
458.377	1046.88
458.598	1021.88
458.818	1062.88
459.038	1114.88
459.258	1127.88
459.478	1153.88
459.698	1122.88
459.918	1159.88
460.138	1218.88
460.358	1241.88
460.578	1260.88
460.798	1304.88
461.018	1354.88
461.238	1308.88
461.458	1261.88
461.678	1233.88
461.898	1237.88
462.118	1206.88
462.338	1260.88
462.558	1262.88
462.777	1250.88
462.997	1328.88
463.217	1373.88
463.437	1357.88
463.657	1290.88
463.876	1264.88
464.096	1250.88
464.316	1256.88
464.536	1308.88
464.755	1309.88
464.975	1314.88
465.195	1257.88
465.414	1321.88
465.634	1298.88
465.854	1328.88
466.073	1400.88
466.293	1353.88
466.512	1216.88
466.732	1206.88
466.951	1247.88
467.171	1251.88
467.391	1182.88
467.61	1170.88
467.829	1207.88
468.049	1367.88
468.268	1457.88
468.488	1332.88
468.707	1260.88
468.927	1253.88
469.146	1223.88
469.365	1229.88
469.585	1264.88
469.804	1238.88
470.023	1265.88
470.243	1249.88
470.462	1233.88
470.681	1207.88
470.901	1249.88
471.12	1224.88
471.339	1264.88
471.558	1252.88
471.777	1187.88
471.997	1240.88
472.216	1175.88
472.435	1118.88
472.654	1146.88
472.873	1196.88
473.092	1260.88
473.311	1182.88
473.53	1160.88
473.749	1137.88
473.968	1183.88
474.187	1235.88
474.406	1235.88
474.625	1228.88
474.844	1240.88
475.063	1230.88
475.282	1289.88
475.501	1201.88
475.72	1189.88
475.939	1295.88
476.158	1264.88
476.377	1220.88
476.596	1248.88
476.814	1220.88
477.033	1232.88
477.252	1296.88
477.471	1278.88
477.69	1298.88
477.908	1299.88
478.127	1362.88
478.346	1414.88
478.564	1420.88
478.783	1408.88
479.002	1463.88
479.22	1445.88
479.439	1471.88
479.658	1586.88
479.876	1527.88
480.095	1365.88
480.313	1353.88
480.532	1283.88
480.751	1263.88
480.969	1340.88
481.188	1274.88
481.406	1249.88
481.624	1222.88
481.843	1258.88
482.061	1275.88
482.28	1319.88
482.498	1383.88
482.717	1333.88
482.935	1281.88
483.153	1363.88
483.372	1369.88
483.59	1404.88
483.808	1342.88
484.027	1342.88
484.245	1449.88
484.463	1784.88
484.681	1901.88
484.9	1504.88
485.118	1406.88
485.336	1348.88
485.554	1361.88
485.772	1408.88
485.99	1360.88
486.209	1386.88
486.427	1399.88
486.645	1426.88
486.863	1417.88
487.081	1463.88
487.299	1478.88
487.517	1456.88
487.735	1496.88
487.953	1513.88
488.171	1507.88
488.389	1461.88
488.607	1429.88
488.825	1600.88
489.043	1566.88
489.261	1412.88
489.479	1480.88
489.696	1526.88
489.914	1493.88
490.132	1419.88
490.35	1462.88
490.568	1540.88
490.786	1519.88
491.003	1494.88
491.221	1546.88
491.439	1593.88
491.657	1576.88
491.874	1650.88
492.092	1664.88
492.31	1690.88
492.527	1661.88
492.745	1602.88
492.963	1602.88
493.18	1648.88
493.398	1745.88
493.615	1715.88
493.833	1591.88
494.05	1572.88
494.268	1562.88
494.485	1619.88
494.703	1586.88
494.92	1527.88
495.138	1555.88
495.355	1552.88
495.573	1625.88
495.79	1666.88
496.008	1686.88
496.225	1628.88
496.442	1574.88
496.66	1621.88
496.877	1618.88
497.094	1680.88
497.312	1652.88
497.529	1618.88
497.746	1675.88
497.963	1893.88
498.181	1989.88
498.398	1920.88
498.615	1831.88
498.832	1775.88
499.049	1795.88
499.267	1792.88
499.484	1923.88
499.701	2034.88
499.918	2080.88
500.135	2211.88
500.352	2358.88
500.569	2346.88
500.786	2551.88
501.003	2353.88
501.22	2140.88
501.437	2089.88
501.654	2124.88
501.871	1991.88
502.088	1761.88
502.305	1793.88
502.522	1680.88
502.739	1630.88
502.956	1572.88
503.172	1564.88
503.389	1536.88
503.606	1520.88
503.823	1504.88
504.04	1489.88
504.256	1490.88
504.473	1500.88
504.69	1521.88
504.907	1429.88
505.123	1436.88
505.34	1556.88
505.557	2047.88
505.773	1668.88
505.99	1391.88
506.207	1322.88
506.423	1285.88
506.64	1296.88
506.856	1302.88
507.073	1538.88
507.289	1598.88
507.506	1505.88
507.722	1336.88
507.939	1238.88
508.155	1287.88
508.372	1266.88
508.588	1251.88
508.805	1177.88
509.021	1163.88
509.238	1194.88
509.454	1168.88
509.67	1184.88
509.887	1118.88
510.103	1141.88
510.319	1161.88
510.536	1221.88
510.752	1266.88
510.968	1223.88
511.184	1286.88
511.401	1226.88
511.617	1135.88
511.833	1082.88
512.049	1064.88
512.265	1100.88
512.481	1095.88
512.698	1180.88
512.914	1225.88
513.13	1162.88
513.346	1111.88
513.562	1098.88
513.778	1133.88
513.994	1172.88
514.21	1198.88
514.426	1238.88
514.642	1290.88
514.858	1230.88
515.074	1162.88
515.29	1098.88
515.506	1162.88
515.721	1187.88
515.937	1192.88
516.153	1325.88
516.369	1262.88
516.585	1177.88
516.801	1147.88
517.016	1172.88
517.232	1197.88
517.448	1247.88
517.664	1231.88
517.879	1224.88
518.095	1269.88
518.311	1234.88
518.527	1186.88
518.742	1156.88
518.958	1124.88
519.173	1173.88
519.389	1176.88
519.605	1203.88
519.82	1169.88
520.036	1189.88
520.251	1129.88
520.467	1188.88
520.682	1257.88
520.898	1249.88
521.113	1122.88
521.329	1126.88
521.544	1197.88
521.76	1148.88
521.975	1086.88
522.19	1112.88
522.406	1127.88
522.621	1397.88
522.836	1342.88
523.052	1099.88
523.267	1115.88
523.482	1121.88
523.698	1075.88
523.913	1059.88
524.128	1105.88
524.343	1158.88
524.559	1172.88
524.774	1097.88
524.989	1072.88
525.204	1085.88
525.419	1051.88
525.634	1072.88
525.849	1072.88
526.064	1042.88
526.28	1071.88
526.495	1030.88
526.71	975.88
526.925	1013.88
527.14	1015.88
527.355	998.88
527.57	956.88
527.785	1017.88
527.999	991.88
528.214	976.88
528.429	984.88
528.644	1011.88
528.859	1068.88
529.074	1114.88
529.289	1111.88
529.503	1128.88
529.718	1070.88
529.933	1044.88
530.148	1023.88
530.363	981.88
530.577	996.88
530.792	992.88
531.007	1001.88
531.221	996.88
531.436	976.88
531.651	1005.88
531.865	1048.88
532.08	999.88
532.295	974.88
532.509	935.88
532.724	941.88
532.938	992.88
533.153	1064.88
533.367	1074.88
533.582	1030.88
533.796	1019.88
534.011	1033.88
534.225	1018.88
534.44	1005.88
534.654	985.88
534.868	981.88
535.083	1017.88
535.297	1038.88
535.511	1020.88
535.726	1016.88
535.94	1007.88
536.154	977.88
536.369	966.88
536.583	965.88
536.797	946.88
537.011	958.88
537.225	932.88
537.44	929.88
537.654	960.88
537.868	942.88
538.082	913.88
538.296	887.88
538.51	932.88
538.724	938.88
538.938	975.88
539.153	1005.88
539.367	1008.88
539.581	975.88
539.795	1022.88
540.009	952.88
540.222	936.88
540.436	985.88
540.65	1073.88
540.864	1094.88
541.078	1084.88
541.292	1033.88
541.506	1085.88
541.72	1136.88
541.934	1135.88
542.147	1189.88
542.361	1143.88
542.575	1074.88
542.789	1028.88
543.002	980.88
543.216	970.88
543.43	1039.88
543.644	1068.88
543.857	1113.88
544.071	1117.88
544.285	1112.88
544.498	1123.88
544.712	1096.88
544.925	1149.88
545.139	1140.88
545.352	1073.88
545.566	1057.88
545.779	1064.88
545.993	1081.88
546.206	1132.88
546.42	1074.88
546.633	1040.88
546.847	1045.88
547.06	1058.88
547.274	1048.88
547.487	1088.88
547.7	1089.88
547.914	1073.88
548.127	1118.88
548.34	1122.88
548.554	1077.88
548.767	1111.88
548.98	1052.88
549.193	1100.88
549.407	1126.88
549.62	1115.88
549.833	1072.88
550.046	1062.88
550.259	1045.88
550.473	1034.88
550.686	1010.88
550.899	1029.88
551.112	1000.88
551.325	976.88
551.538	1061.88
551.751	1187.88
551.964	925.88
552.177	935.88
552.39	961.88
552.603	985.88
552.816	988.88
553.029	1083.88
553.242	1076.88
553.455	1028.88
553.667	1047.88
553.88	1065.88
554.093	1040.88
554.306	996.88
554.519	1008.88
554.732	947.88
554.944	982.88
555.157	986.88
555.37	981.88
555.583	944.88
555.795	938.88
556.008	915.88
556.221	894.88
556.433	887.88
556.646	877.88
556.859	866.88
557.071	904.88
557.284	883.88
557.496	889.88
557.709	877.88
557.921	880.88
558.134	873.88
558.346	867.88
558.559	841.88
558.771	866.88
558.984	863.88
559.196	817.88
559.409	825.88
559.621	814.88
559.833	823.88
560.046	840.88
560.258	832.88
560.47	825.88
560.683	821.88
560.895	806.88
561.107	807.88
561.32	847.88
561.532	824.88
561.744	809.88
561.956	826.88
562.168	828.88
562.381	792.88
562.593	792.88
562.805	802.88
563.017	765.88
563.229	814.88
563.441	825.88
563.653	782.88
563.865	796.88
564.077	807.88
564.289	832.88
564.501	803.88
564.713	830.88
564.925	820.88
565.137	885.88
565.349	808.88
565.561	812.88
565.773	828.88
565.985	848.88
566.197	867.88
566.408	934.88
566.62	905.88
566.832	897.88
567.044	869.88
567.255	895.88
567.467	891.88
567.679	925.88
567.891	909.88
568.102	855.88
568.314	825.88
568.526	817.88
568.737	769.88
568.949	735.88
569.161	708.88
569.372	702.88
569.584	709.88
569.795	671.88
570.007	688.88
570.218	664.88
570.43	659.88
570.641	658.88
570.853	667.88
571.064	661.88
571.276	668.88
571.487	681.88
571.698	669.88
571.91	633.88
572.121	621.88
572.333	616.88
572.544	604.88
572.755	563.88
572.966	592.88
573.178	583.88
573.389	589.88
573.6	626.88
573.811	668.88
574.023	600.88
574.234	572.88
574.445	540.88
574.656	539.88
574.867	575.88
575.078	552.88
575.289	550.88
575.501	541.88
575.712	546.88
575.923	573.88
576.134	586.88
576.345	568.88
576.556	581.88
576.767	541.88
576.978	529.88
577.188	547.88
577.399	544.88
577.61	520.88
577.821	505.88
578.032	504.88
578.243	519.88
578.454	493.88
578.665	514.88
578.875	512.88
579.086	477.88
579.297	506.88
579.508	542.88
579.718	500.88
579.929	494.88
580.14	481.88
580.35	489.88
580.561	522.88
580.772	572.88
580.982	525.88
581.193	500.88
581.403	494.88
581.614	492.88
581.825	477.88
582.035	464.88
582.246	471.88
582.456	501.88
582.667	479.88
582.877	478.88
583.087	489.88
583.298	479.88
583.508	476.88
583.719	465.88
583.929	471.88
584.139	470.88
584.35	440.88
584.56	468.88
584.77	462.88
584.981	474.88
585.191	468.88
585.401	483.88
585.611	452.88
585.821	467.88
586.032	474.88
586.242	454.88
586.452	449.88
586.662	464.88
586.872	456.88
587.082	440.88
587.292	449.88
587.502	473.88
587.713	467.88
587.923	447.88
588.133	440.88
588.343	463.88
588.553	448.88
588.762	438.88
588.972	431.88
589.182	462.88
589.392	439.88
589.602	448.88
589.812	441.88
590.022	443.88
590.232	442.88
590.441	471.88
590.651	451.88
590.861	438.88
591.071	408.88
591.281	438.88
591.49	436.88
591.7	435.88
591.91	443.88
592.119	434.88
592.329	459.88
592.539	477.88
592.748	444.88
592.958	466.88
593.167	473.88
593.377	472.88
593.587	457.88
593.796	476.88
594.006	467.88
594.215	473.88
594.424	462.88
594.634	431.88
594.843	456.88
595.053	485.88
595.262	451.88
595.472	455.88
595.681	449.88
595.89	442.88
596.1	420.88
596.309	440.88
596.518	437.88
596.727	457.88
596.937	425.88
597.146	401.88
597.355	414.88
597.564	405.88
597.774	410.88
597.983	398.88
598.192	389.88
598.401	365.88
598.61	385.88
598.819	395.88
599.028	379.88
599.237	390.88
599.446	401.88
599.655	381.88
599.864	389.88
600.073	390.88
600.282	371.88
600.491	385.88
600.7	384.88
600.909	393.88
601.118	406.88
601.327	421.88
601.536	410.88
601.745	412.88
601.953	419.88
602.162	414.88
602.371	418.88
602.58	411.88
602.789	431.88
602.997	418.88
603.206	421.88
603.415	391.88
603.623	378.88
603.832	399.88
604.041	390.88
604.249	374.88
604.458	386.88
604.666	377.88
604.875	393.88
605.084	384.88
605.292	397.88
605.501	397.88
605.709	413.88
605.918	393.88
606.126	394.88
606.334	402.88
606.543	407.88
606.751	409.88
606.96	411.88
607.168	387.88
607.376	377.88
607.585	403.88
607.793	413.88
608.001	415.88
608.21	416.88
608.418	397.88
608.626	397.88
608.834	402.88
609.043	389.88
609.251	393.88
609.459	395.88
609.667	395.88
609.875	408.88
610.083	410.88
610.291	417.88
610.499	419.88
610.707	394.88
610.916	395.88
611.124	401.88
611.332	371.88
611.54	409.88
611.748	390.88
611.955	398.88
612.163	393.88
612.371	382.88
612.579	380.88
612.787	388.88
612.995	410.88
613.203	417.88
613.411	393.88
613.618	391.88
613.826	394.88
614.034	402.88
614.242	400.88
614.449	387.88
614.657	400.88
614.865	398.88
615.072	374.88
615.28	397.88
615.488	394.88
615.695	413.88
615.903	400.88
616.111	386.88
616.318	380.88
616.526	368.88
616.733	383.88
616.941	373.88
617.148	394.88
617.356	383.88
617.563	393.88
617.771	375.88
617.978	370.88
618.185	383.88
618.393	369.88
618.6	385.88
618.807	377.88
619.015	374.88
619.222	381.88
619.429	366.88
619.637	375.88
619.844	341.88
620.051	339.88
620.258	357.88
620.466	372.88
620.673	362.88
620.88	351.88
621.087	352.88
621.294	338.88
621.501	365.88
621.708	328.88
621.915	332.88
622.122	352.88
622.329	350.88
622.536	350.88
622.743	364.88
622.95	352.88
623.157	360.88
623.364	352.88
623.571	348.88
623.778	344.88
623.985	350.88
624.192	348.88
624.399	335.88
624.606	347.88
624.812	336.88
625.019	338.88
625.226	332.88
625.433	320.88
625.639	312.88
625.846	330.88
626.053	302.88
626.259	294.88
626.466	281.88
626.673	278.88
626.879	286.88
627.086	290.88
627.293	303.88
627.499	319.88
627.706	322.88
627.912	321.88
628.119	306.88
628.325	335.88
628.532	344.88
628.738	304.88
628.945	304.88
629.151	309.88
629.357	309.88
629.564	296.88
629.77	315.88
629.976	312.88
630.183	301.88
630.389	311.88
630.595	322.88
630.802	297.88
631.008	304.88
631.214	295.88
631.42	299.88
631.627	308.88
631.833	289.88
632.039	297.88
632.245	287.88
632.451	293.88
632.657	286.88
632.863	288.88
633.069	286.88
633.275	273.88
633.481	283.88
633.688	275.88
633.893	284.88
634.099	286.88
634.305	287.88
634.511	284.88
634.717	279.88
634.923	269.88
635.129	273.88
635.335	274.88
635.541	287.88
635.747	276.88
635.952	267.88
636.158	265.88
636.364	281.88
636.57	291.88
636.775	277.88
636.981	278.88
637.187	265.88
637.392	280.88
637.598	259.88
637.804	274.88
638.009	274.88
638.215	270.88
638.421	293.88
638.626	279.88
638.832	278.88
639.037	260.88
639.243	258.88
639.448	262.88
639.654	266.88
639.859	277.88
640.065	253.88
640.27	276.88
640.475	254.88
640.681	278.88
640.886	267.88
641.091	269.88
641.297	246.88
641.502	267.88
641.707	255.88
641.913	263.88
642.118	260.88
642.323	260.88
642.528	271.88
642.733	246.88
642.939	272.88
643.144	250.88
643.349	257.88
643.554	271.88
643.759	246.88
643.964	241.88
644.169	249.88
644.374	256.88
644.579	260.88
644.784	261.88
644.989	263.88
645.194	261.88
645.399	245.88
645.604	258.88
645.809	265.88
646.014	263.88
646.219	273.88
646.423	247.88
646.628	257.88
646.833	259.88
647.038	247.88
647.243	262.88
647.447	254.88
647.652	258.88
647.857	241.88
648.062	258.88
648.266	248.88
648.471	275.88
648.676	262.88
648.88	265.88
649.085	270.88
649.289	284.88
649.494	268.88
649.698	272.88
649.903	243.88
650.107	245.88
650.312	272.88
650.516	232.88
650.721	237.88
650.925	240.88
651.13	233.88
651.334	249.88
651.539	220.88
651.743	255.88
651.947	233.88
652.152	219.88
652.356	231.88
652.56	214.88
652.764	221.88
652.969	224.88
653.173	218.88
653.377	209.88
653.581	220.88
653.785	217.88
653.99	215.88
654.194	205.88
654.398	228.88
654.602	212.88
654.806	222.88
655.01	228.88
655.214	222.88
655.418	194.88
655.622	209.88
655.826	231.88
656.03	249.88
656.234	255.88
656.438	261.88
656.642	253.88
656.846	224.88
657.049	233.88
657.253	184.88
657.457	198.88
657.661	189.88
657.865	185.88
658.068	172.88
658.272	189.88
658.476	148.88
658.68	153.88
658.883	146.88
659.087	152.88
659.291	135.88
659.494	134.88
659.698	124.88
659.901	121.88
660.105	142.88
660.309	105.88
660.512	121.88
660.716	131.88
660.919	124.88
661.123	116.88
661.326	101.88
661.53	109.88
661.733	98.88
661.936	112.88
662.14	104.88
662.343	108.88
662.546	89.88
662.75	101.88
662.953	72.88
663.156	74.88
663.36	102.88
663.563	94.88
663.766	74.88
663.969	80.88
664.173	81.88
664.376	89.88
664.579	94.88
664.782	97.88
664.985	84.88
665.188	81.88
665.391	80.88
665.594	78.88
665.797	92.88
666	87.88
666.203	88.88
666.406	71.88
666.609	73.88
666.812	66.88
667.015	75.88
667.218	71.88
667.421	75.88
667.624	85.88
667.827	82.88
668.03	80.88
668.232	71.88
668.435	82.88
668.638	74.88
668.841	82.88
669.043	65.88
669.246	84.88
669.449	78.88
669.651	84.88
669.854	90.88
670.057	80.88
670.259	91.88
670.462	68.88
670.665	76.88
670.867	83.88
671.07	73.88
671.272	77.88
671.475	79.88
671.677	77.88
671.88	85.88
672.082	69.88
672.284	71.88
672.487	87.88
672.689	94.88
672.892	83.88
