Data from WStandard_LampEnergy10_LIBS07252019.E.O._I.C._HRD10591_15-54-12-928.txt Node
Date: Thu Jul 25 15:54:12 EDT 2019
User: cochatt
Spectrometer: HR+D1059
Trigger mode: 1
Integration Time (sec): 1.000000E-1
Scans to average: 1
Electric dark correction enabled: true
Nonlinearity correction enabled: false
Boxcar width: 0
XAxis mode: Wavelengths
Number of Pixels in Spectrum: 2048
>>>>>Begin Spectral Data<<<<<
223.165	-22.88
223.4	-22.88
223.635	-22.88
223.869	-13.88
224.104	-17.88
224.338	-7.88
224.573	-5.88
224.808	-14.88
225.042	-4.88
225.277	-10.88
225.511	4.12
225.746	-7.88
225.98	-1.88
226.215	17.12
226.449	15.12
226.683	20.12
226.918	20.12
227.152	32.12
227.387	31.12
227.621	47.12
227.856	48.12
228.09	57.12
228.324	52.12
228.559	47.12
228.793	76.12
229.027	140.12
229.262	162.12
229.496	158.12
229.73	150.12
229.964	156.12
230.199	179.12
230.433	179.12
230.667	181.12
230.901	168.12
231.136	182.12
231.37	163.12
231.604	169.12
231.838	171.12
232.072	176.12
232.306	174.12
232.541	191.12
232.775	200.12
233.009	208.12
233.243	201.12
233.477	186.12
233.711	212.12
233.945	197.12
234.179	210.12
234.413	209.12
234.647	205.12
234.881	199.12
235.115	200.12
235.349	200.12
235.583	203.12
235.817	199.12
236.051	189.12
236.285	210.12
236.519	212.12
236.753	216.12
236.987	239.12
237.221	240.12
237.455	254.12
237.689	233.12
237.922	216.12
238.156	216.12
238.39	220.12
238.624	236.12
238.858	231.12
239.091	260.12
239.325	271.12
239.559	288.12
239.793	312.12
240.027	304.12
240.26	278.12
240.494	235.12
240.728	228.12
240.961	250.12
241.195	272.12
241.429	267.12
241.662	248.12
241.896	242.12
242.13	235.12
242.363	266.12
242.597	272.12
242.83	280.12
243.064	284.12
243.298	302.12
243.531	286.12
243.765	284.12
243.998	279.12
244.232	267.12
244.465	251.12
244.699	268.12
244.932	300.12
245.166	305.12
245.399	287.12
245.633	283.12
245.866	288.12
246.099	286.12
246.333	307.12
246.566	324.12
246.8	337.12
247.033	351.12
247.266	338.12
247.5	312.12
247.733	328.12
247.966	340.12
248.2	371.12
248.433	384.12
248.666	376.12
248.899	418.12
249.133	438.12
249.366	471.12
249.599	406.12
249.832	354.12
250.066	364.12
250.299	375.12
250.532	343.12
250.765	320.12
250.998	332.12
251.231	347.12
251.465	343.12
251.698	326.12
251.931	353.12
252.164	367.12
252.397	376.12
252.63	371.12
252.863	347.12
253.096	316.12
253.329	334.12
253.562	351.12
253.795	364.12
254.028	381.12
254.261	361.12
254.494	335.12
254.727	347.12
254.96	348.12
255.193	392.12
255.426	415.12
255.659	462.12
255.892	461.12
256.124	392.12
256.357	411.12
256.59	407.12
256.823	411.12
257.056	432.12
257.289	477.12
257.521	496.12
257.754	460.12
257.987	464.12
258.22	478.12
258.452	486.12
258.685	412.12
258.918	410.12
259.151	400.12
259.383	370.12
259.616	359.12
259.849	408.12
260.081	415.12
260.314	484.12
260.547	496.12
260.779	482.12
261.012	444.12
261.244	412.12
261.477	416.12
261.71	406.12
261.942	392.12
262.175	380.12
262.407	408.12
262.64	391.12
262.872	359.12
263.105	351.12
263.337	381.12
263.57	390.12
263.802	376.12
264.035	360.12
264.267	341.12
264.499	350.12
264.732	368.12
264.964	378.12
265.197	404.12
265.429	432.12
265.661	458.12
265.894	483.12
266.126	500.12
266.358	465.12
266.591	486.12
266.823	510.12
267.055	489.12
267.287	457.12
267.52	451.12
267.752	448.12
267.984	460.12
268.216	456.12
268.448	475.12
268.681	447.12
268.913	455.12
269.145	420.12
269.377	422.12
269.609	450.12
269.841	531.12
270.073	598.12
270.306	634.12
270.538	642.12
270.77	535.12
271.002	468.12
271.234	480.12
271.466	491.12
271.698	543.12
271.93	615.12
272.162	597.12
272.394	547.12
272.626	524.12
272.858	471.12
273.09	417.12
273.322	419.12
273.553	396.12
273.785	423.12
274.017	427.12
274.249	461.12
274.481	416.12
274.713	417.12
274.945	407.12
275.176	406.12
275.408	412.12
275.64	390.12
275.872	416.12
276.104	447.12
276.335	512.12
276.567	530.12
276.799	515.12
277.031	474.12
277.262	487.12
277.494	501.12
277.726	552.12
277.957	500.12
278.189	457.12
278.421	436.12
278.652	411.12
278.884	431.12
279.115	445.12
279.347	457.12
279.579	441.12
279.81	447.12
280.042	481.12
280.273	529.12
280.505	538.12
280.736	503.12
280.968	499.12
281.199	452.12
281.431	423.12
281.662	450.12
281.894	428.12
282.125	419.12
282.356	423.12
282.588	457.12
282.819	464.12
283.051	522.12
283.282	513.12
283.513	498.12
283.745	443.12
283.976	420.12
284.207	433.12
284.439	436.12
284.67	462.12
284.901	484.12
285.132	479.12
285.364	462.12
285.595	475.12
285.826	460.12
286.057	470.12
286.288	458.12
286.52	482.12
286.751	488.12
286.982	503.12
287.213	449.12
287.444	440.12
287.675	453.12
287.906	464.12
288.138	499.12
288.369	473.12
288.6	447.12
288.831	439.12
289.062	432.12
289.293	451.12
289.524	468.12
289.755	458.12
289.986	471.12
290.217	460.12
290.448	459.12
290.679	485.12
290.91	482.12
291.141	469.12
291.371	473.12
291.602	491.12
291.833	483.12
292.064	497.12
292.295	514.12
292.526	507.12
292.757	513.12
292.987	481.12
293.218	504.12
293.449	537.12
293.68	583.12
293.91	600.12
294.141	565.12
294.372	532.12
294.603	564.12
294.833	587.12
295.064	551.12
295.295	516.12
295.525	467.12
295.756	425.12
295.987	434.12
296.217	466.12
296.448	475.12
296.679	454.12
296.909	452.12
297.14	466.12
297.37	470.12
297.601	518.12
297.831	529.12
298.062	534.12
298.292	494.12
298.523	466.12
298.753	479.12
298.984	477.12
299.214	473.12
299.445	487.12
299.675	502.12
299.905	520.12
300.136	486.12
300.366	472.12
300.597	475.12
300.827	494.12
301.057	496.12
301.288	519.12
301.518	516.12
301.748	540.12
301.979	539.12
302.209	554.12
302.439	592.12
302.669	600.12
302.9	552.12
303.13	511.12
303.36	500.12
303.59	504.12
303.82	513.12
304.051	524.12
304.281	544.12
304.511	545.12
304.741	580.12
304.971	616.12
305.201	646.12
305.431	558.12
305.661	471.12
305.891	476.12
306.121	461.12
306.352	497.12
306.582	514.12
306.812	543.12
307.042	570.12
307.272	568.12
307.502	589.12
307.731	646.12
307.961	652.12
308.191	570.12
308.421	531.12
308.651	508.12
308.881	497.12
309.111	518.12
309.341	522.12
309.571	497.12
309.8	518.12
310.03	494.12
310.26	497.12
310.49	498.12
310.72	522.12
310.949	554.12
311.179	536.12
311.409	533.12
311.639	517.12
311.868	526.12
312.098	528.12
312.328	499.12
312.557	499.12
312.787	518.12
313.017	520.12
313.246	513.12
313.476	543.12
313.706	513.12
313.935	518.12
314.165	544.12
314.394	564.12
314.624	590.12
314.853	614.12
315.083	630.12
315.312	634.12
315.542	578.12
315.771	548.12
316.001	545.12
316.23	568.12
316.46	580.12
316.689	538.12
316.919	531.12
317.148	536.12
317.377	522.12
317.607	582.12
317.836	630.12
318.065	634.12
318.295	643.12
318.524	581.12
318.753	545.12
318.983	553.12
319.212	566.12
319.441	558.12
319.67	565.12
319.9	590.12
320.129	618.12
320.358	644.12
320.587	633.12
320.816	618.12
321.046	597.12
321.275	570.12
321.504	584.12
321.733	633.12
321.962	614.12
322.191	555.12
322.42	574.12
322.649	563.12
322.878	544.12
323.108	588.12
323.337	587.12
323.566	577.12
323.795	581.12
324.024	578.12
324.253	555.12
324.482	541.12
324.71	554.12
324.939	528.12
325.168	577.12
325.397	572.12
325.626	586.12
325.855	581.12
326.084	548.12
326.313	554.12
326.542	560.12
326.77	566.12
326.999	548.12
327.228	546.12
327.457	548.12
327.686	550.12
327.914	564.12
328.143	582.12
328.372	587.12
328.6	562.12
328.829	548.12
329.058	544.12
329.287	580.12
329.515	552.12
329.744	578.12
329.972	609.12
330.201	616.12
330.43	612.12
330.658	597.12
330.887	612.12
331.115	603.12
331.344	623.12
331.572	608.12
331.801	596.12
332.03	593.12
332.258	605.12
332.486	604.12
332.715	625.12
332.943	602.12
333.172	616.12
333.4	628.12
333.629	613.12
333.857	698.12
334.085	740.12
334.314	844.12
334.542	859.12
334.771	766.12
334.999	704.12
335.227	649.12
335.455	644.12
335.684	639.12
335.912	658.12
336.14	668.12
336.369	645.12
336.597	598.12
336.825	614.12
337.053	625.12
337.281	666.12
337.51	708.12
337.738	702.12
337.966	662.12
338.194	613.12
338.422	596.12
338.65	599.12
338.878	563.12
339.106	585.12
339.334	585.12
339.562	583.12
339.79	604.12
340.018	631.12
340.246	657.12
340.474	625.12
340.702	621.12
340.93	601.12
341.158	613.12
341.386	606.12
341.614	609.12
341.842	598.12
342.07	596.12
342.298	616.12
342.526	614.12
342.754	592.12
342.981	609.12
343.209	585.12
343.437	575.12
343.665	612.12
343.893	622.12
344.12	638.12
344.348	648.12
344.576	619.12
344.804	598.12
345.031	610.12
345.259	606.12
345.487	585.12
345.714	573.12
345.942	549.12
346.17	578.12
346.397	596.12
346.625	577.12
346.853	550.12
347.08	550.12
347.308	554.12
347.535	564.12
347.763	582.12
347.99	577.12
348.218	566.12
348.445	594.12
348.673	581.12
348.9	594.12
349.128	626.12
349.355	601.12
349.583	583.12
349.81	563.12
350.037	535.12
350.265	542.12
350.492	552.12
350.72	568.12
350.947	607.12
351.174	592.12
351.402	553.12
351.629	522.12
351.856	551.12
352.083	549.12
352.311	543.12
352.538	568.12
352.765	592.12
352.992	583.12
353.22	579.12
353.447	545.12
353.674	571.12
353.901	553.12
354.128	561.12
354.355	571.12
354.583	610.12
354.81	588.12
355.037	599.12
355.264	583.12
355.491	592.12
355.718	560.12
355.945	561.12
356.172	560.12
356.399	551.12
356.626	570.12
356.853	597.12
357.08	645.12
357.307	672.12
357.534	634.12
357.761	580.12
357.988	569.12
358.215	546.12
358.441	552.12
358.668	547.12
358.895	575.12
359.122	617.12
359.349	634.12
359.576	660.12
359.802	588.12
360.029	521.12
360.256	555.12
360.483	566.12
360.709	580.12
360.936	607.12
361.163	632.12
361.39	690.12
361.616	726.12
361.843	700.12
362.07	634.12
362.296	583.12
362.523	563.12
362.749	583.12
362.976	579.12
363.203	570.12
363.429	569.12
363.656	539.12
363.882	596.12
364.109	672.12
364.335	652.12
364.562	628.12
364.788	600.12
365.015	576.12
365.241	574.12
365.468	594.12
365.694	617.12
365.92	603.12
366.147	582.12
366.373	550.12
366.599	572.12
366.826	568.12
367.052	579.12
367.278	578.12
367.505	607.12
367.731	595.12
367.957	620.12
368.184	635.12
368.41	681.12
368.636	694.12
368.862	668.12
369.089	667.12
369.315	659.12
369.541	631.12
369.767	595.12
369.993	578.12
370.219	602.12
370.445	607.12
370.672	663.12
370.898	665.12
371.124	650.12
371.35	630.12
371.576	705.12
371.802	664.12
372.028	648.12
372.254	640.12
372.48	597.12
372.706	600.12
372.932	600.12
373.158	629.12
373.384	642.12
373.61	638.12
373.835	652.12
374.061	647.12
374.287	633.12
374.513	634.12
374.739	647.12
374.965	647.12
375.191	652.12
375.416	660.12
375.642	674.12
375.868	689.12
376.094	722.12
376.319	687.12
376.545	643.12
376.771	674.12
376.997	724.12
377.222	653.12
377.448	670.12
377.674	680.12
377.899	674.12
378.125	709.12
378.35	714.12
378.576	628.12
378.802	633.12
379.027	612.12
379.253	656.12
379.478	640.12
379.704	656.12
379.929	632.12
380.155	658.12
380.38	681.12
380.606	664.12
380.831	683.12
381.057	712.12
381.282	701.12
381.507	686.12
381.733	778.12
381.958	757.12
382.184	702.12
382.409	686.12
382.634	687.12
382.86	672.12
383.085	699.12
383.31	729.12
383.535	790.12
383.761	792.12
383.986	763.12
384.211	727.12
384.436	723.12
384.662	795.12
384.887	802.12
385.112	757.12
385.337	753.12
385.562	726.12
385.787	772.12
386.013	768.12
386.238	756.12
386.463	780.12
386.688	848.12
386.913	869.12
387.138	825.12
387.363	776.12
387.588	756.12
387.813	764.12
388.038	798.12
388.263	812.12
388.488	769.12
388.713	731.12
388.938	722.12
389.163	736.12
389.387	752.12
389.612	755.12
389.837	757.12
390.062	764.12
390.287	745.12
390.512	758.12
390.736	754.12
390.961	744.12
391.186	734.12
391.411	750.12
391.636	756.12
391.86	745.12
392.085	772.12
392.31	750.12
392.534	759.12
392.759	781.12
392.984	756.12
393.208	782.12
393.433	801.12
393.658	822.12
393.882	806.12
394.107	777.12
394.331	772.12
394.556	771.12
394.78	794.12
395.005	824.12
395.229	839.12
395.454	868.12
395.678	865.12
395.903	842.12
396.127	811.12
396.352	843.12
396.576	842.12
396.801	846.12
397.025	830.12
397.249	840.12
397.474	840.12
397.698	839.12
397.922	852.12
398.147	865.12
398.371	922.12
398.595	907.12
398.82	886.12
399.044	906.12
399.268	925.12
399.492	972.12
399.717	963.12
399.941	967.12
400.165	986.12
400.389	998.12
400.613	1012.12
400.837	1140.12
401.062	1193.12
401.286	1003.12
401.51	990.12
401.734	994.12
401.958	960.12
402.182	881.12
402.406	870.12
402.63	870.12
402.854	900.12
403.078	918.12
403.302	903.12
403.526	919.12
403.75	916.12
403.974	918.12
404.198	931.12
404.422	977.12
404.645	1020.12
404.869	985.12
405.093	914.12
405.317	894.12
405.541	905.12
405.765	929.12
405.988	934.12
406.212	970.12
406.436	972.12
406.66	1019.12
406.883	1046.12
407.107	1116.12
407.331	1208.12
407.555	1290.12
407.778	1109.12
408.002	981.12
408.226	969.12
408.449	961.12
408.673	956.12
408.896	966.12
409.12	943.12
409.344	954.12
409.567	913.12
409.791	950.12
410.014	974.12
410.238	1047.12
410.461	1070.12
410.685	984.12
410.908	952.12
411.132	935.12
411.355	937.12
411.578	938.12
411.802	929.12
412.025	932.12
412.249	913.12
412.472	939.12
412.695	942.12
412.919	931.12
413.142	917.12
413.365	946.12
413.589	948.12
413.812	1007.12
414.035	1007.12
414.258	969.12
414.482	960.12
414.705	915.12
414.928	912.12
415.151	916.12
415.374	932.12
415.597	946.12
415.821	923.12
416.044	977.12
416.267	949.12
416.49	900.12
416.713	909.12
416.936	946.12
417.159	1014.12
417.382	994.12
417.605	951.12
417.828	931.12
418.051	956.12
418.274	979.12
418.497	922.12
418.72	907.12
418.943	908.12
419.166	984.12
419.389	1001.12
419.611	949.12
419.834	961.12
420.057	960.12
420.28	939.12
420.503	944.12
420.726	964.12
420.948	943.12
421.171	932.12
421.394	938.12
421.617	991.12
421.839	988.12
422.062	982.12
422.285	950.12
422.507	912.12
422.73	900.12
422.953	884.12
423.175	898.12
423.398	920.12
423.621	915.12
423.843	916.12
424.066	950.12
424.288	1054.12
424.511	1035.12
424.733	1015.12
424.956	911.12
425.178	937.12
425.401	952.12
425.623	948.12
425.846	917.12
426.068	976.12
426.291	954.12
426.513	959.12
426.735	955.12
426.958	1072.12
427.18	1046.12
427.402	1003.12
427.625	1071.12
427.847	1030.12
428.069	915.12
428.292	909.12
428.514	906.12
428.736	888.12
428.958	885.12
429.181	931.12
429.403	1083.12
429.625	1241.12
429.847	1050.12
430.069	946.12
430.292	1085.12
430.514	1054.12
430.736	963.12
430.958	985.12
431.18	934.12
431.402	909.12
431.624	882.12
431.846	806.12
432.068	762.12
432.29	750.12
432.512	811.12
432.734	874.12
432.956	942.12
433.178	984.12
433.4	978.12
433.622	974.12
433.844	903.12
434.066	852.12
434.287	818.12
434.509	811.12
434.731	820.12
434.953	905.12
435.175	937.12
435.397	914.12
435.618	901.12
435.84	861.12
436.062	844.12
436.284	906.12
436.505	930.12
436.727	943.12
436.949	951.12
437.17	912.12
437.392	922.12
437.614	865.12
437.835	800.12
438.057	820.12
438.278	854.12
438.5	871.12
438.721	908.12
438.943	925.12
439.165	940.12
439.386	908.12
439.608	936.12
439.829	966.12
440.05	962.12
440.272	970.12
440.493	963.12
440.715	976.12
440.936	1072.12
441.158	1052.12
441.379	1063.12
441.6	1058.12
441.822	1028.12
442.043	1022.12
442.264	990.12
442.486	980.12
442.707	942.12
442.928	934.12
443.149	963.12
443.371	1001.12
443.592	996.12
443.813	1035.12
444.034	1012.12
444.255	1030.12
444.476	1023.12
444.698	1054.12
444.919	1054.12
445.14	1125.12
445.361	1104.12
445.582	1074.12
445.803	1060.12
446.024	1064.12
446.245	1056.12
446.466	1070.12
446.687	1067.12
446.908	1087.12
447.129	1044.12
447.35	1015.12
447.571	1010.12
447.792	964.12
448.013	944.12
448.234	1009.12
448.455	1032.12
448.675	972.12
448.896	911.12
449.117	908.12
449.338	926.12
449.559	944.12
449.779	977.12
450	1002.12
450.221	1052.12
450.442	1034.12
450.662	958.12
450.883	861.12
451.104	876.12
451.324	862.12
451.545	904.12
451.766	863.12
451.986	864.12
452.207	818.12
452.428	802.12
452.648	773.12
452.869	809.12
453.089	820.12
453.31	769.12
453.53	778.12
453.751	744.12
453.971	715.12
454.192	743.12
454.412	791.12
454.633	822.12
454.853	802.12
455.073	760.12
455.294	776.12
455.514	806.12
455.734	790.12
455.955	770.12
456.175	768.12
456.395	727.12
456.616	770.12
456.836	758.12
457.056	756.12
457.276	726.12
457.497	698.12
457.717	697.12
457.937	718.12
458.157	740.12
458.377	702.12
458.598	677.12
458.818	674.12
459.038	697.12
459.258	717.12
459.478	719.12
459.698	702.12
459.918	759.12
460.138	789.12
460.358	844.12
460.578	850.12
460.798	875.12
461.018	881.12
461.238	896.12
461.458	849.12
461.678	854.12
461.898	794.12
462.118	798.12
462.338	844.12
462.558	853.12
462.777	881.12
462.997	896.12
463.217	895.12
463.437	871.12
463.657	854.12
463.876	805.12
464.096	829.12
464.316	836.12
464.536	892.12
464.755	871.12
464.975	868.12
465.195	839.12
465.414	906.12
465.634	898.12
465.854	884.12
466.073	988.12
466.293	970.12
466.512	875.12
466.732	904.12
466.951	916.12
467.171	920.12
467.391	886.12
467.61	905.12
467.829	933.12
468.049	980.12
468.268	1051.12
468.488	975.12
468.707	962.12
468.927	906.12
469.146	919.12
469.365	924.12
469.585	956.12
469.804	952.12
470.023	960.12
470.243	959.12
470.462	943.12
470.681	908.12
470.901	920.12
471.12	919.12
471.339	931.12
471.558	908.12
471.777	921.12
471.997	905.12
472.216	877.12
472.435	796.12
472.654	740.12
472.873	794.12
473.092	857.12
473.311	862.12
473.53	804.12
473.749	822.12
473.968	828.12
474.187	862.12
474.406	868.12
474.625	870.12
474.844	890.12
475.063	884.12
475.282	875.12
475.501	857.12
475.72	851.12
475.939	885.12
476.158	884.12
476.377	850.12
476.596	866.12
476.814	855.12
477.033	801.12
477.252	830.12
477.471	934.12
477.69	927.12
477.908	952.12
478.127	988.12
478.346	1003.12
478.564	1007.12
478.783	1024.12
479.002	1055.12
479.22	1025.12
479.439	1033.12
479.658	1068.12
479.876	1013.12
480.095	925.12
480.313	903.12
480.532	882.12
480.751	881.12
480.969	850.12
481.188	814.12
481.406	791.12
481.624	790.12
481.843	822.12
482.061	821.12
482.28	884.12
482.498	907.12
482.717	870.12
482.935	904.12
483.153	988.12
483.372	1035.12
483.59	1028.12
483.808	983.12
484.027	968.12
484.245	1035.12
484.463	1223.12
484.681	1315.12
484.9	1033.12
485.118	984.12
485.336	921.12
485.554	907.12
485.772	901.12
485.99	885.12
486.209	918.12
486.427	907.12
486.645	953.12
486.863	1009.12
487.081	1054.12
487.299	1024.12
487.517	1032.12
487.735	1115.12
487.953	1183.12
488.171	1185.12
488.389	1130.12
488.607	1082.12
488.825	1189.12
489.043	1036.12
489.261	994.12
489.479	1034.12
489.696	1048.12
489.914	1027.12
490.132	1042.12
490.35	1081.12
490.568	1182.12
490.786	1165.12
491.003	1195.12
491.221	1278.12
491.439	1314.12
491.657	1312.12
491.874	1366.12
492.092	1464.12
492.31	1523.12
492.527	1482.12
492.745	1367.12
492.963	1336.12
493.18	1327.12
493.398	1354.12
493.615	1335.12
493.833	1290.12
494.05	1264.12
494.268	1251.12
494.485	1236.12
494.703	1252.12
494.92	1242.12
495.138	1225.12
495.355	1278.12
495.573	1276.12
495.79	1310.12
496.008	1308.12
496.225	1243.12
496.442	1212.12
496.66	1234.12
496.877	1233.12
497.094	1249.12
497.312	1239.12
497.529	1194.12
497.746	1210.12
497.963	1303.12
498.181	1294.12
498.398	1283.12
498.615	1208.12
498.832	1212.12
499.049	1184.12
499.267	1179.12
499.484	1246.12
499.701	1334.12
499.918	1430.12
500.135	1491.12
500.352	1575.12
500.569	1563.12
500.786	1706.12
501.003	1632.12
501.22	1414.12
501.437	1418.12
501.654	1420.12
501.871	1332.12
502.088	1218.12
502.305	1208.12
502.522	1164.12
502.739	1102.12
502.956	1058.12
503.172	1091.12
503.389	1049.12
503.606	1001.12
503.823	999.12
504.04	984.12
504.256	998.12
504.473	1020.12
504.69	1015.12
504.907	981.12
505.123	966.12
505.34	1106.12
505.557	1392.12
505.773	1170.12
505.99	978.12
506.207	912.12
506.423	918.12
506.64	899.12
506.856	904.12
507.073	1068.12
507.289	1090.12
507.506	1018.12
507.722	902.12
507.939	855.12
508.155	844.12
508.372	840.12
508.588	828.12
508.805	793.12
509.021	763.12
509.238	782.12
509.454	763.12
509.67	780.12
509.887	740.12
510.103	724.12
510.319	734.12
510.536	756.12
510.752	758.12
510.968	779.12
511.184	804.12
511.401	778.12
511.617	732.12
511.833	729.12
512.049	712.12
512.265	695.12
512.481	711.12
512.698	720.12
512.914	785.12
513.13	755.12
513.346	722.12
513.562	706.12
513.778	698.12
513.994	747.12
514.21	747.12
514.426	773.12
514.642	811.12
514.858	769.12
515.074	710.12
515.29	714.12
515.506	728.12
515.721	754.12
515.937	750.12
516.153	799.12
516.369	780.12
516.585	720.12
516.801	744.12
517.016	750.12
517.232	753.12
517.448	767.12
517.664	776.12
517.879	794.12
518.095	816.12
518.311	794.12
518.527	770.12
518.742	750.12
518.958	752.12
519.173	761.12
519.389	770.12
519.605	786.12
519.82	767.12
520.036	796.12
520.251	758.12
520.467	798.12
520.682	808.12
520.898	805.12
521.113	732.12
521.329	732.12
521.544	756.12
521.76	735.12
521.975	714.12
522.19	715.12
522.406	731.12
522.621	918.12
522.836	884.12
523.052	747.12
523.267	748.12
523.482	769.12
523.698	775.12
523.913	751.12
524.128	794.12
524.343	822.12
524.559	848.12
524.774	810.12
524.989	790.12
525.204	779.12
525.419	773.12
525.634	751.12
525.849	770.12
526.064	761.12
526.28	714.12
526.495	668.12
526.71	666.12
526.925	640.12
527.14	650.12
527.355	600.12
527.57	638.12
527.785	682.12
527.999	673.12
528.214	691.12
528.429	710.12
528.644	735.12
528.859	774.12
529.074	842.12
529.289	905.12
529.503	891.12
529.718	813.12
529.933	731.12
530.148	662.12
530.363	647.12
530.577	646.12
530.792	619.12
531.007	642.12
531.221	634.12
531.436	616.12
531.651	654.12
531.865	704.12
532.08	660.12
532.295	634.12
532.509	610.12
532.724	620.12
532.938	680.12
533.153	704.12
533.367	735.12
533.582	744.12
533.796	734.12
534.011	738.12
534.225	671.12
534.44	664.12
534.654	633.12
534.868	654.12
535.083	699.12
535.297	710.12
535.511	680.12
535.726	701.12
535.94	693.12
536.154	659.12
536.369	644.12
536.583	615.12
536.797	605.12
537.011	609.12
537.225	610.12
537.44	616.12
537.654	658.12
537.868	624.12
538.082	573.12
538.296	591.12
538.51	651.12
538.724	674.12
538.938	717.12
539.153	759.12
539.367	711.12
539.581	692.12
539.795	700.12
540.009	653.12
540.222	636.12
540.436	720.12
540.65	732.12
540.864	814.12
541.078	830.12
541.292	858.12
541.506	889.12
541.72	988.12
541.934	1030.12
542.147	1088.12
542.361	1006.12
542.575	904.12
542.789	845.12
543.002	804.12
543.216	766.12
543.43	767.12
543.644	834.12
543.857	890.12
544.071	898.12
544.285	942.12
544.498	917.12
544.712	946.12
544.925	958.12
545.139	961.12
545.352	964.12
545.566	933.12
545.779	927.12
545.993	953.12
546.206	969.12
546.42	960.12
546.633	935.12
546.847	969.12
547.06	955.12
547.274	972.12
547.487	991.12
547.7	1009.12
547.914	983.12
548.127	976.12
548.34	963.12
548.554	931.12
548.767	933.12
548.98	934.12
549.193	955.12
549.407	983.12
549.62	933.12
549.833	913.12
550.046	909.12
550.259	901.12
550.473	863.12
550.686	892.12
550.899	853.12
551.112	842.12
551.325	828.12
551.538	850.12
551.751	841.12
551.964	714.12
552.177	724.12
552.39	795.12
552.603	845.12
552.816	864.12
553.029	907.12
553.242	944.12
553.455	900.12
553.667	925.12
553.88	918.12
554.093	870.12
554.306	859.12
554.519	852.12
554.732	833.12
554.944	850.12
555.157	835.12
555.37	812.12
555.583	807.12
555.795	788.12
556.008	764.12
556.221	742.12
556.433	729.12
556.646	738.12
556.859	731.12
557.071	748.12
557.284	754.12
557.496	756.12
557.709	734.12
557.921	758.12
558.134	752.12
558.346	762.12
558.559	736.12
558.771	698.12
558.984	706.12
559.196	684.12
559.409	683.12
559.621	673.12
559.833	660.12
560.046	673.12
560.258	653.12
560.47	682.12
560.683	697.12
560.895	681.12
561.107	671.12
561.32	686.12
561.532	668.12
561.744	670.12
561.956	666.12
562.168	662.12
562.381	657.12
562.593	651.12
562.805	638.12
563.017	671.12
563.229	655.12
563.441	651.12
563.653	644.12
563.865	642.12
564.077	609.12
564.289	612.12
564.501	637.12
564.713	650.12
564.925	649.12
565.137	695.12
565.349	642.12
565.561	622.12
565.773	623.12
565.985	619.12
566.197	660.12
566.408	675.12
566.62	666.12
566.832	676.12
567.044	693.12
567.255	676.12
567.467	665.12
567.679	664.12
567.891	645.12
568.102	613.12
568.314	566.12
568.526	536.12
568.737	519.12
568.949	500.12
569.161	468.12
569.372	443.12
569.584	460.12
569.795	450.12
570.007	459.12
570.218	435.12
570.43	454.12
570.641	453.12
570.853	472.12
571.064	500.12
571.276	487.12
571.487	480.12
571.698	466.12
571.91	468.12
572.121	484.12
572.333	458.12
572.544	434.12
572.755	403.12
572.966	405.12
573.178	401.12
573.389	384.12
573.6	404.12
573.811	451.12
574.023	402.12
574.234	406.12
574.445	404.12
574.656	397.12
574.867	378.12
575.078	394.12
575.289	431.12
575.501	438.12
575.712	415.12
575.923	395.12
576.134	396.12
576.345	421.12
576.556	421.12
576.767	408.12
576.978	392.12
577.188	389.12
577.399	393.12
577.61	400.12
577.821	344.12
578.032	392.12
578.243	363.12
578.454	368.12
578.665	337.12
578.875	355.12
579.086	331.12
579.297	351.12
579.508	372.12
579.718	360.12
579.929	345.12
580.14	340.12
580.35	344.12
580.561	356.12
580.772	400.12
580.982	361.12
581.193	354.12
581.403	343.12
581.614	344.12
581.825	358.12
582.035	352.12
582.246	350.12
582.456	360.12
582.667	354.12
582.877	336.12
583.087	324.12
583.298	339.12
583.508	317.12
583.719	327.12
583.929	345.12
584.139	312.12
584.35	326.12
584.56	328.12
584.77	345.12
584.981	346.12
585.191	341.12
585.401	360.12
585.611	346.12
585.821	319.12
586.032	318.12
586.242	304.12
586.452	317.12
586.662	361.12
586.872	313.12
587.082	323.12
587.292	320.12
587.502	337.12
587.713	342.12
587.923	325.12
588.133	314.12
588.343	339.12
588.553	306.12
588.762	311.12
588.972	312.12
589.182	331.12
589.392	310.12
589.602	323.12
589.812	312.12
590.022	308.12
590.232	326.12
590.441	320.12
590.651	318.12
590.861	312.12
591.071	291.12
591.281	306.12
591.49	311.12
591.7	312.12
591.91	312.12
592.119	328.12
592.329	303.12
592.539	306.12
592.748	328.12
592.958	328.12
593.167	326.12
593.377	336.12
593.587	329.12
593.796	325.12
594.006	319.12
594.215	342.12
594.424	345.12
594.634	318.12
594.843	351.12
595.053	350.12
595.262	347.12
595.472	320.12
595.681	329.12
595.89	316.12
596.1	301.12
596.309	337.12
596.518	339.12
596.727	346.12
596.937	355.12
597.146	332.12
597.355	300.12
597.564	304.12
597.774	321.12
597.983	314.12
598.192	298.12
598.401	282.12
598.61	287.12
598.819	271.12
599.028	315.12
599.237	323.12
599.446	284.12
599.655	294.12
599.864	290.12
600.073	293.12
600.282	308.12
600.491	284.12
600.7	290.12
600.909	310.12
601.118	318.12
601.327	330.12
601.536	366.12
601.745	353.12
601.953	368.12
602.162	371.12
602.371	364.12
602.58	353.12
602.789	358.12
602.997	346.12
603.206	350.12
603.415	372.12
603.623	336.12
603.832	353.12
604.041	336.12
604.249	330.12
604.458	304.12
604.666	288.12
604.875	306.12
605.084	314.12
605.292	325.12
605.501	369.12
605.709	348.12
605.918	380.12
606.126	367.12
606.334	353.12
606.543	368.12
606.751	370.12
606.96	377.12
607.168	370.12
607.376	352.12
607.585	358.12
607.793	356.12
608.001	358.12
608.21	359.12
608.418	368.12
608.626	370.12
608.834	363.12
609.043	332.12
609.251	350.12
609.459	360.12
609.667	372.12
609.875	391.12
610.083	385.12
610.291	358.12
610.499	356.12
610.707	370.12
610.916	378.12
611.124	354.12
611.332	376.12
611.54	356.12
611.748	362.12
611.955	393.12
612.163	363.12
612.371	365.12
612.579	376.12
612.787	364.12
612.995	370.12
613.203	354.12
613.411	354.12
613.618	352.12
613.826	364.12
614.034	358.12
614.242	357.12
614.449	377.12
614.657	365.12
614.865	354.12
615.072	385.12
615.28	356.12
615.488	379.12
615.695	357.12
615.903	354.12
616.111	362.12
616.318	345.12
616.526	360.12
616.733	347.12
616.941	362.12
617.148	352.12
617.356	357.12
617.563	352.12
617.771	342.12
617.978	329.12
618.185	335.12
618.393	320.12
618.6	340.12
618.807	358.12
619.015	351.12
619.222	327.12
619.429	337.12
619.637	330.12
619.844	298.12
620.051	314.12
620.258	314.12
620.466	319.12
620.673	331.12
620.88	315.12
621.087	318.12
621.294	311.12
621.501	301.12
621.708	306.12
621.915	311.12
622.122	308.12
622.329	330.12
622.536	340.12
622.743	327.12
622.95	305.12
623.157	321.12
623.364	314.12
623.571	328.12
623.778	316.12
623.985	331.12
624.192	310.12
624.399	320.12
624.606	332.12
624.812	320.12
625.019	330.12
625.226	315.12
625.433	283.12
625.639	278.12
625.846	261.12
626.053	249.12
626.259	276.12
626.466	260.12
626.673	248.12
626.879	237.12
627.086	243.12
627.293	277.12
627.499	283.12
627.706	301.12
627.912	288.12
628.119	304.12
628.325	321.12
628.532	323.12
628.738	303.12
628.945	288.12
629.151	278.12
629.357	291.12
629.564	290.12
629.77	291.12
629.976	262.12
630.183	269.12
630.389	274.12
630.595	277.12
630.802	292.12
631.008	302.12
631.214	282.12
631.42	285.12
631.627	269.12
631.833	257.12
632.039	270.12
632.245	255.12
632.451	282.12
632.657	289.12
632.863	257.12
633.069	261.12
633.275	273.12
633.481	258.12
633.688	242.12
633.893	252.12
634.099	250.12
634.305	261.12
634.511	248.12
634.717	251.12
634.923	234.12
635.129	215.12
635.335	249.12
635.541	248.12
635.747	240.12
635.952	235.12
636.158	254.12
636.364	263.12
636.57	265.12
636.775	264.12
636.981	256.12
637.187	250.12
637.392	263.12
637.598	253.12
637.804	280.12
638.009	269.12
638.215	263.12
638.421	276.12
638.626	263.12
638.832	273.12
639.037	248.12
639.243	243.12
639.448	246.12
639.654	234.12
639.859	235.12
640.065	268.12
640.27	255.12
640.475	242.12
640.681	265.12
640.886	251.12
641.091	265.12
641.297	247.12
641.502	261.12
641.707	245.12
641.913	261.12
642.118	259.12
642.323	249.12
642.528	243.12
642.733	266.12
642.939	241.12
643.144	233.12
643.349	252.12
643.554	238.12
643.759	246.12
643.964	239.12
644.169	260.12
644.374	240.12
644.579	245.12
644.784	254.12
644.989	254.12
645.194	247.12
645.399	233.12
645.604	256.12
645.809	231.12
646.014	245.12
646.219	251.12
646.423	246.12
646.628	243.12
646.833	252.12
647.038	269.12
647.243	233.12
647.447	252.12
647.652	256.12
647.857	242.12
648.062	236.12
648.266	240.12
648.471	251.12
648.676	246.12
648.88	252.12
649.085	238.12
649.289	223.12
649.494	236.12
649.698	220.12
649.903	246.12
650.107	247.12
650.312	245.12
650.516	214.12
650.721	222.12
650.925	234.12
651.13	224.12
651.334	218.12
651.539	223.12
651.743	224.12
651.947	220.12
652.152	208.12
652.356	233.12
652.56	231.12
652.764	213.12
652.969	218.12
653.173	230.12
653.377	215.12
653.581	221.12
653.785	198.12
653.99	223.12
654.194	182.12
654.398	222.12
654.602	208.12
654.806	194.12
655.01	194.12
655.214	214.12
655.418	206.12
655.622	203.12
655.826	207.12
656.03	205.12
656.234	216.12
656.438	220.12
656.642	238.12
656.846	228.12
657.049	222.12
657.253	210.12
657.457	187.12
657.661	192.12
657.865	174.12
658.068	153.12
658.272	160.12
658.476	146.12
658.68	154.12
658.883	135.12
659.087	140.12
659.291	134.12
659.494	137.12
659.698	135.12
659.901	134.12
660.105	126.12
660.309	120.12
660.512	114.12
660.716	126.12
660.919	113.12
661.123	114.12
661.326	115.12
661.53	99.12
661.733	103.12
661.936	95.12
662.14	102.12
662.343	98.12
662.546	88.12
662.75	94.12
662.953	101.12
663.156	76.12
663.36	78.12
663.563	100.12
663.766	92.12
663.969	102.12
664.173	112.12
664.376	89.12
664.579	81.12
664.782	86.12
664.985	81.12
665.188	89.12
665.391	90.12
665.594	95.12
665.797	87.12
666	73.12
666.203	84.12
666.406	96.12
666.609	94.12
666.812	83.12
667.015	90.12
667.218	82.12
667.421	87.12
667.624	81.12
667.827	73.12
668.03	82.12
668.232	83.12
668.435	80.12
668.638	85.12
668.841	80.12
669.043	88.12
669.246	91.12
669.449	69.12
669.651	83.12
669.854	87.12
670.057	96.12
670.259	77.12
670.462	95.12
670.665	85.12
670.867	93.12
671.07	96.12
671.272	75.12
671.475	94.12
671.677	88.12
671.88	69.12
672.082	71.12
672.284	92.12
672.487	85.12
672.689	87.12
672.892	74.12
