Data from WStandard_LampEnergy5.5LIBS07252019.E.O._I.C._HRD10591_16-06-28-919.txt Node
Date: Thu Jul 25 16:06:28 EDT 2019
User: cochatt
Spectrometer: HR+D1059
Trigger mode: 1
Integration Time (sec): 1.000000E-1
Scans to average: 1
Electric dark correction enabled: true
Nonlinearity correction enabled: false
Boxcar width: 0
XAxis mode: Wavelengths
Number of Pixels in Spectrum: 2048
>>>>>Begin Spectral Data<<<<<
223.165	-20.31
223.4	-20.31
223.635	-20.31
223.869	-21.31
224.104	-10.31
224.338	-16.31
224.573	-18.31
224.808	-5.31
225.042	-8.31
225.277	-15.31
225.511	-4.31
225.746	8.69
225.98	6.69
226.215	6.69
226.449	12.69
226.683	15.69
226.918	31.69
227.152	37.69
227.387	38.69
227.621	29.69
227.856	29.69
228.09	44.69
228.324	42.69
228.559	57.69
228.793	135.69
229.027	353.69
229.262	364.69
229.496	377.69
229.73	386.69
229.964	408.69
230.199	424.69
230.433	434.69
230.667	461.69
230.901	490.69
231.136	453.69
231.37	447.69
231.604	445.69
231.838	430.69
232.072	426.69
232.306	428.69
232.541	458.69
232.775	527.69
233.009	585.69
233.243	566.69
233.477	493.69
233.711	514.69
233.945	542.69
234.179	525.69
234.413	548.69
234.647	626.69
234.881	597.69
235.115	539.69
235.349	520.69
235.583	532.69
235.817	518.69
236.051	501.69
236.285	538.69
236.519	549.69
236.753	640.69
236.987	666.69
237.221	650.69
237.455	721.69
237.689	696.69
237.922	656.69
238.156	612.69
238.39	638.69
238.624	654.69
238.858	730.69
239.091	732.69
239.325	748.69
239.559	866.69
239.793	918.69
240.027	1004.69
240.26	961.69
240.494	736.69
240.728	692.69
240.961	679.69
241.195	658.69
241.429	770.69
241.662	787.69
241.896	705.69
242.13	732.69
242.363	792.69
242.597	866.69
242.83	840.69
243.064	839.69
243.298	896.69
243.531	863.69
243.765	842.69
243.998	852.69
244.232	742.69
244.465	713.69
244.699	732.69
244.932	831.69
245.166	991.69
245.399	926.69
245.633	880.69
245.866	827.69
246.099	893.69
246.333	890.69
246.566	910.69
246.8	981.69
247.033	1111.69
247.266	1036.69
247.5	996.69
247.733	1001.69
247.966	1020.69
248.2	1143.69
248.433	1124.69
248.666	1149.69
248.899	1247.69
249.133	1436.69
249.366	1673.69
249.599	1346.69
249.832	1184.69
250.066	1186.69
250.299	1213.69
250.532	1126.69
250.765	1004.69
250.998	1105.69
251.231	1141.69
251.465	1194.69
251.698	1120.69
251.931	1130.69
252.164	1139.69
252.397	1228.69
252.63	1180.69
252.863	1072.69
253.096	1032.69
253.329	1074.69
253.562	1102.69
253.795	1245.69
254.028	1196.69
254.261	1122.69
254.494	1095.69
254.727	1056.69
254.96	1062.69
255.193	1145.69
255.426	1311.69
255.659	1515.69
255.892	1597.69
256.124	1288.69
256.357	1263.69
256.59	1349.69
256.823	1375.69
257.056	1362.69
257.289	1621.69
257.521	1803.69
257.754	1625.69
257.987	1489.69
258.22	1650.69
258.452	1648.69
258.685	1354.69
258.918	1260.69
259.151	1289.69
259.383	1270.69
259.616	1114.69
259.849	1160.69
260.081	1287.69
260.314	1429.69
260.547	1604.69
260.779	1656.69
261.012	1514.69
261.244	1347.69
261.477	1277.69
261.71	1327.69
261.942	1344.69
262.175	1310.69
262.407	1350.69
262.64	1286.69
262.872	1213.69
263.105	1162.69
263.337	1196.69
263.57	1229.69
263.802	1214.69
264.035	1130.69
264.267	1112.69
264.499	1061.69
264.732	1115.69
264.964	1238.69
265.197	1300.69
265.429	1325.69
265.661	1479.69
265.894	1642.69
266.126	1678.69
266.358	1482.69
266.591	1530.69
266.823	1709.69
267.055	1547.69
267.287	1505.69
267.52	1490.69
267.752	1461.69
267.984	1429.69
268.216	1522.69
268.448	1537.69
268.681	1519.69
268.913	1446.69
269.145	1342.69
269.377	1302.69
269.609	1402.69
269.841	1629.69
270.073	1892.69
270.306	2107.69
270.538	2259.69
270.77	1924.69
271.002	1588.69
271.234	1564.69
271.466	1556.69
271.698	1718.69
271.93	2082.69
272.162	2096.69
272.394	1798.69
272.626	1782.69
272.858	1551.69
273.09	1389.69
273.322	1385.69
273.553	1296.69
273.785	1322.69
274.017	1357.69
274.249	1479.69
274.481	1447.69
274.713	1357.69
274.945	1311.69
275.176	1328.69
275.408	1327.69
275.64	1294.69
275.872	1275.69
276.104	1373.69
276.335	1536.69
276.567	1790.69
276.799	1796.69
277.031	1590.69
277.262	1530.69
277.494	1555.69
277.726	1734.69
277.957	1738.69
278.189	1582.69
278.421	1443.69
278.652	1421.69
278.884	1406.69
279.115	1401.69
279.347	1397.69
279.579	1383.69
279.81	1379.69
280.042	1544.69
280.273	1671.69
280.505	1718.69
280.736	1717.69
280.968	1614.69
281.199	1402.69
281.431	1353.69
281.662	1372.69
281.894	1363.69
282.125	1370.69
282.356	1438.69
282.588	1451.69
282.819	1431.69
283.051	1582.69
283.282	1645.69
283.513	1628.69
283.745	1428.69
283.976	1302.69
284.207	1340.69
284.439	1354.69
284.67	1375.69
284.901	1412.69
285.132	1475.69
285.364	1444.69
285.595	1439.69
285.826	1408.69
286.057	1409.69
286.288	1412.69
286.52	1429.69
286.751	1578.69
286.982	1624.69
287.213	1483.69
287.444	1376.69
287.675	1383.69
287.906	1439.69
288.138	1556.69
288.369	1514.69
288.6	1417.69
288.831	1402.69
289.062	1393.69
289.293	1407.69
289.524	1416.69
289.755	1483.69
289.986	1471.69
290.217	1343.69
290.448	1367.69
290.679	1450.69
290.91	1454.69
291.141	1481.69
291.371	1538.69
291.602	1548.69
291.833	1490.69
292.064	1551.69
292.295	1515.69
292.526	1588.69
292.757	1615.69
292.987	1548.69
293.218	1462.69
293.449	1559.69
293.68	1731.69
293.91	1912.69
294.141	1771.69
294.372	1643.69
294.603	1690.69
294.833	1791.69
295.064	1697.69
295.295	1514.69
295.525	1542.69
295.756	1432.69
295.987	1339.69
296.217	1372.69
296.448	1411.69
296.679	1420.69
296.909	1395.69
297.14	1419.69
297.37	1397.69
297.601	1490.69
297.831	1628.69
298.062	1599.69
298.292	1484.69
298.523	1447.69
298.753	1442.69
298.984	1470.69
299.214	1488.69
299.445	1498.69
299.675	1530.69
299.905	1537.69
300.136	1483.69
300.366	1414.69
300.597	1394.69
300.827	1417.69
301.057	1453.69
301.288	1558.69
301.518	1505.69
301.748	1552.69
301.979	1593.69
302.209	1604.69
302.439	1753.69
302.669	1875.69
302.9	1679.69
303.13	1538.69
303.36	1534.69
303.59	1587.69
303.82	1565.69
304.051	1538.69
304.281	1550.69
304.511	1524.69
304.741	1596.69
304.971	1791.69
305.201	1968.69
305.431	1825.69
305.661	1524.69
305.891	1361.69
306.121	1370.69
306.352	1410.69
306.582	1527.69
306.812	1608.69
307.042	1701.69
307.272	1710.69
307.502	1724.69
307.731	1900.69
307.961	2054.69
308.191	1910.69
308.421	1598.69
308.651	1472.69
308.881	1485.69
309.111	1491.69
309.341	1458.69
309.571	1491.69
309.8	1511.69
310.03	1526.69
310.26	1461.69
310.49	1510.69
310.72	1525.69
310.949	1564.69
311.179	1642.69
311.409	1568.69
311.639	1517.69
311.868	1479.69
312.098	1539.69
312.328	1472.69
312.557	1491.69
312.787	1511.69
313.017	1592.69
313.246	1562.69
313.476	1578.69
313.706	1668.69
313.935	1588.69
314.165	1614.69
314.394	1656.69
314.624	1723.69
314.853	1848.69
315.083	1888.69
315.312	1964.69
315.542	1863.69
315.771	1639.69
316.001	1603.69
316.23	1703.69
316.46	1698.69
316.689	1672.69
316.919	1600.69
317.148	1494.69
317.377	1551.69
317.607	1635.69
317.836	1859.69
318.065	1946.69
318.295	1861.69
318.524	1762.69
318.753	1714.69
318.983	1703.69
319.212	1652.69
319.441	1660.69
319.67	1602.69
319.9	1673.69
320.129	1752.69
320.358	1788.69
320.587	1851.69
320.816	1820.69
321.046	1793.69
321.275	1669.69
321.504	1676.69
321.733	1813.69
321.962	1800.69
322.191	1685.69
322.42	1639.69
322.649	1595.69
322.878	1606.69
323.108	1621.69
323.337	1690.69
323.566	1683.69
323.795	1713.69
324.024	1692.69
324.253	1631.69
324.482	1658.69
324.71	1655.69
324.939	1549.69
325.168	1593.69
325.397	1630.69
325.626	1721.69
325.855	1714.69
326.084	1586.69
326.313	1613.69
326.542	1649.69
326.77	1716.69
326.999	1759.69
327.228	1656.69
327.457	1585.69
327.686	1553.69
327.914	1599.69
328.143	1669.69
328.372	1647.69
328.6	1631.69
328.829	1626.69
329.058	1646.69
329.287	1598.69
329.515	1616.69
329.744	1678.69
329.972	1749.69
330.201	1827.69
330.43	1793.69
330.658	1747.69
330.887	1765.69
331.115	1724.69
331.344	1766.69
331.572	1709.69
331.801	1747.69
332.03	1753.69
332.258	1748.69
332.486	1756.69
332.715	1762.69
332.943	1762.69
333.172	1781.69
333.4	1754.69
333.629	1813.69
333.857	1926.69
334.085	2122.69
334.314	2318.69
334.542	2573.69
334.771	2371.69
334.999	2068.69
335.227	1964.69
335.455	1842.69
335.684	1863.69
335.912	1928.69
336.14	1970.69
336.369	1914.69
336.597	1799.69
336.825	1771.69
337.053	1818.69
337.281	1904.69
337.51	1993.69
337.738	2078.69
337.966	1998.69
338.194	1822.69
338.422	1734.69
338.65	1769.69
338.878	1740.69
339.106	1699.69
339.334	1706.69
339.562	1634.69
339.79	1692.69
340.018	1761.69
340.246	1844.69
340.474	1870.69
340.702	1811.69
340.93	1839.69
341.158	1764.69
341.386	1749.69
341.614	1753.69
341.842	1727.69
342.07	1722.69
342.298	1735.69
342.526	1741.69
342.754	1736.69
342.981	1703.69
343.209	1696.69
343.437	1698.69
343.665	1743.69
343.893	1736.69
344.12	1836.69
344.348	1867.69
344.576	1770.69
344.804	1719.69
345.031	1719.69
345.259	1737.69
345.487	1658.69
345.714	1638.69
345.942	1594.69
346.17	1629.69
346.397	1681.69
346.625	1639.69
346.853	1599.69
347.08	1526.69
347.308	1595.69
347.535	1597.69
347.763	1646.69
347.99	1634.69
348.218	1557.69
348.445	1565.69
348.673	1644.69
348.9	1641.69
349.128	1692.69
349.355	1733.69
349.583	1722.69
349.81	1620.69
350.037	1478.69
350.265	1497.69
350.492	1484.69
350.72	1535.69
350.947	1616.69
351.174	1652.69
351.402	1591.69
351.629	1500.69
351.856	1510.69
352.083	1505.69
352.311	1524.69
352.538	1514.69
352.765	1571.69
352.992	1643.69
353.22	1566.69
353.447	1555.69
353.674	1545.69
353.901	1579.69
354.128	1596.69
354.355	1519.69
354.583	1596.69
354.81	1662.69
355.037	1630.69
355.264	1606.69
355.491	1594.69
355.718	1583.69
355.945	1569.69
356.172	1569.69
356.399	1531.69
356.626	1538.69
356.853	1546.69
357.08	1638.69
357.307	1884.69
357.534	1916.69
357.761	1638.69
357.988	1513.69
358.215	1437.69
358.441	1483.69
358.668	1514.69
358.895	1500.69
359.122	1619.69
359.349	1769.69
359.576	1756.69
359.802	1618.69
360.029	1510.69
360.256	1502.69
360.483	1549.69
360.709	1556.69
360.936	1654.69
361.163	1688.69
361.39	1831.69
361.616	1971.69
361.843	1887.69
362.07	1787.69
362.296	1621.69
362.523	1556.69
362.749	1575.69
362.976	1584.69
363.203	1626.69
363.429	1599.69
363.656	1561.69
363.882	1574.69
364.109	1688.69
364.335	1915.69
364.562	1764.69
364.788	1673.69
365.015	1627.69
365.241	1553.69
365.468	1568.69
365.694	1646.69
365.92	1690.69
366.147	1661.69
366.373	1543.69
366.599	1503.69
366.826	1512.69
367.052	1593.69
367.278	1570.69
367.505	1588.69
367.731	1578.69
367.957	1590.69
368.184	1639.69
368.41	1732.69
368.636	1763.69
368.862	1731.69
369.089	1797.69
369.315	1692.69
369.541	1676.69
369.767	1620.69
369.993	1562.69
370.219	1586.69
370.445	1639.69
370.672	1662.69
370.898	1736.69
371.124	1768.69
371.35	1656.69
371.576	1686.69
371.802	1795.69
372.028	1683.69
372.254	1614.69
372.48	1609.69
372.706	1584.69
372.932	1608.69
373.158	1616.69
373.384	1619.69
373.61	1652.69
373.835	1754.69
374.061	1695.69
374.287	1658.69
374.513	1691.69
374.739	1653.69
374.965	1670.69
375.191	1702.69
375.416	1703.69
375.642	1715.69
375.868	1824.69
376.094	1822.69
376.319	1766.69
376.545	1671.69
376.771	1665.69
376.997	1771.69
377.222	1768.69
377.448	1701.69
377.674	1748.69
377.899	1666.69
378.125	1794.69
378.35	1800.69
378.576	1682.69
378.802	1590.69
379.027	1631.69
379.253	1652.69
379.478	1650.69
379.704	1673.69
379.929	1655.69
380.155	1635.69
380.38	1699.69
380.606	1711.69
380.831	1700.69
381.057	1739.69
381.282	1748.69
381.507	1733.69
381.733	1795.69
381.958	1908.69
382.184	1757.69
382.409	1741.69
382.634	1724.69
382.86	1720.69
383.085	1697.69
383.31	1786.69
383.535	1884.69
383.761	2015.69
383.986	1948.69
384.211	1840.69
384.436	1853.69
384.662	1934.69
384.887	2015.69
385.112	1916.69
385.337	1956.69
385.562	1897.69
385.787	1890.69
386.013	1978.69
386.238	1966.69
386.463	1951.69
386.688	2062.69
386.913	2173.69
387.138	2121.69
387.363	1950.69
387.588	1992.69
387.813	1933.69
388.038	1966.69
388.263	2023.69
388.488	1948.69
388.713	1870.69
388.938	1810.69
389.163	1831.69
389.387	1858.69
389.612	1888.69
389.837	1922.69
390.062	1955.69
390.287	1894.69
390.512	1891.69
390.736	1920.69
390.961	1889.69
391.186	1863.69
391.411	1855.69
391.636	1889.69
391.86	1910.69
392.085	1869.69
392.31	1909.69
392.534	1906.69
392.759	1980.69
392.984	1918.69
393.208	1962.69
393.433	2060.69
393.658	2100.69
393.882	2154.69
394.107	2000.69
394.331	1888.69
394.556	1895.69
394.78	1942.69
395.005	1962.69
395.229	2026.69
395.454	2169.69
395.678	2218.69
395.903	2082.69
396.127	2010.69
396.352	2015.69
396.576	2086.69
396.801	2142.69
397.025	2140.69
397.249	2120.69
397.474	2082.69
397.698	2030.69
397.922	2114.69
398.147	2172.69
398.371	2264.69
398.595	2259.69
398.82	2202.69
399.044	2225.69
399.268	2332.69
399.492	2495.69
399.717	2638.69
399.941	2620.69
400.165	2528.69
400.389	2475.69
400.613	2429.69
400.837	2621.69
401.062	2938.69
401.286	2586.69
401.51	2359.69
401.734	2402.69
401.958	2410.69
402.182	2230.69
402.406	2196.69
402.63	2152.69
402.854	2202.69
403.078	2216.69
403.302	2259.69
403.526	2279.69
403.75	2311.69
403.974	2321.69
404.198	2271.69
404.422	2350.69
404.645	2440.69
404.869	2419.69
405.093	2263.69
405.317	2230.69
405.541	2297.69
405.765	2336.69
405.988	2336.69
406.212	2326.69
406.436	2423.69
406.66	2452.69
406.883	2453.69
407.107	2722.69
407.331	2925.69
407.555	3100.69
407.778	2947.69
408.002	2532.69
408.226	2456.69
408.449	2419.69
408.673	2361.69
408.896	2357.69
409.12	2423.69
409.344	2330.69
409.567	2271.69
409.791	2328.69
410.014	2351.69
410.238	2397.69
410.461	2554.69
410.685	2341.69
410.908	2238.69
411.132	2302.69
411.355	2229.69
411.578	2208.69
411.802	2226.69
412.025	2287.69
412.249	2263.69
412.472	2195.69
412.695	2165.69
412.919	2194.69
413.142	2170.69
413.365	2173.69
413.589	2251.69
413.812	2249.69
414.035	2396.69
414.258	2230.69
414.482	2205.69
414.705	2175.69
414.928	2176.69
415.151	2165.69
415.374	2207.69
415.597	2211.69
415.821	2300.69
416.044	2357.69
416.267	2343.69
416.49	2122.69
416.713	2066.69
416.936	2144.69
417.159	2227.69
417.382	2266.69
417.605	2126.69
417.828	2212.69
418.051	2226.69
418.274	2183.69
418.497	2109.69
418.72	2098.69
418.943	2092.69
419.166	2261.69
419.389	2356.69
419.611	2205.69
419.834	2172.69
420.057	2192.69
420.28	2137.69
420.503	2109.69
420.726	2126.69
420.948	2145.69
421.171	2102.69
421.394	2130.69
421.617	2209.69
421.839	2136.69
422.062	2135.69
422.285	2128.69
422.507	2124.69
422.73	2030.69
422.953	2033.69
423.175	2028.69
423.398	2081.69
423.621	2125.69
423.843	2133.69
424.066	2143.69
424.288	2189.69
424.511	2188.69
424.733	2173.69
424.956	1995.69
425.178	1959.69
425.401	2011.69
425.623	2049.69
425.846	2028.69
426.068	2132.69
426.291	2150.69
426.513	2162.69
426.735	2125.69
426.958	2274.69
427.18	2362.69
427.402	2165.69
427.625	2237.69
427.847	2230.69
428.069	2110.69
428.292	2040.69
428.514	2013.69
428.736	1987.69
428.958	2047.69
429.181	2076.69
429.403	2221.69
429.625	2746.69
429.847	2490.69
430.069	2098.69
430.292	2280.69
430.514	2364.69
430.736	2175.69
430.958	2226.69
431.18	2177.69
431.402	2030.69
431.624	1996.69
431.846	2012.69
432.068	2001.69
432.29	2023.69
432.512	2054.69
432.734	2141.69
432.956	2107.69
433.178	2175.69
433.4	2188.69
433.622	2156.69
433.844	2058.69
434.066	1999.69
434.287	2019.69
434.509	2057.69
434.731	2158.69
434.953	2363.69
435.175	2306.69
435.397	2159.69
435.618	2164.69
435.84	2152.69
436.062	2104.69
436.284	2095.69
436.505	2138.69
436.727	2156.69
436.949	2080.69
437.17	2109.69
437.392	2086.69
437.614	2089.69
437.835	1990.69
438.057	2125.69
438.278	2257.69
438.5	2055.69
438.721	1990.69
438.943	2057.69
439.165	1958.69
439.386	2041.69
439.608	2020.69
439.829	2012.69
440.05	2076.69
440.272	2001.69
440.493	1994.69
440.715	2034.69
440.936	2119.69
441.158	2374.69
441.379	2312.69
441.6	2256.69
441.822	2206.69
442.043	2200.69
442.264	2085.69
442.486	2049.69
442.707	2045.69
442.928	2023.69
443.149	2079.69
443.371	2213.69
443.592	2279.69
443.813	2239.69
444.034	2179.69
444.255	2218.69
444.476	2290.69
444.698	2315.69
444.919	2326.69
445.14	2376.69
445.361	2357.69
445.582	2437.69
445.803	2317.69
446.024	2238.69
446.245	2349.69
446.466	2276.69
446.687	2149.69
446.908	2138.69
447.129	2029.69
447.35	2140.69
447.571	2106.69
447.792	2005.69
448.013	2003.69
448.234	2025.69
448.455	2157.69
448.675	2128.69
448.896	1983.69
449.117	1930.69
449.338	2000.69
449.559	2079.69
449.779	2183.69
450	2387.69
450.221	2586.69
450.442	2488.69
450.662	2191.69
450.883	1943.69
451.104	1928.69
451.324	1954.69
451.545	2043.69
451.766	2016.69
451.986	1915.69
452.207	1867.69
452.428	1846.69
452.648	1788.69
452.869	1887.69
453.089	1976.69
453.31	1982.69
453.53	2028.69
453.751	1996.69
453.971	1824.69
454.192	1895.69
454.412	2015.69
454.633	1973.69
454.853	1863.69
455.073	1765.69
455.294	1747.69
455.514	1790.69
455.734	1822.69
455.955	1846.69
456.175	1819.69
456.395	1819.69
456.616	1848.69
456.836	1908.69
457.056	1880.69
457.276	1870.69
457.497	1814.69
457.717	1749.69
457.937	1804.69
458.157	1859.69
458.377	1813.69
458.598	1810.69
458.818	1818.69
459.038	1911.69
459.258	2069.69
459.478	2077.69
459.698	1991.69
459.918	2074.69
460.138	2106.69
460.358	2164.69
460.578	2198.69
460.798	2297.69
461.018	2381.69
461.238	2262.69
461.458	2191.69
461.678	2251.69
461.898	2180.69
462.118	2139.69
462.338	2198.69
462.558	2221.69
462.777	2192.69
462.997	2304.69
463.217	2470.69
463.437	2448.69
463.657	2231.69
463.876	2207.69
464.096	2192.69
464.316	2191.69
464.536	2237.69
464.755	2298.69
464.975	2321.69
465.195	2266.69
465.414	2311.69
465.634	2298.69
465.854	2165.69
466.073	2254.69
466.293	2242.69
466.512	1994.69
466.732	2014.69
466.951	2090.69
467.171	2081.69
467.391	1976.69
467.61	1936.69
467.829	1973.69
468.049	2101.69
468.268	2330.69
468.488	2231.69
468.707	2070.69
468.927	2050.69
469.146	1975.69
469.365	1953.69
469.585	2006.69
469.804	1957.69
470.023	2006.69
470.243	2048.69
470.462	2034.69
470.681	1996.69
470.901	2025.69
471.12	2014.69
471.339	1940.69
471.558	1949.69
471.777	1903.69
471.997	1998.69
472.216	1974.69
472.435	1879.69
472.654	1900.69
472.873	1998.69
473.092	2148.69
473.311	2050.69
473.53	1903.69
473.749	1916.69
473.968	1983.69
474.187	2099.69
474.406	2170.69
474.625	2028.69
474.844	2026.69
475.063	2017.69
475.282	2079.69
475.501	2013.69
475.72	2016.69
475.939	2109.69
476.158	2055.69
476.377	2034.69
476.596	2101.69
476.814	2110.69
477.033	2093.69
477.252	2215.69
477.471	2228.69
477.69	2160.69
477.908	2132.69
478.127	2212.69
478.346	2428.69
478.564	2433.69
478.783	2357.69
479.002	2514.69
479.22	2387.69
479.439	2458.69
479.658	2858.69
479.876	2825.69
480.095	2383.69
480.313	2335.69
480.532	2208.69
480.751	2247.69
480.969	2319.69
481.188	2231.69
481.406	2268.69
481.624	2187.69
481.843	2209.69
482.061	2254.69
482.28	2290.69
482.498	2341.69
482.717	2305.69
482.935	2180.69
483.153	2202.69
483.372	2224.69
483.59	2195.69
483.808	2249.69
484.027	2256.69
484.245	2408.69
484.463	2752.69
484.681	3112.69
484.9	2456.69
485.118	2300.69
485.336	2246.69
485.554	2311.69
485.772	2451.69
485.99	2394.69
486.209	2446.69
486.427	2330.69
486.645	2401.69
486.863	2350.69
487.081	2354.69
487.299	2465.69
487.517	2373.69
487.735	2342.69
487.953	2317.69
488.171	2306.69
488.389	2317.69
488.607	2256.69
488.825	2482.69
489.043	2530.69
489.261	2300.69
489.479	2417.69
489.696	2494.69
489.914	2440.69
490.132	2439.69
490.35	2326.69
490.568	2430.69
490.786	2362.69
491.003	2290.69
491.221	2308.69
491.439	2437.69
491.657	2438.69
491.874	2425.69
492.092	2484.69
492.31	2475.69
492.527	2458.69
492.745	2387.69
492.963	2390.69
493.18	2483.69
493.398	2624.69
493.615	2669.69
493.833	2455.69
494.05	2446.69
494.268	2430.69
494.485	2535.69
494.703	2446.69
494.92	2416.69
495.138	2403.69
495.355	2428.69
495.573	2530.69
495.79	2695.69
496.008	2775.69
496.225	2568.69
496.442	2556.69
496.66	2647.69
496.877	2609.69
497.094	2668.69
497.312	2651.69
497.529	2656.69
497.746	2738.69
497.963	3133.69
498.181	3560.69
498.398	3253.69
498.615	3203.69
498.832	3140.69
499.049	3095.69
499.267	3135.69
499.484	3316.69
499.701	3678.69
499.918	3663.69
500.135	4030.69
500.352	4255.69
500.569	4187.69
500.786	4370.69
501.003	4108.69
501.22	3784.69
501.437	3751.69
501.654	3597.69
501.871	3528.69
502.088	3119.69
502.305	3118.69
502.522	3009.69
502.739	2858.69
502.956	2720.69
503.172	2722.69
503.389	2648.69
503.606	2557.69
503.823	2595.69
504.04	2617.69
504.256	2545.69
504.473	2636.69
504.69	2700.69
504.907	2570.69
505.123	2463.69
505.34	2533.69
505.557	3194.69
505.773	2746.69
505.99	2343.69
506.207	2222.69
506.423	2202.69
506.64	2222.69
506.856	2171.69
507.073	2464.69
507.289	2623.69
507.506	2551.69
507.722	2229.69
507.939	2110.69
508.155	2095.69
508.372	2154.69
508.588	2083.69
508.805	2076.69
509.021	2015.69
509.238	1970.69
509.454	1950.69
509.67	1977.69
509.887	1963.69
510.103	1956.69
510.319	1988.69
510.536	2074.69
510.752	2150.69
510.968	2165.69
511.184	2292.69
511.401	2258.69
511.617	1992.69
511.833	1924.69
512.049	1942.69
512.265	1927.69
512.481	1924.69
512.698	2016.69
512.914	2129.69
513.13	2124.69
513.346	1964.69
513.562	1944.69
513.778	1944.69
513.994	2000.69
514.21	2114.69
514.426	2113.69
514.642	2352.69
514.858	2223.69
515.074	2029.69
515.29	1998.69
515.506	2021.69
515.721	2058.69
515.937	2095.69
516.153	2328.69
516.369	2276.69
516.585	2164.69
516.801	2047.69
517.016	2066.69
517.232	2127.69
517.448	2161.69
517.664	2202.69
517.879	2163.69
518.095	2315.69
518.311	2199.69
518.527	2081.69
518.742	2063.69
518.958	1994.69
519.173	1994.69
519.389	2032.69
519.605	2035.69
519.82	2004.69
520.036	2047.69
520.251	1958.69
520.467	1987.69
520.682	2174.69
520.898	2233.69
521.113	1967.69
521.329	1946.69
521.544	2072.69
521.76	2028.69
521.975	1914.69
522.19	1866.69
522.406	1896.69
522.621	2165.69
522.836	2200.69
523.052	1889.69
523.267	1852.69
523.482	1877.69
523.698	1822.69
523.913	1748.69
524.128	1810.69
524.343	1903.69
524.559	1909.69
524.774	1847.69
524.989	1797.69
525.204	1789.69
525.419	1758.69
525.634	1726.69
525.849	1774.69
526.064	1795.69
526.28	1811.69
526.495	1751.69
526.71	1684.69
526.925	1718.69
527.14	1735.69
527.355	1687.69
527.57	1735.69
527.785	1774.69
527.999	1704.69
528.214	1674.69
528.429	1629.69
528.644	1655.69
528.859	1724.69
529.074	1698.69
529.289	1717.69
529.503	1715.69
529.718	1755.69
529.933	1696.69
530.148	1666.69
530.363	1633.69
530.577	1686.69
530.792	1723.69
531.007	1704.69
531.221	1692.69
531.436	1705.69
531.651	1787.69
531.865	1811.69
532.08	1777.69
532.295	1647.69
532.509	1644.69
532.724	1627.69
532.938	1678.69
533.153	1859.69
533.367	1781.69
533.582	1715.69
533.796	1651.69
534.011	1661.69
534.225	1697.69
534.44	1680.69
534.654	1632.69
534.868	1636.69
535.083	1732.69
535.297	1716.69
535.511	1636.69
535.726	1662.69
535.94	1671.69
536.154	1692.69
536.369	1621.69
536.583	1650.69
536.797	1619.69
537.011	1706.69
537.225	1637.69
537.44	1564.69
537.654	1689.69
537.868	1614.69
538.082	1542.69
538.296	1550.69
538.51	1566.69
538.724	1552.69
538.938	1551.69
539.153	1590.69
539.367	1621.69
539.581	1600.69
539.795	1649.69
540.009	1607.69
540.222	1548.69
540.436	1613.69
540.65	1775.69
540.864	1765.69
541.078	1699.69
541.292	1538.69
541.506	1578.69
541.72	1580.69
541.934	1625.69
542.147	1665.69
542.361	1574.69
542.575	1532.69
542.789	1598.69
543.002	1497.69
543.216	1549.69
543.43	1597.69
543.644	1646.69
543.857	1744.69
544.071	1648.69
544.285	1626.69
544.498	1604.69
544.712	1598.69
544.925	1592.69
545.139	1652.69
545.352	1574.69
545.566	1508.69
545.779	1474.69
545.993	1523.69
546.206	1582.69
546.42	1496.69
546.633	1483.69
546.847	1491.69
547.06	1482.69
547.274	1501.69
547.487	1502.69
547.7	1494.69
547.914	1547.69
548.127	1548.69
548.34	1570.69
548.554	1537.69
548.767	1539.69
548.98	1532.69
549.193	1506.69
549.407	1562.69
549.62	1599.69
549.833	1502.69
550.046	1517.69
550.259	1489.69
550.473	1486.69
550.686	1503.69
550.899	1459.69
551.112	1425.69
551.325	1418.69
551.538	1502.69
551.751	1733.69
551.964	1452.69
552.177	1438.69
552.39	1440.69
552.603	1470.69
552.816	1496.69
553.029	1515.69
553.242	1574.69
553.455	1530.69
553.667	1490.69
553.88	1488.69
554.093	1481.69
554.306	1433.69
554.519	1396.69
554.732	1372.69
554.944	1436.69
555.157	1444.69
555.37	1396.69
555.583	1387.69
555.795	1386.69
556.008	1390.69
556.221	1355.69
556.433	1326.69
556.646	1278.69
556.859	1298.69
557.071	1283.69
557.284	1295.69
557.496	1327.69
557.709	1258.69
557.921	1263.69
558.134	1261.69
558.346	1240.69
558.559	1240.69
558.771	1268.69
558.984	1238.69
559.196	1198.69
559.409	1199.69
559.621	1220.69
559.833	1213.69
560.046	1275.69
560.258	1244.69
560.47	1222.69
560.683	1242.69
560.895	1256.69
561.107	1237.69
561.32	1233.69
561.532	1259.69
561.744	1221.69
561.956	1260.69
562.168	1182.69
562.381	1160.69
562.593	1185.69
562.805	1193.69
563.017	1185.69
563.229	1165.69
563.441	1212.69
563.653	1202.69
563.865	1188.69
564.077	1216.69
564.289	1209.69
564.501	1228.69
564.713	1272.69
564.925	1296.69
565.137	1366.69
565.349	1296.69
565.561	1315.69
565.773	1298.69
565.985	1324.69
566.197	1379.69
566.408	1439.69
566.62	1492.69
566.832	1514.69
567.044	1492.69
567.255	1491.69
567.467	1515.69
567.679	1586.69
567.891	1575.69
568.102	1564.69
568.314	1523.69
568.526	1435.69
568.737	1362.69
568.949	1306.69
569.161	1268.69
569.372	1200.69
569.584	1200.69
569.795	1196.69
570.007	1182.69
570.218	1125.69
570.43	1123.69
570.641	1091.69
570.853	1150.69
571.064	1112.69
571.276	1089.69
571.487	1066.69
571.698	1084.69
571.91	1008.69
572.121	1029.69
572.333	1029.69
572.544	1026.69
572.755	974.69
572.966	946.69
573.178	994.69
573.389	1009.69
573.6	1020.69
573.811	1040.69
574.023	991.69
574.234	947.69
574.445	978.69
574.656	965.69
574.867	892.69
575.078	916.69
575.289	919.69
575.501	918.69
575.712	926.69
575.923	943.69
576.134	930.69
576.345	904.69
576.556	892.69
576.767	870.69
576.978	894.69
577.188	861.69
577.399	868.69
577.61	878.69
577.821	862.69
578.032	853.69
578.243	849.69
578.454	842.69
578.665	853.69
578.875	817.69
579.086	813.69
579.297	843.69
579.508	873.69
579.718	858.69
579.929	836.69
580.14	812.69
580.35	812.69
580.561	820.69
580.772	863.69
580.982	824.69
581.193	812.69
581.403	812.69
581.614	794.69
581.825	790.69
582.035	806.69
582.246	768.69
582.456	787.69
582.667	807.69
582.877	814.69
583.087	770.69
583.298	754.69
583.508	753.69
583.719	788.69
583.929	788.69
584.139	772.69
584.35	744.69
584.56	749.69
584.77	774.69
584.981	774.69
585.191	782.69
585.401	777.69
585.611	770.69
585.821	775.69
586.032	764.69
586.242	734.69
586.452	767.69
586.662	773.69
586.872	750.69
587.082	730.69
587.292	760.69
587.502	794.69
587.713	753.69
587.923	768.69
588.133	749.69
588.343	746.69
588.553	733.69
588.762	734.69
588.972	736.69
589.182	766.69
589.392	767.69
589.602	759.69
589.812	741.69
590.022	726.69
590.232	706.69
590.441	749.69
590.651	737.69
590.861	726.69
591.071	707.69
591.281	720.69
591.49	734.69
591.7	707.69
591.91	720.69
592.119	725.69
592.329	737.69
592.539	771.69
592.748	762.69
592.958	777.69
593.167	803.69
593.377	743.69
593.587	800.69
593.796	797.69
594.006	796.69
594.215	773.69
594.424	770.69
594.634	764.69
594.843	761.69
595.053	768.69
595.262	730.69
595.472	745.69
595.681	732.69
595.89	722.69
596.1	707.69
596.309	698.69
596.518	691.69
596.727	694.69
596.937	690.69
597.146	626.69
597.355	645.69
597.564	659.69
597.774	637.69
597.983	649.69
598.192	625.69
598.401	630.69
598.61	628.69
598.819	621.69
599.028	630.69
599.237	615.69
599.446	602.69
599.655	615.69
599.864	636.69
600.073	600.69
600.282	598.69
600.491	604.69
600.7	591.69
600.909	595.69
601.118	622.69
601.327	608.69
601.536	623.69
601.745	618.69
601.953	624.69
602.162	595.69
602.371	608.69
602.58	592.69
602.789	592.69
602.997	595.69
603.206	590.69
603.415	598.69
603.623	602.69
603.832	596.69
604.041	578.69
604.249	573.69
604.458	590.69
604.666	576.69
604.875	566.69
605.084	596.69
605.292	581.69
605.501	575.69
605.709	555.69
605.918	555.69
606.126	567.69
606.334	566.69
606.543	550.69
606.751	549.69
606.96	578.69
607.168	565.69
607.376	562.69
607.585	555.69
607.793	561.69
608.001	547.69
608.21	548.69
608.418	573.69
608.626	567.69
608.834	546.69
609.043	554.69
609.251	539.69
609.459	546.69
609.667	561.69
609.875	556.69
610.083	561.69
610.291	570.69
610.499	566.69
610.707	559.69
610.916	552.69
611.124	553.69
611.332	528.69
611.54	527.69
611.748	544.69
611.955	535.69
612.163	531.69
612.371	509.69
612.579	542.69
612.787	533.69
612.995	538.69
613.203	523.69
613.411	522.69
613.618	516.69
613.826	524.69
614.034	540.69
614.242	517.69
614.449	547.69
614.657	535.69
614.865	525.69
615.072	507.69
615.28	526.69
615.488	525.69
615.695	557.69
615.903	541.69
616.111	516.69
616.318	533.69
616.526	525.69
616.733	492.69
616.941	504.69
617.148	510.69
617.356	492.69
617.563	526.69
617.771	518.69
617.978	504.69
618.185	495.69
618.393	490.69
618.6	502.69
618.807	479.69
619.015	519.69
619.222	482.69
619.429	490.69
619.637	494.69
619.844	508.69
620.051	491.69
620.258	484.69
620.466	469.69
620.673	460.69
620.88	451.69
621.087	476.69
621.294	460.69
621.501	451.69
621.708	449.69
621.915	476.69
622.122	466.69
622.329	461.69
622.536	470.69
622.743	467.69
622.95	461.69
623.157	451.69
623.364	447.69
623.571	446.69
623.778	461.69
623.985	450.69
624.192	458.69
624.399	438.69
624.606	450.69
624.812	434.69
625.019	434.69
625.226	447.69
625.433	442.69
625.639	436.69
625.846	417.69
626.053	416.69
626.259	410.69
626.466	415.69
626.673	408.69
626.879	388.69
627.086	404.69
627.293	406.69
627.499	425.69
627.706	401.69
627.912	420.69
628.119	430.69
628.325	430.69
628.532	392.69
628.738	423.69
628.945	418.69
629.151	398.69
629.357	404.69
629.564	396.69
629.77	392.69
629.976	386.69
630.183	399.69
630.389	387.69
630.595	402.69
630.802	412.69
631.008	395.69
631.214	370.69
631.42	387.69
631.627	378.69
631.833	364.69
632.039	398.69
632.245	382.69
632.451	378.69
632.657	381.69
632.863	380.69
633.069	373.69
633.275	376.69
633.481	364.69
633.688	375.69
633.893	365.69
634.099	389.69
634.305	352.69
634.511	365.69
634.717	344.69
634.923	339.69
635.129	371.69
635.335	351.69
635.541	380.69
635.747	358.69
635.952	351.69
636.158	362.69
636.364	362.69
636.57	357.69
636.775	340.69
636.981	362.69
637.187	371.69
637.392	340.69
637.598	334.69
637.804	365.69
638.009	350.69
638.215	330.69
638.421	342.69
638.626	330.69
638.832	343.69
639.037	320.69
639.243	317.69
639.448	335.69
639.654	328.69
639.859	338.69
640.065	324.69
640.27	328.69
640.475	312.69
640.681	348.69
640.886	335.69
641.091	337.69
641.297	336.69
641.502	332.69
641.707	326.69
641.913	322.69
642.118	331.69
642.323	312.69
642.528	297.69
642.733	331.69
642.939	343.69
643.144	331.69
643.349	340.69
643.554	331.69
643.759	303.69
643.964	301.69
644.169	318.69
644.374	304.69
644.579	322.69
644.784	324.69
644.989	311.69
645.194	310.69
645.399	310.69
645.604	328.69
645.809	302.69
646.014	307.69
646.219	325.69
646.423	326.69
646.628	321.69
646.833	328.69
647.038	309.69
647.243	336.69
647.447	325.69
647.652	316.69
647.857	312.69
648.062	314.69
648.266	311.69
648.471	313.69
648.676	311.69
648.88	324.69
649.085	316.69
649.289	318.69
649.494	293.69
649.698	302.69
649.903	290.69
650.107	299.69
650.312	306.69
650.516	292.69
650.721	291.69
650.925	297.69
651.13	280.69
651.334	286.69
651.539	255.69
651.743	282.69
651.947	272.69
652.152	273.69
652.356	264.69
652.56	257.69
652.764	257.69
652.969	256.69
653.173	254.69
653.377	274.69
653.581	254.69
653.785	255.69
653.99	243.69
654.194	248.69
654.398	234.69
654.602	224.69
654.806	238.69
655.01	225.69
655.214	231.69
655.418	245.69
655.622	250.69
655.826	235.69
656.03	260.69
656.234	254.69
656.438	268.69
656.642	258.69
656.846	252.69
657.049	229.69
657.253	214.69
657.457	198.69
657.661	188.69
657.865	187.69
658.068	173.69
658.272	176.69
658.476	155.69
658.68	156.69
658.883	163.69
659.087	135.69
659.291	144.69
659.494	130.69
659.698	124.69
659.901	130.69
660.105	114.69
660.309	119.69
660.512	112.69
660.716	110.69
660.919	119.69
661.123	106.69
661.326	109.69
661.53	100.69
661.733	100.69
661.936	92.69
662.14	97.69
662.343	110.69
662.546	87.69
662.75	96.69
662.953	81.69
663.156	88.69
663.36	85.69
663.563	82.69
663.766	67.69
663.969	79.69
664.173	81.69
664.376	72.69
664.579	79.69
664.782	80.69
664.985	55.69
665.188	88.69
665.391	68.69
665.594	65.69
665.797	82.69
666	72.69
666.203	79.69
666.406	73.69
666.609	85.69
666.812	78.69
667.015	82.69
667.218	87.69
667.421	82.69
667.624	88.69
667.827	98.69
668.03	59.69
668.232	61.69
668.435	74.69
668.638	78.69
668.841	80.69
669.043	72.69
669.246	79.69
669.449	83.69
669.651	77.69
669.854	91.69
670.057	79.69
670.259	80.69
670.462	91.69
670.665	75.69
670.867	72.69
671.07	83.69
671.272	70.69
671.475	88.69
671.677	68.69
671.88	76.69
672.082	80.69
672.284	80.69
672.487	75.69
672.689	83.69
672.892	80.69
