Data from WStandard_LampEnergy8_LIBS07252019.E.O._I.C._HRD10591_15-57-46-928.txt Node
Date: Thu Jul 25 15:57:46 EDT 2019
User: cochatt
Spectrometer: HR+D1059
Trigger mode: 1
Integration Time (sec): 1.000000E-1
Scans to average: 1
Electric dark correction enabled: true
Nonlinearity correction enabled: false
Boxcar width: 0
XAxis mode: Wavelengths
Number of Pixels in Spectrum: 2048
>>>>>Begin Spectral Data<<<<<
223.165	-12.38
223.4	-12.38
223.635	-12.38
223.869	-24.38
224.104	-23.38
224.338	-10.38
224.573	-7.38
224.808	-6.38
225.042	-14.38
225.277	-18.38
225.511	-13.38
225.746	12.62
225.98	19.62
226.215	14.62
226.449	10.62
226.683	19.62
226.918	15.62
227.152	37.62
227.387	50.62
227.621	41.62
227.856	48.62
228.09	43.62
228.324	53.62
228.559	56.62
228.793	108.62
229.027	206.62
229.262	214.62
229.496	219.62
229.73	234.62
229.964	268.62
230.199	239.62
230.433	283.62
230.667	294.62
230.901	318.62
231.136	286.62
231.37	280.62
231.604	275.62
231.838	271.62
232.072	270.62
232.306	274.62
232.541	266.62
232.775	312.62
233.009	356.62
233.243	330.62
233.477	307.62
233.711	309.62
233.945	332.62
234.179	310.62
234.413	333.62
234.647	339.62
234.881	340.62
235.115	315.62
235.349	310.62
235.583	326.62
235.817	322.62
236.051	314.62
236.285	320.62
236.519	327.62
236.753	373.62
236.987	387.62
237.221	364.62
237.455	429.62
237.689	406.62
237.922	363.62
238.156	366.62
238.39	370.62
238.624	390.62
238.858	420.62
239.091	407.62
239.325	445.62
239.559	528.62
239.793	528.62
240.027	561.62
240.26	529.62
240.494	404.62
240.728	388.62
240.961	411.62
241.195	403.62
241.429	462.62
241.662	436.62
241.896	411.62
242.13	426.62
242.363	461.62
242.597	504.62
242.83	488.62
243.064	485.62
243.298	497.62
243.531	514.62
243.765	515.62
243.998	478.62
244.232	434.62
244.465	420.62
244.699	434.62
244.932	482.62
245.166	544.62
245.399	523.62
245.633	468.62
245.866	496.62
246.099	510.62
246.333	512.62
246.566	528.62
246.8	555.62
247.033	619.62
247.266	574.62
247.5	569.62
247.733	579.62
247.966	582.62
248.2	637.62
248.433	647.62
248.666	652.62
248.899	718.62
249.133	817.62
249.366	859.62
249.599	738.62
249.832	680.62
250.066	656.62
250.299	647.62
250.532	638.62
250.765	560.62
250.998	588.62
251.231	629.62
251.465	644.62
251.698	630.62
251.931	620.62
252.164	619.62
252.397	663.62
252.63	638.62
252.863	598.62
253.096	572.62
253.329	614.62
253.562	640.62
253.795	684.62
254.028	659.62
254.261	601.62
254.494	594.62
254.727	571.62
254.96	631.62
255.193	665.62
255.426	766.62
255.659	841.62
255.892	847.62
256.124	700.62
256.357	686.62
256.59	753.62
256.823	747.62
257.056	770.62
257.289	873.62
257.521	971.62
257.754	859.62
257.987	820.62
258.22	906.62
258.452	875.62
258.685	740.62
258.918	713.62
259.151	715.62
259.383	692.62
259.616	616.62
259.849	680.62
260.081	736.62
260.314	820.62
260.547	846.62
260.779	870.62
261.012	825.62
261.244	758.62
261.477	706.62
261.71	732.62
261.942	728.62
262.175	725.62
262.407	757.62
262.64	705.62
262.872	685.62
263.105	650.62
263.337	650.62
263.57	674.62
263.802	664.62
264.035	638.62
264.267	612.62
264.499	612.62
264.732	643.62
264.964	688.62
265.197	709.62
265.429	772.62
265.661	834.62
265.894	894.62
266.126	921.62
266.358	834.62
266.591	862.62
266.823	906.62
267.055	805.62
267.287	842.62
267.52	818.62
267.752	804.62
267.984	836.62
268.216	850.62
268.448	864.62
268.681	821.62
268.913	777.62
269.145	752.62
269.377	732.62
269.609	813.62
269.841	932.62
270.073	1063.62
270.306	1164.62
270.538	1220.62
270.77	998.62
271.002	894.62
271.234	866.62
271.466	858.62
271.698	987.62
271.93	1127.62
272.162	1133.62
272.394	1028.62
272.626	958.62
272.858	849.62
273.09	718.62
273.322	724.62
273.553	700.62
273.785	733.62
274.017	756.62
274.249	800.62
274.481	805.62
274.713	757.62
274.945	725.62
275.176	749.62
275.408	735.62
275.64	701.62
275.872	734.62
276.104	782.62
276.335	905.62
276.567	979.62
276.799	979.62
277.031	870.62
277.262	861.62
277.494	892.62
277.726	933.62
277.957	922.62
278.189	848.62
278.421	798.62
278.652	772.62
278.884	770.62
279.115	761.62
279.347	795.62
279.579	777.62
279.81	780.62
280.042	874.62
280.273	931.62
280.505	944.62
280.736	933.62
280.968	865.62
281.199	780.62
281.431	733.62
281.662	733.62
281.894	796.62
282.125	789.62
282.356	806.62
282.588	816.62
282.819	844.62
283.051	929.62
283.282	937.62
283.513	905.62
283.745	805.62
283.976	766.62
284.207	750.62
284.439	806.62
284.67	798.62
284.901	832.62
285.132	824.62
285.364	820.62
285.595	814.62
285.826	810.62
286.057	811.62
286.288	777.62
286.52	848.62
286.751	882.62
286.982	914.62
287.213	821.62
287.444	760.62
287.675	773.62
287.906	805.62
288.138	878.62
288.369	847.62
288.6	790.62
288.831	774.62
289.062	792.62
289.293	821.62
289.524	801.62
289.755	837.62
289.986	818.62
290.217	774.62
290.448	791.62
290.679	797.62
290.91	812.62
291.141	844.62
291.371	869.62
291.602	864.62
291.833	875.62
292.064	872.62
292.295	884.62
292.526	901.62
292.757	905.62
292.987	877.62
293.218	850.62
293.449	913.62
293.68	1033.62
293.91	1066.62
294.141	1022.62
294.372	983.62
294.603	989.62
294.833	1033.62
295.064	952.62
295.295	897.62
295.525	836.62
295.756	790.62
295.987	752.62
296.217	780.62
296.448	804.62
296.679	822.62
296.909	839.62
297.14	788.62
297.37	834.62
297.601	885.62
297.831	944.62
298.062	922.62
298.292	843.62
298.523	805.62
298.753	813.62
298.984	802.62
299.214	831.62
299.445	877.62
299.675	860.62
299.905	864.62
300.136	853.62
300.366	827.62
300.597	772.62
300.827	822.62
301.057	846.62
301.288	892.62
301.518	874.62
301.748	904.62
301.979	956.62
302.209	985.62
302.439	1029.62
302.669	1052.62
302.9	978.62
303.13	941.62
303.36	914.62
303.59	900.62
303.82	896.62
304.051	894.62
304.281	923.62
304.511	916.62
304.741	1027.62
304.971	1105.62
305.201	1146.62
305.431	1026.62
305.661	864.62
305.891	766.62
306.121	768.62
306.352	830.62
306.582	889.62
306.812	930.62
307.042	1021.62
307.272	1020.62
307.502	1035.62
307.731	1114.62
307.961	1146.62
308.191	1056.62
308.421	932.62
308.651	887.62
308.881	872.62
309.111	868.62
309.341	868.62
309.571	859.62
309.8	874.62
310.03	850.62
310.26	869.62
310.49	861.62
310.72	898.62
310.949	917.62
311.179	922.62
311.409	906.62
311.639	881.62
311.868	871.62
312.098	896.62
312.328	866.62
312.557	878.62
312.787	898.62
313.017	904.62
313.246	881.62
313.476	914.62
313.706	947.62
313.935	944.62
314.165	934.62
314.394	980.62
314.624	1024.62
314.853	1041.62
315.083	1098.62
315.312	1135.62
315.542	1018.62
315.771	952.62
316.001	949.62
316.23	963.62
316.46	974.62
316.689	972.62
316.919	932.62
317.148	900.62
317.377	923.62
317.607	1045.62
317.836	1113.62
318.065	1140.62
318.295	1089.62
318.524	1056.62
318.753	1025.62
318.983	988.62
319.212	960.62
319.441	946.62
319.67	956.62
319.9	965.62
320.129	1052.62
320.358	1081.62
320.587	1116.62
320.816	1100.62
321.046	1038.62
321.275	1003.62
321.504	1050.62
321.733	1085.62
321.962	1030.62
322.191	980.62
322.42	978.62
322.649	973.62
322.878	953.62
323.108	965.62
323.337	1027.62
323.566	997.62
323.795	991.62
324.024	989.62
324.253	955.62
324.482	979.62
324.71	950.62
324.939	906.62
325.168	924.62
325.397	977.62
325.626	996.62
325.855	982.62
326.084	948.62
326.313	994.62
326.542	958.62
326.77	1029.62
326.999	984.62
327.228	940.62
327.457	906.62
327.686	924.62
327.914	941.62
328.143	977.62
328.372	964.62
328.6	964.62
328.829	946.62
329.058	949.62
329.287	980.62
329.515	988.62
329.744	1029.62
329.972	1066.62
330.201	1100.62
330.43	1063.62
330.658	1010.62
330.887	1041.62
331.115	1020.62
331.344	1014.62
331.572	1029.62
331.801	1028.62
332.03	1028.62
332.258	1060.62
332.486	1031.62
332.715	1054.62
332.943	1055.62
333.172	1023.62
333.4	1027.62
333.629	1078.62
333.857	1171.62
334.085	1292.62
334.314	1456.62
334.542	1530.62
334.771	1349.62
334.999	1197.62
335.227	1154.62
335.455	1101.62
335.684	1098.62
335.912	1147.62
336.14	1171.62
336.369	1081.62
336.597	1054.62
336.825	1016.62
337.053	1097.62
337.281	1166.62
337.51	1188.62
337.738	1236.62
337.966	1163.62
338.194	1038.62
338.422	1048.62
338.65	998.62
338.878	988.62
339.106	982.62
339.334	961.62
339.562	957.62
339.79	1025.62
340.018	1064.62
340.246	1093.62
340.474	1082.62
340.702	1047.62
340.93	1064.62
341.158	1060.62
341.386	1029.62
341.614	1012.62
341.842	1023.62
342.07	1026.62
342.298	1025.62
342.526	1048.62
342.754	992.62
342.981	995.62
343.209	1012.62
343.437	988.62
343.665	1004.62
343.893	1046.62
344.12	1124.62
344.348	1080.62
344.576	1040.62
344.804	1048.62
345.031	1012.62
345.259	1012.62
345.487	953.62
345.714	946.62
345.942	937.62
346.17	975.62
346.397	979.62
346.625	966.62
346.853	919.62
347.08	892.62
347.308	893.62
347.535	950.62
347.763	967.62
347.99	934.62
348.218	944.62
348.445	926.62
348.673	964.62
348.9	1005.62
349.128	1022.62
349.355	1047.62
349.583	1017.62
349.81	944.62
350.037	885.62
350.265	912.62
350.492	926.62
350.72	958.62
350.947	976.62
351.174	986.62
351.402	917.62
351.629	919.62
351.856	873.62
352.083	904.62
352.311	912.62
352.538	960.62
352.765	973.62
352.992	996.62
353.22	943.62
353.447	923.62
353.674	982.62
353.901	958.62
354.128	939.62
354.355	926.62
354.583	996.62
354.81	1014.62
355.037	1010.62
355.264	1008.62
355.491	961.62
355.718	971.62
355.945	936.62
356.172	947.62
356.399	917.62
356.626	919.62
356.853	1010.62
357.08	1097.62
357.307	1192.62
357.534	1134.62
357.761	993.62
357.988	916.62
358.215	914.62
358.441	904.62
358.668	913.62
358.895	940.62
359.122	1010.62
359.349	1096.62
359.576	1057.62
359.802	958.62
360.029	903.62
360.256	916.62
360.483	948.62
360.709	947.62
360.936	987.62
361.163	1051.62
361.39	1174.62
361.616	1202.62
361.843	1187.62
362.07	1110.62
362.296	968.62
362.523	940.62
362.749	954.62
362.976	992.62
363.203	999.62
363.429	955.62
363.656	901.62
363.882	981.62
364.109	1134.62
364.335	1149.62
364.562	1078.62
364.788	1004.62
365.015	963.62
365.241	932.62
365.468	969.62
365.694	1037.62
365.92	1048.62
366.147	999.62
366.373	922.62
366.599	936.62
366.826	938.62
367.052	944.62
367.278	959.62
367.505	966.62
367.731	988.62
367.957	980.62
368.184	1060.62
368.41	1122.62
368.636	1110.62
368.862	1148.62
369.089	1121.62
369.315	1036.62
369.541	1003.62
369.767	980.62
369.993	941.62
370.219	941.62
370.445	992.62
370.672	1059.62
370.898	1112.62
371.124	1074.62
371.35	1017.62
371.576	1043.62
371.802	1086.62
372.028	1001.62
372.254	979.62
372.48	979.62
372.706	952.62
372.932	974.62
373.158	989.62
373.384	1019.62
373.61	1034.62
373.835	1067.62
374.061	993.62
374.287	1004.62
374.513	988.62
374.739	1035.62
374.965	1015.62
375.191	1043.62
375.416	1044.62
375.642	1059.62
375.868	1146.62
376.094	1181.62
376.319	1060.62
376.545	1017.62
376.771	1056.62
376.997	1126.62
377.222	1083.62
377.448	1066.62
377.674	1068.62
377.899	1077.62
378.125	1152.62
378.35	1140.62
378.576	1026.62
378.802	1005.62
379.027	973.62
379.253	1013.62
379.478	1030.62
379.704	1026.62
379.929	1027.62
380.155	1032.62
380.38	1061.62
380.606	1051.62
380.831	1055.62
381.057	1105.62
381.282	1101.62
381.507	1077.62
381.733	1127.62
381.958	1186.62
382.184	1069.62
382.409	1056.62
382.634	1064.62
382.86	1066.62
383.085	1076.62
383.31	1102.62
383.535	1188.62
383.761	1256.62
383.986	1189.62
384.211	1165.62
384.436	1154.62
384.662	1221.62
384.887	1215.62
385.112	1194.62
385.337	1178.62
385.562	1161.62
385.787	1164.62
386.013	1195.62
386.238	1193.62
386.463	1211.62
386.688	1255.62
386.913	1371.62
387.138	1312.62
387.363	1229.62
387.588	1208.62
387.813	1203.62
388.038	1210.62
388.263	1243.62
388.488	1180.62
388.713	1102.62
388.938	1090.62
389.163	1108.62
389.387	1150.62
389.612	1149.62
389.837	1182.62
390.062	1175.62
390.287	1131.62
390.512	1158.62
390.736	1144.62
390.961	1103.62
391.186	1076.62
391.411	1154.62
391.636	1161.62
391.86	1149.62
392.085	1158.62
392.31	1140.62
392.534	1132.62
392.759	1179.62
392.984	1189.62
393.208	1184.62
393.433	1219.62
393.658	1276.62
393.882	1284.62
394.107	1187.62
394.331	1159.62
394.556	1130.62
394.78	1172.62
395.005	1244.62
395.229	1282.62
395.454	1356.62
395.678	1346.62
395.903	1230.62
396.127	1228.62
396.352	1244.62
396.576	1262.62
396.801	1331.62
397.025	1298.62
397.249	1264.62
397.474	1248.62
397.698	1245.62
397.922	1290.62
398.147	1341.62
398.371	1406.62
398.595	1395.62
398.82	1364.62
399.044	1348.62
399.268	1401.62
399.492	1501.62
399.717	1551.62
399.941	1531.62
400.165	1501.62
400.389	1455.62
400.613	1500.62
400.837	1678.62
401.062	1893.62
401.286	1600.62
401.51	1466.62
401.734	1489.62
401.958	1467.62
402.182	1365.62
402.406	1317.62
402.63	1293.62
402.854	1336.62
403.078	1294.62
403.302	1323.62
403.526	1373.62
403.75	1398.62
403.974	1395.62
404.198	1403.62
404.422	1491.62
404.645	1483.62
404.869	1463.62
405.093	1365.62
405.317	1336.62
405.541	1376.62
405.765	1373.62
405.988	1379.62
406.212	1405.62
406.436	1399.62
406.66	1523.62
406.883	1522.62
407.107	1718.62
407.331	1817.62
407.555	1990.62
407.778	1780.62
408.002	1520.62
408.226	1444.62
408.449	1434.62
408.673	1410.62
408.896	1402.62
409.12	1427.62
409.344	1395.62
409.567	1379.62
409.791	1394.62
410.014	1434.62
410.238	1495.62
410.461	1592.62
410.685	1415.62
410.908	1379.62
411.132	1414.62
411.355	1393.62
411.578	1321.62
411.802	1387.62
412.025	1428.62
412.249	1357.62
412.472	1353.62
412.695	1325.62
412.919	1335.62
413.142	1376.62
413.365	1369.62
413.589	1344.62
413.812	1454.62
414.035	1476.62
414.258	1362.62
414.482	1352.62
414.705	1330.62
414.928	1318.62
415.151	1316.62
415.374	1324.62
415.597	1369.62
415.821	1381.62
416.044	1371.62
416.267	1365.62
416.49	1321.62
416.713	1318.62
416.936	1333.62
417.159	1406.62
417.382	1412.62
417.605	1305.62
417.828	1377.62
418.051	1366.62
418.274	1320.62
418.497	1309.62
418.72	1290.62
418.943	1293.62
419.166	1352.62
419.389	1390.62
419.611	1315.62
419.834	1327.62
420.057	1353.62
420.28	1312.62
420.503	1348.62
420.726	1362.62
420.948	1325.62
421.171	1272.62
421.394	1324.62
421.617	1365.62
421.839	1370.62
422.062	1349.62
422.285	1328.62
422.507	1283.62
422.73	1282.62
422.953	1242.62
423.175	1224.62
423.398	1301.62
423.621	1316.62
423.843	1336.62
424.066	1389.62
424.288	1417.62
424.511	1474.62
424.733	1428.62
424.956	1288.62
425.178	1285.62
425.401	1272.62
425.623	1299.62
425.846	1300.62
426.068	1389.62
426.291	1388.62
426.513	1377.62
426.735	1366.62
426.958	1492.62
427.18	1556.62
427.402	1403.62
427.625	1451.62
427.847	1450.62
428.069	1320.62
428.292	1293.62
428.514	1264.62
428.736	1260.62
428.958	1298.62
429.181	1311.62
429.403	1532.62
429.625	1822.62
429.847	1533.62
430.069	1355.62
430.292	1504.62
430.514	1480.62
430.736	1392.62
430.958	1445.62
431.18	1344.62
431.402	1265.62
431.624	1217.62
431.846	1248.62
432.068	1145.62
432.29	1147.62
432.512	1210.62
432.734	1265.62
432.956	1334.62
433.178	1361.62
433.4	1361.62
433.622	1368.62
433.844	1267.62
434.066	1234.62
434.287	1220.62
434.509	1245.62
434.731	1288.62
434.953	1428.62
435.175	1380.62
435.397	1303.62
435.618	1293.62
435.84	1262.62
436.062	1270.62
436.284	1336.62
436.505	1295.62
436.727	1323.62
436.949	1299.62
437.17	1285.62
437.392	1295.62
437.614	1264.62
437.835	1228.62
438.057	1274.62
438.278	1288.62
438.5	1233.62
438.721	1304.62
438.943	1284.62
439.165	1284.62
439.386	1229.62
439.608	1300.62
439.829	1264.62
440.05	1304.62
440.272	1265.62
440.493	1282.62
440.715	1299.62
440.936	1394.62
441.158	1500.62
441.379	1439.62
441.6	1391.62
441.822	1370.62
442.043	1396.62
442.264	1357.62
442.486	1312.62
442.707	1298.62
442.928	1272.62
443.149	1330.62
443.371	1413.62
443.592	1432.62
443.813	1392.62
444.034	1369.62
444.255	1397.62
444.476	1406.62
444.698	1425.62
444.919	1416.62
445.14	1500.62
445.361	1482.62
445.582	1523.62
445.803	1410.62
446.024	1387.62
446.245	1448.62
446.466	1403.62
446.687	1358.62
446.908	1433.62
447.129	1321.62
447.35	1352.62
447.571	1330.62
447.792	1291.62
448.013	1248.62
448.234	1304.62
448.455	1364.62
448.675	1371.62
448.896	1237.62
449.117	1232.62
449.338	1269.62
449.559	1342.62
449.779	1382.62
450	1469.62
450.221	1564.62
450.442	1468.62
450.662	1341.62
450.883	1189.62
451.104	1208.62
451.324	1226.62
451.545	1265.62
451.766	1207.62
451.986	1164.62
452.207	1159.62
452.428	1144.62
452.648	1117.62
452.869	1140.62
453.089	1192.62
453.31	1198.62
453.53	1201.62
453.751	1131.62
453.971	1078.62
454.192	1116.62
454.412	1170.62
454.633	1146.62
454.853	1132.62
455.073	1103.62
455.294	1107.62
455.514	1072.62
455.734	1078.62
455.955	1130.62
456.175	1125.62
456.395	1095.62
456.616	1111.62
456.836	1129.62
457.056	1136.62
457.276	1128.62
457.497	1092.62
457.717	1047.62
457.937	1060.62
458.157	1081.62
458.377	1078.62
458.598	1058.62
458.818	1056.62
459.038	1146.62
459.258	1174.62
459.478	1206.62
459.698	1141.62
459.918	1193.62
460.138	1274.62
460.358	1257.62
460.578	1282.62
460.798	1324.62
461.018	1384.62
461.238	1344.62
461.458	1278.62
461.678	1304.62
461.898	1249.62
462.118	1220.62
462.338	1260.62
462.558	1283.62
462.777	1283.62
462.997	1354.62
463.217	1398.62
463.437	1373.62
463.657	1294.62
463.876	1260.62
464.096	1261.62
464.316	1306.62
464.536	1349.62
464.755	1294.62
464.975	1306.62
465.195	1301.62
465.414	1372.62
465.634	1337.62
465.854	1358.62
466.073	1427.62
466.293	1380.62
466.512	1265.62
466.732	1252.62
466.951	1299.62
467.171	1260.62
467.391	1222.62
467.61	1228.62
467.829	1258.62
468.049	1369.62
468.268	1504.62
468.488	1414.62
468.707	1303.62
468.927	1268.62
469.146	1209.62
469.365	1245.62
469.585	1302.62
469.804	1240.62
470.023	1251.62
470.243	1273.62
470.462	1287.62
470.681	1247.62
470.901	1242.62
471.12	1268.62
471.339	1255.62
471.558	1200.62
471.777	1237.62
471.997	1232.62
472.216	1210.62
472.435	1177.62
472.654	1148.62
472.873	1177.62
473.092	1281.62
473.311	1209.62
473.53	1152.62
473.749	1151.62
473.968	1173.62
474.187	1261.62
474.406	1304.62
474.625	1241.62
474.844	1241.62
475.063	1226.62
475.282	1275.62
475.501	1229.62
475.72	1228.62
475.939	1312.62
476.158	1282.62
476.377	1237.62
476.596	1241.62
476.814	1257.62
477.033	1253.62
477.252	1300.62
477.471	1350.62
477.69	1333.62
477.908	1300.62
478.127	1352.62
478.346	1472.62
478.564	1483.62
478.783	1472.62
479.002	1466.62
479.22	1472.62
479.439	1509.62
479.658	1630.62
479.876	1558.62
480.095	1429.62
480.313	1384.62
480.532	1345.62
480.751	1296.62
480.969	1332.62
481.188	1313.62
481.406	1285.62
481.624	1256.62
481.843	1294.62
482.061	1337.62
482.28	1336.62
482.498	1398.62
482.717	1354.62
482.935	1314.62
483.153	1380.62
483.372	1416.62
483.59	1387.62
483.808	1386.62
484.027	1432.62
484.245	1478.62
484.463	1792.62
484.681	1972.62
484.9	1504.62
485.118	1408.62
485.336	1359.62
485.554	1404.62
485.772	1420.62
485.99	1432.62
486.209	1436.62
486.427	1397.62
486.645	1440.62
486.863	1443.62
487.081	1475.62
487.299	1512.62
487.517	1468.62
487.735	1495.62
487.953	1554.62
488.171	1544.62
488.389	1523.62
488.607	1531.62
488.825	1642.62
489.043	1604.62
489.261	1469.62
489.479	1528.62
489.696	1502.62
489.914	1477.62
490.132	1481.62
490.35	1515.62
490.568	1600.62
490.786	1552.62
491.003	1511.62
491.221	1552.62
491.439	1624.62
491.657	1655.62
491.874	1676.62
492.092	1733.62
492.31	1728.62
492.527	1685.62
492.745	1650.62
492.963	1690.62
493.18	1661.62
493.398	1783.62
493.615	1746.62
493.833	1642.62
494.05	1542.62
494.268	1588.62
494.485	1612.62
494.703	1594.62
494.92	1561.62
495.138	1584.62
495.355	1601.62
495.573	1654.62
495.79	1724.62
496.008	1712.62
496.225	1622.62
496.442	1611.62
496.66	1639.62
496.877	1634.62
497.094	1717.62
497.312	1689.62
497.529	1640.62
497.746	1710.62
497.963	1920.62
498.181	2029.62
498.398	1956.62
498.615	1901.62
498.832	1830.62
499.049	1768.62
499.267	1833.62
499.484	1911.62
499.701	2073.62
499.918	2068.62
500.135	2226.62
500.352	2379.62
500.569	2396.62
500.786	2589.62
501.003	2363.62
501.22	2182.62
501.437	2134.62
501.654	2150.62
501.871	2029.62
502.088	1784.62
502.305	1789.62
502.522	1750.62
502.739	1614.62
502.956	1594.62
503.172	1573.62
503.389	1556.62
503.606	1493.62
503.823	1522.62
504.04	1511.62
504.256	1491.62
504.473	1486.62
504.69	1563.62
504.907	1478.62
505.123	1424.62
505.34	1597.62
505.557	2084.62
505.773	1703.62
505.99	1405.62
506.207	1360.62
506.423	1324.62
506.64	1333.62
506.856	1344.62
507.073	1591.62
507.289	1702.62
507.506	1570.62
507.722	1359.62
507.939	1264.62
508.155	1279.62
508.372	1276.62
508.588	1246.62
508.805	1192.62
509.021	1194.62
509.238	1199.62
509.454	1154.62
509.67	1184.62
509.887	1164.62
510.103	1172.62
510.319	1209.62
510.536	1245.62
510.752	1294.62
510.968	1269.62
511.184	1306.62
511.401	1249.62
511.617	1166.62
511.833	1153.62
512.049	1117.62
512.265	1137.62
512.481	1123.62
512.698	1166.62
512.914	1249.62
513.13	1149.62
513.346	1128.62
513.562	1129.62
513.778	1157.62
513.994	1238.62
514.21	1212.62
514.426	1234.62
514.642	1357.62
514.858	1274.62
515.074	1167.62
515.29	1148.62
515.506	1195.62
515.721	1181.62
515.937	1231.62
516.153	1352.62
516.369	1251.62
516.585	1206.62
516.801	1162.62
517.016	1159.62
517.232	1211.62
517.448	1226.62
517.664	1251.62
517.879	1252.62
518.095	1297.62
518.311	1217.62
518.527	1196.62
518.742	1188.62
518.958	1145.62
519.173	1166.62
519.389	1195.62
519.605	1193.62
519.82	1216.62
520.036	1226.62
520.251	1185.62
520.467	1214.62
520.682	1316.62
520.898	1294.62
521.113	1200.62
521.329	1149.62
521.544	1233.62
521.76	1158.62
521.975	1122.62
522.19	1144.62
522.406	1128.62
522.621	1451.62
522.836	1372.62
523.052	1130.62
523.267	1113.62
523.482	1141.62
523.698	1113.62
523.913	1065.62
524.128	1165.62
524.343	1184.62
524.559	1201.62
524.774	1121.62
524.989	1101.62
525.204	1118.62
525.419	1089.62
525.634	1075.62
525.849	1092.62
526.064	1076.62
526.28	1080.62
526.495	1041.62
526.71	1040.62
526.925	984.62
527.14	1005.62
527.355	973.62
527.57	1002.62
527.785	1044.62
527.999	1027.62
528.214	972.62
528.429	1010.62
528.644	1020.62
528.859	1082.62
529.074	1101.62
529.289	1130.62
529.503	1136.62
529.718	1083.62
529.933	1047.62
530.148	987.62
530.363	1006.62
530.577	1037.62
530.792	1018.62
531.007	1038.62
531.221	999.62
531.436	1010.62
531.651	1078.62
531.865	1117.62
532.08	1036.62
532.295	984.62
532.509	964.62
532.724	967.62
532.938	1017.62
533.153	1127.62
533.367	1082.62
533.582	1054.62
533.796	1036.62
534.011	1057.62
534.225	1014.62
534.44	980.62
534.654	968.62
534.868	979.62
535.083	1057.62
535.297	1062.62
535.511	1030.62
535.726	1031.62
535.94	1028.62
536.154	1008.62
536.369	974.62
536.583	951.62
536.797	944.62
537.011	990.62
537.225	958.62
537.44	915.62
537.654	1005.62
537.868	990.62
538.082	909.62
538.296	916.62
538.51	941.62
538.724	961.62
538.938	1004.62
539.153	1056.62
539.367	990.62
539.581	983.62
539.795	1000.62
540.009	985.62
540.222	949.62
540.436	989.62
540.65	1089.62
540.864	1139.62
541.078	1105.62
541.292	1061.62
541.506	1074.62
541.72	1172.62
541.934	1179.62
542.147	1203.62
542.361	1152.62
542.575	1110.62
542.789	1036.62
543.002	974.62
543.216	999.62
543.43	1008.62
543.644	1078.62
543.857	1161.62
544.071	1123.62
544.285	1136.62
544.498	1092.62
544.712	1100.62
544.925	1130.62
545.139	1140.62
545.352	1079.62
545.566	1099.62
545.779	1079.62
545.993	1096.62
546.206	1110.62
546.42	1098.62
546.633	1062.62
546.847	1090.62
547.06	1102.62
547.274	1080.62
547.487	1125.62
547.7	1156.62
547.914	1091.62
548.127	1131.62
548.34	1116.62
548.554	1090.62
548.767	1090.62
548.98	1065.62
549.193	1071.62
549.407	1107.62
549.62	1163.62
549.833	1072.62
550.046	1081.62
550.259	1081.62
550.473	1045.62
550.686	1035.62
550.899	1027.62
551.112	1021.62
551.325	1004.62
551.538	1083.62
551.751	1180.62
551.964	962.62
552.177	942.62
552.39	988.62
552.603	1012.62
552.816	1037.62
553.029	1098.62
553.242	1092.62
553.455	1054.62
553.667	1067.62
553.88	1063.62
554.093	1041.62
554.306	1006.62
554.519	1001.62
554.732	1003.62
554.944	975.62
555.157	982.62
555.37	974.62
555.583	947.62
555.795	929.62
556.008	918.62
556.221	897.62
556.433	884.62
556.646	897.62
556.859	904.62
557.071	887.62
557.284	867.62
557.496	906.62
557.709	893.62
557.921	883.62
558.134	885.62
558.346	872.62
558.559	873.62
558.771	874.62
558.984	825.62
559.196	835.62
559.409	828.62
559.621	824.62
559.833	824.62
560.046	854.62
560.258	861.62
560.47	849.62
560.683	827.62
560.895	844.62
561.107	856.62
561.32	841.62
561.532	825.62
561.744	855.62
561.956	861.62
562.168	824.62
562.381	789.62
562.593	807.62
562.805	810.62
563.017	774.62
563.229	798.62
563.441	832.62
563.653	810.62
563.865	787.62
564.077	780.62
564.289	782.62
564.501	802.62
564.713	834.62
564.925	885.62
565.137	915.62
565.349	828.62
565.561	834.62
565.773	833.62
565.985	839.62
566.197	865.62
566.408	909.62
566.62	908.62
566.832	921.62
567.044	912.62
567.255	900.62
567.467	932.62
567.679	923.62
567.891	912.62
568.102	903.62
568.314	857.62
568.526	800.62
568.737	794.62
568.949	752.62
569.161	732.62
569.372	674.62
569.584	713.62
569.795	726.62
570.007	694.62
570.218	664.62
570.43	675.62
570.641	661.62
570.853	666.62
571.064	691.62
571.276	680.62
571.487	679.62
571.698	664.62
571.91	645.62
572.121	640.62
572.333	639.62
572.544	617.62
572.755	604.62
572.966	580.62
573.178	577.62
573.389	595.62
573.6	609.62
573.811	644.62
574.023	594.62
574.234	580.62
574.445	577.62
574.656	551.62
574.867	552.62
575.078	586.62
575.289	599.62
575.501	552.62
575.712	568.62
575.923	568.62
576.134	580.62
576.345	570.62
576.556	553.62
576.767	548.62
576.978	540.62
577.188	553.62
577.399	508.62
577.61	521.62
577.821	531.62
578.032	522.62
578.243	525.62
578.454	536.62
578.665	518.62
578.875	501.62
579.086	504.62
579.297	487.62
579.508	518.62
579.718	512.62
579.929	526.62
580.14	491.62
580.35	472.62
580.561	512.62
580.772	588.62
580.982	527.62
581.193	498.62
581.403	485.62
581.614	484.62
581.825	520.62
582.035	477.62
582.246	471.62
582.456	498.62
582.667	499.62
582.877	477.62
583.087	477.62
583.298	485.62
583.508	476.62
583.719	483.62
583.929	495.62
584.139	488.62
584.35	463.62
584.56	468.62
584.77	492.62
584.981	483.62
585.191	484.62
585.401	506.62
585.611	477.62
585.821	450.62
586.032	472.62
586.242	464.62
586.452	468.62
586.662	465.62
586.872	470.62
587.082	451.62
587.292	466.62
587.502	463.62
587.713	475.62
587.923	474.62
588.133	475.62
588.343	458.62
588.553	444.62
588.762	472.62
588.972	442.62
589.182	456.62
589.392	459.62
589.602	468.62
589.812	460.62
590.022	458.62
590.232	441.62
590.441	462.62
590.651	483.62
590.861	462.62
591.071	437.62
591.281	461.62
591.49	457.62
591.7	444.62
591.91	459.62
592.119	441.62
592.329	462.62
592.539	480.62
592.748	482.62
592.958	467.62
593.167	470.62
593.377	478.62
593.587	455.62
593.796	465.62
594.006	469.62
594.215	472.62
594.424	475.62
594.634	470.62
594.843	485.62
595.053	505.62
595.262	480.62
595.472	454.62
595.681	471.62
595.89	442.62
596.1	444.62
596.309	425.62
596.518	452.62
596.727	429.62
596.937	453.62
597.146	435.62
597.355	455.62
597.564	402.62
597.774	400.62
597.983	396.62
598.192	407.62
598.401	381.62
598.61	382.62
598.819	393.62
599.028	405.62
599.237	414.62
599.446	390.62
599.655	412.62
599.864	378.62
600.073	401.62
600.282	402.62
600.491	373.62
600.7	393.62
600.909	406.62
601.118	406.62
601.327	421.62
601.536	423.62
601.745	423.62
601.953	408.62
602.162	432.62
602.371	429.62
602.58	415.62
602.789	418.62
602.997	418.62
603.206	403.62
603.415	410.62
603.623	390.62
603.832	417.62
604.041	413.62
604.249	399.62
604.458	388.62
604.666	390.62
604.875	395.62
605.084	389.62
605.292	406.62
605.501	427.62
605.709	402.62
605.918	425.62
606.126	408.62
606.334	404.62
606.543	409.62
606.751	411.62
606.96	433.62
607.168	399.62
607.376	408.62
607.585	399.62
607.793	415.62
608.001	410.62
608.21	408.62
608.418	430.62
608.626	385.62
608.834	411.62
609.043	409.62
609.251	405.62
609.459	398.62
609.667	397.62
609.875	412.62
610.083	424.62
610.291	442.62
610.499	408.62
610.707	396.62
610.916	401.62
611.124	418.62
611.332	403.62
611.54	402.62
611.748	402.62
611.955	419.62
612.163	388.62
612.371	393.62
612.579	429.62
612.787	404.62
612.995	404.62
613.203	400.62
613.411	393.62
613.618	408.62
613.826	396.62
614.034	389.62
614.242	382.62
614.449	405.62
614.657	401.62
614.865	400.62
615.072	389.62
615.28	403.62
615.488	399.62
615.695	417.62
615.903	418.62
616.111	402.62
616.318	406.62
616.526	402.62
616.733	393.62
616.941	405.62
617.148	394.62
617.356	396.62
617.563	370.62
617.771	385.62
617.978	381.62
618.185	372.62
618.393	369.62
618.6	383.62
618.807	391.62
619.015	378.62
619.222	385.62
619.429	388.62
619.637	352.62
619.844	349.62
620.051	361.62
620.258	365.62
620.466	378.62
620.673	355.62
620.88	348.62
621.087	350.62
621.294	344.62
621.501	355.62
621.708	349.62
621.915	372.62
622.122	348.62
622.329	372.62
622.536	357.62
622.743	364.62
622.95	354.62
623.157	341.62
623.364	356.62
623.571	365.62
623.778	364.62
623.985	348.62
624.192	353.62
624.399	353.62
624.606	349.62
624.812	334.62
625.019	322.62
625.226	326.62
625.433	338.62
625.639	330.62
625.846	310.62
626.053	314.62
626.259	296.62
626.466	313.62
626.673	290.62
626.879	296.62
627.086	302.62
627.293	331.62
627.499	319.62
627.706	306.62
627.912	339.62
628.119	348.62
628.325	328.62
628.532	330.62
628.738	326.62
628.945	331.62
629.151	314.62
629.357	322.62
629.564	319.62
629.77	318.62
629.976	300.62
630.183	312.62
630.389	317.62
630.595	322.62
630.802	301.62
631.008	318.62
631.214	313.62
631.42	309.62
631.627	315.62
631.833	290.62
632.039	288.62
632.245	298.62
632.451	290.62
632.657	290.62
632.863	288.62
633.069	304.62
633.275	308.62
633.481	282.62
633.688	286.62
633.893	273.62
634.099	271.62
634.305	281.62
634.511	289.62
634.717	277.62
634.923	279.62
635.129	278.62
635.335	281.62
635.541	249.62
635.747	296.62
635.952	285.62
636.158	281.62
636.364	297.62
636.57	307.62
636.775	274.62
636.981	260.62
637.187	286.62
637.392	283.62
637.598	276.62
637.804	280.62
638.009	286.62
638.215	270.62
638.421	267.62
638.626	291.62
638.832	269.62
639.037	276.62
639.243	268.62
639.448	269.62
639.654	270.62
639.859	270.62
640.065	273.62
640.27	275.62
640.475	265.62
640.681	272.62
640.886	262.62
641.091	269.62
641.297	266.62
641.502	269.62
641.707	264.62
641.913	272.62
642.118	274.62
642.323	258.62
642.528	275.62
642.733	262.62
642.939	265.62
643.144	263.62
643.349	269.62
643.554	249.62
643.759	268.62
643.964	267.62
644.169	283.62
644.374	262.62
644.579	284.62
644.784	256.62
644.989	254.62
645.194	264.62
645.399	260.62
645.604	269.62
645.809	266.62
646.014	237.62
646.219	244.62
646.423	260.62
646.628	264.62
646.833	256.62
647.038	248.62
647.243	244.62
647.447	277.62
647.652	267.62
647.857	268.62
648.062	278.62
648.266	262.62
648.471	262.62
648.676	264.62
648.88	272.62
649.085	268.62
649.289	249.62
649.494	244.62
649.698	261.62
649.903	250.62
650.107	259.62
650.312	255.62
650.516	246.62
650.721	248.62
650.925	260.62
651.13	233.62
651.334	254.62
651.539	251.62
651.743	234.62
651.947	240.62
652.152	227.62
652.356	238.62
652.56	236.62
652.764	232.62
652.969	216.62
653.173	219.62
653.377	236.62
653.581	231.62
653.785	215.62
653.99	216.62
654.194	222.62
654.398	215.62
654.602	205.62
654.806	222.62
655.01	227.62
655.214	216.62
655.418	215.62
655.622	227.62
655.826	229.62
656.03	227.62
656.234	242.62
656.438	256.62
656.642	261.62
656.846	230.62
657.049	232.62
657.253	224.62
657.457	188.62
657.661	193.62
657.865	177.62
658.068	179.62
658.272	169.62
658.476	170.62
658.68	152.62
658.883	155.62
659.087	135.62
659.291	154.62
659.494	138.62
659.698	129.62
659.901	136.62
660.105	124.62
660.309	108.62
660.512	132.62
660.716	128.62
660.919	127.62
661.123	114.62
661.326	102.62
661.53	103.62
661.733	105.62
661.936	96.62
662.14	100.62
662.343	99.62
662.546	94.62
662.75	104.62
662.953	91.62
663.156	90.62
663.36	83.62
663.563	94.62
663.766	92.62
663.969	94.62
664.173	93.62
664.376	94.62
664.579	99.62
664.782	83.62
664.985	76.62
665.188	80.62
665.391	82.62
665.594	78.62
665.797	88.62
666	69.62
666.203	76.62
666.406	80.62
666.609	84.62
666.812	82.62
667.015	95.62
667.218	73.62
667.421	92.62
667.624	78.62
667.827	73.62
668.03	80.62
668.232	93.62
668.435	84.62
668.638	81.62
668.841	77.62
669.043	82.62
669.246	84.62
669.449	85.62
669.651	88.62
669.854	86.62
670.057	85.62
670.259	78.62
670.462	92.62
670.665	86.62
670.867	78.62
671.07	88.62
671.272	77.62
671.475	82.62
671.677	81.62
671.88	79.62
672.082	93.62
672.284	70.62
672.487	85.62
672.689	84.62
672.892	84.62
