Data from WStandard_LampEnergy10_LIBS07252019.E.O._I.C._HRD10591_15-53-57-928.txt Node
Date: Thu Jul 25 15:53:57 EDT 2019
User: cochatt
Spectrometer: HR+D1059
Trigger mode: 1
Integration Time (sec): 1.000000E-1
Scans to average: 1
Electric dark correction enabled: true
Nonlinearity correction enabled: false
Boxcar width: 0
XAxis mode: Wavelengths
Number of Pixels in Spectrum: 2048
>>>>>Begin Spectral Data<<<<<
223.165	-28.31
223.4	-28.31
223.635	-28.31
223.869	-23.31
224.104	-22.31
224.338	-14.31
224.573	-7.31
224.808	-10.31
225.042	-0.31
225.277	-3.31
225.511	-12.31
225.746	-1.31
225.98	12.69
226.215	19.69
226.449	3.69
226.683	26.69
226.918	25.69
227.152	34.69
227.387	21.69
227.621	41.69
227.856	29.69
228.09	36.69
228.324	66.69
228.559	48.69
228.793	98.69
229.027	146.69
229.262	140.69
229.496	148.69
229.73	146.69
229.964	177.69
230.199	180.69
230.433	178.69
230.667	188.69
230.901	177.69
231.136	178.69
231.37	178.69
231.604	180.69
231.838	175.69
232.072	166.69
232.306	166.69
232.541	185.69
232.775	189.69
233.009	200.69
233.243	202.69
233.477	183.69
233.711	204.69
233.945	209.69
234.179	196.69
234.413	234.69
234.647	218.69
234.881	210.69
235.115	188.69
235.349	189.69
235.583	200.69
235.817	187.69
236.051	203.69
236.285	203.69
236.519	191.69
236.753	229.69
236.987	221.69
237.221	212.69
237.455	228.69
237.689	246.69
237.922	208.69
238.156	221.69
238.39	219.69
238.624	223.69
238.858	253.69
239.091	256.69
239.325	267.69
239.559	301.69
239.793	296.69
240.027	321.69
240.26	298.69
240.494	228.69
240.728	231.69
240.961	228.69
241.195	242.69
241.429	258.69
241.662	256.69
241.896	250.69
242.13	244.69
242.363	277.69
242.597	289.69
242.83	277.69
243.064	287.69
243.298	307.69
243.531	278.69
243.765	279.69
243.998	278.69
244.232	261.69
244.465	243.69
244.699	254.69
244.932	287.69
245.166	329.69
245.399	318.69
245.633	273.69
245.866	281.69
246.099	292.69
246.333	298.69
246.566	297.69
246.8	308.69
247.033	329.69
247.266	309.69
247.5	309.69
247.733	325.69
247.966	332.69
248.2	357.69
248.433	361.69
248.666	387.69
248.899	390.69
249.133	437.69
249.366	466.69
249.599	394.69
249.832	369.69
250.066	375.69
250.299	363.69
250.532	352.69
250.765	341.69
250.998	335.69
251.231	354.69
251.465	373.69
251.698	324.69
251.931	344.69
252.164	349.69
252.397	346.69
252.63	372.69
252.863	324.69
253.096	315.69
253.329	357.69
253.562	376.69
253.795	363.69
254.028	356.69
254.261	343.69
254.494	344.69
254.727	348.69
254.96	365.69
255.193	379.69
255.426	402.69
255.659	466.69
255.892	450.69
256.124	396.69
256.357	407.69
256.59	408.69
256.823	409.69
257.056	454.69
257.289	487.69
257.521	507.69
257.754	459.69
257.987	452.69
258.22	484.69
258.452	454.69
258.685	386.69
258.918	410.69
259.151	392.69
259.383	370.69
259.616	363.69
259.849	382.69
260.081	424.69
260.314	415.69
260.547	471.69
260.779	496.69
261.012	437.69
261.244	405.69
261.477	394.69
261.71	438.69
261.942	419.69
262.175	394.69
262.407	414.69
262.64	378.69
262.872	363.69
263.105	370.69
263.337	384.69
263.57	374.69
263.802	384.69
264.035	355.69
264.267	334.69
264.499	345.69
264.732	376.69
264.964	410.69
265.197	398.69
265.429	424.69
265.661	452.69
265.894	492.69
266.126	491.69
266.358	470.69
266.591	453.69
266.823	521.69
267.055	462.69
267.287	445.69
267.52	445.69
267.752	461.69
267.984	443.69
268.216	452.69
268.448	478.69
268.681	473.69
268.913	429.69
269.145	418.69
269.377	429.69
269.609	484.69
269.841	518.69
270.073	575.69
270.306	644.69
270.538	642.69
270.77	566.69
271.002	468.69
271.234	474.69
271.466	485.69
271.698	530.69
271.93	585.69
272.162	582.69
272.394	541.69
272.626	513.69
272.858	451.69
273.09	424.69
273.322	412.69
273.553	409.69
273.785	409.69
274.017	444.69
274.249	449.69
274.481	424.69
274.713	418.69
274.945	415.69
275.176	411.69
275.408	418.69
275.64	417.69
275.872	406.69
276.104	434.69
276.335	492.69
276.567	550.69
276.799	527.69
277.031	502.69
277.262	473.69
277.494	481.69
277.726	520.69
277.957	512.69
278.189	459.69
278.421	435.69
278.652	451.69
278.884	438.69
279.115	434.69
279.347	450.69
279.579	439.69
279.81	460.69
280.042	500.69
280.273	542.69
280.505	516.69
280.736	521.69
280.968	481.69
281.199	458.69
281.431	429.69
281.662	428.69
281.894	410.69
282.125	440.69
282.356	463.69
282.588	468.69
282.819	477.69
283.051	498.69
283.282	514.69
283.513	483.69
283.745	434.69
283.976	441.69
284.207	419.69
284.439	456.69
284.67	467.69
284.901	467.69
285.132	467.69
285.364	433.69
285.595	452.69
285.826	441.69
286.057	452.69
286.288	445.69
286.52	460.69
286.751	510.69
286.982	524.69
287.213	469.69
287.444	436.69
287.675	441.69
287.906	498.69
288.138	486.69
288.369	460.69
288.6	440.69
288.831	449.69
289.062	454.69
289.293	453.69
289.524	449.69
289.755	471.69
289.986	461.69
290.217	427.69
290.448	419.69
290.679	484.69
290.91	468.69
291.141	472.69
291.371	461.69
291.602	498.69
291.833	491.69
292.064	472.69
292.295	499.69
292.526	488.69
292.757	508.69
292.987	465.69
293.218	488.69
293.449	540.69
293.68	578.69
293.91	590.69
294.141	577.69
294.372	546.69
294.603	562.69
294.833	570.69
295.064	554.69
295.295	503.69
295.525	470.69
295.756	480.69
295.987	428.69
296.217	462.69
296.448	472.69
296.679	460.69
296.909	460.69
297.14	456.69
297.37	480.69
297.601	514.69
297.831	522.69
298.062	512.69
298.292	475.69
298.523	485.69
298.753	480.69
298.984	489.69
299.214	510.69
299.445	497.69
299.675	509.69
299.905	487.69
300.136	484.69
300.366	469.69
300.597	460.69
300.827	470.69
301.057	474.69
301.288	486.69
301.518	528.69
301.748	530.69
301.979	534.69
302.209	558.69
302.439	562.69
302.669	597.69
302.9	531.69
303.13	522.69
303.36	512.69
303.59	509.69
303.82	541.69
304.051	518.69
304.281	508.69
304.511	537.69
304.741	557.69
304.971	635.69
305.201	638.69
305.431	571.69
305.661	480.69
305.891	461.69
306.121	471.69
306.352	473.69
306.582	490.69
306.812	542.69
307.042	560.69
307.272	602.69
307.502	613.69
307.731	625.69
307.961	658.69
308.191	598.69
308.421	542.69
308.651	485.69
308.881	494.69
309.111	490.69
309.341	502.69
309.571	491.69
309.8	503.69
310.03	498.69
310.26	526.69
310.49	497.69
310.72	504.69
310.949	534.69
311.179	525.69
311.409	515.69
311.639	496.69
311.868	509.69
312.098	522.69
312.328	508.69
312.557	520.69
312.787	509.69
313.017	526.69
313.246	526.69
313.476	526.69
313.706	543.69
313.935	544.69
314.165	529.69
314.394	560.69
314.624	608.69
314.853	631.69
315.083	624.69
315.312	643.69
315.542	603.69
315.771	532.69
316.001	562.69
316.23	589.69
316.46	566.69
316.689	574.69
316.919	547.69
317.148	516.69
317.377	555.69
317.607	561.69
317.836	634.69
318.065	634.69
318.295	629.69
318.524	597.69
318.753	581.69
318.983	569.69
319.212	567.69
319.441	570.69
319.67	558.69
319.9	584.69
320.129	589.69
320.358	633.69
320.587	627.69
320.816	630.69
321.046	614.69
321.275	589.69
321.504	624.69
321.733	630.69
321.962	596.69
322.191	568.69
322.42	556.69
322.649	524.69
322.878	565.69
323.108	574.69
323.337	586.69
323.566	585.69
323.795	582.69
324.024	591.69
324.253	579.69
324.482	582.69
324.71	547.69
324.939	544.69
325.168	568.69
325.397	571.69
325.626	582.69
325.855	583.69
326.084	545.69
326.313	592.69
326.542	581.69
326.77	587.69
326.999	564.69
327.228	560.69
327.457	541.69
327.686	542.69
327.914	563.69
328.143	557.69
328.372	549.69
328.6	553.69
328.829	571.69
329.058	537.69
329.287	562.69
329.515	571.69
329.744	582.69
329.972	617.69
330.201	640.69
330.43	644.69
330.658	598.69
330.887	615.69
331.115	598.69
331.344	620.69
331.572	609.69
331.801	582.69
332.03	612.69
332.258	611.69
332.486	594.69
332.715	609.69
332.943	593.69
333.172	619.69
333.4	634.69
333.629	641.69
333.857	697.69
334.085	752.69
334.314	807.69
334.542	841.69
334.771	774.69
334.999	695.69
335.227	654.69
335.455	662.69
335.684	665.69
335.912	660.69
336.14	666.69
336.369	635.69
336.597	603.69
336.825	606.69
337.053	615.69
337.281	669.69
337.51	710.69
337.738	695.69
337.966	648.69
338.194	611.69
338.422	612.69
338.65	588.69
338.878	602.69
339.106	580.69
339.334	590.69
339.562	570.69
339.79	591.69
340.018	621.69
340.246	661.69
340.474	634.69
340.702	606.69
340.93	634.69
341.158	612.69
341.386	614.69
341.614	618.69
341.842	616.69
342.07	607.69
342.298	606.69
342.526	602.69
342.754	589.69
342.981	597.69
343.209	581.69
343.437	608.69
343.665	619.69
343.893	637.69
344.12	646.69
344.348	647.69
344.576	628.69
344.804	571.69
345.031	612.69
345.259	594.69
345.487	584.69
345.714	581.69
345.942	550.69
346.17	580.69
346.397	586.69
346.625	573.69
346.853	528.69
347.08	536.69
347.308	549.69
347.535	590.69
347.763	576.69
347.99	546.69
348.218	560.69
348.445	571.69
348.673	568.69
348.9	608.69
349.128	604.69
349.355	602.69
349.583	602.69
349.81	562.69
350.037	546.69
350.265	544.69
350.492	532.69
350.72	589.69
350.947	603.69
351.174	588.69
351.402	567.69
351.629	537.69
351.856	534.69
352.083	524.69
352.311	565.69
352.538	584.69
352.765	587.69
352.992	573.69
353.22	550.69
353.447	545.69
353.674	570.69
353.901	581.69
354.128	553.69
354.355	586.69
354.583	586.69
354.81	585.69
355.037	585.69
355.264	574.69
355.491	594.69
355.718	586.69
355.945	561.69
356.172	563.69
356.399	572.69
356.626	564.69
356.853	592.69
357.08	646.69
357.307	690.69
357.534	621.69
357.761	594.69
357.988	562.69
358.215	561.69
358.441	569.69
358.668	529.69
358.895	556.69
359.122	605.69
359.349	662.69
359.576	621.69
359.802	560.69
360.029	566.69
360.256	570.69
360.483	569.69
360.709	593.69
360.936	596.69
361.163	633.69
361.39	690.69
361.616	726.69
361.843	684.69
362.07	647.69
362.296	576.69
362.523	566.69
362.749	572.69
362.976	592.69
363.203	591.69
363.429	541.69
363.656	568.69
363.882	582.69
364.109	664.69
364.335	676.69
364.562	634.69
364.788	607.69
365.015	570.69
365.241	536.69
365.468	580.69
365.694	610.69
365.92	609.69
366.147	580.69
366.373	551.69
366.599	577.69
366.826	569.69
367.052	578.69
367.278	584.69
367.505	601.69
367.731	599.69
367.957	611.69
368.184	637.69
368.41	680.69
368.636	713.69
368.862	682.69
369.089	670.69
369.315	646.69
369.541	611.69
369.767	606.69
369.993	605.69
370.219	595.69
370.445	604.69
370.672	659.69
370.898	682.69
371.124	641.69
371.35	640.69
371.576	658.69
371.802	685.69
372.028	621.69
372.254	626.69
372.48	585.69
372.706	626.69
372.932	600.69
373.158	624.69
373.384	662.69
373.61	638.69
373.835	645.69
374.061	634.69
374.287	640.69
374.513	635.69
374.739	676.69
374.965	632.69
375.191	677.69
375.416	637.69
375.642	666.69
375.868	734.69
376.094	705.69
376.319	688.69
376.545	627.69
376.771	675.69
376.997	714.69
377.222	684.69
377.448	667.69
377.674	665.69
377.899	666.69
378.125	718.69
378.35	705.69
378.576	650.69
378.802	628.69
379.027	641.69
379.253	640.69
379.478	629.69
379.704	645.69
379.929	633.69
380.155	680.69
380.38	660.69
380.606	661.69
380.831	690.69
381.057	701.69
381.282	670.69
381.507	701.69
381.733	767.69
381.958	778.69
382.184	702.69
382.409	663.69
382.634	664.69
382.86	686.69
383.085	688.69
383.31	717.69
383.535	792.69
383.761	811.69
383.986	768.69
384.211	719.69
384.436	739.69
384.662	788.69
384.887	777.69
385.112	770.69
385.337	754.69
385.562	760.69
385.787	742.69
386.013	792.69
386.238	782.69
386.463	810.69
386.688	831.69
386.913	878.69
387.138	818.69
387.363	804.69
387.588	774.69
387.813	784.69
388.038	807.69
388.263	833.69
388.488	764.69
388.713	736.69
388.938	743.69
389.163	734.69
389.387	747.69
389.612	727.69
389.837	744.69
390.062	759.69
390.287	773.69
390.512	748.69
390.736	753.69
390.961	741.69
391.186	729.69
391.411	752.69
391.636	779.69
391.86	768.69
392.085	774.69
392.31	762.69
392.534	769.69
392.759	760.69
392.984	772.69
393.208	778.69
393.433	819.69
393.658	808.69
393.882	832.69
394.107	796.69
394.331	760.69
394.556	771.69
394.78	807.69
395.005	813.69
395.229	855.69
395.454	864.69
395.678	883.69
395.903	831.69
396.127	811.69
396.352	838.69
396.576	831.69
396.801	828.69
397.025	835.69
397.249	844.69
397.474	839.69
397.698	825.69
397.922	861.69
398.147	895.69
398.371	908.69
398.595	929.69
398.82	886.69
399.044	907.69
399.268	949.69
399.492	966.69
399.717	1004.69
399.941	1003.69
400.165	962.69
400.389	967.69
400.613	998.69
400.837	1129.69
401.062	1188.69
401.286	1053.69
401.51	1000.69
401.734	1004.69
401.958	966.69
402.182	916.69
402.406	889.69
402.63	892.69
402.854	884.69
403.078	894.69
403.302	893.69
403.526	919.69
403.75	938.69
403.974	946.69
404.198	955.69
404.422	993.69
404.645	1020.69
404.869	965.69
405.093	926.69
405.317	910.69
405.541	946.69
405.765	949.69
405.988	938.69
406.212	971.69
406.436	972.69
406.66	1020.69
406.883	1028.69
407.107	1144.69
407.331	1238.69
407.555	1268.69
407.778	1158.69
408.002	1010.69
408.226	938.69
408.449	965.69
408.673	930.69
408.896	944.69
409.12	968.69
409.344	974.69
409.567	921.69
409.791	955.69
410.014	971.69
410.238	1036.69
410.461	1057.69
410.685	972.69
410.908	962.69
411.132	930.69
411.355	963.69
411.578	953.69
411.802	951.69
412.025	953.69
412.249	969.69
412.472	934.69
412.695	935.69
412.919	908.69
413.142	929.69
413.365	935.69
413.589	953.69
413.812	1009.69
414.035	1040.69
414.258	953.69
414.482	920.69
414.705	940.69
414.928	964.69
415.151	915.69
415.374	924.69
415.597	941.69
415.821	915.69
416.044	962.69
416.267	943.69
416.49	913.69
416.713	964.69
416.936	980.69
417.159	982.69
417.382	987.69
417.605	936.69
417.828	952.69
418.051	948.69
418.274	931.69
418.497	931.69
418.72	952.69
418.943	950.69
419.166	951.69
419.389	984.69
419.611	961.69
419.834	970.69
420.057	964.69
420.28	931.69
420.503	964.69
420.726	954.69
420.948	952.69
421.171	914.69
421.394	941.69
421.617	972.69
421.839	1014.69
422.062	993.69
422.285	952.69
422.507	960.69
422.73	893.69
422.953	896.69
423.175	884.69
423.398	931.69
423.621	926.69
423.843	954.69
424.066	993.69
424.288	1016.69
424.511	1044.69
424.733	1042.69
424.956	952.69
425.178	934.69
425.401	955.69
425.623	940.69
425.846	939.69
426.068	981.69
426.291	958.69
426.513	947.69
426.735	984.69
426.958	1072.69
427.18	1062.69
427.402	1000.69
427.625	1018.69
427.847	1006.69
428.069	914.69
428.292	937.69
428.514	921.69
428.736	907.69
428.958	929.69
429.181	944.69
429.403	1091.69
429.625	1243.69
429.847	1060.69
430.069	969.69
430.292	1062.69
430.514	1008.69
430.736	994.69
430.958	992.69
431.18	953.69
431.402	916.69
431.624	845.69
431.846	810.69
432.068	709.69
432.29	764.69
432.512	796.69
432.734	911.69
432.956	914.69
433.178	971.69
433.4	972.69
433.622	958.69
433.844	904.69
434.066	842.69
434.287	808.69
434.509	771.69
434.731	823.69
434.953	897.69
435.175	954.69
435.397	927.69
435.618	907.69
435.84	844.69
436.062	859.69
436.284	892.69
436.505	936.69
436.727	974.69
436.949	918.69
437.17	927.69
437.392	905.69
437.614	857.69
437.835	820.69
438.057	827.69
438.278	842.69
438.5	862.69
438.721	909.69
438.943	954.69
439.165	929.69
439.386	939.69
439.608	958.69
439.829	979.69
440.05	949.69
440.272	948.69
440.493	949.69
440.715	967.69
440.936	1040.69
441.158	1073.69
441.379	1048.69
441.6	1029.69
441.822	1006.69
442.043	1009.69
442.264	1003.69
442.486	944.69
442.707	953.69
442.928	985.69
443.149	965.69
443.371	1026.69
443.592	1035.69
443.813	1018.69
444.034	1021.69
444.255	1019.69
444.476	1012.69
444.698	1039.69
444.919	1065.69
445.14	1130.69
445.361	1098.69
445.582	1108.69
445.803	1096.69
446.024	1066.69
446.245	1088.69
446.466	1083.69
446.687	1052.69
446.908	1086.69
447.129	1020.69
447.35	1032.69
447.571	1008.69
447.792	965.69
448.013	987.69
448.234	990.69
448.455	1012.69
448.675	972.69
448.896	932.69
449.117	933.69
449.338	934.69
449.559	976.69
449.779	1001.69
450	1042.69
450.221	1056.69
450.442	1026.69
450.662	962.69
450.883	905.69
451.104	906.69
451.324	893.69
451.545	884.69
451.766	888.69
451.986	853.69
452.207	839.69
452.428	818.69
452.648	811.69
452.869	789.69
453.089	789.69
453.31	765.69
453.53	765.69
453.751	728.69
453.971	707.69
454.192	736.69
454.412	788.69
454.633	790.69
454.853	813.69
455.073	761.69
455.294	754.69
455.514	744.69
455.734	749.69
455.955	762.69
456.175	736.69
456.395	756.69
456.616	756.69
456.836	747.69
457.056	754.69
457.276	751.69
457.497	710.69
457.717	718.69
457.937	715.69
458.157	718.69
458.377	730.69
458.598	701.69
458.818	681.69
459.038	672.69
459.258	739.69
459.478	706.69
459.698	712.69
459.918	737.69
460.138	799.69
460.358	866.69
460.578	842.69
460.798	866.69
461.018	902.69
461.238	892.69
461.458	856.69
461.678	845.69
461.898	813.69
462.118	804.69
462.338	861.69
462.558	869.69
462.777	877.69
462.997	862.69
463.217	888.69
463.437	914.69
463.657	866.69
463.876	838.69
464.096	866.69
464.316	868.69
464.536	884.69
464.755	901.69
464.975	916.69
465.195	888.69
465.414	894.69
465.634	883.69
465.854	905.69
466.073	995.69
466.293	954.69
466.512	883.69
466.732	886.69
466.951	905.69
467.171	913.69
467.391	885.69
467.61	885.69
467.829	909.69
468.049	977.69
468.268	1028.69
468.488	965.69
468.707	940.69
468.927	949.69
469.146	901.69
469.365	895.69
469.585	939.69
469.804	932.69
470.023	960.69
470.243	956.69
470.462	965.69
470.681	924.69
470.901	937.69
471.12	951.69
471.339	940.69
471.558	924.69
471.777	932.69
471.997	882.69
472.216	866.69
472.435	791.69
472.654	777.69
472.873	787.69
473.092	854.69
473.311	831.69
473.53	844.69
473.749	826.69
473.968	867.69
474.187	855.69
474.406	869.69
474.625	872.69
474.844	897.69
475.063	909.69
475.282	857.69
475.501	848.69
475.72	854.69
475.939	904.69
476.158	895.69
476.377	874.69
476.596	856.69
476.814	822.69
477.033	838.69
477.252	866.69
477.471	917.69
477.69	954.69
477.908	950.69
478.127	994.69
478.346	1037.69
478.564	1016.69
478.783	998.69
479.002	1026.69
479.22	1016.69
479.439	1053.69
479.658	1080.69
479.876	994.69
480.095	915.69
480.313	896.69
480.532	889.69
480.751	858.69
480.969	837.69
481.188	807.69
481.406	818.69
481.624	783.69
481.843	769.69
482.061	839.69
482.28	882.69
482.498	918.69
482.717	868.69
482.935	877.69
483.153	1011.69
483.372	1044.69
483.59	1025.69
483.808	996.69
484.027	980.69
484.245	985.69
484.463	1226.69
484.681	1304.69
484.9	1051.69
485.118	973.69
485.336	938.69
485.554	912.69
485.772	892.69
485.99	880.69
486.209	925.69
486.427	932.69
486.645	924.69
486.863	996.69
487.081	1074.69
487.299	1022.69
487.517	1017.69
487.735	1115.69
487.953	1196.69
488.171	1199.69
488.389	1156.69
488.607	1075.69
488.825	1108.69
489.043	1068.69
489.261	976.69
489.479	1034.69
489.696	1059.69
489.914	1053.69
490.132	1061.69
490.35	1127.69
490.568	1162.69
490.786	1182.69
491.003	1221.69
491.221	1285.69
491.439	1281.69
491.657	1325.69
491.874	1361.69
492.092	1458.69
492.31	1523.69
492.527	1474.69
492.745	1402.69
492.963	1359.69
493.18	1303.69
493.398	1357.69
493.615	1362.69
493.833	1284.69
494.05	1248.69
494.268	1276.69
494.485	1272.69
494.703	1231.69
494.92	1209.69
495.138	1276.69
495.355	1286.69
495.573	1308.69
495.79	1308.69
496.008	1299.69
496.225	1245.69
496.442	1241.69
496.66	1261.69
496.877	1262.69
497.094	1226.69
497.312	1258.69
497.529	1228.69
497.746	1232.69
497.963	1298.69
498.181	1311.69
498.398	1253.69
498.615	1200.69
498.832	1190.69
499.049	1157.69
499.267	1196.69
499.484	1270.69
499.701	1365.69
499.918	1372.69
500.135	1498.69
500.352	1572.69
500.569	1607.69
500.786	1730.69
501.003	1570.69
501.22	1445.69
501.437	1433.69
501.654	1407.69
501.871	1368.69
502.088	1201.69
502.305	1207.69
502.522	1142.69
502.739	1120.69
502.956	1086.69
503.172	1045.69
503.389	1059.69
503.606	1002.69
503.823	1016.69
504.04	1003.69
504.256	1012.69
504.473	1031.69
504.69	1014.69
504.907	969.69
505.123	992.69
505.34	1070.69
505.557	1372.69
505.773	1107.69
505.99	967.69
506.207	935.69
506.423	896.69
506.64	904.69
506.856	946.69
507.073	1033.69
507.289	1084.69
507.506	1020.69
507.722	900.69
507.939	869.69
508.155	860.69
508.372	866.69
508.588	844.69
508.805	821.69
509.021	798.69
509.238	791.69
509.454	755.69
509.67	755.69
509.887	770.69
510.103	738.69
510.319	725.69
510.536	786.69
510.752	809.69
510.968	788.69
511.184	811.69
511.401	762.69
511.617	729.69
511.833	730.69
512.049	719.69
512.265	738.69
512.481	748.69
512.698	771.69
512.914	778.69
513.13	748.69
513.346	741.69
513.562	714.69
513.778	712.69
513.994	743.69
514.21	784.69
514.426	776.69
514.642	823.69
514.858	775.69
515.074	727.69
515.29	720.69
515.506	737.69
515.721	755.69
515.937	770.69
516.153	818.69
516.369	796.69
516.585	758.69
516.801	744.69
517.016	749.69
517.232	770.69
517.448	782.69
517.664	795.69
517.879	822.69
518.095	853.69
518.311	798.69
518.527	770.69
518.742	749.69
518.958	742.69
519.173	771.69
519.389	793.69
519.605	804.69
519.82	796.69
520.036	803.69
520.251	772.69
520.467	754.69
520.682	802.69
520.898	813.69
521.113	719.69
521.329	740.69
521.544	766.69
521.76	771.69
521.975	719.69
522.19	707.69
522.406	746.69
522.621	965.69
522.836	889.69
523.052	751.69
523.267	768.69
523.482	747.69
523.698	760.69
523.913	744.69
524.128	763.69
524.343	800.69
524.559	814.69
524.774	811.69
524.989	806.69
525.204	786.69
525.419	756.69
525.634	747.69
525.849	712.69
526.064	744.69
526.28	743.69
526.495	704.69
526.71	657.69
526.925	660.69
527.14	635.69
527.355	616.69
527.57	640.69
527.785	662.69
527.999	663.69
528.214	678.69
528.429	701.69
528.644	740.69
528.859	778.69
529.074	839.69
529.289	907.69
529.503	870.69
529.718	822.69
529.933	758.69
530.148	665.69
530.363	660.69
530.577	644.69
530.792	641.69
531.007	629.69
531.221	649.69
531.436	642.69
531.651	639.69
531.865	673.69
532.08	658.69
532.295	618.69
532.509	637.69
532.724	610.69
532.938	678.69
533.153	722.69
533.367	736.69
533.582	765.69
533.796	739.69
534.011	744.69
534.225	664.69
534.44	651.69
534.654	624.69
534.868	660.69
535.083	660.69
535.297	709.69
535.511	702.69
535.726	694.69
535.94	696.69
536.154	674.69
536.369	652.69
536.583	618.69
536.797	633.69
537.011	630.69
537.225	602.69
537.44	615.69
537.654	681.69
537.868	642.69
538.082	608.69
538.296	610.69
538.51	631.69
538.724	654.69
538.938	700.69
539.153	776.69
539.367	745.69
539.581	700.69
539.795	702.69
540.009	677.69
540.222	658.69
540.436	674.69
540.65	774.69
540.864	812.69
541.078	824.69
541.292	844.69
541.506	910.69
541.72	979.69
541.934	1035.69
542.147	1085.69
542.361	1028.69
542.575	933.69
542.789	837.69
543.002	781.69
543.216	752.69
543.43	765.69
543.644	820.69
543.857	880.69
544.071	896.69
544.285	958.69
544.498	951.69
544.712	937.69
544.925	957.69
545.139	964.69
545.352	931.69
545.566	970.69
545.779	939.69
545.993	958.69
546.206	994.69
546.42	978.69
546.633	967.69
546.847	973.69
547.06	980.69
547.274	1006.69
547.487	960.69
547.7	1021.69
547.914	996.69
548.127	968.69
548.34	965.69
548.554	958.69
548.767	934.69
548.98	909.69
549.193	932.69
549.407	965.69
549.62	961.69
549.833	941.69
550.046	925.69
550.259	913.69
550.473	909.69
550.686	896.69
550.899	916.69
551.112	854.69
551.325	812.69
551.538	874.69
551.751	915.69
551.964	739.69
552.177	753.69
552.39	807.69
552.603	840.69
552.816	886.69
553.029	902.69
553.242	932.69
553.455	906.69
553.667	949.69
553.88	912.69
554.093	910.69
554.306	868.69
554.519	861.69
554.732	839.69
554.944	850.69
555.157	846.69
555.37	824.69
555.583	838.69
555.795	782.69
556.008	766.69
556.221	725.69
556.433	718.69
556.646	740.69
556.859	738.69
557.071	722.69
557.284	745.69
557.496	768.69
557.709	753.69
557.921	747.69
558.134	746.69
558.346	718.69
558.559	712.69
558.771	732.69
558.984	711.69
559.196	680.69
559.409	689.69
559.621	675.69
559.833	685.69
560.046	679.69
560.258	677.69
560.47	657.69
560.683	668.69
560.895	690.69
561.107	663.69
561.32	690.69
561.532	705.69
561.744	677.69
561.956	697.69
562.168	670.69
562.381	648.69
562.593	641.69
562.805	630.69
563.017	636.69
563.229	619.69
563.441	642.69
563.653	650.69
563.865	635.69
564.077	630.69
564.289	615.69
564.501	618.69
564.713	630.69
564.925	650.69
565.137	678.69
565.349	646.69
565.561	620.69
565.773	625.69
565.985	628.69
566.197	672.69
566.408	698.69
566.62	685.69
566.832	685.69
567.044	682.69
567.255	676.69
567.467	666.69
567.679	648.69
567.891	656.69
568.102	650.69
568.314	604.69
568.526	547.69
568.737	518.69
568.949	481.69
569.161	477.69
569.372	455.69
569.584	459.69
569.795	470.69
570.007	453.69
570.218	438.69
570.43	462.69
570.641	468.69
570.853	466.69
571.064	487.69
571.276	491.69
571.487	497.69
571.698	464.69
571.91	446.69
572.121	466.69
572.333	442.69
572.544	429.69
572.755	414.69
572.966	421.69
573.178	417.69
573.389	396.69
573.6	407.69
573.811	439.69
574.023	399.69
574.234	409.69
574.445	399.69
574.656	393.69
574.867	405.69
575.078	414.69
575.289	394.69
575.501	406.69
575.712	392.69
575.923	400.69
576.134	416.69
576.345	403.69
576.556	405.69
576.767	388.69
576.978	402.69
577.188	395.69
577.399	378.69
577.61	392.69
577.821	382.69
578.032	384.69
578.243	376.69
578.454	377.69
578.665	357.69
578.875	372.69
579.086	339.69
579.297	349.69
579.508	370.69
579.718	352.69
579.929	351.69
580.14	352.69
580.35	356.69
580.561	359.69
580.772	386.69
580.982	380.69
581.193	368.69
581.403	361.69
581.614	349.69
581.825	365.69
582.035	333.69
582.246	348.69
582.456	342.69
582.667	366.69
582.877	324.69
583.087	339.69
583.298	325.69
583.508	346.69
583.719	349.69
583.929	331.69
584.139	342.69
584.35	336.69
584.56	326.69
584.77	332.69
584.981	327.69
585.191	351.69
585.401	336.69
585.611	334.69
585.821	338.69
586.032	332.69
586.242	324.69
586.452	299.69
586.662	313.69
586.872	311.69
587.082	310.69
587.292	320.69
587.502	319.69
587.713	330.69
587.923	317.69
588.133	313.69
588.343	307.69
588.553	322.69
588.762	295.69
588.972	310.69
589.182	300.69
589.392	306.69
589.602	320.69
589.812	316.69
590.022	313.69
590.232	311.69
590.441	317.69
590.651	317.69
590.861	320.69
591.071	317.69
591.281	310.69
591.49	310.69
591.7	323.69
591.91	312.69
592.119	327.69
592.329	332.69
592.539	334.69
592.748	336.69
592.958	322.69
593.167	334.69
593.377	332.69
593.587	333.69
593.796	325.69
594.006	339.69
594.215	350.69
594.424	340.69
594.634	353.69
594.843	338.69
595.053	336.69
595.262	339.69
595.472	327.69
595.681	308.69
595.89	317.69
596.1	304.69
596.309	332.69
596.518	331.69
596.727	331.69
596.937	326.69
597.146	341.69
597.355	314.69
597.564	293.69
597.774	297.69
597.983	281.69
598.192	294.69
598.401	284.69
598.61	302.69
598.819	285.69
599.028	309.69
599.237	314.69
599.446	313.69
599.655	293.69
599.864	285.69
600.073	289.69
600.282	287.69
600.491	285.69
600.7	281.69
600.909	298.69
601.118	332.69
601.327	336.69
601.536	346.69
601.745	331.69
601.953	372.69
602.162	357.69
602.371	356.69
602.58	359.69
602.789	360.69
602.997	351.69
603.206	354.69
603.415	340.69
603.623	363.69
603.832	365.69
604.041	345.69
604.249	313.69
604.458	315.69
604.666	327.69
604.875	299.69
605.084	321.69
605.292	339.69
605.501	345.69
605.709	366.69
605.918	358.69
606.126	366.69
606.334	374.69
606.543	342.69
606.751	367.69
606.96	380.69
607.168	371.69
607.376	346.69
607.585	359.69
607.793	362.69
608.001	355.69
608.21	363.69
608.418	349.69
608.626	373.69
608.834	368.69
609.043	372.69
609.251	343.69
609.459	350.69
609.667	370.69
609.875	357.69
610.083	384.69
610.291	376.69
610.499	372.69
610.707	360.69
610.916	368.69
611.124	365.69
611.332	364.69
611.54	368.69
611.748	358.69
611.955	366.69
612.163	375.69
612.371	358.69
612.579	361.69
612.787	348.69
612.995	376.69
613.203	360.69
613.411	364.69
613.618	371.69
613.826	357.69
614.034	355.69
614.242	364.69
614.449	356.69
614.657	366.69
614.865	377.69
615.072	363.69
615.28	368.69
615.488	384.69
615.695	387.69
615.903	359.69
616.111	356.69
616.318	360.69
616.526	377.69
616.733	364.69
616.941	358.69
617.148	357.69
617.356	350.69
617.563	346.69
617.771	354.69
617.978	335.69
618.185	348.69
618.393	333.69
618.6	330.69
618.807	340.69
619.015	373.69
619.222	349.69
619.429	344.69
619.637	308.69
619.844	309.69
620.051	303.69
620.258	308.69
620.466	329.69
620.673	323.69
620.88	329.69
621.087	322.69
621.294	320.69
621.501	284.69
621.708	310.69
621.915	308.69
622.122	320.69
622.329	334.69
622.536	315.69
622.743	310.69
622.95	329.69
623.157	316.69
623.364	314.69
623.571	311.69
623.778	328.69
623.985	327.69
624.192	336.69
624.399	329.69
624.606	305.69
624.812	313.69
625.019	316.69
625.226	301.69
625.433	299.69
625.639	288.69
625.846	271.69
626.053	263.69
626.259	270.69
626.466	240.69
626.673	240.69
626.879	249.69
627.086	258.69
627.293	250.69
627.499	290.69
627.706	299.69
627.912	305.69
628.119	308.69
628.325	305.69
628.532	300.69
628.738	298.69
628.945	276.69
629.151	286.69
629.357	301.69
629.564	278.69
629.77	282.69
629.976	276.69
630.183	264.69
630.389	280.69
630.595	277.69
630.802	280.69
631.008	281.69
631.214	282.69
631.42	279.69
631.627	280.69
631.833	268.69
632.039	251.69
632.245	270.69
632.451	280.69
632.657	265.69
632.863	280.69
633.069	263.69
633.275	262.69
633.481	255.69
633.688	250.69
633.893	260.69
634.099	259.69
634.305	279.69
634.511	250.69
634.717	245.69
634.923	224.69
635.129	227.69
635.335	243.69
635.541	235.69
635.747	230.69
635.952	234.69
636.158	241.69
636.364	270.69
636.57	242.69
636.775	269.69
636.981	266.69
637.187	255.69
637.392	274.69
637.598	256.69
637.804	269.69
638.009	275.69
638.215	263.69
638.421	243.69
638.626	243.69
638.832	249.69
639.037	268.69
639.243	248.69
639.448	258.69
639.654	246.69
639.859	237.69
640.065	245.69
640.27	252.69
640.475	245.69
640.681	246.69
640.886	252.69
641.091	256.69
641.297	254.69
641.502	244.69
641.707	241.69
641.913	281.69
642.118	262.69
642.323	250.69
642.528	225.69
642.733	243.69
642.939	233.69
643.144	246.69
643.349	249.69
643.554	246.69
643.759	232.69
643.964	247.69
644.169	248.69
644.374	235.69
644.579	251.69
644.784	249.69
644.989	237.69
645.194	259.69
645.399	228.69
645.604	229.69
645.809	243.69
646.014	233.69
646.219	230.69
646.423	247.69
646.628	243.69
646.833	241.69
647.038	247.69
647.243	246.69
647.447	246.69
647.652	238.69
647.857	242.69
648.062	243.69
648.266	231.69
648.471	247.69
648.676	240.69
648.88	250.69
649.085	251.69
649.289	242.69
649.494	247.69
649.698	239.69
649.903	268.69
650.107	236.69
650.312	244.69
650.516	239.69
650.721	234.69
650.925	221.69
651.13	226.69
651.334	233.69
651.539	230.69
651.743	233.69
651.947	227.69
652.152	218.69
652.356	223.69
652.56	214.69
652.764	205.69
652.969	219.69
653.173	221.69
653.377	206.69
653.581	200.69
653.785	232.69
653.99	210.69
654.194	203.69
654.398	193.69
654.602	206.69
654.806	203.69
655.01	200.69
655.214	189.69
655.418	195.69
655.622	201.69
655.826	224.69
656.03	213.69
656.234	225.69
656.438	220.69
656.642	233.69
656.846	201.69
657.049	203.69
657.253	196.69
657.457	183.69
657.661	165.69
657.865	176.69
658.068	170.69
658.272	154.69
658.476	161.69
658.68	153.69
658.883	154.69
659.087	155.69
659.291	142.69
659.494	149.69
659.698	137.69
659.901	127.69
660.105	142.69
660.309	120.69
660.512	119.69
660.716	125.69
660.919	122.69
661.123	124.69
661.326	115.69
661.53	108.69
661.733	106.69
661.936	108.69
662.14	107.69
662.343	97.69
662.546	92.69
662.75	89.69
662.953	82.69
663.156	91.69
663.36	85.69
663.563	93.69
663.766	92.69
663.969	86.69
664.173	95.69
664.376	80.69
664.579	85.69
664.782	76.69
664.985	102.69
665.188	109.69
665.391	84.69
665.594	82.69
665.797	76.69
666	83.69
666.203	83.69
666.406	79.69
666.609	84.69
666.812	71.69
667.015	76.69
667.218	84.69
667.421	75.69
667.624	78.69
667.827	77.69
668.03	85.69
668.232	84.69
668.435	80.69
668.638	82.69
668.841	83.69
669.043	77.69
669.246	93.69
669.449	80.69
669.651	85.69
669.854	92.69
670.057	75.69
670.259	85.69
670.462	89.69
670.665	99.69
670.867	82.69
671.07	94.69
671.272	92.69
671.475	84.69
671.677	78.69
671.88	85.69
672.082	60.69
672.284	88.69
672.487	83.69
672.689	68.69
672.892	76.69
