Data from WStandard_LampEnergy8_LIBS07252019.E.O._I.C._HRD10591_15-57-55-929.txt Node
Date: Thu Jul 25 15:57:55 EDT 2019
User: cochatt
Spectrometer: HR+D1059
Trigger mode: 1
Integration Time (sec): 1.000000E-1
Scans to average: 1
Electric dark correction enabled: true
Nonlinearity correction enabled: false
Boxcar width: 0
XAxis mode: Wavelengths
Number of Pixels in Spectrum: 2048
>>>>>Begin Spectral Data<<<<<
223.165	-22.75
223.4	-22.75
223.635	-22.75
223.869	-24.75
224.104	-13.75
224.338	-1.75
224.573	-4.75
224.808	-28.75
225.042	-21.75
225.277	-12.75
225.511	-0.75
225.746	-3.75
225.98	18.25
226.215	29.25
226.449	16.25
226.683	12.25
226.918	31.25
227.152	28.25
227.387	29.25
227.621	39.25
227.856	41.25
228.09	46.25
228.324	35.25
228.559	46.25
228.793	85.25
229.027	209.25
229.262	196.25
229.496	222.25
229.73	241.25
229.964	264.25
230.199	272.25
230.433	279.25
230.667	290.25
230.901	313.25
231.136	276.25
231.37	272.25
231.604	271.25
231.838	278.25
232.072	266.25
232.306	257.25
232.541	287.25
232.775	315.25
233.009	336.25
233.243	326.25
233.477	306.25
233.711	302.25
233.945	319.25
234.179	305.25
234.413	329.25
234.647	339.25
234.881	307.25
235.115	312.25
235.349	296.25
235.583	298.25
235.817	291.25
236.051	292.25
236.285	317.25
236.519	327.25
236.753	356.25
236.987	381.25
237.221	374.25
237.455	425.25
237.689	372.25
237.922	350.25
238.156	349.25
238.39	373.25
238.624	376.25
238.858	379.25
239.091	424.25
239.325	433.25
239.559	478.25
239.793	513.25
240.027	534.25
240.26	538.25
240.494	412.25
240.728	402.25
240.961	391.25
241.195	402.25
241.429	437.25
241.662	422.25
241.896	412.25
242.13	426.25
242.363	485.25
242.597	491.25
242.83	466.25
243.064	461.25
243.298	512.25
243.531	494.25
243.765	469.25
243.998	471.25
244.232	443.25
244.465	433.25
244.699	427.25
244.932	506.25
245.166	535.25
245.399	504.25
245.633	474.25
245.866	452.25
246.099	511.25
246.333	504.25
246.566	522.25
246.8	586.25
247.033	614.25
247.266	570.25
247.5	553.25
247.733	556.25
247.966	560.25
248.2	615.25
248.433	601.25
248.666	626.25
248.899	695.25
249.133	776.25
249.366	826.25
249.599	699.25
249.832	638.25
250.066	643.25
250.299	655.25
250.532	610.25
250.765	564.25
250.998	584.25
251.231	598.25
251.465	627.25
251.698	608.25
251.931	624.25
252.164	600.25
252.397	656.25
252.63	623.25
252.863	572.25
253.096	583.25
253.329	581.25
253.562	609.25
253.795	638.25
254.028	631.25
254.261	625.25
254.494	585.25
254.727	594.25
254.96	586.25
255.193	650.25
255.426	742.25
255.659	821.25
255.892	810.25
256.124	698.25
256.357	689.25
256.59	696.25
256.823	727.25
257.056	761.25
257.289	874.25
257.521	950.25
257.754	836.25
257.987	811.25
258.22	881.25
258.452	846.25
258.685	729.25
258.918	695.25
259.151	694.25
259.383	657.25
259.616	615.25
259.849	664.25
260.081	735.25
260.314	801.25
260.547	858.25
260.779	863.25
261.012	824.25
261.244	708.25
261.477	679.25
261.71	722.25
261.942	722.25
262.175	708.25
262.407	745.25
262.64	707.25
262.872	648.25
263.105	646.25
263.337	655.25
263.57	648.25
263.802	636.25
264.035	611.25
264.267	614.25
264.499	613.25
264.732	630.25
264.964	677.25
265.197	716.25
265.429	738.25
265.661	834.25
265.894	862.25
266.126	894.25
266.358	837.25
266.591	856.25
266.823	883.25
267.055	812.25
267.287	802.25
267.52	790.25
267.752	766.25
267.984	798.25
268.216	836.25
268.448	856.25
268.681	831.25
268.913	744.25
269.145	714.25
269.377	740.25
269.609	802.25
269.841	902.25
270.073	1057.25
270.306	1164.25
270.538	1151.25
270.77	1003.25
271.002	884.25
271.234	826.25
271.466	848.25
271.698	946.25
271.93	1116.25
272.162	1098.25
272.394	1024.25
272.626	923.25
272.858	850.25
273.09	748.25
273.322	741.25
273.553	694.25
273.785	703.25
274.017	747.25
274.249	809.25
274.481	792.25
274.713	722.25
274.945	700.25
275.176	743.25
275.408	710.25
275.64	698.25
275.872	709.25
276.104	773.25
276.335	881.25
276.567	964.25
276.799	959.25
277.031	868.25
277.262	833.25
277.494	870.25
277.726	924.25
277.957	916.25
278.189	840.25
278.421	779.25
278.652	757.25
278.884	750.25
279.115	777.25
279.347	778.25
279.579	772.25
279.81	775.25
280.042	882.25
280.273	907.25
280.505	922.25
280.736	937.25
280.968	882.25
281.199	768.25
281.431	746.25
281.662	766.25
281.894	747.25
282.125	780.25
282.356	795.25
282.588	798.25
282.819	802.25
283.051	874.25
283.282	929.25
283.513	873.25
283.745	754.25
283.976	715.25
284.207	756.25
284.439	765.25
284.67	786.25
284.901	811.25
285.132	823.25
285.364	795.25
285.595	787.25
285.826	784.25
286.057	799.25
286.288	795.25
286.52	780.25
286.751	870.25
286.982	892.25
287.213	815.25
287.444	755.25
287.675	734.25
287.906	809.25
288.138	848.25
288.369	828.25
288.6	784.25
288.831	763.25
289.062	789.25
289.293	794.25
289.524	794.25
289.755	812.25
289.986	810.25
290.217	739.25
290.448	773.25
290.679	808.25
290.91	812.25
291.141	839.25
291.371	854.25
291.602	835.25
291.833	845.25
292.064	890.25
292.295	864.25
292.526	878.25
292.757	889.25
292.987	846.25
293.218	809.25
293.449	914.25
293.68	1017.25
293.91	1058.25
294.141	1006.25
294.372	939.25
294.603	988.25
294.833	1000.25
295.064	934.25
295.295	855.25
295.525	842.25
295.756	789.25
295.987	736.25
296.217	780.25
296.448	802.25
296.679	798.25
296.909	827.25
297.14	810.25
297.37	816.25
297.601	873.25
297.831	927.25
298.062	886.25
298.292	824.25
298.523	817.25
298.753	843.25
298.984	828.25
299.214	853.25
299.445	852.25
299.675	841.25
299.905	883.25
300.136	811.25
300.366	830.25
300.597	786.25
300.827	809.25
301.057	833.25
301.288	871.25
301.518	890.25
301.748	914.25
301.979	946.25
302.209	952.25
302.439	1012.25
302.669	1074.25
302.9	937.25
303.13	869.25
303.36	889.25
303.59	925.25
303.82	883.25
304.051	884.25
304.281	901.25
304.511	919.25
304.741	992.25
304.971	1088.25
305.201	1099.25
305.431	985.25
305.661	830.25
305.891	768.25
306.121	808.25
306.352	818.25
306.582	895.25
306.812	934.25
307.042	990.25
307.272	995.25
307.502	1034.25
307.731	1055.25
307.961	1100.25
308.191	1019.25
308.421	894.25
308.651	880.25
308.881	861.25
309.111	846.25
309.341	844.25
309.571	855.25
309.8	881.25
310.03	858.25
310.26	850.25
310.49	860.25
310.72	883.25
310.949	906.25
311.179	878.25
311.409	878.25
311.639	879.25
311.868	864.25
312.098	893.25
312.328	898.25
312.557	863.25
312.787	873.25
313.017	908.25
313.246	907.25
313.476	914.25
313.706	942.25
313.935	924.25
314.165	924.25
314.394	963.25
314.624	1017.25
314.853	1071.25
315.083	1073.25
315.312	1125.25
315.542	1011.25
315.771	928.25
316.001	944.25
316.23	983.25
316.46	1001.25
316.689	962.25
316.919	915.25
317.148	914.25
317.377	926.25
317.607	1001.25
317.836	1105.25
318.065	1122.25
318.295	1078.25
318.524	1032.25
318.753	991.25
318.983	982.25
319.212	946.25
319.441	979.25
319.67	946.25
319.9	965.25
320.129	1037.25
320.358	1066.25
320.587	1089.25
320.816	1065.25
321.046	1044.25
321.275	995.25
321.504	1011.25
321.733	1098.25
321.962	1034.25
322.191	965.25
322.42	960.25
322.649	940.25
322.878	944.25
323.108	940.25
323.337	980.25
323.566	967.25
323.795	966.25
324.024	982.25
324.253	938.25
324.482	963.25
324.71	923.25
324.939	912.25
325.168	935.25
325.397	963.25
325.626	986.25
325.855	970.25
326.084	918.25
326.313	957.25
326.542	983.25
326.77	1024.25
326.999	995.25
327.228	954.25
327.457	934.25
327.686	905.25
327.914	934.25
328.143	952.25
328.372	968.25
328.6	952.25
328.829	944.25
329.058	947.25
329.287	910.25
329.515	972.25
329.744	1003.25
329.972	1046.25
330.201	1081.25
330.43	1051.25
330.658	1011.25
330.887	1036.25
331.115	1039.25
331.344	1019.25
331.572	1008.25
331.801	983.25
332.03	1024.25
332.258	1043.25
332.486	1053.25
332.715	1050.25
332.943	1038.25
333.172	1022.25
333.4	1032.25
333.629	1060.25
333.857	1127.25
334.085	1260.25
334.314	1404.25
334.542	1497.25
334.771	1382.25
334.999	1202.25
335.227	1130.25
335.455	1074.25
335.684	1056.25
335.912	1127.25
336.14	1164.25
336.369	1086.25
336.597	1051.25
336.825	1014.25
337.053	1081.25
337.281	1137.25
337.51	1176.25
337.738	1214.25
337.966	1135.25
338.194	1043.25
338.422	1035.25
338.65	1013.25
338.878	975.25
339.106	961.25
339.334	959.25
339.562	943.25
339.79	990.25
340.018	1053.25
340.246	1076.25
340.474	1082.25
340.702	1036.25
340.93	1079.25
341.158	1078.25
341.386	1031.25
341.614	1024.25
341.842	1015.25
342.07	1022.25
342.298	1022.25
342.526	1009.25
342.754	998.25
342.981	1033.25
343.209	979.25
343.437	993.25
343.665	1043.25
343.893	1036.25
344.12	1074.25
344.348	1064.25
344.576	1030.25
344.804	1004.25
345.031	1031.25
345.259	1006.25
345.487	936.25
345.714	928.25
345.942	927.25
346.17	927.25
346.397	936.25
346.625	984.25
346.853	921.25
347.08	918.25
347.308	914.25
347.535	947.25
347.763	966.25
347.99	937.25
348.218	927.25
348.445	944.25
348.673	963.25
348.9	976.25
349.128	1046.25
349.355	1045.25
349.583	1015.25
349.81	963.25
350.037	872.25
350.265	849.25
350.492	898.25
350.72	942.25
350.947	974.25
351.174	972.25
351.402	926.25
351.629	894.25
351.856	891.25
352.083	873.25
352.311	887.25
352.538	931.25
352.765	962.25
352.992	958.25
353.22	935.25
353.447	930.25
353.674	926.25
353.901	931.25
354.128	915.25
354.355	916.25
354.583	1008.25
354.81	983.25
355.037	999.25
355.264	990.25
355.491	978.25
355.718	956.25
355.945	976.25
356.172	920.25
356.399	903.25
356.626	924.25
356.853	968.25
357.08	1054.25
357.307	1159.25
357.534	1059.25
357.761	982.25
357.988	902.25
358.215	895.25
358.441	911.25
358.668	922.25
358.895	908.25
359.122	1020.25
359.349	1091.25
359.576	1027.25
359.802	958.25
360.029	920.25
360.256	932.25
360.483	939.25
360.709	1003.25
360.936	1033.25
361.163	1028.25
361.39	1140.25
361.616	1217.25
361.843	1179.25
362.07	1085.25
362.296	958.25
362.523	907.25
362.749	964.25
362.976	998.25
363.203	970.25
363.429	937.25
363.656	908.25
363.882	982.25
364.109	1090.25
364.335	1106.25
364.562	1028.25
364.788	1000.25
365.015	971.25
365.241	940.25
365.468	970.25
365.694	1000.25
365.92	1041.25
366.147	983.25
366.373	953.25
366.599	936.25
366.826	938.25
367.052	940.25
367.278	928.25
367.505	940.25
367.731	981.25
367.957	958.25
368.184	1047.25
368.41	1084.25
368.636	1082.25
368.862	1060.25
369.089	1057.25
369.315	1038.25
369.541	990.25
369.767	973.25
369.993	954.25
370.219	958.25
370.445	975.25
370.672	1074.25
370.898	1068.25
371.124	1060.25
371.35	1012.25
371.576	1050.25
371.802	1073.25
372.028	996.25
372.254	983.25
372.48	982.25
372.706	949.25
372.932	942.25
373.158	979.25
373.384	992.25
373.61	1024.25
373.835	1057.25
374.061	1010.25
374.287	1026.25
374.513	1035.25
374.739	995.25
374.965	1020.25
375.191	1026.25
375.416	1066.25
375.642	1077.25
375.868	1122.25
376.094	1174.25
376.319	1072.25
376.545	1015.25
376.771	1034.25
376.997	1141.25
377.222	1094.25
377.448	1067.25
377.674	1037.25
377.899	1069.25
378.125	1148.25
378.35	1105.25
378.576	1004.25
378.802	979.25
379.027	986.25
379.253	980.25
379.478	1004.25
379.704	1001.25
379.929	1024.25
380.155	1010.25
380.38	1007.25
380.606	1013.25
380.831	1048.25
381.057	1115.25
381.282	1103.25
381.507	1079.25
381.733	1138.25
381.958	1192.25
382.184	1037.25
382.409	1034.25
382.634	1061.25
382.86	1066.25
383.085	1041.25
383.31	1083.25
383.535	1195.25
383.761	1255.25
383.986	1172.25
384.211	1162.25
384.436	1134.25
384.662	1205.25
384.887	1218.25
385.112	1156.25
385.337	1150.25
385.562	1135.25
385.787	1148.25
386.013	1200.25
386.238	1200.25
386.463	1182.25
386.688	1284.25
386.913	1330.25
387.138	1292.25
387.363	1207.25
387.588	1171.25
387.813	1170.25
388.038	1187.25
388.263	1234.25
388.488	1188.25
388.713	1096.25
388.938	1113.25
389.163	1092.25
389.387	1134.25
389.612	1137.25
389.837	1158.25
390.062	1179.25
390.287	1151.25
390.512	1130.25
390.736	1134.25
390.961	1123.25
391.186	1065.25
391.411	1098.25
391.636	1126.25
391.86	1116.25
392.085	1122.25
392.31	1142.25
392.534	1138.25
392.759	1158.25
392.984	1119.25
393.208	1195.25
393.433	1212.25
393.658	1255.25
393.882	1224.25
394.107	1136.25
394.331	1144.25
394.556	1137.25
394.78	1139.25
395.005	1224.25
395.229	1278.25
395.454	1342.25
395.678	1372.25
395.903	1280.25
396.127	1210.25
396.352	1275.25
396.576	1292.25
396.801	1281.25
397.025	1274.25
397.249	1268.25
397.474	1218.25
397.698	1238.25
397.922	1307.25
398.147	1355.25
398.371	1407.25
398.595	1380.25
398.82	1306.25
399.044	1376.25
399.268	1424.25
399.492	1474.25
399.717	1508.25
399.941	1541.25
400.165	1498.25
400.389	1420.25
400.613	1505.25
400.837	1653.25
401.062	1854.25
401.286	1570.25
401.51	1463.25
401.734	1498.25
401.958	1439.25
402.182	1391.25
402.406	1331.25
402.63	1283.25
402.854	1330.25
403.078	1364.25
403.302	1364.25
403.526	1365.25
403.75	1395.25
403.974	1394.25
404.198	1392.25
404.422	1439.25
404.645	1517.25
404.869	1479.25
405.093	1341.25
405.317	1328.25
405.541	1378.25
405.765	1390.25
405.988	1374.25
406.212	1395.25
406.436	1436.25
406.66	1487.25
406.883	1536.25
407.107	1712.25
407.331	1891.25
407.555	1936.25
407.778	1719.25
408.002	1459.25
408.226	1439.25
408.449	1427.25
408.673	1404.25
408.896	1412.25
409.12	1425.25
409.344	1395.25
409.567	1338.25
409.791	1365.25
410.014	1426.25
410.238	1534.25
410.461	1552.25
410.685	1397.25
410.908	1376.25
411.132	1401.25
411.355	1368.25
411.578	1338.25
411.802	1384.25
412.025	1368.25
412.249	1353.25
412.472	1302.25
412.695	1315.25
412.919	1328.25
413.142	1296.25
413.365	1360.25
413.589	1387.25
413.812	1434.25
414.035	1446.25
414.258	1371.25
414.482	1309.25
414.705	1339.25
414.928	1314.25
415.151	1316.25
415.374	1320.25
415.597	1361.25
415.821	1390.25
416.044	1367.25
416.267	1380.25
416.49	1286.25
416.713	1275.25
416.936	1363.25
417.159	1413.25
417.382	1387.25
417.605	1334.25
417.828	1350.25
418.051	1400.25
418.274	1371.25
418.497	1291.25
418.72	1295.25
418.943	1315.25
419.166	1366.25
419.389	1390.25
419.611	1344.25
419.834	1315.25
420.057	1326.25
420.28	1336.25
420.503	1293.25
420.726	1357.25
420.948	1299.25
421.171	1279.25
421.394	1289.25
421.617	1354.25
421.839	1368.25
422.062	1349.25
422.285	1327.25
422.507	1318.25
422.73	1257.25
422.953	1217.25
423.175	1207.25
423.398	1270.25
423.621	1266.25
423.843	1289.25
424.066	1360.25
424.288	1407.25
424.511	1443.25
424.733	1380.25
424.956	1284.25
425.178	1271.25
425.401	1237.25
425.623	1313.25
425.846	1310.25
426.068	1365.25
426.291	1360.25
426.513	1377.25
426.735	1349.25
426.958	1462.25
427.18	1536.25
427.402	1407.25
427.625	1464.25
427.847	1412.25
428.069	1312.25
428.292	1274.25
428.514	1254.25
428.736	1243.25
428.958	1243.25
429.181	1318.25
429.403	1520.25
429.625	1802.25
429.847	1513.25
430.069	1365.25
430.292	1450.25
430.514	1504.25
430.736	1389.25
430.958	1389.25
431.18	1306.25
431.402	1257.25
431.624	1239.25
431.846	1216.25
432.068	1145.25
432.29	1175.25
432.512	1234.25
432.734	1269.25
432.956	1322.25
433.178	1362.25
433.4	1356.25
433.622	1331.25
433.844	1302.25
434.066	1201.25
434.287	1206.25
434.509	1222.25
434.731	1315.25
434.953	1390.25
435.175	1367.25
435.397	1303.25
435.618	1305.25
435.84	1235.25
436.062	1235.25
436.284	1315.25
436.505	1311.25
436.727	1337.25
436.949	1291.25
437.17	1242.25
437.392	1251.25
437.614	1225.25
437.835	1188.25
438.057	1253.25
438.278	1267.25
438.5	1216.25
438.721	1255.25
438.943	1285.25
439.165	1271.25
439.386	1244.25
439.608	1262.25
439.829	1237.25
440.05	1265.25
440.272	1285.25
440.493	1262.25
440.715	1259.25
440.936	1375.25
441.158	1486.25
441.379	1428.25
441.6	1423.25
441.822	1405.25
442.043	1362.25
442.264	1341.25
442.486	1298.25
442.707	1282.25
442.928	1262.25
443.149	1331.25
443.371	1391.25
443.592	1424.25
443.813	1414.25
444.034	1376.25
444.255	1374.25
444.476	1402.25
444.698	1478.25
444.919	1467.25
445.14	1517.25
445.361	1470.25
445.582	1491.25
445.803	1462.25
446.024	1394.25
446.245	1446.25
446.466	1411.25
446.687	1341.25
446.908	1364.25
447.129	1346.25
447.35	1350.25
447.571	1316.25
447.792	1271.25
448.013	1256.25
448.234	1252.25
448.455	1340.25
448.675	1346.25
448.896	1242.25
449.117	1236.25
449.338	1286.25
449.559	1336.25
449.779	1385.25
450	1440.25
450.221	1548.25
450.442	1462.25
450.662	1334.25
450.883	1254.25
451.104	1193.25
451.324	1218.25
451.545	1237.25
451.766	1204.25
451.986	1170.25
452.207	1150.25
452.428	1089.25
452.648	1105.25
452.869	1150.25
453.089	1163.25
453.31	1184.25
453.53	1198.25
453.751	1144.25
453.971	1087.25
454.192	1099.25
454.412	1178.25
454.633	1168.25
454.853	1162.25
455.073	1078.25
455.294	1104.25
455.514	1075.25
455.734	1080.25
455.955	1097.25
456.175	1098.25
456.395	1104.25
456.616	1102.25
456.836	1147.25
457.056	1101.25
457.276	1090.25
457.497	1068.25
457.717	1022.25
457.937	1056.25
458.157	1069.25
458.377	1066.25
458.598	1036.25
458.818	1079.25
459.038	1150.25
459.258	1179.25
459.478	1168.25
459.698	1118.25
459.918	1145.25
460.138	1251.25
460.358	1266.25
460.578	1269.25
460.798	1357.25
461.018	1387.25
461.238	1314.25
461.458	1262.25
461.678	1258.25
461.898	1233.25
462.118	1212.25
462.338	1310.25
462.558	1249.25
462.777	1293.25
462.997	1318.25
463.217	1405.25
463.437	1381.25
463.657	1299.25
463.876	1258.25
464.096	1274.25
464.316	1301.25
464.536	1323.25
464.755	1310.25
464.975	1328.25
465.195	1296.25
465.414	1337.25
465.634	1324.25
465.854	1306.25
466.073	1428.25
466.293	1402.25
466.512	1246.25
466.732	1237.25
466.951	1266.25
467.171	1250.25
467.391	1208.25
467.61	1247.25
467.829	1262.25
468.049	1360.25
468.268	1523.25
468.488	1374.25
468.707	1296.25
468.927	1271.25
469.146	1240.25
469.365	1226.25
469.585	1246.25
469.804	1248.25
470.023	1261.25
470.243	1249.25
470.462	1261.25
470.681	1250.25
470.901	1269.25
471.12	1250.25
471.339	1249.25
471.558	1217.25
471.777	1176.25
471.997	1237.25
472.216	1184.25
472.435	1161.25
472.654	1162.25
472.873	1194.25
473.092	1230.25
473.311	1230.25
473.53	1179.25
473.749	1180.25
473.968	1213.25
474.187	1235.25
474.406	1263.25
474.625	1264.25
474.844	1246.25
475.063	1243.25
475.282	1241.25
475.501	1189.25
475.72	1235.25
475.939	1352.25
476.158	1268.25
476.377	1226.25
476.596	1219.25
476.814	1232.25
477.033	1224.25
477.252	1312.25
477.471	1306.25
477.69	1278.25
477.908	1323.25
478.127	1388.25
478.346	1465.25
478.564	1470.25
478.783	1441.25
479.002	1447.25
479.22	1462.25
479.439	1476.25
479.658	1614.25
479.876	1576.25
480.095	1415.25
480.313	1351.25
480.532	1281.25
480.751	1333.25
480.969	1302.25
481.188	1252.25
481.406	1280.25
481.624	1265.25
481.843	1253.25
482.061	1301.25
482.28	1360.25
482.498	1357.25
482.717	1347.25
482.935	1314.25
483.153	1368.25
483.372	1369.25
483.59	1391.25
483.808	1369.25
484.027	1394.25
484.245	1462.25
484.463	1794.25
484.681	1924.25
484.9	1506.25
485.118	1400.25
485.336	1356.25
485.554	1414.25
485.772	1437.25
485.99	1377.25
486.209	1411.25
486.427	1382.25
486.645	1449.25
486.863	1420.25
487.081	1479.25
487.299	1477.25
487.517	1432.25
487.735	1478.25
487.953	1498.25
488.171	1488.25
488.389	1512.25
488.607	1480.25
488.825	1612.25
489.043	1606.25
489.261	1423.25
489.479	1503.25
489.696	1517.25
489.914	1508.25
490.132	1434.25
490.35	1489.25
490.568	1588.25
490.786	1509.25
491.003	1501.25
491.221	1575.25
491.439	1618.25
491.657	1595.25
491.874	1660.25
492.092	1708.25
492.31	1730.25
492.527	1686.25
492.745	1654.25
492.963	1612.25
493.18	1631.25
493.398	1752.25
493.615	1712.25
493.833	1598.25
494.05	1555.25
494.268	1593.25
494.485	1611.25
494.703	1587.25
494.92	1560.25
495.138	1571.25
495.355	1573.25
495.573	1638.25
495.79	1702.25
496.008	1747.25
496.225	1639.25
496.442	1663.25
496.66	1631.25
496.877	1616.25
497.094	1689.25
497.312	1672.25
497.529	1650.25
497.746	1698.25
497.963	1884.25
498.181	2017.25
498.398	1938.25
498.615	1903.25
498.832	1812.25
499.049	1740.25
499.267	1822.25
499.484	1922.25
499.701	2063.25
499.918	2056.25
500.135	2247.25
500.352	2385.25
500.569	2410.25
500.786	2585.25
501.003	2331.25
501.22	2139.25
501.437	2127.25
501.654	2124.25
501.871	2024.25
502.088	1803.25
502.305	1783.25
502.522	1726.25
502.739	1656.25
502.956	1637.25
503.172	1589.25
503.389	1551.25
503.606	1534.25
503.823	1504.25
504.04	1490.25
504.256	1493.25
504.473	1519.25
504.69	1561.25
504.907	1478.25
505.123	1430.25
505.34	1574.25
505.557	2065.25
505.773	1733.25
505.99	1445.25
506.207	1321.25
506.423	1298.25
506.64	1300.25
506.856	1355.25
507.073	1579.25
507.289	1637.25
507.506	1538.25
507.722	1343.25
507.939	1247.25
508.155	1250.25
508.372	1282.25
508.588	1240.25
508.805	1200.25
509.021	1196.25
509.238	1210.25
509.454	1156.25
509.67	1178.25
509.887	1128.25
510.103	1111.25
510.319	1169.25
510.536	1233.25
510.752	1250.25
510.968	1267.25
511.184	1321.25
511.401	1266.25
511.617	1152.25
511.833	1107.25
512.049	1100.25
512.265	1121.25
512.481	1097.25
512.698	1183.25
512.914	1206.25
513.13	1181.25
513.346	1146.25
513.562	1106.25
513.778	1134.25
513.994	1190.25
514.21	1186.25
514.426	1190.25
514.642	1349.25
514.858	1272.25
515.074	1167.25
515.29	1160.25
515.506	1190.25
515.721	1190.25
515.937	1204.25
516.153	1295.25
516.369	1266.25
516.585	1168.25
516.801	1143.25
517.016	1198.25
517.232	1146.25
517.448	1219.25
517.664	1237.25
517.879	1242.25
518.095	1290.25
518.311	1214.25
518.527	1226.25
518.742	1178.25
518.958	1163.25
519.173	1144.25
519.389	1176.25
519.605	1204.25
519.82	1212.25
520.036	1217.25
520.251	1199.25
520.467	1184.25
520.682	1243.25
520.898	1296.25
521.113	1178.25
521.329	1132.25
521.544	1203.25
521.76	1163.25
521.975	1155.25
522.19	1083.25
522.406	1105.25
522.621	1413.25
522.836	1335.25
523.052	1123.25
523.267	1114.25
523.482	1116.25
523.698	1085.25
523.913	1058.25
524.128	1107.25
524.343	1187.25
524.559	1182.25
524.774	1120.25
524.989	1112.25
525.204	1071.25
525.419	1070.25
525.634	1064.25
525.849	1086.25
526.064	1091.25
526.28	1059.25
526.495	1007.25
526.71	1002.25
526.925	1001.25
527.14	1003.25
527.355	980.25
527.57	983.25
527.785	1049.25
527.999	1042.25
528.214	1008.25
528.429	1014.25
528.644	1011.25
528.859	1075.25
529.074	1083.25
529.289	1121.25
529.503	1139.25
529.718	1116.25
529.933	1038.25
530.148	1008.25
530.363	999.25
530.577	969.25
530.792	993.25
531.007	1007.25
531.221	988.25
531.436	1022.25
531.651	1035.25
531.865	1064.25
532.08	1035.25
532.295	988.25
532.509	939.25
532.724	999.25
532.938	1028.25
533.153	1038.25
533.367	1071.25
533.582	1065.25
533.796	1011.25
534.011	1045.25
534.225	1032.25
534.44	997.25
534.654	973.25
534.868	993.25
535.083	1047.25
535.297	1062.25
535.511	1013.25
535.726	1025.25
535.94	1044.25
536.154	1003.25
536.369	963.25
536.583	982.25
536.797	987.25
537.011	980.25
537.225	952.25
537.44	935.25
537.654	1000.25
537.868	956.25
538.082	927.25
538.296	912.25
538.51	950.25
538.724	954.25
538.938	966.25
539.153	1019.25
539.367	1035.25
539.581	982.25
539.795	990.25
540.009	989.25
540.222	999.25
540.436	960.25
540.65	1055.25
540.864	1123.25
541.078	1039.25
541.292	1089.25
541.506	1080.25
541.72	1121.25
541.934	1160.25
542.147	1194.25
542.361	1126.25
542.575	1082.25
542.789	994.25
543.002	981.25
543.216	994.25
543.43	1046.25
543.644	1071.25
543.857	1138.25
544.071	1159.25
544.285	1120.25
544.498	1084.25
544.712	1101.25
544.925	1144.25
545.139	1164.25
545.352	1087.25
545.566	1060.25
545.779	1058.25
545.993	1080.25
546.206	1088.25
546.42	1070.25
546.633	1057.25
546.847	1060.25
547.06	1070.25
547.274	1065.25
547.487	1113.25
547.7	1103.25
547.914	1101.25
548.127	1115.25
548.34	1097.25
548.554	1079.25
548.767	1110.25
548.98	1058.25
549.193	1046.25
549.407	1144.25
549.62	1133.25
549.833	1062.25
550.046	1076.25
550.259	1046.25
550.473	1044.25
550.686	1055.25
550.899	1028.25
551.112	1005.25
551.325	985.25
551.538	1048.25
551.751	1218.25
551.964	961.25
552.177	920.25
552.39	980.25
552.603	1001.25
552.816	1030.25
553.029	1070.25
553.242	1106.25
553.455	1100.25
553.667	1070.25
553.88	1055.25
554.093	1032.25
554.306	1012.25
554.519	967.25
554.732	952.25
554.944	1014.25
555.157	962.25
555.37	946.25
555.583	972.25
555.795	917.25
556.008	918.25
556.221	903.25
556.433	871.25
556.646	851.25
556.859	871.25
557.071	851.25
557.284	893.25
557.496	890.25
557.709	899.25
557.921	860.25
558.134	889.25
558.346	883.25
558.559	888.25
558.771	865.25
558.984	830.25
559.196	817.25
559.409	831.25
559.621	826.25
559.833	837.25
560.046	867.25
560.258	846.25
560.47	826.25
560.683	821.25
560.895	832.25
561.107	843.25
561.32	863.25
561.532	847.25
561.744	817.25
561.956	836.25
562.168	810.25
562.381	800.25
562.593	802.25
562.805	800.25
563.017	807.25
563.229	802.25
563.441	844.25
563.653	784.25
563.865	808.25
564.077	760.25
564.289	773.25
564.501	781.25
564.713	808.25
564.925	839.25
565.137	911.25
565.349	830.25
565.561	796.25
565.773	818.25
565.985	803.25
566.197	858.25
566.408	919.25
566.62	928.25
566.832	906.25
567.044	904.25
567.255	886.25
567.467	907.25
567.679	946.25
567.891	936.25
568.102	898.25
568.314	840.25
568.526	814.25
568.737	772.25
568.949	726.25
569.161	722.25
569.372	725.25
569.584	667.25
569.795	674.25
570.007	683.25
570.218	650.25
570.43	655.25
570.641	660.25
570.853	675.25
571.064	680.25
571.276	673.25
571.487	675.25
571.698	640.25
571.91	613.25
572.121	622.25
572.333	617.25
572.544	632.25
572.755	634.25
572.966	581.25
573.178	585.25
573.389	582.25
573.6	604.25
573.811	648.25
574.023	588.25
574.234	606.25
574.445	563.25
574.656	552.25
574.867	558.25
575.078	583.25
575.289	590.25
575.501	560.25
575.712	540.25
575.923	562.25
576.134	601.25
576.345	555.25
576.556	545.25
576.767	554.25
576.978	551.25
577.188	516.25
577.399	544.25
577.61	530.25
577.821	522.25
578.032	517.25
578.243	516.25
578.454	518.25
578.665	498.25
578.875	499.25
579.086	483.25
579.297	509.25
579.508	524.25
579.718	503.25
579.929	510.25
580.14	494.25
580.35	503.25
580.561	530.25
580.772	566.25
580.982	517.25
581.193	498.25
581.403	495.25
581.614	496.25
581.825	487.25
582.035	482.25
582.246	504.25
582.456	512.25
582.667	480.25
582.877	491.25
583.087	478.25
583.298	480.25
583.508	488.25
583.719	480.25
583.929	464.25
584.139	474.25
584.35	457.25
584.56	467.25
584.77	475.25
584.981	475.25
585.191	486.25
585.401	489.25
585.611	467.25
585.821	464.25
586.032	450.25
586.242	446.25
586.452	443.25
586.662	455.25
586.872	444.25
587.082	444.25
587.292	472.25
587.502	466.25
587.713	485.25
587.923	446.25
588.133	458.25
588.343	489.25
588.553	437.25
588.762	440.25
588.972	433.25
589.182	483.25
589.392	457.25
589.602	466.25
589.812	463.25
590.022	447.25
590.232	455.25
590.441	470.25
590.651	439.25
590.861	452.25
591.071	436.25
591.281	442.25
591.49	442.25
591.7	439.25
591.91	441.25
592.119	450.25
592.329	464.25
592.539	448.25
592.748	460.25
592.958	481.25
593.167	463.25
593.377	470.25
593.587	479.25
593.796	476.25
594.006	473.25
594.215	469.25
594.424	487.25
594.634	474.25
594.843	469.25
595.053	502.25
595.262	444.25
595.472	448.25
595.681	439.25
595.89	450.25
596.1	450.25
596.309	444.25
596.518	412.25
596.727	466.25
596.937	436.25
597.146	427.25
597.355	430.25
597.564	442.25
597.774	409.25
597.983	407.25
598.192	400.25
598.401	404.25
598.61	385.25
598.819	395.25
599.028	393.25
599.237	403.25
599.446	402.25
599.655	361.25
599.864	388.25
600.073	386.25
600.282	397.25
600.491	396.25
600.7	376.25
600.909	390.25
601.118	390.25
601.327	414.25
601.536	406.25
601.745	414.25
601.953	412.25
602.162	410.25
602.371	413.25
602.58	428.25
602.789	415.25
602.997	421.25
603.206	431.25
603.415	424.25
603.623	405.25
603.832	411.25
604.041	379.25
604.249	385.25
604.458	379.25
604.666	379.25
604.875	391.25
605.084	389.25
605.292	416.25
605.501	416.25
605.709	405.25
605.918	404.25
606.126	397.25
606.334	400.25
606.543	404.25
606.751	414.25
606.96	415.25
607.168	397.25
607.376	410.25
607.585	411.25
607.793	407.25
608.001	400.25
608.21	401.25
608.418	412.25
608.626	420.25
608.834	379.25
609.043	413.25
609.251	416.25
609.459	398.25
609.667	417.25
609.875	411.25
610.083	426.25
610.291	416.25
610.499	398.25
610.707	393.25
610.916	424.25
611.124	402.25
611.332	395.25
611.54	412.25
611.748	406.25
611.955	418.25
612.163	402.25
612.371	388.25
612.579	384.25
612.787	408.25
612.995	395.25
613.203	391.25
613.411	391.25
613.618	392.25
613.826	389.25
614.034	412.25
614.242	408.25
614.449	380.25
614.657	396.25
614.865	387.25
615.072	384.25
615.28	402.25
615.488	396.25
615.695	408.25
615.903	406.25
616.111	395.25
616.318	392.25
616.526	386.25
616.733	393.25
616.941	382.25
617.148	382.25
617.356	375.25
617.563	390.25
617.771	389.25
617.978	377.25
618.185	366.25
618.393	369.25
618.6	371.25
618.807	369.25
619.015	375.25
619.222	371.25
619.429	366.25
619.637	343.25
619.844	351.25
620.051	347.25
620.258	360.25
620.466	358.25
620.673	383.25
620.88	360.25
621.087	344.25
621.294	360.25
621.501	357.25
621.708	368.25
621.915	348.25
622.122	362.25
622.329	349.25
622.536	354.25
622.743	372.25
622.95	342.25
623.157	347.25
623.364	338.25
623.571	353.25
623.778	345.25
623.985	357.25
624.192	356.25
624.399	354.25
624.606	349.25
624.812	339.25
625.019	344.25
625.226	319.25
625.433	333.25
625.639	315.25
625.846	324.25
626.053	308.25
626.259	302.25
626.466	302.25
626.673	315.25
626.879	288.25
627.086	298.25
627.293	315.25
627.499	308.25
627.706	318.25
627.912	336.25
628.119	335.25
628.325	325.25
628.532	338.25
628.738	340.25
628.945	315.25
629.151	313.25
629.357	309.25
629.564	312.25
629.77	338.25
629.976	315.25
630.183	302.25
630.389	310.25
630.595	319.25
630.802	305.25
631.008	288.25
631.214	301.25
631.42	310.25
631.627	290.25
631.833	279.25
632.039	281.25
632.245	288.25
632.451	299.25
632.657	291.25
632.863	302.25
633.069	294.25
633.275	278.25
633.481	295.25
633.688	286.25
633.893	291.25
634.099	305.25
634.305	274.25
634.511	258.25
634.717	263.25
634.923	255.25
635.129	287.25
635.335	270.25
635.541	267.25
635.747	286.25
635.952	275.25
636.158	286.25
636.364	286.25
636.57	299.25
636.775	306.25
636.981	291.25
637.187	286.25
637.392	302.25
637.598	275.25
637.804	275.25
638.009	274.25
638.215	276.25
638.421	275.25
638.626	281.25
638.832	274.25
639.037	268.25
639.243	269.25
639.448	259.25
639.654	259.25
639.859	261.25
640.065	295.25
640.27	274.25
640.475	268.25
640.681	275.25
640.886	270.25
641.091	262.25
641.297	260.25
641.502	267.25
641.707	265.25
641.913	268.25
642.118	287.25
642.323	266.25
642.528	258.25
642.733	259.25
642.939	260.25
643.144	257.25
643.349	255.25
643.554	260.25
643.759	262.25
643.964	268.25
644.169	288.25
644.374	270.25
644.579	277.25
644.784	257.25
644.989	258.25
645.194	241.25
645.399	242.25
645.604	267.25
645.809	275.25
646.014	280.25
646.219	266.25
646.423	252.25
646.628	258.25
646.833	254.25
647.038	254.25
647.243	235.25
647.447	231.25
647.652	261.25
647.857	257.25
648.062	265.25
648.266	257.25
648.471	258.25
648.676	267.25
648.88	254.25
649.085	259.25
649.289	260.25
649.494	262.25
649.698	261.25
649.903	247.25
650.107	272.25
650.312	258.25
650.516	230.25
650.721	250.25
650.925	259.25
651.13	253.25
651.334	244.25
651.539	247.25
651.743	241.25
651.947	242.25
652.152	231.25
652.356	228.25
652.56	224.25
652.764	220.25
652.969	242.25
653.173	223.25
653.377	226.25
653.581	234.25
653.785	224.25
653.99	233.25
654.194	216.25
654.398	218.25
654.602	213.25
654.806	211.25
655.01	221.25
655.214	222.25
655.418	228.25
655.622	217.25
655.826	225.25
656.03	224.25
656.234	222.25
656.438	262.25
656.642	274.25
656.846	241.25
657.049	245.25
657.253	229.25
657.457	204.25
657.661	204.25
657.865	172.25
658.068	186.25
658.272	159.25
658.476	182.25
658.68	176.25
658.883	161.25
659.087	152.25
659.291	146.25
659.494	146.25
659.698	132.25
659.901	148.25
660.105	132.25
660.309	123.25
660.512	111.25
660.716	101.25
660.919	114.25
661.123	114.25
661.326	121.25
661.53	107.25
661.733	116.25
661.936	116.25
662.14	106.25
662.343	103.25
662.546	114.25
662.75	87.25
662.953	92.25
663.156	84.25
663.36	91.25
663.563	90.25
663.766	87.25
663.969	96.25
664.173	88.25
664.376	94.25
664.579	88.25
664.782	86.25
664.985	74.25
665.188	80.25
665.391	90.25
665.594	80.25
665.797	91.25
666	93.25
666.203	92.25
666.406	67.25
666.609	84.25
666.812	76.25
667.015	84.25
667.218	83.25
667.421	76.25
667.624	85.25
667.827	83.25
668.03	73.25
668.232	69.25
668.435	80.25
668.638	87.25
668.841	94.25
669.043	87.25
669.246	75.25
669.449	62.25
669.651	74.25
669.854	76.25
670.057	84.25
670.259	86.25
670.462	92.25
670.665	82.25
670.867	88.25
671.07	77.25
671.272	96.25
671.475	74.25
671.677	74.25
671.88	85.25
672.082	66.25
672.284	86.25
672.487	78.25
672.689	78.25
672.892	67.25
