Data from WStandard_LampEnergy10_LIBS07252019.E.O._I.C._HRD10591_15-55-33-928.txt Node
Date: Thu Jul 25 15:55:33 EDT 2019
User: cochatt
Spectrometer: HR+D1059
Trigger mode: 1
Integration Time (sec): 1.000000E-1
Scans to average: 1
Electric dark correction enabled: true
Nonlinearity correction enabled: false
Boxcar width: 0
XAxis mode: Wavelengths
Number of Pixels in Spectrum: 2048
>>>>>Begin Spectral Data<<<<<
223.165	-5.44
223.4	-5.44
223.635	-5.44
223.869	-16.44
224.104	-19.44
224.338	-7.44
224.573	-1.44
224.808	-13.44
225.042	-15.44
225.277	-9.44
225.511	-6.44
225.746	-1.44
225.98	5.56
226.215	5.56
226.449	10.56
226.683	23.56
226.918	18.56
227.152	32.56
227.387	28.56
227.621	33.56
227.856	25.56
228.09	37.56
228.324	37.56
228.559	66.56
228.793	74.56
229.027	110.56
229.262	134.56
229.496	131.56
229.73	127.56
229.964	154.56
230.199	149.56
230.433	151.56
230.667	172.56
230.901	188.56
231.136	157.56
231.37	164.56
231.604	149.56
231.838	186.56
232.072	181.56
232.306	170.56
232.541	176.56
232.775	190.56
233.009	220.56
233.243	202.56
233.477	188.56
233.711	184.56
233.945	210.56
234.179	179.56
234.413	201.56
234.647	216.56
234.881	190.56
235.115	207.56
235.349	195.56
235.583	200.56
235.817	183.56
236.051	185.56
236.285	185.56
236.519	210.56
236.753	211.56
236.987	211.56
237.221	223.56
237.455	227.56
237.689	213.56
237.922	213.56
238.156	215.56
238.39	221.56
238.624	225.56
238.858	237.56
239.091	253.56
239.325	258.56
239.559	279.56
239.793	296.56
240.027	320.56
240.26	288.56
240.494	232.56
240.728	223.56
240.961	241.56
241.195	225.56
241.429	255.56
241.662	261.56
241.896	240.56
242.13	245.56
242.363	264.56
242.597	271.56
242.83	264.56
243.064	275.56
243.298	260.56
243.531	266.56
243.765	276.56
243.998	273.56
244.232	245.56
244.465	249.56
244.699	250.56
244.932	262.56
245.166	289.56
245.399	299.56
245.633	262.56
245.866	252.56
246.099	266.56
246.333	274.56
246.566	290.56
246.8	312.56
247.033	336.56
247.266	305.56
247.5	293.56
247.733	287.56
247.966	330.56
248.2	364.56
248.433	336.56
248.666	351.56
248.899	389.56
249.133	431.56
249.366	481.56
249.599	378.56
249.832	342.56
250.066	349.56
250.299	364.56
250.532	326.56
250.765	336.56
250.998	316.56
251.231	333.56
251.465	324.56
251.698	334.56
251.931	347.56
252.164	345.56
252.397	343.56
252.63	371.56
252.863	323.56
253.096	333.56
253.329	335.56
253.562	352.56
253.795	368.56
254.028	344.56
254.261	357.56
254.494	337.56
254.727	327.56
254.96	332.56
255.193	378.56
255.426	400.56
255.659	440.56
255.892	428.56
256.124	369.56
256.357	371.56
256.59	396.56
256.823	374.56
257.056	387.56
257.289	489.56
257.521	489.56
257.754	452.56
257.987	419.56
258.22	460.56
258.452	431.56
258.685	380.56
258.918	380.56
259.151	382.56
259.383	360.56
259.616	336.56
259.849	355.56
260.081	383.56
260.314	408.56
260.547	464.56
260.779	461.56
261.012	447.56
261.244	395.56
261.477	383.56
261.71	396.56
261.942	392.56
262.175	388.56
262.407	395.56
262.64	391.56
262.872	368.56
263.105	355.56
263.337	374.56
263.57	363.56
263.802	344.56
264.035	332.56
264.267	325.56
264.499	333.56
264.732	351.56
264.964	377.56
265.197	384.56
265.429	404.56
265.661	438.56
265.894	484.56
266.126	475.56
266.358	425.56
266.591	449.56
266.823	482.56
267.055	468.56
267.287	433.56
267.52	419.56
267.752	430.56
267.984	432.56
268.216	455.56
268.448	460.56
268.681	448.56
268.913	407.56
269.145	388.56
269.377	391.56
269.609	453.56
269.841	508.56
270.073	558.56
270.306	610.56
270.538	592.56
270.77	519.56
271.002	476.56
271.234	470.56
271.466	464.56
271.698	501.56
271.93	563.56
272.162	585.56
272.394	543.56
272.626	486.56
272.858	453.56
273.09	412.56
273.322	381.56
273.553	386.56
273.785	408.56
274.017	408.56
274.249	430.56
274.481	423.56
274.713	407.56
274.945	405.56
275.176	402.56
275.408	382.56
275.64	398.56
275.872	395.56
276.104	433.56
276.335	483.56
276.567	517.56
276.799	504.56
277.031	464.56
277.262	467.56
277.494	495.56
277.726	508.56
277.957	483.56
278.189	443.56
278.421	423.56
278.652	431.56
278.884	418.56
279.115	413.56
279.347	414.56
279.579	439.56
279.81	412.56
280.042	444.56
280.273	510.56
280.505	512.56
280.736	501.56
280.968	476.56
281.199	425.56
281.431	413.56
281.662	404.56
281.894	415.56
282.125	412.56
282.356	428.56
282.588	457.56
282.819	456.56
283.051	463.56
283.282	530.56
283.513	481.56
283.745	430.56
283.976	406.56
284.207	415.56
284.439	438.56
284.67	437.56
284.901	461.56
285.132	452.56
285.364	445.56
285.595	445.56
285.826	431.56
286.057	420.56
286.288	450.56
286.52	456.56
286.751	483.56
286.982	497.56
287.213	449.56
287.444	430.56
287.675	425.56
287.906	438.56
288.138	454.56
288.369	469.56
288.6	416.56
288.831	426.56
289.062	434.56
289.293	432.56
289.524	444.56
289.755	453.56
289.986	446.56
290.217	422.56
290.448	441.56
290.679	464.56
290.91	464.56
291.141	465.56
291.371	473.56
291.602	455.56
291.833	445.56
292.064	469.56
292.295	471.56
292.526	499.56
292.757	487.56
292.987	504.56
293.218	463.56
293.449	514.56
293.68	559.56
293.91	588.56
294.141	543.56
294.372	528.56
294.603	537.56
294.833	549.56
295.064	521.56
295.295	506.56
295.525	469.56
295.756	462.56
295.987	422.56
296.217	430.56
296.448	446.56
296.679	434.56
296.909	454.56
297.14	455.56
297.37	474.56
297.601	494.56
297.831	510.56
298.062	485.56
298.292	479.56
298.523	466.56
298.753	469.56
298.984	470.56
299.214	472.56
299.445	464.56
299.675	489.56
299.905	510.56
300.136	452.56
300.366	457.56
300.597	444.56
300.827	467.56
301.057	476.56
301.288	514.56
301.518	495.56
301.748	486.56
301.979	524.56
302.209	535.56
302.439	569.56
302.669	566.56
302.9	507.56
303.13	468.56
303.36	481.56
303.59	518.56
303.82	505.56
304.051	515.56
304.281	520.56
304.511	513.56
304.741	561.56
304.971	604.56
305.201	606.56
305.431	569.56
305.661	467.56
305.891	438.56
306.121	452.56
306.352	465.56
306.582	508.56
306.812	519.56
307.042	532.56
307.272	548.56
307.502	591.56
307.731	613.56
307.961	609.56
308.191	572.56
308.421	508.56
308.651	487.56
308.881	498.56
309.111	491.56
309.341	475.56
309.571	462.56
309.8	483.56
310.03	483.56
310.26	492.56
310.49	489.56
310.72	507.56
310.949	506.56
311.179	520.56
311.409	500.56
311.639	497.56
311.868	499.56
312.098	482.56
312.328	486.56
312.557	468.56
312.787	516.56
313.017	513.56
313.246	495.56
313.476	522.56
313.706	508.56
313.935	517.56
314.165	519.56
314.394	547.56
314.624	577.56
314.853	614.56
315.083	612.56
315.312	604.56
315.542	562.56
315.771	528.56
316.001	530.56
316.23	575.56
316.46	530.56
316.689	535.56
316.919	527.56
317.148	508.56
317.377	533.56
317.607	570.56
317.836	606.56
318.065	634.56
318.295	607.56
318.524	578.56
318.753	556.56
318.983	545.56
319.212	524.56
319.441	543.56
319.67	554.56
319.9	583.56
320.129	593.56
320.358	596.56
320.587	585.56
320.816	604.56
321.046	585.56
321.275	574.56
321.504	618.56
321.733	613.56
321.962	565.56
322.191	541.56
322.42	533.56
322.649	531.56
322.878	551.56
323.108	552.56
323.337	561.56
323.566	591.56
323.795	548.56
324.024	553.56
324.253	547.56
324.482	573.56
324.71	513.56
324.939	509.56
325.168	526.56
325.397	548.56
325.626	552.56
325.855	570.56
326.084	539.56
326.313	557.56
326.542	557.56
326.77	564.56
326.999	590.56
327.228	545.56
327.457	532.56
327.686	536.56
327.914	542.56
328.143	533.56
328.372	569.56
328.6	532.56
328.829	543.56
329.058	509.56
329.287	522.56
329.515	561.56
329.744	590.56
329.972	580.56
330.201	630.56
330.43	593.56
330.658	584.56
330.887	600.56
331.115	556.56
331.344	583.56
331.572	593.56
331.801	567.56
332.03	564.56
332.258	584.56
332.486	587.56
332.715	593.56
332.943	564.56
333.172	580.56
333.4	566.56
333.629	601.56
333.857	669.56
334.085	724.56
334.314	804.56
334.542	829.56
334.771	753.56
334.999	692.56
335.227	634.56
335.455	620.56
335.684	613.56
335.912	628.56
336.14	654.56
336.369	614.56
336.597	593.56
336.825	576.56
337.053	613.56
337.281	653.56
337.51	694.56
337.738	684.56
337.966	633.56
338.194	607.56
338.422	601.56
338.65	580.56
338.878	589.56
339.106	544.56
339.334	527.56
339.562	537.56
339.79	576.56
340.018	585.56
340.246	620.56
340.474	616.56
340.702	627.56
340.93	603.56
341.158	604.56
341.386	599.56
341.614	583.56
341.842	592.56
342.07	610.56
342.298	593.56
342.526	599.56
342.754	586.56
342.981	577.56
343.209	588.56
343.437	586.56
343.665	600.56
343.893	613.56
344.12	642.56
344.348	612.56
344.576	574.56
344.804	585.56
345.031	571.56
345.259	563.56
345.487	577.56
345.714	537.56
345.942	556.56
346.17	570.56
346.397	558.56
346.625	549.56
346.853	533.56
347.08	531.56
347.308	558.56
347.535	564.56
347.763	572.56
347.99	548.56
348.218	535.56
348.445	562.56
348.673	561.56
348.9	576.56
349.128	583.56
349.355	607.56
349.583	595.56
349.81	559.56
350.037	530.56
350.265	526.56
350.492	537.56
350.72	553.56
350.947	553.56
351.174	550.56
351.402	549.56
351.629	527.56
351.856	525.56
352.083	504.56
352.311	527.56
352.538	548.56
352.765	573.56
352.992	568.56
353.22	535.56
353.447	530.56
353.674	538.56
353.901	543.56
354.128	535.56
354.355	545.56
354.583	565.56
354.81	583.56
355.037	572.56
355.264	544.56
355.491	548.56
355.718	541.56
355.945	544.56
356.172	517.56
356.399	512.56
356.626	548.56
356.853	585.56
357.08	632.56
357.307	678.56
357.534	631.56
357.761	553.56
357.988	515.56
358.215	540.56
358.441	530.56
358.668	550.56
358.895	552.56
359.122	601.56
359.349	623.56
359.576	597.56
359.802	543.56
360.029	528.56
360.256	555.56
360.483	550.56
360.709	560.56
360.936	600.56
361.163	641.56
361.39	678.56
361.616	700.56
361.843	681.56
362.07	630.56
362.296	585.56
362.523	557.56
362.749	563.56
362.976	568.56
363.203	573.56
363.429	564.56
363.656	542.56
363.882	593.56
364.109	622.56
364.335	651.56
364.562	593.56
364.788	596.56
365.015	545.56
365.241	560.56
365.468	572.56
365.694	582.56
365.92	591.56
366.147	592.56
366.373	563.56
366.599	544.56
366.826	533.56
367.052	542.56
367.278	597.56
367.505	574.56
367.731	613.56
367.957	613.56
368.184	628.56
368.41	658.56
368.636	663.56
368.862	659.56
369.089	637.56
369.315	609.56
369.541	633.56
369.767	584.56
369.993	576.56
370.219	606.56
370.445	624.56
370.672	650.56
370.898	654.56
371.124	666.56
371.35	629.56
371.576	641.56
371.802	636.56
372.028	614.56
372.254	597.56
372.48	593.56
372.706	574.56
372.932	585.56
373.158	597.56
373.384	592.56
373.61	633.56
373.835	652.56
374.061	628.56
374.287	606.56
374.513	632.56
374.739	616.56
374.965	636.56
375.191	634.56
375.416	644.56
375.642	654.56
375.868	695.56
376.094	705.56
376.319	645.56
376.545	631.56
376.771	654.56
376.997	692.56
377.222	662.56
377.448	659.56
377.674	650.56
377.899	689.56
378.125	688.56
378.35	687.56
378.576	601.56
378.802	635.56
379.027	600.56
379.253	633.56
379.478	638.56
379.704	627.56
379.929	623.56
380.155	629.56
380.38	653.56
380.606	624.56
380.831	667.56
381.057	681.56
381.282	696.56
381.507	675.56
381.733	745.56
381.958	727.56
382.184	666.56
382.409	651.56
382.634	661.56
382.86	644.56
383.085	649.56
383.31	711.56
383.535	777.56
383.761	750.56
383.986	750.56
384.211	701.56
384.436	725.56
384.662	772.56
384.887	762.56
385.112	731.56
385.337	726.56
385.562	712.56
385.787	742.56
386.013	749.56
386.238	701.56
386.463	750.56
386.688	804.56
386.913	841.56
387.138	810.56
387.363	773.56
387.588	727.56
387.813	747.56
388.038	770.56
388.263	771.56
388.488	744.56
388.713	712.56
388.938	720.56
389.163	748.56
389.387	737.56
389.612	714.56
389.837	733.56
390.062	754.56
390.287	752.56
390.512	733.56
390.736	734.56
390.961	725.56
391.186	704.56
391.411	728.56
391.636	718.56
391.86	718.56
392.085	745.56
392.31	741.56
392.534	752.56
392.759	766.56
392.984	735.56
393.208	770.56
393.433	778.56
393.658	801.56
393.882	809.56
394.107	768.56
394.331	730.56
394.556	731.56
394.78	772.56
395.005	804.56
395.229	850.56
395.454	879.56
395.678	847.56
395.903	820.56
396.127	802.56
396.352	808.56
396.576	826.56
396.801	840.56
397.025	839.56
397.249	807.56
397.474	833.56
397.698	826.56
397.922	838.56
398.147	914.56
398.371	876.56
398.595	891.56
398.82	848.56
399.044	876.56
399.268	905.56
399.492	941.56
399.717	968.56
399.941	976.56
400.165	986.56
400.389	949.56
400.613	968.56
400.837	1105.56
401.062	1137.56
401.286	998.56
401.51	966.56
401.734	956.56
401.958	926.56
402.182	893.56
402.406	838.56
402.63	828.56
402.854	862.56
403.078	924.56
403.302	888.56
403.526	895.56
403.75	913.56
403.974	900.56
404.198	928.56
404.422	985.56
404.645	997.56
404.869	934.56
405.093	898.56
405.317	875.56
405.541	887.56
405.765	880.56
405.988	921.56
406.212	924.56
406.436	976.56
406.66	996.56
406.883	984.56
407.107	1117.56
407.331	1221.56
407.555	1264.56
407.778	1106.56
408.002	945.56
408.226	922.56
408.449	965.56
408.673	946.56
408.896	956.56
409.12	954.56
409.344	932.56
409.567	921.56
409.791	932.56
410.014	977.56
410.238	1004.56
410.461	1042.56
410.685	943.56
410.908	910.56
411.132	957.56
411.355	903.56
411.578	921.56
411.802	914.56
412.025	917.56
412.249	912.56
412.472	883.56
412.695	892.56
412.919	903.56
413.142	886.56
413.365	932.56
413.589	924.56
413.812	974.56
414.035	960.56
414.258	929.56
414.482	901.56
414.705	925.56
414.928	898.56
415.151	909.56
415.374	908.56
415.597	928.56
415.821	929.56
416.044	916.56
416.267	937.56
416.49	869.56
416.713	897.56
416.936	928.56
417.159	965.56
417.382	966.56
417.605	902.56
417.828	931.56
418.051	936.56
418.274	918.56
418.497	905.56
418.72	936.56
418.943	920.56
419.166	963.56
419.389	962.56
419.611	940.56
419.834	938.56
420.057	945.56
420.28	932.56
420.503	937.56
420.726	948.56
420.948	911.56
421.171	907.56
421.394	926.56
421.617	968.56
421.839	976.56
422.062	942.56
422.285	944.56
422.507	908.56
422.73	866.56
422.953	873.56
423.175	895.56
423.398	918.56
423.621	907.56
423.843	926.56
424.066	971.56
424.288	988.56
424.511	1034.56
424.733	974.56
424.956	934.56
425.178	931.56
425.401	911.56
425.623	950.56
425.846	920.56
426.068	972.56
426.291	956.56
426.513	928.56
426.735	932.56
426.958	1027.56
427.18	1072.56
427.402	973.56
427.625	999.56
427.847	953.56
428.069	933.56
428.292	890.56
428.514	891.56
428.736	880.56
428.958	889.56
429.181	902.56
429.403	1072.56
429.625	1211.56
429.847	1044.56
430.069	942.56
430.292	1027.56
430.514	1002.56
430.736	965.56
430.958	965.56
431.18	920.56
431.402	878.56
431.624	851.56
431.846	794.56
432.068	718.56
432.29	732.56
432.512	772.56
432.734	871.56
432.956	915.56
433.178	942.56
433.4	971.56
433.622	904.56
433.844	896.56
434.066	836.56
434.287	774.56
434.509	783.56
434.731	809.56
434.953	874.56
435.175	910.56
435.397	906.56
435.618	870.56
435.84	850.56
436.062	832.56
436.284	857.56
436.505	906.56
436.727	909.56
436.949	896.56
437.17	877.56
437.392	890.56
437.614	858.56
437.835	809.56
438.057	796.56
438.278	836.56
438.5	834.56
438.721	878.56
438.943	888.56
439.165	922.56
439.386	906.56
439.608	931.56
439.829	915.56
440.05	949.56
440.272	947.56
440.493	960.56
440.715	948.56
440.936	986.56
441.158	1052.56
441.379	1026.56
441.6	998.56
441.822	1010.56
442.043	997.56
442.264	994.56
442.486	961.56
442.707	940.56
442.928	952.56
443.149	997.56
443.371	1006.56
443.592	1015.56
443.813	1016.56
444.034	998.56
444.255	1038.56
444.476	986.56
444.698	1032.56
444.919	1013.56
445.14	1102.56
445.361	1073.56
445.582	1050.56
445.803	1024.56
446.024	999.56
446.245	1070.56
446.466	1033.56
446.687	1033.56
446.908	1038.56
447.129	983.56
447.35	998.56
447.571	991.56
447.792	974.56
448.013	941.56
448.234	965.56
448.455	973.56
448.675	978.56
448.896	900.56
449.117	885.56
449.338	917.56
449.559	953.56
449.779	920.56
450	989.56
450.221	1028.56
450.442	1019.56
450.662	897.56
450.883	875.56
451.104	892.56
451.324	861.56
451.545	876.56
451.766	846.56
451.986	823.56
452.207	827.56
452.428	782.56
452.648	760.56
452.869	781.56
453.089	787.56
453.31	767.56
453.53	729.56
453.751	717.56
453.971	661.56
454.192	728.56
454.412	748.56
454.633	767.56
454.853	757.56
455.073	757.56
455.294	769.56
455.514	751.56
455.734	769.56
455.955	768.56
456.175	741.56
456.395	711.56
456.616	713.56
456.836	721.56
457.056	718.56
457.276	700.56
457.497	700.56
457.717	692.56
457.937	707.56
458.157	701.56
458.377	708.56
458.598	663.56
458.818	676.56
459.038	692.56
459.258	688.56
459.478	726.56
459.698	670.56
459.918	732.56
460.138	793.56
460.358	803.56
460.578	825.56
460.798	830.56
461.018	880.56
461.238	859.56
461.458	854.56
461.678	839.56
461.898	823.56
462.118	810.56
462.338	822.56
462.558	836.56
462.777	831.56
462.997	864.56
463.217	873.56
463.437	857.56
463.657	878.56
463.876	846.56
464.096	849.56
464.316	833.56
464.536	877.56
464.755	856.56
464.975	862.56
465.195	879.56
465.414	870.56
465.634	873.56
465.854	840.56
466.073	962.56
466.293	896.56
466.512	834.56
466.732	883.56
466.951	883.56
467.171	916.56
467.391	877.56
467.61	877.56
467.829	869.56
468.049	944.56
468.268	1030.56
468.488	977.56
468.707	921.56
468.927	867.56
469.146	872.56
469.365	890.56
469.585	934.56
469.804	907.56
470.023	924.56
470.243	942.56
470.462	960.56
470.681	924.56
470.901	915.56
471.12	912.56
471.339	947.56
471.558	889.56
471.777	893.56
471.997	883.56
472.216	814.56
472.435	761.56
472.654	748.56
472.873	786.56
473.092	821.56
473.311	818.56
473.53	816.56
473.749	823.56
473.968	835.56
474.187	836.56
474.406	855.56
474.625	828.56
474.844	871.56
475.063	865.56
475.282	854.56
475.501	794.56
475.72	816.56
475.939	911.56
476.158	871.56
476.377	837.56
476.596	846.56
476.814	859.56
477.033	815.56
477.252	843.56
477.471	888.56
477.69	924.56
477.908	921.56
478.127	952.56
478.346	1000.56
478.564	1006.56
478.783	989.56
479.002	1013.56
479.22	987.56
479.439	974.56
479.658	1045.56
479.876	969.56
480.095	886.56
480.313	880.56
480.532	865.56
480.751	880.56
480.969	836.56
481.188	788.56
481.406	786.56
481.624	758.56
481.843	767.56
482.061	828.56
482.28	880.56
482.498	894.56
482.717	870.56
482.935	880.56
483.153	972.56
483.372	1010.56
483.59	1029.56
483.808	954.56
484.027	905.56
484.245	978.56
484.463	1156.56
484.681	1280.56
484.9	1034.56
485.118	942.56
485.336	903.56
485.554	900.56
485.772	904.56
485.99	860.56
486.209	883.56
486.427	894.56
486.645	924.56
486.863	1000.56
487.081	1037.56
487.299	998.56
487.517	1004.56
487.735	1101.56
487.953	1200.56
488.171	1169.56
488.389	1090.56
488.607	1101.56
488.825	1104.56
489.043	1056.56
489.261	964.56
489.479	1015.56
489.696	1058.56
489.914	1023.56
490.132	1009.56
490.35	1091.56
490.568	1125.56
490.786	1173.56
491.003	1153.56
491.221	1244.56
491.439	1265.56
491.657	1282.56
491.874	1332.56
492.092	1393.56
492.31	1452.56
492.527	1444.56
492.745	1360.56
492.963	1308.56
493.18	1298.56
493.398	1324.56
493.615	1319.56
493.833	1265.56
494.05	1222.56
494.268	1238.56
494.485	1221.56
494.703	1186.56
494.92	1216.56
495.138	1216.56
495.355	1235.56
495.573	1228.56
495.79	1274.56
496.008	1281.56
496.225	1220.56
496.442	1241.56
496.66	1225.56
496.877	1214.56
497.094	1223.56
497.312	1235.56
497.529	1210.56
497.746	1198.56
497.963	1257.56
498.181	1285.56
498.398	1200.56
498.615	1199.56
498.832	1152.56
499.049	1129.56
499.267	1145.56
499.484	1249.56
499.701	1339.56
499.918	1335.56
500.135	1453.56
500.352	1521.56
500.569	1558.56
500.786	1671.56
501.003	1519.56
501.22	1419.56
501.437	1363.56
501.654	1397.56
501.871	1298.56
502.088	1182.56
502.305	1220.56
502.522	1144.56
502.739	1088.56
502.956	1061.56
503.172	1032.56
503.389	982.56
503.606	1002.56
503.823	983.56
504.04	992.56
504.256	1000.56
504.473	974.56
504.69	996.56
504.907	968.56
505.123	954.56
505.34	1063.56
505.557	1327.56
505.773	1128.56
505.99	936.56
506.207	881.56
506.423	884.56
506.64	882.56
506.856	894.56
507.073	1014.56
507.289	1075.56
507.506	980.56
507.722	867.56
507.939	877.56
508.155	850.56
508.372	831.56
508.588	793.56
508.805	812.56
509.021	759.56
509.238	764.56
509.454	746.56
509.67	720.56
509.887	737.56
510.103	719.56
510.319	732.56
510.536	751.56
510.752	768.56
510.968	747.56
511.184	793.56
511.401	743.56
511.617	733.56
511.833	706.56
512.049	726.56
512.265	692.56
512.481	701.56
512.698	737.56
512.914	754.56
513.13	706.56
513.346	702.56
513.562	695.56
513.778	713.56
513.994	744.56
514.21	719.56
514.426	764.56
514.642	798.56
514.858	787.56
515.074	716.56
515.29	696.56
515.506	712.56
515.721	726.56
515.937	721.56
516.153	807.56
516.369	763.56
516.585	756.56
516.801	731.56
517.016	735.56
517.232	765.56
517.448	772.56
517.664	810.56
517.879	817.56
518.095	803.56
518.311	776.56
518.527	766.56
518.742	759.56
518.958	738.56
519.173	748.56
519.389	760.56
519.605	800.56
519.82	802.56
520.036	787.56
520.251	782.56
520.467	733.56
520.682	790.56
520.898	780.56
521.113	737.56
521.329	713.56
521.544	764.56
521.76	730.56
521.975	708.56
522.19	709.56
522.406	727.56
522.621	911.56
522.836	863.56
523.052	709.56
523.267	728.56
523.482	762.56
523.698	718.56
523.913	711.56
524.128	783.56
524.343	782.56
524.559	777.56
524.774	770.56
524.989	755.56
525.204	748.56
525.419	726.56
525.634	746.56
525.849	706.56
526.064	706.56
526.28	707.56
526.495	636.56
526.71	657.56
526.925	648.56
527.14	614.56
527.355	606.56
527.57	616.56
527.785	648.56
527.999	650.56
528.214	674.56
528.429	690.56
528.644	715.56
528.859	815.56
529.074	822.56
529.289	864.56
529.503	857.56
529.718	783.56
529.933	724.56
530.148	678.56
530.363	655.56
530.577	630.56
530.792	641.56
531.007	606.56
531.221	593.56
531.436	651.56
531.651	650.56
531.865	673.56
532.08	637.56
532.295	603.56
532.509	575.56
532.724	611.56
532.938	659.56
533.153	713.56
533.367	703.56
533.582	720.56
533.796	701.56
534.011	699.56
534.225	674.56
534.44	619.56
534.654	627.56
534.868	632.56
535.083	674.56
535.297	666.56
535.511	676.56
535.726	697.56
535.94	660.56
536.154	646.56
536.369	610.56
536.583	605.56
536.797	606.56
537.011	607.56
537.225	618.56
537.44	596.56
537.654	629.56
537.868	612.56
538.082	578.56
538.296	598.56
538.51	620.56
538.724	654.56
538.938	703.56
539.153	712.56
539.367	722.56
539.581	695.56
539.795	687.56
540.009	622.56
540.222	643.56
540.436	662.56
540.65	737.56
540.864	768.56
541.078	829.56
541.292	841.56
541.506	855.56
541.72	897.56
541.934	1026.56
542.147	1053.56
542.361	982.56
542.575	894.56
542.789	825.56
543.002	742.56
543.216	707.56
543.43	753.56
543.644	804.56
543.857	847.56
544.071	913.56
544.285	933.56
544.498	914.56
544.712	916.56
544.925	925.56
545.139	952.56
545.352	944.56
545.566	933.56
545.779	899.56
545.993	919.56
546.206	960.56
546.42	921.56
546.633	910.56
546.847	923.56
547.06	946.56
547.274	960.56
547.487	959.56
547.7	974.56
547.914	956.56
548.127	926.56
548.34	943.56
548.554	936.56
548.767	906.56
548.98	908.56
549.193	918.56
549.407	944.56
549.62	940.56
549.833	901.56
550.046	888.56
550.259	904.56
550.473	886.56
550.686	881.56
550.899	836.56
551.112	804.56
551.325	838.56
551.538	824.56
551.751	847.56
551.964	682.56
552.177	707.56
552.39	774.56
552.603	844.56
552.816	855.56
553.029	892.56
553.242	910.56
553.455	920.56
553.667	883.56
553.88	878.56
554.093	866.56
554.306	828.56
554.519	834.56
554.732	807.56
554.944	824.56
555.157	810.56
555.37	808.56
555.583	798.56
555.795	766.56
556.008	721.56
556.221	714.56
556.433	698.56
556.646	706.56
556.859	707.56
557.071	743.56
557.284	751.56
557.496	714.56
557.709	735.56
557.921	721.56
558.134	719.56
558.346	727.56
558.559	735.56
558.771	703.56
558.984	676.56
559.196	690.56
559.409	674.56
559.621	657.56
559.833	625.56
560.046	642.56
560.258	665.56
560.47	660.56
560.683	661.56
560.895	673.56
561.107	668.56
561.32	665.56
561.532	669.56
561.744	666.56
561.956	626.56
562.168	669.56
562.381	660.56
562.593	628.56
562.805	620.56
563.017	623.56
563.229	628.56
563.441	632.56
563.653	616.56
563.865	620.56
564.077	617.56
564.289	596.56
564.501	592.56
564.713	594.56
564.925	629.56
565.137	662.56
565.349	618.56
565.561	597.56
565.773	587.56
565.985	609.56
566.197	644.56
566.408	650.56
566.62	662.56
566.832	700.56
567.044	648.56
567.255	646.56
567.467	615.56
567.679	658.56
567.891	648.56
568.102	600.56
568.314	564.56
568.526	537.56
568.737	504.56
568.949	467.56
569.161	469.56
569.372	461.56
569.584	447.56
569.795	459.56
570.007	463.56
570.218	428.56
570.43	420.56
570.641	442.56
570.853	452.56
571.064	461.56
571.276	472.56
571.487	478.56
571.698	463.56
571.91	458.56
572.121	458.56
572.333	439.56
572.544	433.56
572.755	422.56
572.966	393.56
573.178	397.56
573.389	390.56
573.6	382.56
573.811	424.56
574.023	391.56
574.234	388.56
574.445	390.56
574.656	393.56
574.867	404.56
575.078	385.56
575.289	404.56
575.501	386.56
575.712	392.56
575.923	389.56
576.134	396.56
576.345	389.56
576.556	377.56
576.767	395.56
576.978	400.56
577.188	404.56
577.399	378.56
577.61	364.56
577.821	383.56
578.032	368.56
578.243	362.56
578.454	343.56
578.665	338.56
578.875	357.56
579.086	321.56
579.297	340.56
579.508	353.56
579.718	338.56
579.929	347.56
580.14	325.56
580.35	334.56
580.561	358.56
580.772	395.56
580.982	345.56
581.193	347.56
581.403	322.56
581.614	364.56
581.825	343.56
582.035	336.56
582.246	345.56
582.456	346.56
582.667	333.56
582.877	332.56
583.087	321.56
583.298	330.56
583.508	320.56
583.719	325.56
583.929	332.56
584.139	315.56
584.35	318.56
584.56	314.56
584.77	290.56
584.981	310.56
585.191	335.56
585.401	305.56
585.611	319.56
585.821	321.56
586.032	293.56
586.242	300.56
586.452	308.56
586.662	320.56
586.872	338.56
587.082	319.56
587.292	313.56
587.502	318.56
587.713	326.56
587.923	295.56
588.133	306.56
588.343	299.56
588.553	318.56
588.762	304.56
588.972	298.56
589.182	316.56
589.392	326.56
589.602	324.56
589.812	312.56
590.022	301.56
590.232	314.56
590.441	336.56
590.651	291.56
590.861	318.56
591.071	298.56
591.281	292.56
591.49	287.56
591.7	300.56
591.91	297.56
592.119	316.56
592.329	308.56
592.539	316.56
592.748	329.56
592.958	306.56
593.167	314.56
593.377	321.56
593.587	325.56
593.796	328.56
594.006	329.56
594.215	324.56
594.424	337.56
594.634	337.56
594.843	349.56
595.053	345.56
595.262	334.56
595.472	297.56
595.681	295.56
595.89	321.56
596.1	291.56
596.309	334.56
596.518	319.56
596.727	339.56
596.937	303.56
597.146	324.56
597.355	313.56
597.564	301.56
597.774	297.56
597.983	282.56
598.192	294.56
598.401	268.56
598.61	289.56
598.819	288.56
599.028	307.56
599.237	290.56
599.446	280.56
599.655	278.56
599.864	285.56
600.073	278.56
600.282	296.56
600.491	274.56
600.7	288.56
600.909	290.56
601.118	318.56
601.327	334.56
601.536	337.56
601.745	346.56
601.953	345.56
602.162	357.56
602.371	337.56
602.58	352.56
602.789	356.56
602.997	364.56
603.206	334.56
603.415	334.56
603.623	353.56
603.832	339.56
604.041	334.56
604.249	322.56
604.458	286.56
604.666	297.56
604.875	307.56
605.084	304.56
605.292	321.56
605.501	349.56
605.709	343.56
605.918	349.56
606.126	337.56
606.334	333.56
606.543	360.56
606.751	369.56
606.96	358.56
607.168	348.56
607.376	347.56
607.585	334.56
607.793	333.56
608.001	350.56
608.21	370.56
608.418	354.56
608.626	348.56
608.834	337.56
609.043	353.56
609.251	352.56
609.459	344.56
609.667	366.56
609.875	372.56
610.083	385.56
610.291	368.56
610.499	378.56
610.707	346.56
610.916	360.56
611.124	371.56
611.332	370.56
611.54	366.56
611.748	359.56
611.955	364.56
612.163	350.56
612.371	349.56
612.579	348.56
612.787	351.56
612.995	352.56
613.203	381.56
613.411	348.56
613.618	356.56
613.826	355.56
614.034	341.56
614.242	346.56
614.449	339.56
614.657	339.56
614.865	352.56
615.072	364.56
615.28	353.56
615.488	351.56
615.695	366.56
615.903	337.56
616.111	339.56
616.318	360.56
616.526	349.56
616.733	338.56
616.941	375.56
617.148	358.56
617.356	352.56
617.563	326.56
617.771	335.56
617.978	306.56
618.185	335.56
618.393	323.56
618.6	346.56
618.807	349.56
619.015	356.56
619.222	339.56
619.429	309.56
619.637	317.56
619.844	322.56
620.051	288.56
620.258	298.56
620.466	324.56
620.673	319.56
620.88	315.56
621.087	301.56
621.294	297.56
621.501	303.56
621.708	295.56
621.915	311.56
622.122	326.56
622.329	322.56
622.536	314.56
622.743	308.56
622.95	318.56
623.157	316.56
623.364	329.56
623.571	323.56
623.778	330.56
623.985	326.56
624.192	309.56
624.399	302.56
624.606	303.56
624.812	300.56
625.019	300.56
625.226	295.56
625.433	284.56
625.639	253.56
625.846	253.56
626.053	245.56
626.259	241.56
626.466	223.56
626.673	248.56
626.879	235.56
627.086	244.56
627.293	243.56
627.499	280.56
627.706	308.56
627.912	303.56
628.119	284.56
628.325	281.56
628.532	276.56
628.738	275.56
628.945	279.56
629.151	277.56
629.357	283.56
629.564	254.56
629.77	260.56
629.976	269.56
630.183	252.56
630.389	276.56
630.595	265.56
630.802	287.56
631.008	297.56
631.214	266.56
631.42	262.56
631.627	264.56
631.833	244.56
632.039	251.56
632.245	261.56
632.451	269.56
632.657	266.56
632.863	278.56
633.069	259.56
633.275	250.56
633.481	238.56
633.688	258.56
633.893	255.56
634.099	257.56
634.305	253.56
634.511	246.56
634.717	221.56
634.923	226.56
635.129	222.56
635.335	228.56
635.541	239.56
635.747	231.56
635.952	249.56
636.158	251.56
636.364	255.56
636.57	270.56
636.775	254.56
636.981	246.56
637.187	258.56
637.392	244.56
637.598	261.56
637.804	254.56
638.009	279.56
638.215	237.56
638.421	257.56
638.626	241.56
638.832	261.56
639.037	229.56
639.243	238.56
639.448	228.56
639.654	254.56
639.859	230.56
640.065	244.56
640.27	240.56
640.475	219.56
640.681	230.56
640.886	256.56
641.091	238.56
641.297	252.56
641.502	251.56
641.707	247.56
641.913	236.56
642.118	242.56
642.323	260.56
642.528	246.56
642.733	242.56
642.939	236.56
643.144	233.56
643.349	244.56
643.554	241.56
643.759	260.56
643.964	244.56
644.169	234.56
644.374	238.56
644.579	228.56
644.784	266.56
644.989	231.56
645.194	237.56
645.399	233.56
645.604	222.56
645.809	237.56
646.014	239.56
646.219	246.56
646.423	223.56
646.628	227.56
646.833	233.56
647.038	226.56
647.243	239.56
647.447	242.56
647.652	222.56
647.857	239.56
648.062	232.56
648.266	256.56
648.471	234.56
648.676	234.56
648.88	240.56
649.085	236.56
649.289	240.56
649.494	228.56
649.698	234.56
649.903	235.56
650.107	223.56
650.312	236.56
650.516	198.56
650.721	236.56
650.925	216.56
651.13	225.56
651.334	217.56
651.539	227.56
651.743	210.56
651.947	209.56
652.152	205.56
652.356	199.56
652.56	205.56
652.764	207.56
652.969	201.56
653.173	207.56
653.377	204.56
653.581	203.56
653.785	199.56
653.99	189.56
654.194	218.56
654.398	199.56
654.602	193.56
654.806	192.56
655.01	204.56
655.214	190.56
655.418	196.56
655.622	195.56
655.826	209.56
656.03	223.56
656.234	213.56
656.438	237.56
656.642	233.56
656.846	217.56
657.049	211.56
657.253	201.56
657.457	183.56
657.661	178.56
657.865	172.56
658.068	156.56
658.272	156.56
658.476	147.56
658.68	153.56
658.883	146.56
659.087	137.56
659.291	146.56
659.494	142.56
659.698	145.56
659.901	134.56
660.105	128.56
660.309	109.56
660.512	120.56
660.716	111.56
660.919	118.56
661.123	104.56
661.326	118.56
661.53	108.56
661.733	107.56
661.936	95.56
662.14	108.56
662.343	90.56
662.546	94.56
662.75	83.56
662.953	102.56
663.156	90.56
663.36	89.56
663.563	75.56
663.766	75.56
663.969	70.56
664.173	86.56
664.376	77.56
664.579	89.56
664.782	85.56
664.985	90.56
665.188	79.56
665.391	67.56
665.594	84.56
665.797	89.56
666	76.56
666.203	80.56
666.406	80.56
666.609	83.56
666.812	78.56
667.015	87.56
667.218	89.56
667.421	89.56
667.624	87.56
667.827	73.56
668.03	87.56
668.232	73.56
668.435	74.56
668.638	71.56
668.841	93.56
669.043	78.56
669.246	91.56
669.449	86.56
669.651	78.56
669.854	76.56
670.057	81.56
670.259	72.56
670.462	82.56
670.665	84.56
670.867	76.56
671.07	96.56
671.272	84.56
671.475	84.56
671.677	90.56
671.88	81.56
672.082	68.56
672.284	97.56
672.487	85.56
672.689	86.56
672.892	69.56
